PE IR                   SPECTRUM    ASCII       PEDS        1.60        
  -1
~SP.SP
22/12/06
13:28:55.00
23/01/09
14:46:02.00
Administrator

650.000000
4









FRONTIER FT-IR,CPU32 MAIN 00.09.9951 07-SEPTEMBER-2011 11:49:41
MIR TGS
MIR
OPTKBR
90694
0.200000

4.000000
STRONG
RATIO
SPECTRUM
MAGNITUDE
MIRACLE ATR
DOUBLE

COMBINED


0


#HDR
-1
-1
#GR
CM-1
%T
0.00002384185791015625
0.0
4000.000000
-1.000000
3351
8
102.017022
75.298380
#DATA
4000.000000	101.944843 
3999.000000	101.943841 
3998.000000	101.946958 
3997.000000	101.951667 
3996.000000	101.956019 
3995.000000	101.958979 
3994.000000	101.959669 
3993.000000	101.957614 
3992.000000	101.953656 
3991.000000	101.949848 
3990.000000	101.947843 
3989.000000	101.947471 
3988.000000	101.946979 
3987.000000	101.944525 
3986.000000	101.939420 
3985.000000	101.932555 
3984.000000	101.926318 
3983.000000	101.923665 
3982.000000	101.926496 
3981.000000	101.934242 
3980.000000	101.943465 
3979.000000	101.949868 
3978.000000	101.951456 
3977.000000	101.949397 
3976.000000	101.946552 
3975.000000	101.945236 
3974.000000	101.946204 
3973.000000	101.949080 
3972.000000	101.952751 
3971.000000	101.955633 
3970.000000	101.956569 
3969.000000	101.955868 
3968.000000	101.954933 
3967.000000	101.954510 
3966.000000	101.953648 
3965.000000	101.950821 
3964.000000	101.945839 
3963.000000	101.940265 
3962.000000	101.935919 
3961.000000	101.933586 
3960.000000	101.933350 
3959.000000	101.935387 
3958.000000	101.939819 
3957.000000	101.945864 
3956.000000	101.951633 
3955.000000	101.955178 
3954.000000	101.955783 
3953.000000	101.954159 
3952.000000	101.951627 
3951.000000	101.949002 
3950.000000	101.946001 
3949.000000	101.941723 
3948.000000	101.936055 
3947.000000	101.930648 
3946.000000	101.928082 
3945.000000	101.929768 
3944.000000	101.934734 
3943.000000	101.940384 
3942.000000	101.944650 
3941.000000	101.947314 
3940.000000	101.948987 
3939.000000	101.949528 
3938.000000	101.948063 
3937.000000	101.944346 
3936.000000	101.939565 
3935.000000	101.935714 
3934.000000	101.934196 
3933.000000	101.935043 
3932.000000	101.937178 
3931.000000	101.939330 
3930.000000	101.940940 
3929.000000	101.942288 
3928.000000	101.943886 
3927.000000	101.945740 
3926.000000	101.947084 
3925.000000	101.946893 
3924.000000	101.944842 
3923.000000	101.941731 
3922.000000	101.939095 
3921.000000	101.938085 
3920.000000	101.938766 
3919.000000	101.940267 
3918.000000	101.941466 
3917.000000	101.941853 
3916.000000	101.941617 
3915.000000	101.941106 
3914.000000	101.940468 
3913.000000	101.939782 
3912.000000	101.939279 
3911.000000	101.939288 
3910.000000	101.939955 
3909.000000	101.941070 
3908.000000	101.942147 
3907.000000	101.942696 
3906.000000	101.942519 
3905.000000	101.941863 
3904.000000	101.941334 
3903.000000	101.941479 
3902.000000	101.942454 
3901.000000	101.943915 
3900.000000	101.945135 
3899.000000	101.945444 
3898.000000	101.944639 
3897.000000	101.943159 
3896.000000	101.941925 
3895.000000	101.941903 
3894.000000	101.943650 
3893.000000	101.946806 
3892.000000	101.949803 
3891.000000	101.950982 
3890.000000	101.950090 
3889.000000	101.948072 
3888.000000	101.945697 
3887.000000	101.943220 
3886.000000	101.941011 
3885.000000	101.939562 
3884.000000	101.938875 
3883.000000	101.938408 
3882.000000	101.937787 
3881.000000	101.937249 
3880.000000	101.937156 
3879.000000	101.937422 
3878.000000	101.937623 
3877.000000	101.937298 
3876.000000	101.936346 
3875.000000	101.935199 
3874.000000	101.934387 
3873.000000	101.933936 
3872.000000	101.933463 
3871.000000	101.932624 
3870.000000	101.931217 
3869.000000	101.929175 
3868.000000	101.926698 
3867.000000	101.924258 
3866.000000	101.922573 
3865.000000	101.922214 
3864.000000	101.922766 
3863.000000	101.923031 
3862.000000	101.922494 
3861.000000	101.921873 
3860.000000	101.922021 
3859.000000	101.923025 
3858.000000	101.924348 
3857.000000	101.925355 
3856.000000	101.925771 
3855.000000	101.925991 
3854.000000	101.926919 
3853.000000	101.928650 
3852.000000	101.930218 
3851.000000	101.931088 
3850.000000	101.931238 
3849.000000	101.930717 
3848.000000	101.929749 
3847.000000	101.928817 
3846.000000	101.928612 
3845.000000	101.929632 
3844.000000	101.931557 
3843.000000	101.933119 
3842.000000	101.933011 
3841.000000	101.931018 
3840.000000	101.928513 
3839.000000	101.927595 
3838.000000	101.929077 
3837.000000	101.931660 
3836.000000	101.933264 
3835.000000	101.933141 
3834.000000	101.932063 
3833.000000	101.931288 
3832.000000	101.931593 
3831.000000	101.933075 
3830.000000	101.935544 
3829.000000	101.938672 
3828.000000	101.941672 
3827.000000	101.943415 
3826.000000	101.943407 
3825.000000	101.942471 
3824.000000	101.942051 
3823.000000	101.942859 
3822.000000	101.944099 
3821.000000	101.944045 
3820.000000	101.942486 
3819.000000	101.941856 
3818.000000	101.944629 
3817.000000	101.950627 
3816.000000	101.957061 
3815.000000	101.960768 
3814.000000	101.960299 
3813.000000	101.955756 
3812.000000	101.947958 
3811.000000	101.938417 
3810.000000	101.929230 
3809.000000	101.922533 
3808.000000	101.919832 
3807.000000	101.921152 
3806.000000	101.924700 
3805.000000	101.927982 
3804.000000	101.929079 
3803.000000	101.927614 
3802.000000	101.925098 
3801.000000	101.923406 
3800.000000	101.922911 
3799.000000	101.922575 
3798.000000	101.921299 
3797.000000	101.919158 
3796.000000	101.917363 
3795.000000	101.916769 
3794.000000	101.917007 
3793.000000	101.917181 
3792.000000	101.916878 
3791.000000	101.916419 
3790.000000	101.916313 
3789.000000	101.916617 
3788.000000	101.916834 
3787.000000	101.916352 
3786.000000	101.915105 
3785.000000	101.913883 
3784.000000	101.913749 
3783.000000	101.915104 
3782.000000	101.917282 
3781.000000	101.918962 
3780.000000	101.918837 
3779.000000	101.916195 
3778.000000	101.911461 
3777.000000	101.906375 
3776.000000	101.903134 
3775.000000	101.903141 
3774.000000	101.906241 
3773.000000	101.910586 
3772.000000	101.913557 
3771.000000	101.913783 
3770.000000	101.912232 
3769.000000	101.911038 
3768.000000	101.911216 
3767.000000	101.911920 
3766.000000	101.911938 
3765.000000	101.911512 
3764.000000	101.911945 
3763.000000	101.913175 
3762.000000	101.912798 
3761.000000	101.908385 
3760.000000	101.900337 
3759.000000	101.891925 
3758.000000	101.886356 
3757.000000	101.884274 
3756.000000	101.883755 
3755.000000	101.882219 
3754.000000	101.879198 
3753.000000	101.877305 
3752.000000	101.878921 
3751.000000	101.880721 
3750.000000	101.876006 
3749.000000	101.865291 
3748.000000	101.855959 
3747.000000	101.852051 
3746.000000	101.851809 
3745.000000	101.850664 
3744.000000	101.845285 
3743.000000	101.838504 
3742.000000	101.835624 
3741.000000	101.837834 
3740.000000	101.842495 
3739.000000	101.844996 
3738.000000	101.841196 
3737.000000	101.832066 
3736.000000	101.824753 
3735.000000	101.823978 
3734.000000	101.824489 
3733.000000	101.817086 
3732.000000	101.799295 
3731.000000	101.777929 
3730.000000	101.762699 
3729.000000	101.758384 
3728.000000	101.762429 
3727.000000	101.767111 
3726.000000	101.764688 
3725.000000	101.753138 
3724.000000	101.737211 
3723.000000	101.722940 
3722.000000	101.711333 
3721.000000	101.699697 
3720.000000	101.687677 
3719.000000	101.678543 
3718.000000	101.674343 
3717.000000	101.671619 
3716.000000	101.662876 
3715.000000	101.642396 
3714.000000	101.611805 
3713.000000	101.580191 
3712.000000	101.555737 
3711.000000	101.536062 
3710.000000	101.512114 
3709.000000	101.480572 
3708.000000	101.446673 
3707.000000	101.417635 
3706.000000	101.396199 
3705.000000	101.378644 
3704.000000	101.357559 
3703.000000	101.327883 
3702.000000	101.292222 
3701.000000	101.259498 
3700.000000	101.236300 
3699.000000	101.220598 
3698.000000	101.204917 
3697.000000	101.185414 
3696.000000	101.166340 
3695.000000	101.154757 
3694.000000	101.152311 
3693.000000	101.153156 
3692.000000	101.149192 
3691.000000	101.137706 
3690.000000	101.123900 
3689.000000	101.113673 
3688.000000	101.105468 
3687.000000	101.093374 
3686.000000	101.074484 
3685.000000	101.051006 
3684.000000	101.027823 
3683.000000	101.007540 
3682.000000	100.987690 
3681.000000	100.963060 
3680.000000	100.930751 
3679.000000	100.892346 
3678.000000	100.852796 
3677.000000	100.819074 
3676.000000	100.797130 
3675.000000	100.785609 
3674.000000	100.777245 
3673.000000	100.766672 
3672.000000	100.751330 
3671.000000	100.730209 
3670.000000	100.703998 
3669.000000	100.674722 
3668.000000	100.645984 
3667.000000	100.622306 
3666.000000	100.606378 
3665.000000	100.597194 
3664.000000	100.589244 
3663.000000	100.573881 
3662.000000	100.544900 
3661.000000	100.504051 
3660.000000	100.460497 
3659.000000	100.423893 
3658.000000	100.398917 
3657.000000	100.385063 
3656.000000	100.379164 
3655.000000	100.377418 
3654.000000	100.375210 
3653.000000	100.367184 
3652.000000	100.350899 
3651.000000	100.331642 
3650.000000	100.319938 
3649.000000	100.318895 
3648.000000	100.318394 
3647.000000	100.307877 
3646.000000	100.286750 
3645.000000	100.260788 
3644.000000	100.235665 
3643.000000	100.213980 
3642.000000	100.196348 
3641.000000	100.183816 
3640.000000	100.178449 
3639.000000	100.180493 
3638.000000	100.185223 
3637.000000	100.183881 
3636.000000	100.169394 
3635.000000	100.141688 
3634.000000	100.107068 
3633.000000	100.071905 
3632.000000	100.037636 
3631.000000	100.003252 
3630.000000	99.970729  
3629.000000	99.944194  
3628.000000	99.924553  
3627.000000	99.913600  
3626.000000	99.916452  
3625.000000	99.933915  
3624.000000	99.958806  
3623.000000	99.978781  
3622.000000	99.984933  
3621.000000	99.981557  
3620.000000	99.985283  
3619.000000	100.009338 
3618.000000	100.050154 
3617.000000	100.093746 
3616.000000	100.127927 
3615.000000	100.146918 
3614.000000	100.152020 
3613.000000	100.150648 
3612.000000	100.151870 
3611.000000	100.160923 
3610.000000	100.177783 
3609.000000	100.200143 
3608.000000	100.224944 
3607.000000	100.247458 
3606.000000	100.263650 
3605.000000	100.274876 
3604.000000	100.288358 
3603.000000	100.311691 
3602.000000	100.345504 
3601.000000	100.381387 
3600.000000	100.407666 
3599.000000	100.416983 
3598.000000	100.410223 
3597.000000	100.396155 
3596.000000	100.387426 
3595.000000	100.392594 
3594.000000	100.409278 
3593.000000	100.426688 
3592.000000	100.436066 
3591.000000	100.436111 
3590.000000	100.430333 
3589.000000	100.423207 
3588.000000	100.419389 
3587.000000	100.423200 
3586.000000	100.436819 
3585.000000	100.458485 
3584.000000	100.482551 
3583.000000	100.502299 
3582.000000	100.513139 
3581.000000	100.513224 
3580.000000	100.502924 
3579.000000	100.485091 
3578.000000	100.465298 
3577.000000	100.450093 
3576.000000	100.443717 
3575.000000	100.445809 
3574.000000	100.451846 
3573.000000	100.456318 
3572.000000	100.456281 
3571.000000	100.452770 
3570.000000	100.449237 
3569.000000	100.449048 
3568.000000	100.453396 
3567.000000	100.460205 
3566.000000	100.465996 
3565.000000	100.469686 
3564.000000	100.472823 
3563.000000	100.476978 
3562.000000	100.482401 
3561.000000	100.487783 
3560.000000	100.490735 
3559.000000	100.489432 
3558.000000	100.484375 
3557.000000	100.478296 
3556.000000	100.474088 
3555.000000	100.472598 
3554.000000	100.472052 
3553.000000	100.469469 
3552.000000	100.463119 
3551.000000	100.454352 
3550.000000	100.446840 
3549.000000	100.443896 
3548.000000	100.446219 
3547.000000	100.451708 
3546.000000	100.457286 
3545.000000	100.461341 
3544.000000	100.464266 
3543.000000	100.466746 
3542.000000	100.468371 
3541.000000	100.468292 
3540.000000	100.466706 
3539.000000	100.465189 
3538.000000	100.465475 
3537.000000	100.467933 
3536.000000	100.471182 
3535.000000	100.473456 
3534.000000	100.474259 
3533.000000	100.474311 
3532.000000	100.474132 
3531.000000	100.473461 
3530.000000	100.472131 
3529.000000	100.470720 
3528.000000	100.469858 
3527.000000	100.469414 
3526.000000	100.468930 
3525.000000	100.468300 
3524.000000	100.467306 
3523.000000	100.465069 
3522.000000	100.461326 
3521.000000	100.458288 
3520.000000	100.459732 
3519.000000	100.467509 
3518.000000	100.479319 
3517.000000	100.490170 
3516.000000	100.496500 
3515.000000	100.498114 
3514.000000	100.496598 
3513.000000	100.493093 
3512.000000	100.488274 
3511.000000	100.483885 
3510.000000	100.482747 
3509.000000	100.486347 
3508.000000	100.492833 
3507.000000	100.497989 
3506.000000	100.498625 
3505.000000	100.494879 
3504.000000	100.489454 
3503.000000	100.484701 
3502.000000	100.480570 
3501.000000	100.475287 
3500.000000	100.467627 
3499.000000	100.458483 
3498.000000	100.450677 
3497.000000	100.447232 
3496.000000	100.449262 
3495.000000	100.455051 
3494.000000	100.460985 
3493.000000	100.463928 
3492.000000	100.463247 
3491.000000	100.461040 
3490.000000	100.460569 
3489.000000	100.463845 
3488.000000	100.470157 
3487.000000	100.476672 
3486.000000	100.480799 
3485.000000	100.482091 
3484.000000	100.482002 
3483.000000	100.482281 
3482.000000	100.483476 
3481.000000	100.484719 
3480.000000	100.484800 
3479.000000	100.483539 
3478.000000	100.482108 
3477.000000	100.481846 
3476.000000	100.482781 
3475.000000	100.483457 
3474.000000	100.482336 
3473.000000	100.479112 
3472.000000	100.474643 
3471.000000	100.470037 
3470.000000	100.466320 
3469.000000	100.464608 
3468.000000	100.465738 
3467.000000	100.469245 
3466.000000	100.472895 
3465.000000	100.473760 
3464.000000	100.470064 
3463.000000	100.462333 
3462.000000	100.453338 
3461.000000	100.446686 
3460.000000	100.444775 
3459.000000	100.447696 
3458.000000	100.453616 
3457.000000	100.460029 
3456.000000	100.465108 
3455.000000	100.468428 
3454.000000	100.470699 
3453.000000	100.472848 
3452.000000	100.475114 
3451.000000	100.476821 
3450.000000	100.476947 
3449.000000	100.474902 
3448.000000	100.471056 
3447.000000	100.466914 
3446.000000	100.464568 
3445.000000	100.465259 
3444.000000	100.468239 
3443.000000	100.471237 
3442.000000	100.472507 
3441.000000	100.472285 
3440.000000	100.471904 
3439.000000	100.471726 
3438.000000	100.470520 
3437.000000	100.466935 
3436.000000	100.461169 
3435.000000	100.455314 
3434.000000	100.452003 
3433.000000	100.452374 
3432.000000	100.455281 
3431.000000	100.458206 
3430.000000	100.459571 
3429.000000	100.459934 
3428.000000	100.460693 
3427.000000	100.462143 
3426.000000	100.463241 
3425.000000	100.463082 
3424.000000	100.462015 
3423.000000	100.461236 
3422.000000	100.461652 
3421.000000	100.463256 
3420.000000	100.465243 
3419.000000	100.466549 
3418.000000	100.466484 
3417.000000	100.465077 
3416.000000	100.462981 
3415.000000	100.461058 
3414.000000	100.459982 
3413.000000	100.460062 
3412.000000	100.461151 
3411.000000	100.462589 
3410.000000	100.463507 
3409.000000	100.463457 
3408.000000	100.462720 
3407.000000	100.461944 
3406.000000	100.461500 
3405.000000	100.461368 
3404.000000	100.461623 
3403.000000	100.462719 
3402.000000	100.465001 
3401.000000	100.468034 
3400.000000	100.470601 
3399.000000	100.471614 
3398.000000	100.471008 
3397.000000	100.469763 
3396.000000	100.469015 
3395.000000	100.469008 
3394.000000	100.469093 
3393.000000	100.468590 
3392.000000	100.467530 
3391.000000	100.466543 
3390.000000	100.466132 
3389.000000	100.466198 
3388.000000	100.466261 
3387.000000	100.465999 
3386.000000	100.465518 
3385.000000	100.465069 
3384.000000	100.464632 
3383.000000	100.463931 
3382.000000	100.462870 
3381.000000	100.461739 
3380.000000	100.460924 
3379.000000	100.460529 
3378.000000	100.460353 
3377.000000	100.460114 
3376.000000	100.459621 
3375.000000	100.458801 
3374.000000	100.457686 
3373.000000	100.456408 
3372.000000	100.455119 
3371.000000	100.453915 
3370.000000	100.452795 
3369.000000	100.451706 
3368.000000	100.450607 
3367.000000	100.449488 
3366.000000	100.448341 
3365.000000	100.447152 
3364.000000	100.445921 
3363.000000	100.444664 
3362.000000	100.443398 
3361.000000	100.442132 
3360.000000	100.440866 
3359.000000	100.439594 
3358.000000	100.438312 
3357.000000	100.437020 
3356.000000	100.435723 
3355.000000	100.434426 
3354.000000	100.433137 
3353.000000	100.431862 
3352.000000	100.430600 
3351.000000	100.429336 
3350.000000	100.428053 
3349.000000	100.426742 
3348.000000	100.425416 
3347.000000	100.424097 
3346.000000	100.422802 
3345.000000	100.421527 
3344.000000	100.420251 
3343.000000	100.418952 
3342.000000	100.417617 
3341.000000	100.416248 
3340.000000	100.414852 
3339.000000	100.413427 
3338.000000	100.411958 
3337.000000	100.410426 
3336.000000	100.408828 
3335.000000	100.407170 
3334.000000	100.405446 
3333.000000	100.403631 
3332.000000	100.401703 
3331.000000	100.399745 
3330.000000	100.397988 
3329.000000	100.396726 
3328.000000	100.396125 
3327.000000	100.395901 
3326.000000	100.395237 
3325.000000	100.393417 
3324.000000	100.390692 
3323.000000	100.388318 
3322.000000	100.387291 
3321.000000	100.387222 
3320.000000	100.386631 
3319.000000	100.384239 
3318.000000	100.379855 
3317.000000	100.374393 
3316.000000	100.369357 
3315.000000	100.366054 
3314.000000	100.364813 
3313.000000	100.364724 
3312.000000	100.364239 
3311.000000	100.362227 
3310.000000	100.358695 
3309.000000	100.354866 
3308.000000	100.352401 
3307.000000	100.351896 
3306.000000	100.351892 
3305.000000	100.350042 
3304.000000	100.345771 
3303.000000	100.341290 
3302.000000	100.339281 
3301.000000	100.339824 
3300.000000	100.340137 
3299.000000	100.337338 
3298.000000	100.331097 
3297.000000	100.323681 
3296.000000	100.317802 
3295.000000	100.314443 
3294.000000	100.312677 
3293.000000	100.311351 
3292.000000	100.310909 
3291.000000	100.313173 
3290.000000	100.319036 
3289.000000	100.326819 
3288.000000	100.333239 
3287.000000	100.335988 
3286.000000	100.335125 
3285.000000	100.332422 
3284.000000	100.329995 
3283.000000	100.329215 
3282.000000	100.330021 
3281.000000	100.330934 
3280.000000	100.330316 
3279.000000	100.328206 
3278.000000	100.326737 
3277.000000	100.328375 
3276.000000	100.333823 
3275.000000	100.341593 
3274.000000	100.349148 
3273.000000	100.354433 
3272.000000	100.356877 
3271.000000	100.357598 
3270.000000	100.358697 
3269.000000	100.361660 
3268.000000	100.366163 
3267.000000	100.370449 
3266.000000	100.372971 
3265.000000	100.373684 
3264.000000	100.373958 
3263.000000	100.375479 
3262.000000	100.379039 
3261.000000	100.384111 
3260.000000	100.389214 
3259.000000	100.392894 
3258.000000	100.394714 
3257.000000	100.395337 
3256.000000	100.395976 
3255.000000	100.397558 
3254.000000	100.400154 
3253.000000	100.403181 
3252.000000	100.405953 
3251.000000	100.408202 
3250.000000	100.410118 
3249.000000	100.412021 
3248.000000	100.414051 
3247.000000	100.416135 
3246.000000	100.418164 
3245.000000	100.420121 
3244.000000	100.422066 
3243.000000	100.424079 
3242.000000	100.426244 
3241.000000	100.428581 
3240.000000	100.430915 
3239.000000	100.432919 
3238.000000	100.434405 
3237.000000	100.435508 
3236.000000	100.436540 
3235.000000	100.437647 
3234.000000	100.438802 
3233.000000	100.440044 
3232.000000	100.441577 
3231.000000	100.443564 
3230.000000	100.445837 
3229.000000	100.447898 
3228.000000	100.449254 
3227.000000	100.449764 
3226.000000	100.449880 
3225.000000	100.450489 
3224.000000	100.452173 
3223.000000	100.454591 
3222.000000	100.456844 
3221.000000	100.458505 
3220.000000	100.459932 
3219.000000	100.461542 
3218.000000	100.463124 
3217.000000	100.464060 
3216.000000	100.463897 
3215.000000	100.462673 
3214.000000	100.460924 
3213.000000	100.459558 
3212.000000	100.459493 
3211.000000	100.461047 
3210.000000	100.463728 
3209.000000	100.466758 
3208.000000	100.469552 
3207.000000	100.471733 
3206.000000	100.472949 
3205.000000	100.472958 
3204.000000	100.471991 
3203.000000	100.471026 
3202.000000	100.471483 
3201.000000	100.474286 
3200.000000	100.479035 
3199.000000	100.484072 
3198.000000	100.487762 
3197.000000	100.489912 
3196.000000	100.491817 
3195.000000	100.494942 
3194.000000	100.499438 
3193.000000	100.503869 
3192.000000	100.506540 
3191.000000	100.507170 
3190.000000	100.507138 
3189.000000	100.507988 
3188.000000	100.509776 
3187.000000	100.511234 
3186.000000	100.511317 
3185.000000	100.510260 
3184.000000	100.509354 
3183.000000	100.510048 
3182.000000	100.513236 
3181.000000	100.518842 
3180.000000	100.525594 
3179.000000	100.531611 
3178.000000	100.535673 
3177.000000	100.537702 
3176.000000	100.538137 
3175.000000	100.537453 
3174.000000	100.536518 
3173.000000	100.536688 
3172.000000	100.538700 
3171.000000	100.541748 
3170.000000	100.544325 
3169.000000	100.545904 
3168.000000	100.547171 
3167.000000	100.548869 
3166.000000	100.551249 
3165.000000	100.554487 
3164.000000	100.558661 
3163.000000	100.563079 
3162.000000	100.566446 
3161.000000	100.568100 
3160.000000	100.568564 
3159.000000	100.568676 
3158.000000	100.568735 
3157.000000	100.568684 
3156.000000	100.568523 
3155.000000	100.568218 
3154.000000	100.567809 
3153.000000	100.567979 
3152.000000	100.569962 
3151.000000	100.574462 
3150.000000	100.581134 
3149.000000	100.589147 
3148.000000	100.597485 
3147.000000	100.604580 
3146.000000	100.608593 
3145.000000	100.608952 
3144.000000	100.607417 
3143.000000	100.607022 
3142.000000	100.609724 
3141.000000	100.615244 
3140.000000	100.621706 
3139.000000	100.627045 
3138.000000	100.630123 
3137.000000	100.630993 
3136.000000	100.630448 
3135.000000	100.629462 
3134.000000	100.628959 
3133.000000	100.629669 
3132.000000	100.631610 
3131.000000	100.633574 
3130.000000	100.633739 
3129.000000	100.631244 
3128.000000	100.627217 
3127.000000	100.624110 
3126.000000	100.623849 
3125.000000	100.626482 
3124.000000	100.630337 
3123.000000	100.633506 
3122.000000	100.635497 
3121.000000	100.637449 
3120.000000	100.640721 
3119.000000	100.645484 
3118.000000	100.650580 
3117.000000	100.654489 
3116.000000	100.656395 
3115.000000	100.656709 
3114.000000	100.656939 
3113.000000	100.658580 
3112.000000	100.661763 
3111.000000	100.665235 
3110.000000	100.667911 
3109.000000	100.670084 
3108.000000	100.672584 
3107.000000	100.675173 
3106.000000	100.676702 
3105.000000	100.676861 
3104.000000	100.676851 
3103.000000	100.677943 
3102.000000	100.679927 
3101.000000	100.681706 
3100.000000	100.683070 
3099.000000	100.685042 
3098.000000	100.688443 
3097.000000	100.692960 
3096.000000	100.697615 
3095.000000	100.701683 
3094.000000	100.704915 
3093.000000	100.707231 
3092.000000	100.708625 
3091.000000	100.709470 
3090.000000	100.710618 
3089.000000	100.712826 
3088.000000	100.716126 
3087.000000	100.719704 
3086.000000	100.722503 
3085.000000	100.724200 
3084.000000	100.725566 
3083.000000	100.727700 
3082.000000	100.730871 
3081.000000	100.734443 
3080.000000	100.737992 
3079.000000	100.741840 
3078.000000	100.745952 
3077.000000	100.748835 
3076.000000	100.748492 
3075.000000	100.744671 
3074.000000	100.739862 
3073.000000	100.737551 
3072.000000	100.739237 
3071.000000	100.743490 
3070.000000	100.747902 
3069.000000	100.751822 
3068.000000	100.756780 
3067.000000	100.764066 
3066.000000	100.772339 
3065.000000	100.778237 
3064.000000	100.779342 
3063.000000	100.776206 
3062.000000	100.771852 
3061.000000	100.769750 
3060.000000	100.771724 
3059.000000	100.776609 
3058.000000	100.780813 
3057.000000	100.781640 
3056.000000	100.780742 
3055.000000	100.782900 
3054.000000	100.789996 
3053.000000	100.797302 
3052.000000	100.797590 
3051.000000	100.788903 
3050.000000	100.776979 
3049.000000	100.769996 
3048.000000	100.771604 
3047.000000	100.778962 
3046.000000	100.786150 
3045.000000	100.789008 
3044.000000	100.787487 
3043.000000	100.783810 
3042.000000	100.778375 
3041.000000	100.768341 
3040.000000	100.751745 
3039.000000	100.732628 
3038.000000	100.719756 
3037.000000	100.718910 
3036.000000	100.727263 
3035.000000	100.735892 
3034.000000	100.737065 
3033.000000	100.729000 
3032.000000	100.715592 
3031.000000	100.703325 
3030.000000	100.696929 
3029.000000	100.695565 
3028.000000	100.693098 
3027.000000	100.683477 
3026.000000	100.666339 
3025.000000	100.647087 
3024.000000	100.631733 
3023.000000	100.621903 
3022.000000	100.614395 
3021.000000	100.604630 
3020.000000	100.590443 
3019.000000	100.573271 
3018.000000	100.556094 
3017.000000	100.540481 
3016.000000	100.525813 
3015.000000	100.510236 
3014.000000	100.490420 
3013.000000	100.461208 
3012.000000	100.419596 
3011.000000	100.371308 
3010.000000	100.330287 
3009.000000	100.307543 
3008.000000	100.301172 
3007.000000	100.299274 
3006.000000	100.292103 
3005.000000	100.278765 
3004.000000	100.262976 
3003.000000	100.246759 
3002.000000	100.230286 
3001.000000	100.214797 
3000.000000	100.202280 
2999.000000	100.192666 
2998.000000	100.183762 
2997.000000	100.174574 
2996.000000	100.167127 
2995.000000	100.163399 
2994.000000	100.160586 
2993.000000	100.151396 
2992.000000	100.131108 
2991.000000	100.104233 
2990.000000	100.082370 
2989.000000	100.074999 
2988.000000	100.084327 
2987.000000	100.109530 
2986.000000	100.151977 
2985.000000	100.212112 
2984.000000	100.282295 
2983.000000	100.347817 
2982.000000	100.397567 
2981.000000	100.431966 
2980.000000	100.459343 
2979.000000	100.485287 
2978.000000	100.506106 
2977.000000	100.511814 
2976.000000	100.494766 
2975.000000	100.455550 
2974.000000	100.400167 
2973.000000	100.331865 
2972.000000	100.248508 
2971.000000	100.150461 
2970.000000	100.048317 
2969.000000	99.956875  
2968.000000	99.880426  
2967.000000	99.808571  
2966.000000	99.729891  
2965.000000	99.646828  
2964.000000	99.573758  
2963.000000	99.521597  
2962.000000	99.487380  
2961.000000	99.458740  
2960.000000	99.425831  
2959.000000	99.388335  
2958.000000	99.352715  
2957.000000	99.324580  
2956.000000	99.304115  
2955.000000	99.288302  
2954.000000	99.276448  
2953.000000	99.272133  
2952.000000	99.279195  
2951.000000	99.296505  
2950.000000	99.317243  
2949.000000	99.332922  
2948.000000	99.337686  
2947.000000	99.329853  
2946.000000	99.311461  
2945.000000	99.287363  
2944.000000	99.263304  
2943.000000	99.241763  
2942.000000	99.217878  
2941.000000	99.181204  
2940.000000	99.124290  
2939.000000	99.050060  
2938.000000	98.968549  
2937.000000	98.886572  
2936.000000	98.803733  
2935.000000	98.718849  
2934.000000	98.635131  
2933.000000	98.555580  
2932.000000	98.477422  
2931.000000	98.396606  
2930.000000	98.316017  
2929.000000	98.243887  
2928.000000	98.184752  
2927.000000	98.137314  
2926.000000	98.101467  
2925.000000	98.082050  
2924.000000	98.083890  
2923.000000	98.107414  
2922.000000	98.151037  
2921.000000	98.214470  
2920.000000	98.297711  
2919.000000	98.399443  
2918.000000	98.517225  
2917.000000	98.645537  
2916.000000	98.772466  
2915.000000	98.882881  
2914.000000	98.969122  
2913.000000	99.036991  
2912.000000	99.099630  
2911.000000	99.166632  
2910.000000	99.239331  
2909.000000	99.312773  
2908.000000	99.379524  
2907.000000	99.433708  
2906.000000	99.474382  
2905.000000	99.505106  
2904.000000	99.530592  
2903.000000	99.556305  
2902.000000	99.590814  
2901.000000	99.642654  
2900.000000	99.710786  
2899.000000	99.782464  
2898.000000	99.844755  
2897.000000	99.895706  
2896.000000	99.940200  
2895.000000	99.978657  
2894.000000	100.006974 
2893.000000	100.026657 
2892.000000	100.047035 
2891.000000	100.074750 
2890.000000	100.106650 
2889.000000	100.136736 
2888.000000	100.165505 
2887.000000	100.197149 
2886.000000	100.229738 
2885.000000	100.254499 
2884.000000	100.266725 
2883.000000	100.273397 
2882.000000	100.286480 
2881.000000	100.309338 
2880.000000	100.332942 
2879.000000	100.346149 
2878.000000	100.346806 
2877.000000	100.341000 
2876.000000	100.333674 
2875.000000	100.324247 
2874.000000	100.311754 
2873.000000	100.300046 
2872.000000	100.294950 
2871.000000	100.297890 
2870.000000	100.304531 
2869.000000	100.308217 
2868.000000	100.302997 
2867.000000	100.285187 
2866.000000	100.255417 
2865.000000	100.218885 
2864.000000	100.181299 
2863.000000	100.144536 
2862.000000	100.107670 
2861.000000	100.070651 
2860.000000	100.033979 
2859.000000	99.995763  
2858.000000	99.953256  
2857.000000	99.908194  
2856.000000	99.867907  
2855.000000	99.840215  
2854.000000	99.829739  
2853.000000	99.839767  
2852.000000	99.874767  
2851.000000	99.938218  
2850.000000	100.028293 
2849.000000	100.136401 
2848.000000	100.250220 
2847.000000	100.359316 
2846.000000	100.459920 
2845.000000	100.554475 
2844.000000	100.645597 
2843.000000	100.730778 
2842.000000	100.804580 
2841.000000	100.865283 
2840.000000	100.916553 
2839.000000	100.962426 
2838.000000	101.003847 
2837.000000	101.040930 
2836.000000	101.074910 
2835.000000	101.105628 
2834.000000	101.130237 
2833.000000	101.147510 
2832.000000	101.161171 
2831.000000	101.175498 
2830.000000	101.189320 
2829.000000	101.198469 
2828.000000	101.203281 
2827.000000	101.209290 
2826.000000	101.220299 
2825.000000	101.234970 
2824.000000	101.251304 
2823.000000	101.269743 
2822.000000	101.288917 
2821.000000	101.302174 
2820.000000	101.303186 
2819.000000	101.294098 
2818.000000	101.284514 
2817.000000	101.282509 
2816.000000	101.289733 
2815.000000	101.304859 
2814.000000	101.327122 
2813.000000	101.353979 
2812.000000	101.378642 
2811.000000	101.394184 
2810.000000	101.399949 
2809.000000	101.401027 
2808.000000	101.401138 
2807.000000	101.398578 
2806.000000	101.390684 
2805.000000	101.380415 
2804.000000	101.375975 
2803.000000	101.383615 
2802.000000	101.401598 
2801.000000	101.421334 
2800.000000	101.433981 
2799.000000	101.436479 
2798.000000	101.432534 
2797.000000	101.428763 
2796.000000	101.429626 
2795.000000	101.435373 
2794.000000	101.443726 
2793.000000	101.452370 
2792.000000	101.459501 
2791.000000	101.463311 
2790.000000	101.462796 
2789.000000	101.459312 
2788.000000	101.456221 
2787.000000	101.456221 
2786.000000	101.459427 
2785.000000	101.464252 
2784.000000	101.469315 
2783.000000	101.473911 
2782.000000	101.477340 
2781.000000	101.479008 
2780.000000	101.479412 
2779.000000	101.480247 
2778.000000	101.482988 
2777.000000	101.487520 
2776.000000	101.492316 
2775.000000	101.495888 
2774.000000	101.498063 
2773.000000	101.499890 
2772.000000	101.502356 
2771.000000	101.505458 
2770.000000	101.508645 
2769.000000	101.511670 
2768.000000	101.514686 
2767.000000	101.517823 
2766.000000	101.521032 
2765.000000	101.524148 
2764.000000	101.526987 
2763.000000	101.529467 
2762.000000	101.531674 
2761.000000	101.533852 
2760.000000	101.536185 
2759.000000	101.538626 
2758.000000	101.541029 
2757.000000	101.543366 
2756.000000	101.545750 
2755.000000	101.548272 
2754.000000	101.550886 
2753.000000	101.553391 
2752.000000	101.555648 
2751.000000	101.557700 
2750.000000	101.559727 
2749.000000	101.561842 
2748.000000	101.564042 
2747.000000	101.566328 
2746.000000	101.568722 
2745.000000	101.571156 
2744.000000	101.573498 
2743.000000	101.575811 
2742.000000	101.578417 
2741.000000	101.581529 
2740.000000	101.584860 
2739.000000	101.587791 
2738.000000	101.590003 
2737.000000	101.591821 
2736.000000	101.593862 
2735.000000	101.596243 
2734.000000	101.598341 
2733.000000	101.599495 
2732.000000	101.599918 
2731.000000	101.600762 
2730.000000	101.602947 
2729.000000	101.606167 
2728.000000	101.609233 
2727.000000	101.611379 
2726.000000	101.612847 
2725.000000	101.614189 
2724.000000	101.615508 
2723.000000	101.616597 
2722.000000	101.617448 
2721.000000	101.618403 
2720.000000	101.619977 
2719.000000	101.622419 
2718.000000	101.625136 
2717.000000	101.626824 
2716.000000	101.626848 
2715.000000	101.626407 
2714.000000	101.627402 
2713.000000	101.630346 
2712.000000	101.634251 
2711.000000	101.638401 
2710.000000	101.643000 
2709.000000	101.647702 
2708.000000	101.651251 
2707.000000	101.653339 
2706.000000	101.655382 
2705.000000	101.658434 
2704.000000	101.661347 
2703.000000	101.662408 
2702.000000	101.661995 
2701.000000	101.662302 
2700.000000	101.664689 
2699.000000	101.668436 
2698.000000	101.671953 
2697.000000	101.674289 
2696.000000	101.675462 
2695.000000	101.676201 
2694.000000	101.677290 
2693.000000	101.678548 
2692.000000	101.678757 
2691.000000	101.677095 
2690.000000	101.674378 
2689.000000	101.672432 
2688.000000	101.672453 
2687.000000	101.674568 
2686.000000	101.678343 
2685.000000	101.682832 
2684.000000	101.686534 
2683.000000	101.688432 
2682.000000	101.688982 
2681.000000	101.689306 
2680.000000	101.689569 
2679.000000	101.689216 
2678.000000	101.688681 
2677.000000	101.689446 
2676.000000	101.692068 
2675.000000	101.695217 
2674.000000	101.697099 
2673.000000	101.697288 
2672.000000	101.696655 
2671.000000	101.696283 
2670.000000	101.696931 
2669.000000	101.698984 
2668.000000	101.702118 
2667.000000	101.705245 
2666.000000	101.707449 
2665.000000	101.708782 
2664.000000	101.709838 
2663.000000	101.710974 
2662.000000	101.712375 
2661.000000	101.714432 
2660.000000	101.717351 
2659.000000	101.720564 
2658.000000	101.723203 
2657.000000	101.725159 
2656.000000	101.727090 
2655.000000	101.729303 
2654.000000	101.731228 
2653.000000	101.732262 
2652.000000	101.732580 
2651.000000	101.732889 
2650.000000	101.733689 
2649.000000	101.735009 
2648.000000	101.736595 
2647.000000	101.738140 
2646.000000	101.739518 
2645.000000	101.740912 
2644.000000	101.742608 
2643.000000	101.744653 
2642.000000	101.746793 
2641.000000	101.748691 
2640.000000	101.750207 
2639.000000	101.751434 
2638.000000	101.752574 
2637.000000	101.753829 
2636.000000	101.755286 
2635.000000	101.756896 
2634.000000	101.758543 
2633.000000	101.760132 
2632.000000	101.761650 
2631.000000	101.763138 
2630.000000	101.764631 
2629.000000	101.766124 
2628.000000	101.767584 
2627.000000	101.768980 
2626.000000	101.770309 
2625.000000	101.771588 
2624.000000	101.772838 
2623.000000	101.774073 
2622.000000	101.775300 
2621.000000	101.776511 
2620.000000	101.777699 
2619.000000	101.778859 
2618.000000	101.779988 
2617.000000	101.781088 
2616.000000	101.782172 
2615.000000	101.783267 
2614.000000	101.784395 
2613.000000	101.785567 
2612.000000	101.786775 
2611.000000	101.788000 
2610.000000	101.789225 
2609.000000	101.790441 
2608.000000	101.791650 
2607.000000	101.792867 
2606.000000	101.794106 
2605.000000	101.795368 
2604.000000	101.796646 
2603.000000	101.797927 
2602.000000	101.799202 
2601.000000	101.800472 
2600.000000	101.801742 
2599.000000	101.803020 
2598.000000	101.804317 
2597.000000	101.805641 
2596.000000	101.806992 
2595.000000	101.808361 
2594.000000	101.809731 
2593.000000	101.811089 
2592.000000	101.812446 
2591.000000	101.813824 
2590.000000	101.815231 
2589.000000	101.816633 
2588.000000	101.817991 
2587.000000	101.819286 
2586.000000	101.820526 
2585.000000	101.821747 
2584.000000	101.823019 
2583.000000	101.824412 
2582.000000	101.825905 
2581.000000	101.827360 
2580.000000	101.828634 
2579.000000	101.829711 
2578.000000	101.830696 
2577.000000	101.831730 
2576.000000	101.832935 
2575.000000	101.834434 
2574.000000	101.836315 
2573.000000	101.838537 
2572.000000	101.840894 
2571.000000	101.843089 
2570.000000	101.844875 
2569.000000	101.846216 
2568.000000	101.847276 
2567.000000	101.848292 
2566.000000	101.849420 
2565.000000	101.850690 
2564.000000	101.852098 
2563.000000	101.853656 
2562.000000	101.855318 
2561.000000	101.856897 
2560.000000	101.858148 
2559.000000	101.859024 
2558.000000	101.859775 
2557.000000	101.860791 
2556.000000	101.862256 
2555.000000	101.863988 
2554.000000	101.865589 
2553.000000	101.866881 
2552.000000	101.868091 
2551.000000	101.869503 
2550.000000	101.871079 
2549.000000	101.872530 
2548.000000	101.873672 
2547.000000	101.874563 
2546.000000	101.875408 
2545.000000	101.876520 
2544.000000	101.878247 
2543.000000	101.880608 
2542.000000	101.882950 
2541.000000	101.884441 
2540.000000	101.885070 
2539.000000	101.885796 
2538.000000	101.887382 
2537.000000	101.889416 
2536.000000	101.890940 
2535.000000	101.891770 
2534.000000	101.892620 
2533.000000	101.893990 
2532.000000	101.895427 
2531.000000	101.896139 
2530.000000	101.895942 
2529.000000	101.895401 
2528.000000	101.895305 
2527.000000	101.896164 
2526.000000	101.898023 
2525.000000	101.900432 
2524.000000	101.902612 
2523.000000	101.903926 
2522.000000	101.904310 
2521.000000	101.904253 
2520.000000	101.904379 
2519.000000	101.905123 
2518.000000	101.906749 
2517.000000	101.909323 
2516.000000	101.912318 
2515.000000	101.914430 
2514.000000	101.914327 
2513.000000	101.911861 
2512.000000	101.908279 
2511.000000	101.904864 
2510.000000	101.901734 
2509.000000	101.898511 
2508.000000	101.895789 
2507.000000	101.894979 
2506.000000	101.896615 
2505.000000	101.899577 
2504.000000	101.902173 
2503.000000	101.903598 
2502.000000	101.903943 
2501.000000	101.903493 
2500.000000	101.902810 
2499.000000	101.903118 
2498.000000	101.905558 
2497.000000	101.909707 
2496.000000	101.913353 
2495.000000	101.914320 
2494.000000	101.912379 
2493.000000	101.909131 
2492.000000	101.906381 
2491.000000	101.904689 
2490.000000	101.903609 
2489.000000	101.902749 
2488.000000	101.902104 
2487.000000	101.901547 
2486.000000	101.900631 
2485.000000	101.899267 
2484.000000	101.898202 
2483.000000	101.898287 
2482.000000	101.899435 
2481.000000	101.900755 
2480.000000	101.901693 
2479.000000	101.902530 
2478.000000	101.903595 
2477.000000	101.904564 
2476.000000	101.904999 
2475.000000	101.905183 
2474.000000	101.905914 
2473.000000	101.907533 
2472.000000	101.909543 
2471.000000	101.911080 
2470.000000	101.911551 
2469.000000	101.910837 
2468.000000	101.909277 
2467.000000	101.907653 
2466.000000	101.906882 
2465.000000	101.907372 
2464.000000	101.908802 
2463.000000	101.910474 
2462.000000	101.911911 
2461.000000	101.913040 
2460.000000	101.913876 
2459.000000	101.914401 
2458.000000	101.914759 
2457.000000	101.915348 
2456.000000	101.916537 
2455.000000	101.918271 
2454.000000	101.920022 
2453.000000	101.921239 
2452.000000	101.921760 
2451.000000	101.921855 
2450.000000	101.921873 
2449.000000	101.921903 
2448.000000	101.921838 
2447.000000	101.921718 
2446.000000	101.921957 
2445.000000	101.923018 
2444.000000	101.924841 
2443.000000	101.926758 
2442.000000	101.928131 
2441.000000	101.928927 
2440.000000	101.929437 
2439.000000	101.929656 
2438.000000	101.929363 
2437.000000	101.928864 
2436.000000	101.929147 
2435.000000	101.930879 
2434.000000	101.933583 
2433.000000	101.935957 
2432.000000	101.937144 
2431.000000	101.937221 
2430.000000	101.936685 
2429.000000	101.935958 
2428.000000	101.935487 
2427.000000	101.935852 
2426.000000	101.937238 
2425.000000	101.938962 
2424.000000	101.939974 
2423.000000	101.939996 
2422.000000	101.939967 
2421.000000	101.941191 
2420.000000	101.944156 
2419.000000	101.948149 
2418.000000	101.951785 
2417.000000	101.953932 
2416.000000	101.954206 
2415.000000	101.953012 
2414.000000	101.951341 
2413.000000	101.950263 
2412.000000	101.950119 
2411.000000	101.950042 
2410.000000	101.948626 
2409.000000	101.945419 
2408.000000	101.941696 
2407.000000	101.939446 
2406.000000	101.939569 
2405.000000	101.941213 
2404.000000	101.942663 
2403.000000	101.942942 
2402.000000	101.942418 
2401.000000	101.941918 
2400.000000	101.941633 
2399.000000	101.941047 
2398.000000	101.939764 
2397.000000	101.938059 
2396.000000	101.936589 
2395.000000	101.935773 
2394.000000	101.935585 
2393.000000	101.935731 
2392.000000	101.935800 
2391.000000	101.935402 
2390.000000	101.934448 
2389.000000	101.933381 
2388.000000	101.932904 
2387.000000	101.933278 
2386.000000	101.933928 
2385.000000	101.933876 
2384.000000	101.932622 
2383.000000	101.930378 
2382.000000	101.927756 
2381.000000	101.925384 
2380.000000	101.923636 
2379.000000	101.922461 
2378.000000	101.921447 
2377.000000	101.920168 
2376.000000	101.918568 
2375.000000	101.916951 
2374.000000	101.915698 
2373.000000	101.915018 
2372.000000	101.914803 
2371.000000	101.914493 
2370.000000	101.913283 
2369.000000	101.910831 
2368.000000	101.907833 
2367.000000	101.905657 
2366.000000	101.905063 
2365.000000	101.905520 
2364.000000	101.905791 
2363.000000	101.905228 
2362.000000	101.904326 
2361.000000	101.904110 
2360.000000	101.904973 
2359.000000	101.906078 
2358.000000	101.906033 
2357.000000	101.904381 
2356.000000	101.902133 
2355.000000	101.900503 
2354.000000	101.899382 
2353.000000	101.897851 
2352.000000	101.895911 
2351.000000	101.894637 
2350.000000	101.894622 
2349.000000	101.895390 
2348.000000	101.896220 
2347.000000	101.897156 
2346.000000	101.898881 
2345.000000	101.901532 
2344.000000	101.904126 
2343.000000	101.905465 
2342.000000	101.905420 
2341.000000	101.904740 
2340.000000	101.904226 
2339.000000	101.904184 
2338.000000	101.904487 
2337.000000	101.904997 
2336.000000	101.905774 
2335.000000	101.906988 
2334.000000	101.908550 
2333.000000	101.910060 
2332.000000	101.911075 
2331.000000	101.911506 
2330.000000	101.911581 
2329.000000	101.911717 
2328.000000	101.912285 
2327.000000	101.913464 
2326.000000	101.915103 
2325.000000	101.916713 
2324.000000	101.917809 
2323.000000	101.918297 
2322.000000	101.918455 
2321.000000	101.918645 
2320.000000	101.919061 
2319.000000	101.919732 
2318.000000	101.920611 
2317.000000	101.921585 
2316.000000	101.922491 
2315.000000	101.923259 
2314.000000	101.923936 
2313.000000	101.924597 
2312.000000	101.925224 
2311.000000	101.925774 
2310.000000	101.926261 
2309.000000	101.926721 
2308.000000	101.927160 
2307.000000	101.927559 
2306.000000	101.927905 
2305.000000	101.928198 
2304.000000	101.928441 
2303.000000	101.928632 
2302.000000	101.928767 
2301.000000	101.928871 
2300.000000	101.929019 
2299.000000	101.929268 
2298.000000	101.929584 
2297.000000	101.929869 
2296.000000	101.930048 
2295.000000	101.930168 
2294.000000	101.930401 
2293.000000	101.930903 
2292.000000	101.931640 
2291.000000	101.932368 
2290.000000	101.932870 
2289.000000	101.933059 
2288.000000	101.932852 
2287.000000	101.932148 
2286.000000	101.931081 
2285.000000	101.930228 
2284.000000	101.930162 
2283.000000	101.930736 
2282.000000	101.931251 
2281.000000	101.931250 
2280.000000	101.930899 
2279.000000	101.930596 
2278.000000	101.930518 
2277.000000	101.930714 
2276.000000	101.931234 
2275.000000	101.931948 
2274.000000	101.932442 
2273.000000	101.932349 
2272.000000	101.931755 
2271.000000	101.931119 
2270.000000	101.930777 
2269.000000	101.930635 
2268.000000	101.930349 
2267.000000	101.929739 
2266.000000	101.928959 
2265.000000	101.928293 
2264.000000	101.927890 
2263.000000	101.927825 
2262.000000	101.928274 
2261.000000	101.929361 
2260.000000	101.930828 
2259.000000	101.932050 
2258.000000	101.932584 
2257.000000	101.932579 
2256.000000	101.932561 
2255.000000	101.932898 
2254.000000	101.933467 
2253.000000	101.933890 
2252.000000	101.933976 
2251.000000	101.933854 
2250.000000	101.933807 
2249.000000	101.934022 
2248.000000	101.934465 
2247.000000	101.934950 
2246.000000	101.935294 
2245.000000	101.935460 
2244.000000	101.935549 
2243.000000	101.935705 
2242.000000	101.935992 
2241.000000	101.936375 
2240.000000	101.936795 
2239.000000	101.937256 
2238.000000	101.937815 
2237.000000	101.938493 
2236.000000	101.939186 
2235.000000	101.939695 
2234.000000	101.939929 
2233.000000	101.939995 
2232.000000	101.940093 
2231.000000	101.940306 
2230.000000	101.940557 
2229.000000	101.940772 
2228.000000	101.941016 
2227.000000	101.941433 
2226.000000	101.942068 
2225.000000	101.942817 
2224.000000	101.943481 
2223.000000	101.943931 
2222.000000	101.944179 
2221.000000	101.944346 
2220.000000	101.944548 
2219.000000	101.944794 
2218.000000	101.945050 
2217.000000	101.945335 
2216.000000	101.945700 
2215.000000	101.946062 
2214.000000	101.946199 
2213.000000	101.945981 
2212.000000	101.945540 
2211.000000	101.945223 
2210.000000	101.945248 
2209.000000	101.945532 
2208.000000	101.945872 
2207.000000	101.946238 
2206.000000	101.946651 
2205.000000	101.946954 
2204.000000	101.946977 
2203.000000	101.946861 
2202.000000	101.946989 
2201.000000	101.947572 
2200.000000	101.948465 
2199.000000	101.949378 
2198.000000	101.950121 
2197.000000	101.950568 
2196.000000	101.950573 
2195.000000	101.950155 
2194.000000	101.949740 
2193.000000	101.949988 
2192.000000	101.951153 
2191.000000	101.952612 
2190.000000	101.953262 
2189.000000	101.952516 
2188.000000	101.950778 
2187.000000	101.949028 
2186.000000	101.948002 
2185.000000	101.947868 
2184.000000	101.948446 
2183.000000	101.949417 
2182.000000	101.950344 
2181.000000	101.950671 
2180.000000	101.949824 
2179.000000	101.947501 
2178.000000	101.944142 
2177.000000	101.941209 
2176.000000	101.940388 
2175.000000	101.942193 
2174.000000	101.945462 
2173.000000	101.948606 
2172.000000	101.951256 
2171.000000	101.953933 
2170.000000	101.956360 
2169.000000	101.957068 
2168.000000	101.954948 
2167.000000	101.950528 
2166.000000	101.945426 
2165.000000	101.940992 
2164.000000	101.937836 
2163.000000	101.936160 
2162.000000	101.935981 
2161.000000	101.937100 
2160.000000	101.939077 
2159.000000	101.941134 
2158.000000	101.942206 
2157.000000	101.941589 
2156.000000	101.939698 
2155.000000	101.937771 
2154.000000	101.936591 
2153.000000	101.936006 
2152.000000	101.935912 
2151.000000	101.936954 
2150.000000	101.939621 
2149.000000	101.943094 
2148.000000	101.945793 
2147.000000	101.946984 
2146.000000	101.947180 
2145.000000	101.947032 
2144.000000	101.946416 
2143.000000	101.944875 
2142.000000	101.942495 
2141.000000	101.940083 
2140.000000	101.938481 
2139.000000	101.937861 
2138.000000	101.937818 
2137.000000	101.938035 
2136.000000	101.938768 
2135.000000	101.940302 
2134.000000	101.942117 
2133.000000	101.943116 
2132.000000	101.942853 
2131.000000	101.941966 
2130.000000	101.941296 
2129.000000	101.941008 
2128.000000	101.940860 
2127.000000	101.940884 
2126.000000	101.941337 
2125.000000	101.942211 
2124.000000	101.943178 
2123.000000	101.943934 
2122.000000	101.944438 
2121.000000	101.944806 
2120.000000	101.945125 
2119.000000	101.945419 
2118.000000	101.945675 
2117.000000	101.945867 
2116.000000	101.945988 
2115.000000	101.946093 
2114.000000	101.946269 
2113.000000	101.946537 
2112.000000	101.946838 
2111.000000	101.947105 
2110.000000	101.947317 
2109.000000	101.947481 
2108.000000	101.947606 
2107.000000	101.947691 
2106.000000	101.947751 
2105.000000	101.947810 
2104.000000	101.947893 
2103.000000	101.948011 
2102.000000	101.948165 
2101.000000	101.948351 
2100.000000	101.948553 
2099.000000	101.948739 
2098.000000	101.948854 
2097.000000	101.948848 
2096.000000	101.948792 
2095.000000	101.948825 
2094.000000	101.948997 
2093.000000	101.949174 
2092.000000	101.949276 
2091.000000	101.949467 
2090.000000	101.949949 
2089.000000	101.950584 
2088.000000	101.950952 
2087.000000	101.950868 
2086.000000	101.950646 
2085.000000	101.950715 
2084.000000	101.951132 
2083.000000	101.951745 
2082.000000	101.952562 
2081.000000	101.953528 
2080.000000	101.954025 
2079.000000	101.953219 
2078.000000	101.951041 
2077.000000	101.948422 
2076.000000	101.946421 
2075.000000	101.945451 
2074.000000	101.945432 
2073.000000	101.946130 
2072.000000	101.947045 
2071.000000	101.947453 
2070.000000	101.947004 
2069.000000	101.945970 
2068.000000	101.944570 
2067.000000	101.942765 
2066.000000	101.941363 
2065.000000	101.942478 
2064.000000	101.947444 
2063.000000	101.954246 
2062.000000	101.958628 
2061.000000	101.958191 
2060.000000	101.954346 
2059.000000	101.950401 
2058.000000	101.948115 
2057.000000	101.946844 
2056.000000	101.945263 
2055.000000	101.942898 
2054.000000	101.940302 
2053.000000	101.938470 
2052.000000	101.938054 
2051.000000	101.938719 
2050.000000	101.939328 
2049.000000	101.939058 
2048.000000	101.938058 
2047.000000	101.936797 
2046.000000	101.935148 
2045.000000	101.932506 
2044.000000	101.928496 
2043.000000	101.923124 
2042.000000	101.916580 
2041.000000	101.909568 
2040.000000	101.903540 
2039.000000	101.899695 
2038.000000	101.897435 
2037.000000	101.894568 
2036.000000	101.889644 
2035.000000	101.883723 
2034.000000	101.879130 
2033.000000	101.876681 
2032.000000	101.875074 
2031.000000	101.873199 
2030.000000	101.871993 
2029.000000	101.872997 
2028.000000	101.875723 
2027.000000	101.877794 
2026.000000	101.877950 
2025.000000	101.877809 
2024.000000	101.879656 
2023.000000	101.882936 
2022.000000	101.884082 
2021.000000	101.880285 
2020.000000	101.872483 
2019.000000	101.864620 
2018.000000	101.860057 
2017.000000	101.858751 
2016.000000	101.857930 
2015.000000	101.854988 
2014.000000	101.849826 
2013.000000	101.844806 
2012.000000	101.842700 
2011.000000	101.844435 
2010.000000	101.848539 
2009.000000	101.852415 
2008.000000	101.854480 
2007.000000	101.854998 
2006.000000	101.854953 
2005.000000	101.854662 
2004.000000	101.853772 
2003.000000	101.852271 
2002.000000	101.850731 
2001.000000	101.849345 
2000.000000	101.847449 
1999.000000	101.844591 
1998.000000	101.841767 
1997.000000	101.840766 
1996.000000	101.842222 
1995.000000	101.844922 
1994.000000	101.847071 
1993.000000	101.847970 
1992.000000	101.848236 
1991.000000	101.848790 
1990.000000	101.849982 
1989.000000	101.851485 
1988.000000	101.852558 
1987.000000	101.852515 
1986.000000	101.851401 
1985.000000	101.850334 
1984.000000	101.850762 
1983.000000	101.853158 
1982.000000	101.856587 
1981.000000	101.859615 
1980.000000	101.861629 
1979.000000	101.862971 
1978.000000	101.864086 
1977.000000	101.865054 
1976.000000	101.865877 
1975.000000	101.866664 
1974.000000	101.867216 
1973.000000	101.866849 
1972.000000	101.865302 
1971.000000	101.863758 
1970.000000	101.864177 
1969.000000	101.867470 
1968.000000	101.872598 
1967.000000	101.877564 
1966.000000	101.881438 
1965.000000	101.884549 
1964.000000	101.886974 
1963.000000	101.887915 
1962.000000	101.886949 
1961.000000	101.885216 
1960.000000	101.884630 
1959.000000	101.885979 
1958.000000	101.888357 
1957.000000	101.890320 
1956.000000	101.891159 
1955.000000	101.891135 
1954.000000	101.891047 
1953.000000	101.891712 
1952.000000	101.893243 
1951.000000	101.894733 
1950.000000	101.895124 
1949.000000	101.894563 
1948.000000	101.894304 
1947.000000	101.894943 
1946.000000	101.895353 
1945.000000	101.894014 
1944.000000	101.891205 
1943.000000	101.889151 
1942.000000	101.889660 
1941.000000	101.892445 
1940.000000	101.896667 
1939.000000	101.903012 
1938.000000	101.912597 
1937.000000	101.923919 
1936.000000	101.932494 
1935.000000	101.935020 
1934.000000	101.933112 
1933.000000	101.931621 
1932.000000	101.932834 
1931.000000	101.934028 
1930.000000	101.931604 
1929.000000	101.925716 
1928.000000	101.919697 
1927.000000	101.916241 
1926.000000	101.916054 
1925.000000	101.918997 
1924.000000	101.924392 
1923.000000	101.929967 
1922.000000	101.932864 
1921.000000	101.932413 
1920.000000	101.930104 
1919.000000	101.926687 
1918.000000	101.920991 
1917.000000	101.912079 
1916.000000	101.901719 
1915.000000	101.893467 
1914.000000	101.889981 
1913.000000	101.891468 
1912.000000	101.895424 
1911.000000	101.897973 
1910.000000	101.896526 
1909.000000	101.891654 
1908.000000	101.886132 
1907.000000	101.881808 
1906.000000	101.877965 
1905.000000	101.872568 
1904.000000	101.864760 
1903.000000	101.855955 
1902.000000	101.848558 
1901.000000	101.843299 
1900.000000	101.838060 
1899.000000	101.830021 
1898.000000	101.819200 
1897.000000	101.809073 
1896.000000	101.803280 
1895.000000	101.801971 
1894.000000	101.801913 
1893.000000	101.799614 
1892.000000	101.793467 
1891.000000	101.783874 
1890.000000	101.772987 
1889.000000	101.763833 
1888.000000	101.758449 
1887.000000	101.757137 
1886.000000	101.759120 
1885.000000	101.762690 
1884.000000	101.765153 
1883.000000	101.764757 
1882.000000	101.763274 
1881.000000	101.764761 
1880.000000	101.770860 
1879.000000	101.778730 
1878.000000	101.784815 
1877.000000	101.788882 
1876.000000	101.792095 
1875.000000	101.792703 
1874.000000	101.787128 
1873.000000	101.775640 
1872.000000	101.764013 
1871.000000	101.758595 
1870.000000	101.761475 
1869.000000	101.770013 
1868.000000	101.779605 
1867.000000	101.787571 
1866.000000	101.794145 
1865.000000	101.800177 
1864.000000	101.805701 
1863.000000	101.810473 
1862.000000	101.814930 
1861.000000	101.819994 
1860.000000	101.825604 
1859.000000	101.830340 
1858.000000	101.833970 
1857.000000	101.839604 
1856.000000	101.850880 
1855.000000	101.866516 
1854.000000	101.879691 
1853.000000	101.884548 
1852.000000	101.882720 
1851.000000	101.881556 
1850.000000	101.886784 
1849.000000	101.898274 
1848.000000	101.912112 
1847.000000	101.924582 
1846.000000	101.933344 
1845.000000	101.937033 
1844.000000	101.936202 
1843.000000	101.933861 
1842.000000	101.933428 
1841.000000	101.936538 
1840.000000	101.942788 
1839.000000	101.949840 
1838.000000	101.953850 
1837.000000	101.951837 
1836.000000	101.944715 
1835.000000	101.936988 
1834.000000	101.932906 
1833.000000	101.933580 
1832.000000	101.937825 
1831.000000	101.943827 
1830.000000	101.949607 
1829.000000	101.953657 
1828.000000	101.956603 
1827.000000	101.959708 
1826.000000	101.961632 
1825.000000	101.959188 
1824.000000	101.951473 
1823.000000	101.941665 
1822.000000	101.933850 
1821.000000	101.929802 
1820.000000	101.928882 
1819.000000	101.929051 
1818.000000	101.928165 
1817.000000	101.925312 
1816.000000	101.921217 
1815.000000	101.917177 
1814.000000	101.913929 
1813.000000	101.911985 
1812.000000	101.912212 
1811.000000	101.915238 
1810.000000	101.920638 
1809.000000	101.927284 
1808.000000	101.933517 
1807.000000	101.936533 
1806.000000	101.933182 
1805.000000	101.922822 
1804.000000	101.909356 
1803.000000	101.899401 
1802.000000	101.898021 
1801.000000	101.906431 
1800.000000	101.921769 
1799.000000	101.938346 
1798.000000	101.950175 
1797.000000	101.954264 
1796.000000	101.952681 
1795.000000	101.950420 
1794.000000	101.950001 
1793.000000	101.949430 
1792.000000	101.946072 
1791.000000	101.940970 
1790.000000	101.937082 
1789.000000	101.934762 
1788.000000	101.931459 
1787.000000	101.924727 
1786.000000	101.914232 
1785.000000	101.902716 
1784.000000	101.895980 
1783.000000	101.899507 
1782.000000	101.912153 
1781.000000	101.924586 
1780.000000	101.927250 
1779.000000	101.921664 
1778.000000	101.918131 
1777.000000	101.922370 
1776.000000	101.930196 
1775.000000	101.934558 
1774.000000	101.933743 
1773.000000	101.932163 
1772.000000	101.934000 
1771.000000	101.937077 
1770.000000	101.937465 
1769.000000	101.934265 
1768.000000	101.928475 
1767.000000	101.922211 
1766.000000	101.917093 
1765.000000	101.912001 
1764.000000	101.902682 
1763.000000	101.884714 
1762.000000	101.857378 
1761.000000	101.824388 
1760.000000	101.789983 
1759.000000	101.755604 
1758.000000	101.719945 
1757.000000	101.681675 
1756.000000	101.641602 
1755.000000	101.601412 
1754.000000	101.560519 
1753.000000	101.515407 
1752.000000	101.463389 
1751.000000	101.407255 
1750.000000	101.354128 
1749.000000	101.309719 
1748.000000	101.276206 
1747.000000	101.251391 
1746.000000	101.230197 
1745.000000	101.210514 
1744.000000	101.195252 
1743.000000	101.186570 
1742.000000	101.181242 
1741.000000	101.175823 
1740.000000	101.172843 
1739.000000	101.175979 
1738.000000	101.182711 
1737.000000	101.190008 
1736.000000	101.200187 
1735.000000	101.218691 
1734.000000	101.244335 
1733.000000	101.262591 
1732.000000	101.268071 
1731.000000	101.270145 
1730.000000	101.274949 
1729.000000	101.282450 
1728.000000	101.292271 
1727.000000	101.304363 
1726.000000	101.315711 
1725.000000	101.322708 
1724.000000	101.326774 
1723.000000	101.333580 
1722.000000	101.345577 
1721.000000	101.360096 
1720.000000	101.373770 
1719.000000	101.383866 
1718.000000	101.386295 
1717.000000	101.378809 
1716.000000	101.368728 
1715.000000	101.367285 
1714.000000	101.376351 
1713.000000	101.386778 
1712.000000	101.388432 
1711.000000	101.378427 
1710.000000	101.360364 
1709.000000	101.340685 
1708.000000	101.325140 
1707.000000	101.313841 
1706.000000	101.299947 
1705.000000	101.276817 
1704.000000	101.247235 
1703.000000	101.217212 
1702.000000	101.183183 
1701.000000	101.137808 
1700.000000	101.092024 
1699.000000	101.064837 
1698.000000	101.054923 
1697.000000	101.046865 
1696.000000	101.023677 
1695.000000	100.981837 
1694.000000	100.934972 
1693.000000	100.893949 
1692.000000	100.857250 
1691.000000	100.819077 
1690.000000	100.777836 
1689.000000	100.738620 
1688.000000	100.707523 
1687.000000	100.683112 
1686.000000	100.653970 
1685.000000	100.607497 
1684.000000	100.549089 
1683.000000	100.497442 
1682.000000	100.458061 
1681.000000	100.424396 
1680.000000	100.390925 
1679.000000	100.357145 
1678.000000	100.323381 
1677.000000	100.289061 
1676.000000	100.256911 
1675.000000	100.233114 
1674.000000	100.215304 
1673.000000	100.193645 
1672.000000	100.164091 
1671.000000	100.130940 
1670.000000	100.101863 
1669.000000	100.078921 
1668.000000	100.057511 
1667.000000	100.035137 
1666.000000	100.010926 
1665.000000	99.980990  
1664.000000	99.939541  
1663.000000	99.885655  
1662.000000	99.827296  
1661.000000	99.775117  
1660.000000	99.734624  
1659.000000	99.706143  
1658.000000	99.687058  
1657.000000	99.673239  
1656.000000	99.660669  
1655.000000	99.646006  
1654.000000	99.633990  
1653.000000	99.638078  
1652.000000	99.648586  
1651.000000	99.650096  
1650.000000	99.646342  
1649.000000	99.645462  
1648.000000	99.658527  
1647.000000	99.693660  
1646.000000	99.737913  
1645.000000	99.768054  
1644.000000	99.781919  
1643.000000	99.791294  
1642.000000	99.803598  
1641.000000	99.817652  
1640.000000	99.829596  
1639.000000	99.839763  
1638.000000	99.852036  
1637.000000	99.868458  
1636.000000	99.887214  
1635.000000	99.904749  
1634.000000	99.923376  
1633.000000	99.949608  
1632.000000	99.984559  
1631.000000	100.022762 
1630.000000	100.057316 
1629.000000	100.085546 
1628.000000	100.109763 
1627.000000	100.132759 
1626.000000	100.155455 
1625.000000	100.179518 
1624.000000	100.208401 
1623.000000	100.242295 
1622.000000	100.274097 
1621.000000	100.297556 
1620.000000	100.313507 
1619.000000	100.324691 
1618.000000	100.332946 
1617.000000	100.343401 
1616.000000	100.363140 
1615.000000	100.392282 
1614.000000	100.424966 
1613.000000	100.456280 
1612.000000	100.485212 
1611.000000	100.513906 
1610.000000	100.543871 
1609.000000	100.573074 
1608.000000	100.598037 
1607.000000	100.617429 
1606.000000	100.631465 
1605.000000	100.640570 
1604.000000	100.646959 
1603.000000	100.655666 
1602.000000	100.671005 
1601.000000	100.692559 
1600.000000	100.716619 
1599.000000	100.740085 
1598.000000	100.760823 
1597.000000	100.776071 
1596.000000	100.783882 
1595.000000	100.786719 
1594.000000	100.791119 
1593.000000	100.801837 
1592.000000	100.817745 
1591.000000	100.834216 
1590.000000	100.847583 
1589.000000	100.856819 
1588.000000	100.862811 
1587.000000	100.867764 
1586.000000	100.874440 
1585.000000	100.884054 
1584.000000	100.895584 
1583.000000	100.907180 
1582.000000	100.917534 
1581.000000	100.925541 
1580.000000	100.930394 
1579.000000	100.932327 
1578.000000	100.932481 
1577.000000	100.931753 
1576.000000	100.928770 
1575.000000	100.920756 
1574.000000	100.909712 
1573.000000	100.901466 
1572.000000	100.899818 
1571.000000	100.905589 
1570.000000	100.917020 
1569.000000	100.927628 
1568.000000	100.930824 
1567.000000	100.925952 
1566.000000	100.915124 
1565.000000	100.901280 
1564.000000	100.889594 
1563.000000	100.885036 
1562.000000	100.887835 
1561.000000	100.890435 
1560.000000	100.880200 
1559.000000	100.856091 
1558.000000	100.832804 
1557.000000	100.821905 
1556.000000	100.824501 
1555.000000	100.832188 
1554.000000	100.833351 
1553.000000	100.822751 
1552.000000	100.807382 
1551.000000	100.798464 
1550.000000	100.801142 
1549.000000	100.810049 
1548.000000	100.816095 
1547.000000	100.816280 
1546.000000	100.815124 
1545.000000	100.820743 
1544.000000	100.838232 
1543.000000	100.865276 
1542.000000	100.896115 
1541.000000	100.927280 
1540.000000	100.955786 
1539.000000	100.974245 
1538.000000	100.981135 
1537.000000	100.983908 
1536.000000	100.990838 
1535.000000	101.009804 
1534.000000	101.045843 
1533.000000	101.090268 
1532.000000	101.123866 
1531.000000	101.140861 
1530.000000	101.150104 
1529.000000	101.161769 
1528.000000	101.181864 
1527.000000	101.212209 
1526.000000	101.250793 
1525.000000	101.291544 
1524.000000	101.326276 
1523.000000	101.348434 
1522.000000	101.357994 
1521.000000	101.364081 
1520.000000	101.375039 
1519.000000	101.390008 
1518.000000	101.405220 
1517.000000	101.420459 
1516.000000	101.438649 
1515.000000	101.461684 
1514.000000	101.489523 
1513.000000	101.521561 
1512.000000	101.556262 
1511.000000	101.590378 
1510.000000	101.621341 
1509.000000	101.651563 
1508.000000	101.688486 
1507.000000	101.733429 
1506.000000	101.765560 
1505.000000	101.774861 
1504.000000	101.779674 
1503.000000	101.795152 
1502.000000	101.821500 
1501.000000	101.848272 
1500.000000	101.864052 
1499.000000	101.865815 
1498.000000	101.859319 
1497.000000	101.853553 
1496.000000	101.854897 
1495.000000	101.863360 
1494.000000	101.875390 
1493.000000	101.888609 
1492.000000	101.902906 
1491.000000	101.920209 
1490.000000	101.941227 
1489.000000	101.961296 
1488.000000	101.973040 
1487.000000	101.972321 
1486.000000	101.961789 
1485.000000	101.950093 
1484.000000	101.945662 
1483.000000	101.948589 
1482.000000	101.949708 
1481.000000	101.940299 
1480.000000	101.921841 
1479.000000	101.900895 
1478.000000	101.878748 
1477.000000	101.853401 
1476.000000	101.827670 
1475.000000	101.805903 
1474.000000	101.782256 
1473.000000	101.741327 
1472.000000	101.677222 
1471.000000	101.604088 
1470.000000	101.537976 
1469.000000	101.484540 
1468.000000	101.444656 
1467.000000	101.418419 
1466.000000	101.404268 
1465.000000	101.399809 
1464.000000	101.402980 
1463.000000	101.411393 
1462.000000	101.421887 
1461.000000	101.431239 
1460.000000	101.437259 
1459.000000	101.438092 
1458.000000	101.432431 
1457.000000	101.423766 
1456.000000	101.419395 
1455.000000	101.420951 
1454.000000	101.424337 
1453.000000	101.426398 
1452.000000	101.428410 
1451.000000	101.433363 
1450.000000	101.440309 
1449.000000	101.445026 
1448.000000	101.447262 
1447.000000	101.451710 
1446.000000	101.459377 
1445.000000	101.465291 
1444.000000	101.465513 
1443.000000	101.462277 
1442.000000	101.460562 
1441.000000	101.461688 
1440.000000	101.463768 
1439.000000	101.466657 
1438.000000	101.473111 
1437.000000	101.484682 
1436.000000	101.495690 
1435.000000	101.498081 
1434.000000	101.492648 
1433.000000	101.486268 
1432.000000	101.485068 
1431.000000	101.491362 
1430.000000	101.501531 
1429.000000	101.508556 
1428.000000	101.508222 
1427.000000	101.500435 
1426.000000	101.485492 
1425.000000	101.464086 
1424.000000	101.441920 
1423.000000	101.427706 
1422.000000	101.422877 
1421.000000	101.419057 
1420.000000	101.405951 
1419.000000	101.381268 
1418.000000	101.351995 
1417.000000	101.326361 
1416.000000	101.309144 
1415.000000	101.300685 
1414.000000	101.295941 
1413.000000	101.287068 
1412.000000	101.270925 
1411.000000	101.252838 
1410.000000	101.240223 
1409.000000	101.235162 
1408.000000	101.235654 
1407.000000	101.240549 
1406.000000	101.250341 
1405.000000	101.265237 
1404.000000	101.284776 
1403.000000	101.308374 
1402.000000	101.334857 
1401.000000	101.362222 
1400.000000	101.387690 
1399.000000	101.406725 
1398.000000	101.412776 
1397.000000	101.401455 
1396.000000	101.377090 
1395.000000	101.356587 
1394.000000	101.359441 
1393.000000	101.388681 
1392.000000	101.430594 
1391.000000	101.469619 
1390.000000	101.497380 
1389.000000	101.512850 
1388.000000	101.520289 
1387.000000	101.526295 
1386.000000	101.534255 
1385.000000	101.541722 
1384.000000	101.544621 
1383.000000	101.542156 
1382.000000	101.537265 
1381.000000	101.533380 
1380.000000	101.532139 
1379.000000	101.534207 
1378.000000	101.539725 
1377.000000	101.547529 
1376.000000	101.556626 
1375.000000	101.569183 
1374.000000	101.588922 
1373.000000	101.614931 
1372.000000	101.640962 
1371.000000	101.661652 
1370.000000	101.675610 
1369.000000	101.683503 
1368.000000	101.686753 
1367.000000	101.688374 
1366.000000	101.692557 
1365.000000	101.702115 
1364.000000	101.716918 
1363.000000	101.734594 
1362.000000	101.752046 
1361.000000	101.766662 
1360.000000	101.777665 
1359.000000	101.787283 
1358.000000	101.799300 
1357.000000	101.814481 
1356.000000	101.828310 
1355.000000	101.835801 
1354.000000	101.837969 
1353.000000	101.840856 
1352.000000	101.848613 
1351.000000	101.860694 
1350.000000	101.874931 
1349.000000	101.889453 
1348.000000	101.902259 
1347.000000	101.912525 
1346.000000	101.922083 
1345.000000	101.932301 
1344.000000	101.939728 
1343.000000	101.938540 
1342.000000	101.928333 
1341.000000	101.917462 
1340.000000	101.916771 
1339.000000	101.929061 
1338.000000	101.946333 
1337.000000	101.958034 
1336.000000	101.959776 
1335.000000	101.954484 
1334.000000	101.948010 
1333.000000	101.943775 
1332.000000	101.941238 
1331.000000	101.939743 
1330.000000	101.942310 
1329.000000	101.952830 
1328.000000	101.969168 
1327.000000	101.982007 
1326.000000	101.982717 
1325.000000	101.971295 
1324.000000	101.955959 
1323.000000	101.944934 
1322.000000	101.939396 
1321.000000	101.934999 
1320.000000	101.928711 
1319.000000	101.922308 
1318.000000	101.919027 
1317.000000	101.919087 
1316.000000	101.920499 
1315.000000	101.922676 
1314.000000	101.926450 
1313.000000	101.931004 
1312.000000	101.933701 
1311.000000	101.933709 
1310.000000	101.933331 
1309.000000	101.934587 
1308.000000	101.936648 
1307.000000	101.938052 
1306.000000	101.939567 
1305.000000	101.942994 
1304.000000	101.948535 
1303.000000	101.954511 
1302.000000	101.958489 
1301.000000	101.958177 
1300.000000	101.953195 
1299.000000	101.947056 
1298.000000	101.945061 
1297.000000	101.948281 
1296.000000	101.951602 
1295.000000	101.949687 
1294.000000	101.942746 
1293.000000	101.934339 
1292.000000	101.925547 
1291.000000	101.914603 
1290.000000	101.901328 
1289.000000	101.888547 
1288.000000	101.878629 
1287.000000	101.870425 
1286.000000	101.860136 
1285.000000	101.844792 
1284.000000	101.825697 
1283.000000	101.809335 
1282.000000	101.802626 
1281.000000	101.804818 
1280.000000	101.806146 
1279.000000	101.797456 
1278.000000	101.779753 
1277.000000	101.761926 
1276.000000	101.749695 
1275.000000	101.739469 
1274.000000	101.723602 
1273.000000	101.699113 
1272.000000	101.670103 
1271.000000	101.642777 
1270.000000	101.618785 
1269.000000	101.593900 
1268.000000	101.563880 
1267.000000	101.530814 
1266.000000	101.501360 
1265.000000	101.478502 
1264.000000	101.458464 
1263.000000	101.437327 
1262.000000	101.416709 
1261.000000	101.399363 
1260.000000	101.382691 
1259.000000	101.362148 
1258.000000	101.339333 
1257.000000	101.321039 
1256.000000	101.310401 
1255.000000	101.303152 
1254.000000	101.292314 
1253.000000	101.273187 
1252.000000	101.244849 
1251.000000	101.211587 
1250.000000	101.182618 
1249.000000	101.165365 
1248.000000	101.158287 
1247.000000	101.153832 
1246.000000	101.147129 
1245.000000	101.136792 
1244.000000	101.119362 
1243.000000	101.091978 
1242.000000	101.062399 
1241.000000	101.047032 
1240.000000	101.052980 
1239.000000	101.067619 
1238.000000	101.071622 
1237.000000	101.058073 
1236.000000	101.033654 
1235.000000	101.006012 
1234.000000	100.977528 
1233.000000	100.950042 
1232.000000	100.927810 
1231.000000	100.913097 
1230.000000	100.902611 
1229.000000	100.890305 
1228.000000	100.872159 
1227.000000	100.847640 
1226.000000	100.817781 
1225.000000	100.782533 
1224.000000	100.740306 
1223.000000	100.691393 
1222.000000	100.641374 
1221.000000	100.597415 
1220.000000	100.559545 
1219.000000	100.518912 
1218.000000	100.466909 
1217.000000	100.403193 
1216.000000	100.332774 
1215.000000	100.258903 
1214.000000	100.182568 
1213.000000	100.105912 
1212.000000	100.030944 
1211.000000	99.955884  
1210.000000	99.876725  
1209.000000	99.791440  
1208.000000	99.699729  
1207.000000	99.600936  
1206.000000	99.496670  
1205.000000	99.393918  
1204.000000	99.300409  
1203.000000	99.216762  
1202.000000	99.136705  
1201.000000	99.054556  
1200.000000	98.969288  
1199.000000	98.882343  
1198.000000	98.795845  
1197.000000	98.713156  
1196.000000	98.636587  
1195.000000	98.563378  
1194.000000	98.487473  
1193.000000	98.406204  
1192.000000	98.322343  
1191.000000	98.238816  
1190.000000	98.154643  
1189.000000	98.067684  
1188.000000	97.978214  
1187.000000	97.887096  
1186.000000	97.792522  
1185.000000	97.691832  
1184.000000	97.585775  
1183.000000	97.477993  
1182.000000	97.370125  
1181.000000	97.259818  
1180.000000	97.144183  
1179.000000	97.022564  
1178.000000	96.894250  
1177.000000	96.756275  
1176.000000	96.607248  
1175.000000	96.452480  
1174.000000	96.300547  
1173.000000	96.153355  
1172.000000	96.003672  
1171.000000	95.845144  
1170.000000	95.681277  
1169.000000	95.521315  
1168.000000	95.370802  
1167.000000	95.231216  
1166.000000	95.106726  
1165.000000	95.005223  
1164.000000	94.932880  
1163.000000	94.892551  
1162.000000	94.886801  
1161.000000	94.916524  
1160.000000	94.974866  
1159.000000	95.045770  
1158.000000	95.109657  
1157.000000	95.150209  
1156.000000	95.159354  
1155.000000	95.139875  
1154.000000	95.101292  
1153.000000	95.049249  
1152.000000	94.980666  
1151.000000	94.892837  
1150.000000	94.793717  
1149.000000	94.697104  
1148.000000	94.609190  
1147.000000	94.525845  
1146.000000	94.441159  
1145.000000	94.351020  
1144.000000	94.249608  
1143.000000	94.131639  
1142.000000	94.000518  
1141.000000	93.867747  
1140.000000	93.741508  
1139.000000	93.620452  
1138.000000	93.499512  
1137.000000	93.375933  
1136.000000	93.248556  
1135.000000	93.117187  
1134.000000	92.984102  
1133.000000	92.851022  
1132.000000	92.714570  
1131.000000	92.571064  
1130.000000	92.425568  
1129.000000	92.287833  
1128.000000	92.157172  
1127.000000	92.019467  
1126.000000	91.863172  
1125.000000	91.692556  
1124.000000	91.522080  
1123.000000	91.362583  
1122.000000	91.215474  
1121.000000	91.075103  
1120.000000	90.933647  
1119.000000	90.787134  
1118.000000	90.638116  
1117.000000	90.489912  
1116.000000	90.340249  
1115.000000	90.185680  
1114.000000	90.030063  
1113.000000	89.881950  
1112.000000	89.745239  
1111.000000	89.619261  
1110.000000	89.505073  
1109.000000	89.402312  
1108.000000	89.301475  
1107.000000	89.189946  
1106.000000	89.067083  
1105.000000	88.945006  
1104.000000	88.834653  
1103.000000	88.738694  
1102.000000	88.655751  
1101.000000	88.581365  
1100.000000	88.505953  
1099.000000	88.421829  
1098.000000	88.332488  
1097.000000	88.245415  
1096.000000	88.157777  
1095.000000	88.058967  
1094.000000	87.945646  
1093.000000	87.823138  
1092.000000	87.691892  
1091.000000	87.543627  
1090.000000	87.372882  
1089.000000	87.183232  
1088.000000	86.981358  
1087.000000	86.773938  
1086.000000	86.570160  
1085.000000	86.376379  
1084.000000	86.187269  
1083.000000	85.993158  
1082.000000	85.797298  
1081.000000	85.615303  
1080.000000	85.456373  
1079.000000	85.315517  
1078.000000	85.184906  
1077.000000	85.061476  
1076.000000	84.941487  
1075.000000	84.818631  
1074.000000	84.690740  
1073.000000	84.560212  
1072.000000	84.426025  
1071.000000	84.281096  
1070.000000	84.116236  
1069.000000	83.922558  
1068.000000	83.697848  
1067.000000	83.460066  
1066.000000	83.245424  
1065.000000	83.077870  
1064.000000	82.945704  
1063.000000	82.821012  
1062.000000	82.692550  
1061.000000	82.563918  
1060.000000	82.433988  
1059.000000	82.305300  
1058.000000	82.203008  
1057.000000	82.153510  
1056.000000	82.142061  
1055.000000	82.118730  
1054.000000	82.050466  
1053.000000	81.943144  
1052.000000	81.809833  
1051.000000	81.644925  
1050.000000	81.441244  
1049.000000	81.207771  
1048.000000	80.955438  
1047.000000	80.684688  
1046.000000	80.396895  
1045.000000	80.099821  
1044.000000	79.795444  
1043.000000	79.479050  
1042.000000	79.154265  
1041.000000	78.833095  
1040.000000	78.519728  
1039.000000	78.212585  
1038.000000	77.923316  
1037.000000	77.672195  
1036.000000	77.461537  
1035.000000	77.275057  
1034.000000	77.105738  
1033.000000	76.960022  
1032.000000	76.829557  
1031.000000	76.684641  
1030.000000	76.508372  
1029.000000	76.320836  
1028.000000	76.160293  
1027.000000	76.052452  
1026.000000	75.998652  
1025.000000	75.975390  
1024.000000	75.942928  
1023.000000	75.873916  
1022.000000	75.778301  
1021.000000	75.686626  
1020.000000	75.612130  
1019.000000	75.547005  
1018.000000	75.489773  
1017.000000	75.450497  
1016.000000	75.429122  
1015.000000	75.414369  
1014.000000	75.406064  
1013.000000	75.413527  
1012.000000	75.429042  
1011.000000	75.428097  
1010.000000	75.401698  
1009.000000	75.366233  
1008.000000	75.336846  
1007.000000	75.313669  
1006.000000	75.298380  
1005.000000	75.300021  
1004.000000	75.316779  
1003.000000	75.333227  
1002.000000	75.343349  
1001.000000	75.357620  
1000.000000	75.381491  
999.000000	 75.405655  
998.000000	 75.423443  
997.000000	 75.440581  
996.000000	 75.463065  
995.000000	 75.491775  
994.000000	 75.531214  
993.000000	 75.585529  
992.000000	 75.644593  
991.000000	 75.693620  
990.000000	 75.738297  
989.000000	 75.799735  
988.000000	 75.882658  
987.000000	 75.970494  
986.000000	 76.055405  
985.000000	 76.150543  
984.000000	 76.265766  
983.000000	 76.393165  
982.000000	 76.525488  
981.000000	 76.669864  
980.000000	 76.833738  
979.000000	 77.013255  
978.000000	 77.203936  
977.000000	 77.408927  
976.000000	 77.630404  
975.000000	 77.865051  
974.000000	 78.111922  
973.000000	 78.372999  
972.000000	 78.644477  
971.000000	 78.920607  
970.000000	 79.206664  
969.000000	 79.513030  
968.000000	 79.834770  
967.000000	 80.152200  
966.000000	 80.454788  
965.000000	 80.750370  
964.000000	 81.047451  
963.000000	 81.342267  
962.000000	 81.628532  
961.000000	 81.908710  
960.000000	 82.189608  
959.000000	 82.473398  
958.000000	 82.755764  
957.000000	 83.027983  
956.000000	 83.281882  
955.000000	 83.518453  
954.000000	 83.748242  
953.000000	 83.976634  
952.000000	 84.193700  
951.000000	 84.387153  
950.000000	 84.560054  
949.000000	 84.725540  
948.000000	 84.888344  
947.000000	 85.042591  
946.000000	 85.184692  
945.000000	 85.317274  
944.000000	 85.442031  
943.000000	 85.558233  
942.000000	 85.666791  
941.000000	 85.767845  
940.000000	 85.857965  
939.000000	 85.937446  
938.000000	 86.015104  
937.000000	 86.097676  
936.000000	 86.181000  
935.000000	 86.260925  
934.000000	 86.344763  
933.000000	 86.440514  
932.000000	 86.542990  
931.000000	 86.644067  
930.000000	 86.748754  
929.000000	 86.865324  
928.000000	 86.986018  
927.000000	 87.095099  
926.000000	 87.192514  
925.000000	 87.292073  
924.000000	 87.397147  
923.000000	 87.494637  
922.000000	 87.574722  
921.000000	 87.643266  
920.000000	 87.712195  
919.000000	 87.787110  
918.000000	 87.864505  
917.000000	 87.933585  
916.000000	 87.985237  
915.000000	 88.028629  
914.000000	 88.092289  
913.000000	 88.196348  
912.000000	 88.329127  
911.000000	 88.464135  
910.000000	 88.595316  
909.000000	 88.740224  
908.000000	 88.913922  
907.000000	 89.118189  
906.000000	 89.352169  
905.000000	 89.612491  
904.000000	 89.882245  
903.000000	 90.140443  
902.000000	 90.388734  
901.000000	 90.653991  
900.000000	 90.958395  
899.000000	 91.296201  
898.000000	 91.640769  
897.000000	 91.964575  
896.000000	 92.253465  
895.000000	 92.513334  
894.000000	 92.766339  
893.000000	 93.033911  
892.000000	 93.322039  
891.000000	 93.626518  
890.000000	 93.945863  
889.000000	 94.278082  
888.000000	 94.609212  
887.000000	 94.919116  
886.000000	 95.199500  
885.000000	 95.456536  
884.000000	 95.696764  
883.000000	 95.920174  
882.000000	 96.126094  
881.000000	 96.315388  
880.000000	 96.486739  
879.000000	 96.639984  
878.000000	 96.782342  
877.000000	 96.921848  
876.000000	 97.056314  
875.000000	 97.180188  
874.000000	 97.302054  
873.000000	 97.443071  
872.000000	 97.615148  
871.000000	 97.809752  
870.000000	 98.010105  
869.000000	 98.206208  
868.000000	 98.397152  
867.000000	 98.587096  
866.000000	 98.781245  
865.000000	 98.980683  
864.000000	 99.180180  
863.000000	 99.374311  
862.000000	 99.563089  
861.000000	 99.746697  
860.000000	 99.919715  
859.000000	 100.078940 
858.000000	 100.232549 
857.000000	 100.390112 
856.000000	 100.545292 
855.000000	 100.681585 
854.000000	 100.796673 
853.000000	 100.907788 
852.000000	 101.026801 
851.000000	 101.141249 
850.000000	 101.230880 
849.000000	 101.295812 
848.000000	 101.355779 
847.000000	 101.422159 
846.000000	 101.481177 
845.000000	 101.508318 
844.000000	 101.493461 
843.000000	 101.448707 
842.000000	 101.395392 
841.000000	 101.346660 
840.000000	 101.299378 
839.000000	 101.238338 
838.000000	 101.149150 
837.000000	 101.032034 
836.000000	 100.905616 
835.000000	 100.794691 
834.000000	 100.711346 
833.000000	 100.648179 
832.000000	 100.591178 
831.000000	 100.538371 
830.000000	 100.502001 
829.000000	 100.491936 
828.000000	 100.502053 
827.000000	 100.515979 
826.000000	 100.522752 
825.000000	 100.522451 
824.000000	 100.519038 
823.000000	 100.513916 
822.000000	 100.507444 
821.000000	 100.502534 
820.000000	 100.502534 
819.000000	 100.502245 
818.000000	 100.480141 
817.000000	 100.405268 
816.000000	 100.260921 
815.000000	 100.062569 
814.000000	 99.843207  
813.000000	 99.614739  
812.000000	 99.349201  
811.000000	 99.004851  
810.000000	 98.566017  
809.000000	 98.049672  
808.000000	 97.477777  
807.000000	 96.856600  
806.000000	 96.186471  
805.000000	 95.480015  
804.000000	 94.762804  
803.000000	 94.064500  
802.000000	 93.418767  
801.000000	 92.863974  
800.000000	 92.429047  
799.000000	 92.117034  
798.000000	 91.910285  
797.000000	 91.792865  
796.000000	 91.762595  
795.000000	 91.820337  
794.000000	 91.953714  
793.000000	 92.135815  
792.000000	 92.337056  
791.000000	 92.531715  
790.000000	 92.692342  
789.000000	 92.789003  
788.000000	 92.805746  
787.000000	 92.754216  
786.000000	 92.658696  
785.000000	 92.526542  
784.000000	 92.342944  
783.000000	 92.098808  
782.000000	 91.816512  
781.000000	 91.544058  
780.000000	 91.329524  
779.000000	 91.202858  
778.000000	 91.172526  
777.000000	 91.230547  
776.000000	 91.363727  
775.000000	 91.564868  
774.000000	 91.828326  
773.000000	 92.132794  
772.000000	 92.439686  
771.000000	 92.716764  
770.000000	 92.956096  
769.000000	 93.163850  
768.000000	 93.345460  
767.000000	 93.510249  
766.000000	 93.675078  
765.000000	 93.844573  
764.000000	 93.995719  
763.000000	 94.102602  
762.000000	 94.174280  
761.000000	 94.248824  
760.000000	 94.348699  
759.000000	 94.460989  
758.000000	 94.566490  
757.000000	 94.668579  
756.000000	 94.781689  
755.000000	 94.905763  
754.000000	 95.026650  
753.000000	 95.134423  
752.000000	 95.229941  
751.000000	 95.319112  
750.000000	 95.412220  
749.000000	 95.524534  
748.000000	 95.663956  
747.000000	 95.817463  
746.000000	 95.961248  
745.000000	 96.089014  
744.000000	 96.223253  
743.000000	 96.393538  
742.000000	 96.607724  
741.000000	 96.846270  
740.000000	 97.079429  
739.000000	 97.287279  
738.000000	 97.466999  
737.000000	 97.626302  
736.000000	 97.771434  
735.000000	 97.901874  
734.000000	 98.018355  
733.000000	 98.133224  
732.000000	 98.263694  
731.000000	 98.409666  
730.000000	 98.545361  
729.000000	 98.642890  
728.000000	 98.702687  
727.000000	 98.751810  
726.000000	 98.811852  
725.000000	 98.878555  
724.000000	 98.937094  
723.000000	 98.988186  
722.000000	 99.049743  
721.000000	 99.134871  
720.000000	 99.236216  
719.000000	 99.335233  
718.000000	 99.422997  
717.000000	 99.506645  
716.000000	 99.596193  
715.000000	 99.690194  
714.000000	 99.776640  
713.000000	 99.844792  
712.000000	 99.890423  
711.000000	 99.909653  
710.000000	 99.896329  
709.000000	 99.851757  
708.000000	 99.792161  
707.000000	 99.737771  
706.000000	 99.693112  
705.000000	 99.641221  
704.000000	 99.554573  
703.000000	 99.406972  
702.000000	 99.179773  
701.000000	 98.867955  
700.000000	 98.484198  
699.000000	 98.054913  
698.000000	 97.616435  
697.000000	 97.219864  
696.000000	 96.929263  
695.000000	 96.798529  
694.000000	 96.845089  
693.000000	 97.043873  
692.000000	 97.338388  
691.000000	 97.658144  
690.000000	 97.942980  
689.000000	 98.171158  
688.000000	 98.367103  
687.000000	 98.567436  
686.000000	 98.774832  
685.000000	 98.958089  
684.000000	 99.097546  
683.000000	 99.211641  
682.000000	 99.332184  
681.000000	 99.467940  
680.000000	 99.602486  
679.000000	 99.720080  
678.000000	 99.822888  
677.000000	 99.925996  
676.000000	 100.042005 
675.000000	 100.170682 
674.000000	 100.293066 
673.000000	 100.381315 
672.000000	 100.426085 
671.000000	 100.448472 
670.000000	 100.478019 
669.000000	 100.538665 
668.000000	 100.661247 
667.000000	 100.834028 
666.000000	 100.982361 
665.000000	 101.083714 
664.000000	 101.164033 
663.000000	 101.249660 
662.000000	 101.357887 
661.000000	 101.488666 
660.000000	 101.621795 
659.000000	 101.731500 
658.000000	 101.804017 
657.000000	 101.840366 
656.000000	 101.842754 
655.000000	 101.813503 
654.000000	 101.771270 
653.000000	 101.757374 
652.000000	 101.808951 
651.000000	 101.916287 
650.000000	 102.017022 

