PE IR                   SPECTRUM    ASCII       PEDS        1.60        
  -1
~SP.SP
22/12/06
15:18:40.00
23/01/09
14:48:47.00
Administrator

650.000000
4









FRONTIER FT-IR,CPU32 MAIN 00.09.9951 07-SEPTEMBER-2011 11:49:41
MIR TGS
MIR
OPTKBR
90694
0.200000

4.000000
STRONG
RATIO
SPECTRUM
MAGNITUDE
MIRACLE ATR
DOUBLE

COMBINED


0


#HDR
-1
-1
#GR
CM-1
%T
0.00002384185791015625
0.0
4000.000000
-1.000000
3351
8
99.503331
79.308745
#DATA
4000.000000	99.464408 
3999.000000	99.461759 
3998.000000	99.454754 
3997.000000	99.447410 
3996.000000	99.442833 
3995.000000	99.441430 
3994.000000	99.441751 
3993.000000	99.442085 
3992.000000	99.442016 
3991.000000	99.442571 
3990.000000	99.444997 
3989.000000	99.449448 
3988.000000	99.454624 
3987.000000	99.458665 
3986.000000	99.460502 
3985.000000	99.460481 
3984.000000	99.460064 
3983.000000	99.460629 
3982.000000	99.462168 
3981.000000	99.463374 
3980.000000	99.463123 
3979.000000	99.461557 
3978.000000	99.459504 
3977.000000	99.457338 
3976.000000	99.454978 
3975.000000	99.452899 
3974.000000	99.452308 
3973.000000	99.453850 
3972.000000	99.456650 
3971.000000	99.458974 
3970.000000	99.459678 
3969.000000	99.458880 
3968.000000	99.457361 
3967.000000	99.455682 
3966.000000	99.453862 
3965.000000	99.451797 
3964.000000	99.449832 
3963.000000	99.448694 
3962.000000	99.448779 
3961.000000	99.449738 
3960.000000	99.451013 
3959.000000	99.452582 
3958.000000	99.454852 
3957.000000	99.457827 
3956.000000	99.460770 
3955.000000	99.462793 
3954.000000	99.463553 
3953.000000	99.463265 
3952.000000	99.462291 
3951.000000	99.460898 
3950.000000	99.459323 
3949.000000	99.457909 
3948.000000	99.457034 
3947.000000	99.456927 
3946.000000	99.457651 
3945.000000	99.459073 
3944.000000	99.460785 
3943.000000	99.462088 
3942.000000	99.462294 
3941.000000	99.461252 
3940.000000	99.459472 
3939.000000	99.457701 
3938.000000	99.456389 
3937.000000	99.455582 
3936.000000	99.455279 
3935.000000	99.455695 
3934.000000	99.456965 
3933.000000	99.458584 
3932.000000	99.459484 
3931.000000	99.459019 
3930.000000	99.457590 
3929.000000	99.456265 
3928.000000	99.455813 
3927.000000	99.456211 
3926.000000	99.456858 
3925.000000	99.457052 
3924.000000	99.456398 
3923.000000	99.454975 
3922.000000	99.453268 
3921.000000	99.451835 
3920.000000	99.451019 
3919.000000	99.450891 
3918.000000	99.451378 
3917.000000	99.452261 
3916.000000	99.453128 
3915.000000	99.453618 
3914.000000	99.453739 
3913.000000	99.453759 
3912.000000	99.453727 
3911.000000	99.453237 
3910.000000	99.451948 
3909.000000	99.450215 
3908.000000	99.449089 
3907.000000	99.449648 
3906.000000	99.452146 
3905.000000	99.455540 
3904.000000	99.457859 
3903.000000	99.457685 
3902.000000	99.455005 
3901.000000	99.450814 
3900.000000	99.446328 
3899.000000	99.442498 
3898.000000	99.439915 
3897.000000	99.438843 
3896.000000	99.439259 
3895.000000	99.440878 
3894.000000	99.443264 
3893.000000	99.445741 
3892.000000	99.447418 
3891.000000	99.447703 
3890.000000	99.446736 
3889.000000	99.445287 
3888.000000	99.444273 
3887.000000	99.444262 
3886.000000	99.444985 
3885.000000	99.445541 
3884.000000	99.445305 
3883.000000	99.444383 
3882.000000	99.443226 
3881.000000	99.442184 
3880.000000	99.441482 
3879.000000	99.441377 
3878.000000	99.441980 
3877.000000	99.443031 
3876.000000	99.443969 
3875.000000	99.444225 
3874.000000	99.443583 
3873.000000	99.442444 
3872.000000	99.441679 
3871.000000	99.442009 
3870.000000	99.443263 
3869.000000	99.444374 
3868.000000	99.444547 
3867.000000	99.444055 
3866.000000	99.443865 
3865.000000	99.444653 
3864.000000	99.446155 
3863.000000	99.447526 
3862.000000	99.448301 
3861.000000	99.448565 
3860.000000	99.448636 
3859.000000	99.448787 
3858.000000	99.449070 
3857.000000	99.449394 
3856.000000	99.449683 
3855.000000	99.449887 
3854.000000	99.449798 
3853.000000	99.449338 
3852.000000	99.448896 
3851.000000	99.448798 
3850.000000	99.449021 
3849.000000	99.449362 
3848.000000	99.449560 
3847.000000	99.449414 
3846.000000	99.448972 
3845.000000	99.448520 
3844.000000	99.448275 
3843.000000	99.448164 
3842.000000	99.447995 
3841.000000	99.447740 
3840.000000	99.447595 
3839.000000	99.447637 
3838.000000	99.447609 
3837.000000	99.447351 
3836.000000	99.447183 
3835.000000	99.447615 
3834.000000	99.448737 
3833.000000	99.449980 
3832.000000	99.450516 
3831.000000	99.449988 
3830.000000	99.448862 
3829.000000	99.448169 
3828.000000	99.448678 
3827.000000	99.450296 
3826.000000	99.452085 
3825.000000	99.453008 
3824.000000	99.452914 
3823.000000	99.452752 
3822.000000	99.453481 
3821.000000	99.454652 
3820.000000	99.454798 
3819.000000	99.453214 
3818.000000	99.450771 
3817.000000	99.449328 
3816.000000	99.450016 
3815.000000	99.452093 
3814.000000	99.453721 
3813.000000	99.453583 
3812.000000	99.451331 
3811.000000	99.447143 
3810.000000	99.441721 
3809.000000	99.436630 
3808.000000	99.433846 
3807.000000	99.434311 
3806.000000	99.437228 
3805.000000	99.441022 
3804.000000	99.444773 
3803.000000	99.448118 
3802.000000	99.450417 
3801.000000	99.451262 
3800.000000	99.451667 
3799.000000	99.453325 
3798.000000	99.456702 
3797.000000	99.460472 
3796.000000	99.462577 
3795.000000	99.462064 
3794.000000	99.459727 
3793.000000	99.456999 
3792.000000	99.454747 
3791.000000	99.453027 
3790.000000	99.451542 
3789.000000	99.449907 
3788.000000	99.447705 
3787.000000	99.445016 
3786.000000	99.442911 
3785.000000	99.442782 
3784.000000	99.444821 
3783.000000	99.447571 
3782.000000	99.449224 
3781.000000	99.449110 
3780.000000	99.447920 
3779.000000	99.446848 
3778.000000	99.446749 
3777.000000	99.447760 
3776.000000	99.449498 
3775.000000	99.451417 
3774.000000	99.453084 
3773.000000	99.454515 
3772.000000	99.456238 
3771.000000	99.458574 
3770.000000	99.460609 
3769.000000	99.460627 
3768.000000	99.458059 
3767.000000	99.454411 
3766.000000	99.452069 
3765.000000	99.452438 
3764.000000	99.455040 
3763.000000	99.458486 
3762.000000	99.461708 
3761.000000	99.463688 
3760.000000	99.463266 
3759.000000	99.460493 
3758.000000	99.458134 
3757.000000	99.458828 
3756.000000	99.461266 
3755.000000	99.461889 
3754.000000	99.459296 
3753.000000	99.455884 
3752.000000	99.454459 
3751.000000	99.454405 
3750.000000	99.453800 
3749.000000	99.451992 
3748.000000	99.448391 
3747.000000	99.442964 
3746.000000	99.438355 
3745.000000	99.437883 
3744.000000	99.440172 
3743.000000	99.441451 
3742.000000	99.441180 
3741.000000	99.441566 
3740.000000	99.444821 
3739.000000	99.450833 
3738.000000	99.457456 
3737.000000	99.462674 
3736.000000	99.464979 
3735.000000	99.463942 
3734.000000	99.460734 
3733.000000	99.457758 
3732.000000	99.456706 
3731.000000	99.456905 
3730.000000	99.456316 
3729.000000	99.453486 
3728.000000	99.448763 
3727.000000	99.444407 
3726.000000	99.442845 
3725.000000	99.444111 
3724.000000	99.444495 
3723.000000	99.438906 
3722.000000	99.425770 
3721.000000	99.409488 
3720.000000	99.397347 
3719.000000	99.392413 
3718.000000	99.391263 
3717.000000	99.388329 
3716.000000	99.381133 
3715.000000	99.372499 
3714.000000	99.367596 
3713.000000	99.368096 
3712.000000	99.369192 
3711.000000	99.364386 
3710.000000	99.352539 
3709.000000	99.336861 
3708.000000	99.320366 
3707.000000	99.304823 
3706.000000	99.291337 
3705.000000	99.280548 
3704.000000	99.272344 
3703.000000	99.265967 
3702.000000	99.260857 
3701.000000	99.256989 
3700.000000	99.254278 
3699.000000	99.251893 
3698.000000	99.248781 
3697.000000	99.244463 
3696.000000	99.238595 
3695.000000	99.230727 
3694.000000	99.220913 
3693.000000	99.209894 
3692.000000	99.198373 
3691.000000	99.186324 
3690.000000	99.173661 
3689.000000	99.161421 
3688.000000	99.151532 
3687.000000	99.144809 
3686.000000	99.140114 
3685.000000	99.135893 
3684.000000	99.131490 
3683.000000	99.126843 
3682.000000	99.121729 
3681.000000	99.115444 
3680.000000	99.106677 
3679.000000	99.094617 
3678.000000	99.080485 
3677.000000	99.067905 
3676.000000	99.059873 
3675.000000	99.054845 
3674.000000	99.048672 
3673.000000	99.038961 
3672.000000	99.026091 
3671.000000	99.011536 
3670.000000	98.996378 
3669.000000	98.981887 
3668.000000	98.969857 
3667.000000	98.960990 
3666.000000	98.954134 
3665.000000	98.947552 
3664.000000	98.940409 
3663.000000	98.932893 
3662.000000	98.925246 
3661.000000	98.916872 
3660.000000	98.906733 
3659.000000	98.895261 
3658.000000	98.885001 
3657.000000	98.878498 
3656.000000	98.874977 
3655.000000	98.870366 
3654.000000	98.861401 
3653.000000	98.848718 
3652.000000	98.836709 
3651.000000	98.830499 
3650.000000	98.831873 
3649.000000	98.837726 
3648.000000	98.842148 
3647.000000	98.839877 
3646.000000	98.829341 
3645.000000	98.813861 
3644.000000	98.799693 
3643.000000	98.791245 
3642.000000	98.787365 
3641.000000	98.782377 
3640.000000	98.771576 
3639.000000	98.756202 
3638.000000	98.742537 
3637.000000	98.736968 
3636.000000	98.741470 
3635.000000	98.751988 
3634.000000	98.760388 
3633.000000	98.759681 
3632.000000	98.749526 
3631.000000	98.736714 
3630.000000	98.728974 
3629.000000	98.726850 
3628.000000	98.725466 
3627.000000	98.722262 
3626.000000	98.717293 
3625.000000	98.709995 
3624.000000	98.699736 
3623.000000	98.688573 
3622.000000	98.682285 
3621.000000	98.687050 
3620.000000	98.703263 
3619.000000	98.723255 
3618.000000	98.738178 
3617.000000	98.745743 
3616.000000	98.749463 
3615.000000	98.754195 
3614.000000	98.762710 
3613.000000	98.774059 
3612.000000	98.785224 
3611.000000	98.794981 
3610.000000	98.805623 
3609.000000	98.820215 
3608.000000	98.838523 
3607.000000	98.856170 
3606.000000	98.868468 
3605.000000	98.874343 
3604.000000	98.876621 
3603.000000	98.879450 
3602.000000	98.884734 
3601.000000	98.891020 
3600.000000	98.896179 
3599.000000	98.900853 
3598.000000	98.908436 
3597.000000	98.921457 
3596.000000	98.938154 
3595.000000	98.953323 
3594.000000	98.962221 
3593.000000	98.963850 
3592.000000	98.961496 
3591.000000	98.961082 
3590.000000	98.968388 
3589.000000	98.985007 
3588.000000	99.005116 
3587.000000	99.019063 
3586.000000	99.022176 
3585.000000	99.017073 
3584.000000	99.008591 
3583.000000	98.999791 
3582.000000	98.991999 
3581.000000	98.986606 
3580.000000	98.985307 
3579.000000	98.988771 
3578.000000	98.995908 
3577.000000	99.004756 
3576.000000	99.013795 
3575.000000	99.022039 
3574.000000	99.028556 
3573.000000	99.032561 
3572.000000	99.034287 
3571.000000	99.035315 
3570.000000	99.037529 
3569.000000	99.041316 
3568.000000	99.044689 
3567.000000	99.045129 
3566.000000	99.042730 
3565.000000	99.040176 
3564.000000	99.039870 
3563.000000	99.042365 
3562.000000	99.046875 
3561.000000	99.051969 
3560.000000	99.055866 
3559.000000	99.056932 
3558.000000	99.054701 
3557.000000	99.050719 
3556.000000	99.048015 
3555.000000	99.049096 
3554.000000	99.054118 
3553.000000	99.060641 
3552.000000	99.065345 
3551.000000	99.066601 
3550.000000	99.065249 
3549.000000	99.063276 
3548.000000	99.061858 
3547.000000	99.060774 
3546.000000	99.059605 
3545.000000	99.059030 
3544.000000	99.060280 
3543.000000	99.063447 
3542.000000	99.067037 
3541.000000	99.069421 
3540.000000	99.070320 
3539.000000	99.070838 
3538.000000	99.072312 
3537.000000	99.075401 
3536.000000	99.080076 
3535.000000	99.086029 
3534.000000	99.092675 
3533.000000	99.099046 
3532.000000	99.104187 
3531.000000	99.107857 
3530.000000	99.110782 
3529.000000	99.113926 
3528.000000	99.117356 
3527.000000	99.119983 
3526.000000	99.120710 
3525.000000	99.119710 
3524.000000	99.118367 
3523.000000	99.117825 
3522.000000	99.117846 
3521.000000	99.117524 
3520.000000	99.116979 
3519.000000	99.117744 
3518.000000	99.121145 
3517.000000	99.126605 
3516.000000	99.131789 
3515.000000	99.134516 
3514.000000	99.134426 
3513.000000	99.133029 
3512.000000	99.132735 
3511.000000	99.135490 
3510.000000	99.141619 
3509.000000	99.149395 
3508.000000	99.155907 
3507.000000	99.159378 
3506.000000	99.160597 
3505.000000	99.162101 
3504.000000	99.165821 
3503.000000	99.171421 
3502.000000	99.177016 
3501.000000	99.181184 
3500.000000	99.183883 
3499.000000	99.185665 
3498.000000	99.186755 
3497.000000	99.187086 
3496.000000	99.186851 
3495.000000	99.186591 
3494.000000	99.186824 
3493.000000	99.187839 
3492.000000	99.189845 
3491.000000	99.192993 
3490.000000	99.197069 
3489.000000	99.201280 
3488.000000	99.204638 
3487.000000	99.206705 
3486.000000	99.207948 
3485.000000	99.209335 
3484.000000	99.211386 
3483.000000	99.213603 
3482.000000	99.215008 
3481.000000	99.215417 
3480.000000	99.215901 
3479.000000	99.217593 
3478.000000	99.220137 
3477.000000	99.221939 
3476.000000	99.222097 
3475.000000	99.221630 
3474.000000	99.222321 
3473.000000	99.224722 
3472.000000	99.228001 
3471.000000	99.231319 
3470.000000	99.234601 
3469.000000	99.237704 
3468.000000	99.239913 
3467.000000	99.240956 
3466.000000	99.241876 
3465.000000	99.243968 
3464.000000	99.247020 
3463.000000	99.249378 
3462.000000	99.249961 
3461.000000	99.249525 
3460.000000	99.249704 
3459.000000	99.251222 
3458.000000	99.253561 
3457.000000	99.255967 
3456.000000	99.258253 
3455.000000	99.260570 
3454.000000	99.262808 
3453.000000	99.264738 
3452.000000	99.266672 
3451.000000	99.269550 
3450.000000	99.274109 
3449.000000	99.280040 
3448.000000	99.286177 
3447.000000	99.291466 
3446.000000	99.295469 
3445.000000	99.297951 
3444.000000	99.298672 
3443.000000	99.297987 
3442.000000	99.297230 
3441.000000	99.297756 
3440.000000	99.299568 
3439.000000	99.301517 
3438.000000	99.302958 
3437.000000	99.304718 
3436.000000	99.307922 
3435.000000	99.312177 
3434.000000	99.315505 
3433.000000	99.316268 
3432.000000	99.314799 
3431.000000	99.313048 
3430.000000	99.312766 
3429.000000	99.314163 
3428.000000	99.316437 
3427.000000	99.319078 
3426.000000	99.322177 
3425.000000	99.325535 
3424.000000	99.328252 
3423.000000	99.329692 
3422.000000	99.330464 
3421.000000	99.331909 
3420.000000	99.334814 
3419.000000	99.339137 
3418.000000	99.344565 
3417.000000	99.350407 
3416.000000	99.355102 
3415.000000	99.357135 
3414.000000	99.356846 
3413.000000	99.356486 
3412.000000	99.357585 
3411.000000	99.358991 
3410.000000	99.358579 
3409.000000	99.356178 
3408.000000	99.353823 
3407.000000	99.353292 
3406.000000	99.354437 
3405.000000	99.356006 
3404.000000	99.357063 
3403.000000	99.357331 
3402.000000	99.356947 
3401.000000	99.356534 
3400.000000	99.357116 
3399.000000	99.359387 
3398.000000	99.363030 
3397.000000	99.366797 
3396.000000	99.369124 
3395.000000	99.368895 
3394.000000	99.366163 
3393.000000	99.362542 
3392.000000	99.360322 
3391.000000	99.360656 
3390.000000	99.362953 
3389.000000	99.366063 
3388.000000	99.369771 
3387.000000	99.374710 
3386.000000	99.380944 
3385.000000	99.387173 
3384.000000	99.391553 
3383.000000	99.393224 
3382.000000	99.392930 
3381.000000	99.392293 
3380.000000	99.392487 
3379.000000	99.393575 
3378.000000	99.395013 
3377.000000	99.396419 
3376.000000	99.397681 
3375.000000	99.398622 
3374.000000	99.399031 
3373.000000	99.399048 
3372.000000	99.399139 
3371.000000	99.399582 
3370.000000	99.400230 
3369.000000	99.400801 
3368.000000	99.401106 
3367.000000	99.400898 
3366.000000	99.399906 
3365.000000	99.398339 
3364.000000	99.397164 
3363.000000	99.397418 
3362.000000	99.399166 
3361.000000	99.401280 
3360.000000	99.402380 
3359.000000	99.402093 
3358.000000	99.401288 
3357.000000	99.401111 
3356.000000	99.401725 
3355.000000	99.402095 
3354.000000	99.401091 
3353.000000	99.398620 
3352.000000	99.395790 
3351.000000	99.394011 
3350.000000	99.393870 
3349.000000	99.395002 
3348.000000	99.396460 
3347.000000	99.397325 
3346.000000	99.397214 
3345.000000	99.396379 
3344.000000	99.395460 
3343.000000	99.394894 
3342.000000	99.394558 
3341.000000	99.394087 
3340.000000	99.393398 
3339.000000	99.392700 
3338.000000	99.392059 
3337.000000	99.391278 
3336.000000	99.390311 
3335.000000	99.389547 
3334.000000	99.389385 
3333.000000	99.389618 
3332.000000	99.389490 
3331.000000	99.388508 
3330.000000	99.386971 
3329.000000	99.385627 
3328.000000	99.384814 
3327.000000	99.384191 
3326.000000	99.383284 
3325.000000	99.382068 
3324.000000	99.380902 
3323.000000	99.379994 
3322.000000	99.379099 
3321.000000	99.377754 
3320.000000	99.375687 
3319.000000	99.372958 
3318.000000	99.369872 
3317.000000	99.366909 
3316.000000	99.364526 
3315.000000	99.362771 
3314.000000	99.361128 
3313.000000	99.358998 
3312.000000	99.356467 
3311.000000	99.354369 
3310.000000	99.353384 
3309.000000	99.353215 
3308.000000	99.352726 
3307.000000	99.350924 
3306.000000	99.347675 
3305.000000	99.343550 
3304.000000	99.339456 
3303.000000	99.336231 
3302.000000	99.334292 
3301.000000	99.333434 
3300.000000	99.332876 
3299.000000	99.331767 
3298.000000	99.329750 
3297.000000	99.327053 
3296.000000	99.324147 
3295.000000	99.321314 
3294.000000	99.318472 
3293.000000	99.315402 
3292.000000	99.312114 
3291.000000	99.308964 
3290.000000	99.306252 
3289.000000	99.303678 
3288.000000	99.300459 
3287.000000	99.296187 
3286.000000	99.291522 
3285.000000	99.287764 
3284.000000	99.285614 
3283.000000	99.284674 
3282.000000	99.284039 
3281.000000	99.283134 
3280.000000	99.281739 
3279.000000	99.279558 
3278.000000	99.276281 
3277.000000	99.272125 
3276.000000	99.268000 
3275.000000	99.264881 
3274.000000	99.263067 
3273.000000	99.262084 
3272.000000	99.261109 
3271.000000	99.259550 
3270.000000	99.257412 
3269.000000	99.255289 
3268.000000	99.253843 
3267.000000	99.253045 
3266.000000	99.251999 
3265.000000	99.249776 
3264.000000	99.246486 
3263.000000	99.243427 
3262.000000	99.241940 
3261.000000	99.242162 
3260.000000	99.242815 
3259.000000	99.242361 
3258.000000	99.240462 
3257.000000	99.238047 
3256.000000	99.236022 
3255.000000	99.234147 
3254.000000	99.231611 
3253.000000	99.228440 
3252.000000	99.225784 
3251.000000	99.224669 
3250.000000	99.224903 
3249.000000	99.225377 
3248.000000	99.225159 
3247.000000	99.223990 
3246.000000	99.222017 
3245.000000	99.219608 
3244.000000	99.217270 
3243.000000	99.215124 
3242.000000	99.212458 
3241.000000	99.208430 
3240.000000	99.203350 
3239.000000	99.198785 
3238.000000	99.195989 
3237.000000	99.194566 
3236.000000	99.193030 
3235.000000	99.190545 
3234.000000	99.187680 
3233.000000	99.185396 
3232.000000	99.183829 
3231.000000	99.182320 
3230.000000	99.180442 
3229.000000	99.178580 
3228.000000	99.177403 
3227.000000	99.176986 
3226.000000	99.176595 
3225.000000	99.175314 
3224.000000	99.172929 
3223.000000	99.170193 
3222.000000	99.168285 
3221.000000	99.167835 
3220.000000	99.168292 
3219.000000	99.168141 
3218.000000	99.166175 
3217.000000	99.162574 
3216.000000	99.158728 
3215.000000	99.155942 
3214.000000	99.154256 
3213.000000	99.152789 
3212.000000	99.150865 
3211.000000	99.148519 
3210.000000	99.146040 
3209.000000	99.143460 
3208.000000	99.140688 
3207.000000	99.137847 
3206.000000	99.135195 
3205.000000	99.132825 
3204.000000	99.130639 
3203.000000	99.128612 
3202.000000	99.126886 
3201.000000	99.125577 
3200.000000	99.124600 
3199.000000	99.123715 
3198.000000	99.122654 
3197.000000	99.121245 
3196.000000	99.119487 
3195.000000	99.117573 
3194.000000	99.115797 
3193.000000	99.114318 
3192.000000	99.113031 
3191.000000	99.111655 
3190.000000	99.109991 
3189.000000	99.108077 
3188.000000	99.106112 
3187.000000	99.104292 
3186.000000	99.102670 
3185.000000	99.101168 
3184.000000	99.099634 
3183.000000	99.097944 
3182.000000	99.096086 
3181.000000	99.094192 
3180.000000	99.092459 
3179.000000	99.090974 
3178.000000	99.089664 
3177.000000	99.088409 
3176.000000	99.087182 
3175.000000	99.085977 
3174.000000	99.084726 
3173.000000	99.083354 
3172.000000	99.081887 
3171.000000	99.080446 
3170.000000	99.079086 
3169.000000	99.077736 
3168.000000	99.076351 
3167.000000	99.075026 
3166.000000	99.073887 
3165.000000	99.072911 
3164.000000	99.071903 
3163.000000	99.070696 
3162.000000	99.069293 
3161.000000	99.067859 
3160.000000	99.066573 
3159.000000	99.065499 
3158.000000	99.064570 
3157.000000	99.063654 
3156.000000	99.062703 
3155.000000	99.061828 
3154.000000	99.061199 
3153.000000	99.060819 
3152.000000	99.060456 
3151.000000	99.059855 
3150.000000	99.059029 
3149.000000	99.058268 
3148.000000	99.057781 
3147.000000	99.057394 
3146.000000	99.056709 
3145.000000	99.055638 
3144.000000	99.054641 
3143.000000	99.054234 
3142.000000	99.054286 
3141.000000	99.054159 
3140.000000	99.053607 
3139.000000	99.053201 
3138.000000	99.053560 
3137.000000	99.054444 
3136.000000	99.054866 
3135.000000	99.054157 
3134.000000	99.052643 
3133.000000	99.051355 
3132.000000	99.051125 
3131.000000	99.051973 
3130.000000	99.053250 
3129.000000	99.054280 
3128.000000	99.054953 
3127.000000	99.055575 
3126.000000	99.056267 
3125.000000	99.056803 
3124.000000	99.057136 
3123.000000	99.057732 
3122.000000	99.059005 
3121.000000	99.060602 
3120.000000	99.061606 
3119.000000	99.061562 
3118.000000	99.060954 
3117.000000	99.060679 
3116.000000	99.061275 
3115.000000	99.062696 
3114.000000	99.064543 
3113.000000	99.066207 
3112.000000	99.067019 
3111.000000	99.066650 
3110.000000	99.065558 
3109.000000	99.064907 
3108.000000	99.065632 
3107.000000	99.067508 
3106.000000	99.069344 
3105.000000	99.070247 
3104.000000	99.070417 
3103.000000	99.070459 
3102.000000	99.070379 
3101.000000	99.069829 
3100.000000	99.069202 
3099.000000	99.069603 
3098.000000	99.071459 
3097.000000	99.073822 
3096.000000	99.075328 
3095.000000	99.075337 
3094.000000	99.073789 
3093.000000	99.070688 
3092.000000	99.066581 
3091.000000	99.063116 
3090.000000	99.062056 
3089.000000	99.063735 
3088.000000	99.066910 
3087.000000	99.070081 
3086.000000	99.072578 
3085.000000	99.074293 
3084.000000	99.075212 
3083.000000	99.075504 
3082.000000	99.075524 
3081.000000	99.075448 
3080.000000	99.075298 
3079.000000	99.075471 
3078.000000	99.076766 
3077.000000	99.079535 
3076.000000	99.083072 
3075.000000	99.086067 
3074.000000	99.087536 
3073.000000	99.087395 
3072.000000	99.086610 
3071.000000	99.086795 
3070.000000	99.089052 
3069.000000	99.092868 
3068.000000	99.096348 
3067.000000	99.097961 
3066.000000	99.097825 
3065.000000	99.097319 
3064.000000	99.097862 
3063.000000	99.100002 
3062.000000	99.102837 
3061.000000	99.104074 
3060.000000	99.101825 
3059.000000	99.097061 
3058.000000	99.093462 
3057.000000	99.093523 
3056.000000	99.095670 
3055.000000	99.096619 
3054.000000	99.095958 
3053.000000	99.096364 
3052.000000	99.099295 
3051.000000	99.102591 
3050.000000	99.103275 
3049.000000	99.100959 
3048.000000	99.097308 
3047.000000	99.093620 
3046.000000	99.090444 
3045.000000	99.088673 
3044.000000	99.089097 
3043.000000	99.090987 
3042.000000	99.092609 
3041.000000	99.093201 
3040.000000	99.093053 
3039.000000	99.091548 
3038.000000	99.087048 
3037.000000	99.079831 
3036.000000	99.073793 
3035.000000	99.073410 
3034.000000	99.079030 
3033.000000	99.086226 
3032.000000	99.090230 
3031.000000	99.090237 
3030.000000	99.088731 
3029.000000	99.087259 
3028.000000	99.084200 
3027.000000	99.077061 
3026.000000	99.065860 
3025.000000	99.053344 
3024.000000	99.042301 
3023.000000	99.033532 
3022.000000	99.026246 
3021.000000	99.019312 
3020.000000	99.011973 
3019.000000	99.004469 
3018.000000	98.998341 
3017.000000	98.994997 
3016.000000	98.993325 
3015.000000	98.989986 
3014.000000	98.983206 
3013.000000	98.975437 
3012.000000	98.970720 
3011.000000	98.969745 
3010.000000	98.968998 
3009.000000	98.964936 
3008.000000	98.957673 
3007.000000	98.950037 
3006.000000	98.944072 
3005.000000	98.939314 
3004.000000	98.933913 
3003.000000	98.926587 
3002.000000	98.917826 
3001.000000	98.910113 
3000.000000	98.907007 
2999.000000	98.911020 
2998.000000	98.921446 
2997.000000	98.934220 
2996.000000	98.944331 
2995.000000	98.948678 
2994.000000	98.947053 
2993.000000	98.941349 
2992.000000	98.934781 
2991.000000	98.931619 
2990.000000	98.936311 
2989.000000	98.951679 
2988.000000	98.977798 
2987.000000	99.012652 
2986.000000	99.053207 
2985.000000	99.095608 
2984.000000	99.135591 
2983.000000	99.170544 
2982.000000	99.201288 
2981.000000	99.230568 
2980.000000	99.259095 
2979.000000	99.283648 
2978.000000	99.299472 
2977.000000	99.304096 
2976.000000	99.298999 
2975.000000	99.288663 
2974.000000	99.277987 
2973.000000	99.268885 
2972.000000	99.258296 
2971.000000	99.240539 
2970.000000	99.212898 
2969.000000	99.178643 
2968.000000	99.144100 
2967.000000	99.113542 
2966.000000	99.087820 
2965.000000	99.066514 
2964.000000	99.049103 
2963.000000	99.034167 
2962.000000	99.019472 
2961.000000	99.003632 
2960.000000	98.986881 
2959.000000	98.970399 
2958.000000	98.956307 
2957.000000	98.948354 
2956.000000	98.950435 
2955.000000	98.962882 
2954.000000	98.980725 
2953.000000	98.996790 
2952.000000	99.006713 
2951.000000	99.010796 
2950.000000	99.011570 
2949.000000	99.010369 
2948.000000	99.006441 
2947.000000	98.999149 
2946.000000	98.990822 
2945.000000	98.986609 
2944.000000	98.990433 
2943.000000	99.001050 
2942.000000	99.012908 
2941.000000	99.021280 
2940.000000	99.025931 
2939.000000	99.029773 
2938.000000	99.035014 
2937.000000	99.041252 
2936.000000	99.046630 
2935.000000	99.050101 
2934.000000	99.052457 
2933.000000	99.055018 
2932.000000	99.056894 
2931.000000	99.054305 
2930.000000	99.044034 
2929.000000	99.027554 
2928.000000	99.010519 
2927.000000	98.997764 
2926.000000	98.990331 
2925.000000	98.987778 
2924.000000	98.990777 
2923.000000	98.999249 
2922.000000	99.009519 
2921.000000	99.016357 
2920.000000	99.018073 
2919.000000	99.017643 
2918.000000	99.018740 
2917.000000	99.022348 
2916.000000	99.027197 
2915.000000	99.031529 
2914.000000	99.033834 
2913.000000	99.033541 
2912.000000	99.032165 
2911.000000	99.032569 
2910.000000	99.035832 
2909.000000	99.039583 
2908.000000	99.040795 
2907.000000	99.039915 
2906.000000	99.040636 
2905.000000	99.045494 
2904.000000	99.053194 
2903.000000	99.060826 
2902.000000	99.067711 
2901.000000	99.075945 
2900.000000	99.087127 
2899.000000	99.099472 
2898.000000	99.108812 
2897.000000	99.112589 
2896.000000	99.112673 
2895.000000	99.114035 
2894.000000	99.120113 
2893.000000	99.129336 
2892.000000	99.136575 
2891.000000	99.138209 
2890.000000	99.135266 
2889.000000	99.131691 
2888.000000	99.130245 
2887.000000	99.130828 
2886.000000	99.132524 
2885.000000	99.135780 
2884.000000	99.141782 
2883.000000	99.150485 
2882.000000	99.160234 
2881.000000	99.169099 
2880.000000	99.175875 
2879.000000	99.180235 
2878.000000	99.182979 
2877.000000	99.185996 
2876.000000	99.190454 
2875.000000	99.194575 
2874.000000	99.194622 
2873.000000	99.189019 
2872.000000	99.180779 
2871.000000	99.175234 
2870.000000	99.175340 
2869.000000	99.179922 
2868.000000	99.185660 
2867.000000	99.189805 
2866.000000	99.191500 
2865.000000	99.191631 
2864.000000	99.191844 
2863.000000	99.193122 
2862.000000	99.195057 
2861.000000	99.196673 
2860.000000	99.197564 
2859.000000	99.197681 
2858.000000	99.196508 
2857.000000	99.193534 
2856.000000	99.189507 
2855.000000	99.186300 
2854.000000	99.185463 
2853.000000	99.187646 
2852.000000	99.193114 
2851.000000	99.201226 
2850.000000	99.209297 
2849.000000	99.213938 
2848.000000	99.214556 
2847.000000	99.214502 
2846.000000	99.217604 
2845.000000	99.224214 
2844.000000	99.231538 
2843.000000	99.237260 
2842.000000	99.241532 
2841.000000	99.245470 
2840.000000	99.249204 
2839.000000	99.252115 
2838.000000	99.254169 
2837.000000	99.255977 
2836.000000	99.257655 
2835.000000	99.258477 
2834.000000	99.258063 
2833.000000	99.257441 
2832.000000	99.258288 
2831.000000	99.261068 
2830.000000	99.264488 
2829.000000	99.266920 
2828.000000	99.267820 
2827.000000	99.267685 
2826.000000	99.267358 
2825.000000	99.267833 
2824.000000	99.270023 
2823.000000	99.273693 
2822.000000	99.276910 
2821.000000	99.277619 
2820.000000	99.275696 
2819.000000	99.272740 
2818.000000	99.270143 
2817.000000	99.268338 
2816.000000	99.267862 
2815.000000	99.269666 
2814.000000	99.273741 
2813.000000	99.278393 
2812.000000	99.281757 
2811.000000	99.283493 
2810.000000	99.284374 
2809.000000	99.284786 
2808.000000	99.284448 
2807.000000	99.283274 
2806.000000	99.281685 
2805.000000	99.280072 
2804.000000	99.278521 
2803.000000	99.277199 
2802.000000	99.276468 
2801.000000	99.276621 
2800.000000	99.277888 
2799.000000	99.280563 
2798.000000	99.284646 
2797.000000	99.289257 
2796.000000	99.292848 
2795.000000	99.294220 
2794.000000	99.293233 
2793.000000	99.290724 
2792.000000	99.288157 
2791.000000	99.287043 
2790.000000	99.288146 
2789.000000	99.291066 
2788.000000	99.294550 
2787.000000	99.297531 
2786.000000	99.299843 
2785.000000	99.301850 
2784.000000	99.303699 
2783.000000	99.305067 
2782.000000	99.305581 
2781.000000	99.305340 
2780.000000	99.305002 
2779.000000	99.305329 
2778.000000	99.306531 
2777.000000	99.308032 
2776.000000	99.308929 
2775.000000	99.308741 
2774.000000	99.307766 
2773.000000	99.306789 
2772.000000	99.306462 
2771.000000	99.306793 
2770.000000	99.307167 
2769.000000	99.307016 
2768.000000	99.306559 
2767.000000	99.306677 
2766.000000	99.307894 
2765.000000	99.309743 
2764.000000	99.311244 
2763.000000	99.311958 
2762.000000	99.312271 
2761.000000	99.312722 
2760.000000	99.313404 
2759.000000	99.314052 
2758.000000	99.314490 
2757.000000	99.314834 
2756.000000	99.315329 
2755.000000	99.316101 
2754.000000	99.317009 
2753.000000	99.317741 
2752.000000	99.318101 
2751.000000	99.318247 
2750.000000	99.318576 
2749.000000	99.319296 
2748.000000	99.320250 
2747.000000	99.321164 
2746.000000	99.321950 
2745.000000	99.322692 
2744.000000	99.323406 
2743.000000	99.323975 
2742.000000	99.324311 
2741.000000	99.324453 
2740.000000	99.324513 
2739.000000	99.324594 
2738.000000	99.324819 
2737.000000	99.325351 
2736.000000	99.326281 
2735.000000	99.327518 
2734.000000	99.328782 
2733.000000	99.329786 
2732.000000	99.330399 
2731.000000	99.330678 
2730.000000	99.330831 
2729.000000	99.331068 
2728.000000	99.331453 
2727.000000	99.331919 
2726.000000	99.332411 
2725.000000	99.332982 
2724.000000	99.333684 
2723.000000	99.334398 
2722.000000	99.334868 
2721.000000	99.334890 
2720.000000	99.334449 
2719.000000	99.333740 
2718.000000	99.333164 
2717.000000	99.333234 
2716.000000	99.334268 
2715.000000	99.336085 
2714.000000	99.337986 
2713.000000	99.339262 
2712.000000	99.339639 
2711.000000	99.339215 
2710.000000	99.338204 
2709.000000	99.336911 
2708.000000	99.335849 
2707.000000	99.335550 
2706.000000	99.336201 
2705.000000	99.337482 
2704.000000	99.338734 
2703.000000	99.339323 
2702.000000	99.338980 
2701.000000	99.337934 
2700.000000	99.336673 
2699.000000	99.335463 
2698.000000	99.334218 
2697.000000	99.332988 
2696.000000	99.332325 
2695.000000	99.332796 
2694.000000	99.334104 
2693.000000	99.335033 
2692.000000	99.334514 
2691.000000	99.332582 
2690.000000	99.330217 
2689.000000	99.328402 
2688.000000	99.327419 
2687.000000	99.327085 
2686.000000	99.327342 
2685.000000	99.328388 
2684.000000	99.330209 
2683.000000	99.332181 
2682.000000	99.333450 
2681.000000	99.333780 
2680.000000	99.333695 
2679.000000	99.333618 
2678.000000	99.333213 
2677.000000	99.332056 
2676.000000	99.330679 
2675.000000	99.330270 
2674.000000	99.331329 
2673.000000	99.333277 
2672.000000	99.335402 
2671.000000	99.337509 
2670.000000	99.339351 
2669.000000	99.340263 
2668.000000	99.339880 
2667.000000	99.338752 
2666.000000	99.337900 
2665.000000	99.337883 
2664.000000	99.338704 
2663.000000	99.340266 
2662.000000	99.342331 
2661.000000	99.344194 
2660.000000	99.345123 
2659.000000	99.345186 
2658.000000	99.345207 
2657.000000	99.345786 
2656.000000	99.346596 
2655.000000	99.346961 
2654.000000	99.346761 
2653.000000	99.346481 
2652.000000	99.346553 
2651.000000	99.346962 
2650.000000	99.347485 
2649.000000	99.348040 
2648.000000	99.348706 
2647.000000	99.349535 
2646.000000	99.350441 
2645.000000	99.351264 
2644.000000	99.351908 
2643.000000	99.352392 
2642.000000	99.352796 
2641.000000	99.353193 
2640.000000	99.353664 
2639.000000	99.354304 
2638.000000	99.355107 
2637.000000	99.355802 
2636.000000	99.355988 
2635.000000	99.355532 
2634.000000	99.354820 
2633.000000	99.354469 
2632.000000	99.354768 
2631.000000	99.355542 
2630.000000	99.356450 
2629.000000	99.357297 
2628.000000	99.357964 
2627.000000	99.358304 
2626.000000	99.358337 
2625.000000	99.358431 
2624.000000	99.358977 
2623.000000	99.359883 
2622.000000	99.360597 
2621.000000	99.360806 
2620.000000	99.360983 
2619.000000	99.362015 
2618.000000	99.364180 
2617.000000	99.366552 
2616.000000	99.367708 
2615.000000	99.367040 
2614.000000	99.365146 
2613.000000	99.363228 
2612.000000	99.362028 
2611.000000	99.361553 
2610.000000	99.361624 
2609.000000	99.362297 
2608.000000	99.363547 
2607.000000	99.364707 
2606.000000	99.364685 
2605.000000	99.362960 
2604.000000	99.360225 
2603.000000	99.357817 
2602.000000	99.356486 
2601.000000	99.356128 
2600.000000	99.356638 
2599.000000	99.358402 
2598.000000	99.361575 
2597.000000	99.365273 
2596.000000	99.368067 
2595.000000	99.369293 
2594.000000	99.369450 
2593.000000	99.369382 
2592.000000	99.369363 
2591.000000	99.369132 
2590.000000	99.368595 
2589.000000	99.368221 
2588.000000	99.368678 
2587.000000	99.370080 
2586.000000	99.371593 
2585.000000	99.371925 
2584.000000	99.370464 
2583.000000	99.367914 
2582.000000	99.365671 
2581.000000	99.364497 
2580.000000	99.364133 
2579.000000	99.364274 
2578.000000	99.365321 
2577.000000	99.367695 
2576.000000	99.370812 
2575.000000	99.373315 
2574.000000	99.374422 
2573.000000	99.374532 
2572.000000	99.374553 
2571.000000	99.375021 
2570.000000	99.375966 
2569.000000	99.377232 
2568.000000	99.378548 
2567.000000	99.379520 
2566.000000	99.380003 
2565.000000	99.380447 
2564.000000	99.381464 
2563.000000	99.382948 
2562.000000	99.384023 
2561.000000	99.384125 
2560.000000	99.383733 
2559.000000	99.383818 
2558.000000	99.384747 
2557.000000	99.386046 
2556.000000	99.387055 
2555.000000	99.387522 
2554.000000	99.387526 
2553.000000	99.387209 
2552.000000	99.386842 
2551.000000	99.386905 
2550.000000	99.387767 
2549.000000	99.389279 
2548.000000	99.390826 
2547.000000	99.391899 
2546.000000	99.392567 
2545.000000	99.393327 
2544.000000	99.394424 
2543.000000	99.395349 
2542.000000	99.395253 
2541.000000	99.393985 
2540.000000	99.392506 
2539.000000	99.392000 
2538.000000	99.392625 
2537.000000	99.393448 
2536.000000	99.393475 
2535.000000	99.392535 
2534.000000	99.391132 
2533.000000	99.389831 
2532.000000	99.388975 
2531.000000	99.388756 
2530.000000	99.389145 
2529.000000	99.389807 
2528.000000	99.390362 
2527.000000	99.390726 
2526.000000	99.391021 
2525.000000	99.391296 
2524.000000	99.391635 
2523.000000	99.392400 
2522.000000	99.393897 
2521.000000	99.395733 
2520.000000	99.396843 
2519.000000	99.396425 
2518.000000	99.394605 
2517.000000	99.392295 
2516.000000	99.390456 
2515.000000	99.389437 
2514.000000	99.388982 
2513.000000	99.388708 
2512.000000	99.388560 
2511.000000	99.388693 
2510.000000	99.388935 
2509.000000	99.388758 
2508.000000	99.388039 
2507.000000	99.387499 
2506.000000	99.387857 
2505.000000	99.388749 
2504.000000	99.389135 
2503.000000	99.388762 
2502.000000	99.388441 
2501.000000	99.388704 
2500.000000	99.388929 
2499.000000	99.388319 
2498.000000	99.387171 
2497.000000	99.386495 
2496.000000	99.386603 
2495.000000	99.386731 
2494.000000	99.386126 
2493.000000	99.384907 
2492.000000	99.383691 
2491.000000	99.382934 
2490.000000	99.382919 
2489.000000	99.383838 
2488.000000	99.385552 
2487.000000	99.387481 
2486.000000	99.389031 
2485.000000	99.390056 
2484.000000	99.390611 
2483.000000	99.390470 
2482.000000	99.389304 
2481.000000	99.387369 
2480.000000	99.385668 
2479.000000	99.385074 
2478.000000	99.385490 
2477.000000	99.386143 
2476.000000	99.386621 
2475.000000	99.387241 
2474.000000	99.388334 
2473.000000	99.389614 
2472.000000	99.390655 
2471.000000	99.391729 
2470.000000	99.393590 
2469.000000	99.396285 
2468.000000	99.398596 
2467.000000	99.399038 
2466.000000	99.397251 
2465.000000	99.394350 
2464.000000	99.392106 
2463.000000	99.391574 
2462.000000	99.392360 
2461.000000	99.392967 
2460.000000	99.392089 
2459.000000	99.389766 
2458.000000	99.387271 
2457.000000	99.385810 
2456.000000	99.385502 
2455.000000	99.385762 
2454.000000	99.386298 
2453.000000	99.387277 
2452.000000	99.388525 
2451.000000	99.389188 
2450.000000	99.388642 
2449.000000	99.387622 
2448.000000	99.387887 
2447.000000	99.390468 
2446.000000	99.394462 
2445.000000	99.397766 
2444.000000	99.399270 
2443.000000	99.399728 
2442.000000	99.400304 
2441.000000	99.400782 
2440.000000	99.400016 
2439.000000	99.397879 
2438.000000	99.395767 
2437.000000	99.394915 
2436.000000	99.395021 
2435.000000	99.395063 
2434.000000	99.394865 
2433.000000	99.395143 
2432.000000	99.396226 
2431.000000	99.397546 
2430.000000	99.398476 
2429.000000	99.399152 
2428.000000	99.400137 
2427.000000	99.401558 
2426.000000	99.402884 
2425.000000	99.403464 
2424.000000	99.403107 
2423.000000	99.402111 
2422.000000	99.400866 
2421.000000	99.399599 
2420.000000	99.398613 
2419.000000	99.398548 
2418.000000	99.400081 
2417.000000	99.403289 
2416.000000	99.407394 
2415.000000	99.411218 
2414.000000	99.413891 
2413.000000	99.415030 
2412.000000	99.414838 
2411.000000	99.414214 
2410.000000	99.414213 
2409.000000	99.415064 
2408.000000	99.415959 
2407.000000	99.416099 
2406.000000	99.415686 
2405.000000	99.415514 
2404.000000	99.415821 
2403.000000	99.416048 
2402.000000	99.415742 
2401.000000	99.415221 
2400.000000	99.415162 
2399.000000	99.415848 
2398.000000	99.417048 
2397.000000	99.418335 
2396.000000	99.419288 
2395.000000	99.419584 
2394.000000	99.419217 
2393.000000	99.418720 
2392.000000	99.418818 
2391.000000	99.419672 
2390.000000	99.420750 
2389.000000	99.421486 
2388.000000	99.421975 
2387.000000	99.422742 
2386.000000	99.423971 
2385.000000	99.425360 
2384.000000	99.426715 
2383.000000	99.428223 
2382.000000	99.429966 
2381.000000	99.431580 
2380.000000	99.432673 
2379.000000	99.433367 
2378.000000	99.434101 
2377.000000	99.434986 
2376.000000	99.435775 
2375.000000	99.436459 
2374.000000	99.437489 
2373.000000	99.439194 
2372.000000	99.441350 
2371.000000	99.443346 
2370.000000	99.444824 
2369.000000	99.445850 
2368.000000	99.446651 
2367.000000	99.447389 
2366.000000	99.448162 
2365.000000	99.449076 
2364.000000	99.450215 
2363.000000	99.451620 
2362.000000	99.453235 
2361.000000	99.454929 
2360.000000	99.456631 
2359.000000	99.458290 
2358.000000	99.459875 
2357.000000	99.461377 
2356.000000	99.462854 
2355.000000	99.464338 
2354.000000	99.465640 
2353.000000	99.466681 
2352.000000	99.467596 
2351.000000	99.468622 
2350.000000	99.469907 
2349.000000	99.471379 
2348.000000	99.472821 
2347.000000	99.473937 
2346.000000	99.474678 
2345.000000	99.475290 
2344.000000	99.476033 
2343.000000	99.477084 
2342.000000	99.478319 
2341.000000	99.479450 
2340.000000	99.480233 
2339.000000	99.480865 
2338.000000	99.481769 
2337.000000	99.483037 
2336.000000	99.484219 
2335.000000	99.484914 
2334.000000	99.485185 
2333.000000	99.485677 
2332.000000	99.486790 
2331.000000	99.488029 
2330.000000	99.488466 
2329.000000	99.487564 
2328.000000	99.486015 
2327.000000	99.484671 
2326.000000	99.484121 
2325.000000	99.484453 
2324.000000	99.485249 
2323.000000	99.486140 
2322.000000	99.486845 
2321.000000	99.487867 
2320.000000	99.489263 
2319.000000	99.490290 
2318.000000	99.489817 
2317.000000	99.487592 
2316.000000	99.484450 
2315.000000	99.481601 
2314.000000	99.480222 
2313.000000	99.480908 
2312.000000	99.483148 
2311.000000	99.484837 
2310.000000	99.483971 
2309.000000	99.480323 
2308.000000	99.475362 
2307.000000	99.470495 
2306.000000	99.466103 
2305.000000	99.462456 
2304.000000	99.460239 
2303.000000	99.459814 
2302.000000	99.460427 
2301.000000	99.460806 
2300.000000	99.460229 
2299.000000	99.458757 
2298.000000	99.456886 
2297.000000	99.454926 
2296.000000	99.452898 
2295.000000	99.450325 
2294.000000	99.446866 
2293.000000	99.442813 
2292.000000	99.439045 
2291.000000	99.436026 
2290.000000	99.433472 
2289.000000	99.431118 
2288.000000	99.429268 
2287.000000	99.428202 
2286.000000	99.427348 
2285.000000	99.425839 
2284.000000	99.423554 
2283.000000	99.421207 
2282.000000	99.419450 
2281.000000	99.418502 
2280.000000	99.418321 
2279.000000	99.418645 
2278.000000	99.418761 
2277.000000	99.418001 
2276.000000	99.416585 
2275.000000	99.415424 
2274.000000	99.414858 
2273.000000	99.413929 
2272.000000	99.411494 
2271.000000	99.407858 
2270.000000	99.404905 
2269.000000	99.404179 
2268.000000	99.405459 
2267.000000	99.407091 
2266.000000	99.407467 
2265.000000	99.406369 
2264.000000	99.404703 
2263.000000	99.403380 
2262.000000	99.402628 
2261.000000	99.402258 
2260.000000	99.402169 
2259.000000	99.402378 
2258.000000	99.402776 
2257.000000	99.403232 
2256.000000	99.403780 
2255.000000	99.404479 
2254.000000	99.405131 
2253.000000	99.405422 
2252.000000	99.405317 
2251.000000	99.405031 
2250.000000	99.404667 
2249.000000	99.404163 
2248.000000	99.403605 
2247.000000	99.403245 
2246.000000	99.403166 
2245.000000	99.403183 
2244.000000	99.403199 
2243.000000	99.403398 
2242.000000	99.403922 
2241.000000	99.404562 
2240.000000	99.404915 
2239.000000	99.404844 
2238.000000	99.404549 
2237.000000	99.404320 
2236.000000	99.404254 
2235.000000	99.404260 
2234.000000	99.404259 
2233.000000	99.404266 
2232.000000	99.404321 
2231.000000	99.404423 
2230.000000	99.404542 
2229.000000	99.404643 
2228.000000	99.404707 
2227.000000	99.404758 
2226.000000	99.404820 
2225.000000	99.404901 
2224.000000	99.405006 
2223.000000	99.405140 
2222.000000	99.405294 
2221.000000	99.405457 
2220.000000	99.405622 
2219.000000	99.405784 
2218.000000	99.405939 
2217.000000	99.406085 
2216.000000	99.406218 
2215.000000	99.406339 
2214.000000	99.406448 
2213.000000	99.406549 
2212.000000	99.406646 
2211.000000	99.406742 
2210.000000	99.406843 
2209.000000	99.406952 
2208.000000	99.407073 
2207.000000	99.407207 
2206.000000	99.407352 
2205.000000	99.407502 
2204.000000	99.407653 
2203.000000	99.407801 
2202.000000	99.407949 
2201.000000	99.408100 
2200.000000	99.408259 
2199.000000	99.408431 
2198.000000	99.408619 
2197.000000	99.408818 
2196.000000	99.409020 
2195.000000	99.409221 
2194.000000	99.409424 
2193.000000	99.409634 
2192.000000	99.409848 
2191.000000	99.410054 
2190.000000	99.410230 
2189.000000	99.410363 
2188.000000	99.410470 
2187.000000	99.410610 
2186.000000	99.410833 
2185.000000	99.411154 
2184.000000	99.411503 
2183.000000	99.411771 
2182.000000	99.411885 
2181.000000	99.411847 
2180.000000	99.411718 
2179.000000	99.411563 
2178.000000	99.411425 
2177.000000	99.411310 
2176.000000	99.411180 
2175.000000	99.411009 
2174.000000	99.410818 
2173.000000	99.410630 
2172.000000	99.410445 
2171.000000	99.410303 
2170.000000	99.410339 
2169.000000	99.410666 
2168.000000	99.411174 
2167.000000	99.411527 
2166.000000	99.411481 
2165.000000	99.411149 
2164.000000	99.410868 
2163.000000	99.410781 
2162.000000	99.410673 
2161.000000	99.410254 
2160.000000	99.409535 
2159.000000	99.408906 
2158.000000	99.408785 
2157.000000	99.409163 
2156.000000	99.409500 
2155.000000	99.409234 
2154.000000	99.408401 
2153.000000	99.407582 
2152.000000	99.407120 
2151.000000	99.406654 
2150.000000	99.405679 
2149.000000	99.404413 
2148.000000	99.403704 
2147.000000	99.404030 
2146.000000	99.404905 
2145.000000	99.405387 
2144.000000	99.405010 
2143.000000	99.404021 
2142.000000	99.402924 
2141.000000	99.402013 
2140.000000	99.401288 
2139.000000	99.400612 
2138.000000	99.399997 
2137.000000	99.399798 
2136.000000	99.400490 
2135.000000	99.402138 
2134.000000	99.404153 
2133.000000	99.405745 
2132.000000	99.406600 
2131.000000	99.406963 
2130.000000	99.407137 
2129.000000	99.407130 
2128.000000	99.406889 
2127.000000	99.406607 
2126.000000	99.406455 
2125.000000	99.406109 
2124.000000	99.404939 
2123.000000	99.402881 
2122.000000	99.400842 
2121.000000	99.399964 
2120.000000	99.400514 
2119.000000	99.401675 
2118.000000	99.402330 
2117.000000	99.402073 
2116.000000	99.401276 
2115.000000	99.400427 
2114.000000	99.399662 
2113.000000	99.398956 
2112.000000	99.398422 
2111.000000	99.398176 
2110.000000	99.398089 
2109.000000	99.397968 
2108.000000	99.397935 
2107.000000	99.398336 
2106.000000	99.399225 
2105.000000	99.400098 
2104.000000	99.400259 
2103.000000	99.399387 
2102.000000	99.397746 
2101.000000	99.396089 
2100.000000	99.395217 
2099.000000	99.395377 
2098.000000	99.396001 
2097.000000	99.396195 
2096.000000	99.395712 
2095.000000	99.395154 
2094.000000	99.394985 
2093.000000	99.394684 
2092.000000	99.393374 
2091.000000	99.391108 
2090.000000	99.388907 
2089.000000	99.387486 
2088.000000	99.386672 
2087.000000	99.386267 
2086.000000	99.386617 
2085.000000	99.387797 
2084.000000	99.388983 
2083.000000	99.389437 
2082.000000	99.389641 
2081.000000	99.390538 
2080.000000	99.392071 
2079.000000	99.393365 
2078.000000	99.394112 
2077.000000	99.394775 
2076.000000	99.395442 
2075.000000	99.395607 
2074.000000	99.395226 
2073.000000	99.394808 
2072.000000	99.394159 
2071.000000	99.392266 
2070.000000	99.388964 
2069.000000	99.385725 
2068.000000	99.384122 
2067.000000	99.384187 
2066.000000	99.384957 
2065.000000	99.385870 
2064.000000	99.386782 
2063.000000	99.387129 
2062.000000	99.386222 
2061.000000	99.384300 
2060.000000	99.382377 
2059.000000	99.380892 
2058.000000	99.379266 
2057.000000	99.377053 
2056.000000	99.374836 
2055.000000	99.373611 
2054.000000	99.373748 
2053.000000	99.374835 
2052.000000	99.376226 
2051.000000	99.377438 
2050.000000	99.378233 
2049.000000	99.378617 
2048.000000	99.378715 
2047.000000	99.378466 
2046.000000	99.377511 
2045.000000	99.375552 
2044.000000	99.372773 
2043.000000	99.369885 
2042.000000	99.367711 
2041.000000	99.366577 
2040.000000	99.366017 
2039.000000	99.365169 
2038.000000	99.363678 
2037.000000	99.362143 
2036.000000	99.361459 
2035.000000	99.361805 
2034.000000	99.362530 
2033.000000	99.362940 
2032.000000	99.362979 
2031.000000	99.362938 
2030.000000	99.362743 
2029.000000	99.361881 
2028.000000	99.360063 
2027.000000	99.357691 
2026.000000	99.355628 
2025.000000	99.354447 
2024.000000	99.354018 
2023.000000	99.353736 
2022.000000	99.353121 
2021.000000	99.352172 
2020.000000	99.351136 
2019.000000	99.350075 
2018.000000	99.348836 
2017.000000	99.347458 
2016.000000	99.346375 
2015.000000	99.345997 
2014.000000	99.346235 
2013.000000	99.346522 
2012.000000	99.346288 
2011.000000	99.345377 
2010.000000	99.344033 
2009.000000	99.342643 
2008.000000	99.341426 
2007.000000	99.340310 
2006.000000	99.339129 
2005.000000	99.337954 
2004.000000	99.337135 
2003.000000	99.336928 
2002.000000	99.337169 
2001.000000	99.337389 
2000.000000	99.337225 
1999.000000	99.336575 
1998.000000	99.335479 
1997.000000	99.334095 
1996.000000	99.332763 
1995.000000	99.331810 
1994.000000	99.331147 
1993.000000	99.330366 
1992.000000	99.329446 
1991.000000	99.329045 
1990.000000	99.329677 
1989.000000	99.330934 
1988.000000	99.331873 
1987.000000	99.332054 
1986.000000	99.331804 
1985.000000	99.331594 
1984.000000	99.331526 
1983.000000	99.331482 
1982.000000	99.331428 
1981.000000	99.331334 
1980.000000	99.331012 
1979.000000	99.330370 
1978.000000	99.329749 
1977.000000	99.329730 
1976.000000	99.330547 
1975.000000	99.331812 
1974.000000	99.332790 
1973.000000	99.332966 
1972.000000	99.332369 
1971.000000	99.331503 
1970.000000	99.330876 
1969.000000	99.330514 
1968.000000	99.330026 
1967.000000	99.329267 
1966.000000	99.328767 
1965.000000	99.329219 
1964.000000	99.330658 
1963.000000	99.332415 
1962.000000	99.333849 
1961.000000	99.334821 
1960.000000	99.335480 
1959.000000	99.335823 
1958.000000	99.335698 
1957.000000	99.335244 
1956.000000	99.334883 
1955.000000	99.334751 
1954.000000	99.334440 
1953.000000	99.333516 
1952.000000	99.332184 
1951.000000	99.331226 
1950.000000	99.331166 
1949.000000	99.331692 
1948.000000	99.331975 
1947.000000	99.331551 
1946.000000	99.330737 
1945.000000	99.330152 
1944.000000	99.329995 
1943.000000	99.329960 
1942.000000	99.329736 
1941.000000	99.329371 
1940.000000	99.329126 
1939.000000	99.329207 
1938.000000	99.329644 
1937.000000	99.330168 
1936.000000	99.330213 
1935.000000	99.329357 
1934.000000	99.327834 
1933.000000	99.326445 
1932.000000	99.325728 
1931.000000	99.325314 
1930.000000	99.324437 
1929.000000	99.322982 
1928.000000	99.321717 
1927.000000	99.321293 
1926.000000	99.321296 
1925.000000	99.320682 
1924.000000	99.319074 
1923.000000	99.317352 
1922.000000	99.316774 
1921.000000	99.317558 
1920.000000	99.318547 
1919.000000	99.318094 
1918.000000	99.315352 
1917.000000	99.311049 
1916.000000	99.307010 
1915.000000	99.304476 
1914.000000	99.303394 
1913.000000	99.302897 
1912.000000	99.302112 
1911.000000	99.300672 
1910.000000	99.298710 
1909.000000	99.296570 
1908.000000	99.294476 
1907.000000	99.292292 
1906.000000	99.289580 
1905.000000	99.286220 
1904.000000	99.282912 
1903.000000	99.280729 
1902.000000	99.280056 
1901.000000	99.280019 
1900.000000	99.279090 
1899.000000	99.276448 
1898.000000	99.272642 
1897.000000	99.268993 
1896.000000	99.266377 
1895.000000	99.264717 
1894.000000	99.263545 
1893.000000	99.262625 
1892.000000	99.261724 
1891.000000	99.260258 
1890.000000	99.257935 
1889.000000	99.255641 
1888.000000	99.254625 
1887.000000	99.254740 
1886.000000	99.254661 
1885.000000	99.253919 
1884.000000	99.253759 
1883.000000	99.255352 
1882.000000	99.257835 
1881.000000	99.258989 
1880.000000	99.257743 
1879.000000	99.255176 
1878.000000	99.252897 
1877.000000	99.251258 
1876.000000	99.249931 
1875.000000	99.249408 
1874.000000	99.250623 
1873.000000	99.253081 
1872.000000	99.254369 
1871.000000	99.252392 
1870.000000	99.248061 
1869.000000	99.245260 
1868.000000	99.246795 
1867.000000	99.251296 
1866.000000	99.255479 
1865.000000	99.258099 
1864.000000	99.260105 
1863.000000	99.262312 
1862.000000	99.264351 
1861.000000	99.265699 
1860.000000	99.266727 
1859.000000	99.268254 
1858.000000	99.270582 
1857.000000	99.273311 
1856.000000	99.275710 
1855.000000	99.277073 
1854.000000	99.277411 
1853.000000	99.277724 
1852.000000	99.278839 
1851.000000	99.280395 
1850.000000	99.281527 
1849.000000	99.282368 
1848.000000	99.283941 
1847.000000	99.286420 
1846.000000	99.288568 
1845.000000	99.289383 
1844.000000	99.289811 
1843.000000	99.291195 
1842.000000	99.292991 
1841.000000	99.294110 
1840.000000	99.294733 
1839.000000	99.295794 
1838.000000	99.297583 
1837.000000	99.299261 
1836.000000	99.299734 
1835.000000	99.298688 
1834.000000	99.296996 
1833.000000	99.296068 
1832.000000	99.296602 
1831.000000	99.297908 
1830.000000	99.298290 
1829.000000	99.296828 
1828.000000	99.294309 
1827.000000	99.291823 
1826.000000	99.289443 
1825.000000	99.287014 
1824.000000	99.285522 
1823.000000	99.286265 
1822.000000	99.288966 
1821.000000	99.291902 
1820.000000	99.293724 
1819.000000	99.294496 
1818.000000	99.294845 
1817.000000	99.295100 
1816.000000	99.295456 
1815.000000	99.295915 
1814.000000	99.295686 
1813.000000	99.293594 
1812.000000	99.290030 
1811.000000	99.287578 
1810.000000	99.288297 
1809.000000	99.291553 
1808.000000	99.295464 
1807.000000	99.299263 
1806.000000	99.303027 
1805.000000	99.306190 
1804.000000	99.307554 
1803.000000	99.306617 
1802.000000	99.304210 
1801.000000	99.301750 
1800.000000	99.300336 
1799.000000	99.300120 
1798.000000	99.300309 
1797.000000	99.300222 
1796.000000	99.300163 
1795.000000	99.300940 
1794.000000	99.302781 
1793.000000	99.304791 
1792.000000	99.305868 
1791.000000	99.305833 
1790.000000	99.305271 
1789.000000	99.305449 
1788.000000	99.308119 
1787.000000	99.314023 
1786.000000	99.321396 
1785.000000	99.327231 
1784.000000	99.330628 
1783.000000	99.333298 
1782.000000	99.336155 
1781.000000	99.337093 
1780.000000	99.334209 
1779.000000	99.329271 
1778.000000	99.325600 
1777.000000	99.324405 
1776.000000	99.325199 
1775.000000	99.328158 
1774.000000	99.333861 
1773.000000	99.340348 
1772.000000	99.343477 
1771.000000	99.342993 
1770.000000	99.343695 
1769.000000	99.349515 
1768.000000	99.360033 
1767.000000	99.371744 
1766.000000	99.380999 
1765.000000	99.386060 
1764.000000	99.387459 
1763.000000	99.388040 
1762.000000	99.391596 
1761.000000	99.398589 
1760.000000	99.405777 
1759.000000	99.411401 
1758.000000	99.416978 
1757.000000	99.423726 
1756.000000	99.430860 
1755.000000	99.438588 
1754.000000	99.448936 
1753.000000	99.461364 
1752.000000	99.470033 
1751.000000	99.469260 
1750.000000	99.461582 
1749.000000	99.454738 
1748.000000	99.451801 
1747.000000	99.451422 
1746.000000	99.453392 
1745.000000	99.458250 
1744.000000	99.464122 
1743.000000	99.467559 
1742.000000	99.467427 
1741.000000	99.465361 
1740.000000	99.462534 
1739.000000	99.458488 
1738.000000	99.453686 
1737.000000	99.449630 
1736.000000	99.446349 
1735.000000	99.440906 
1734.000000	99.432175 
1733.000000	99.423823 
1732.000000	99.417785 
1731.000000	99.413593 
1730.000000	99.411154 
1729.000000	99.409303 
1728.000000	99.405076 
1727.000000	99.395967 
1726.000000	99.382424 
1725.000000	99.368199 
1724.000000	99.358070 
1723.000000	99.353534 
1722.000000	99.351787 
1721.000000	99.349507 
1720.000000	99.344965 
1719.000000	99.336534 
1718.000000	99.322629 
1717.000000	99.306350 
1716.000000	99.295081 
1715.000000	99.291321 
1714.000000	99.290298 
1713.000000	99.286658 
1712.000000	99.279225 
1711.000000	99.269572 
1710.000000	99.258570 
1709.000000	99.245606 
1708.000000	99.230626 
1707.000000	99.215269 
1706.000000	99.200980 
1705.000000	99.187764 
1704.000000	99.175509 
1703.000000	99.164586 
1702.000000	99.154914 
1701.000000	99.145405 
1700.000000	99.136530 
1699.000000	99.129851 
1698.000000	99.124861 
1697.000000	99.120632 
1696.000000	99.115548 
1695.000000	99.107531 
1694.000000	99.096275 
1693.000000	99.083881 
1692.000000	99.073205 
1691.000000	99.065004 
1690.000000	99.058009 
1689.000000	99.050866 
1688.000000	99.044110 
1687.000000	99.039258 
1686.000000	99.035912 
1685.000000	99.029939 
1684.000000	99.017225 
1683.000000	99.000535 
1682.000000	98.985458 
1681.000000	98.973838 
1680.000000	98.965219 
1679.000000	98.959471 
1678.000000	98.956812 
1677.000000	98.956223 
1676.000000	98.954301 
1675.000000	98.948279 
1674.000000	98.939793 
1673.000000	98.931600 
1672.000000	98.923625 
1671.000000	98.914174 
1670.000000	98.903515 
1669.000000	98.894953 
1668.000000	98.889338 
1667.000000	98.883346 
1666.000000	98.874907 
1665.000000	98.865327 
1664.000000	98.857424 
1663.000000	98.853306 
1662.000000	98.852699 
1661.000000	98.853193 
1660.000000	98.852417 
1659.000000	98.849395 
1658.000000	98.843943 
1657.000000	98.837290 
1656.000000	98.830733 
1655.000000	98.824196 
1654.000000	98.815131 
1653.000000	98.807303 
1652.000000	98.806890 
1651.000000	98.808042 
1650.000000	98.807610 
1649.000000	98.808530 
1648.000000	98.810671 
1647.000000	98.812218 
1646.000000	98.814003 
1645.000000	98.817823 
1644.000000	98.822600 
1643.000000	98.826144 
1642.000000	98.826796 
1641.000000	98.823496 
1640.000000	98.817290 
1639.000000	98.810797 
1638.000000	98.805964 
1637.000000	98.803322 
1636.000000	98.803211 
1635.000000	98.805402 
1634.000000	98.807335 
1633.000000	98.807107 
1632.000000	98.805855 
1631.000000	98.805195 
1630.000000	98.805986 
1629.000000	98.808843 
1628.000000	98.813082 
1627.000000	98.815954 
1626.000000	98.815213 
1625.000000	98.812031 
1624.000000	98.810403 
1623.000000	98.813030 
1622.000000	98.818191 
1621.000000	98.822791 
1620.000000	98.827032 
1619.000000	98.833288 
1618.000000	98.842034 
1617.000000	98.849936 
1616.000000	98.852921 
1615.000000	98.851261 
1614.000000	98.849060 
1613.000000	98.849845 
1612.000000	98.854343 
1611.000000	98.861189 
1610.000000	98.868514 
1609.000000	98.875191 
1608.000000	98.880868 
1607.000000	98.885314 
1606.000000	98.888450 
1605.000000	98.890686 
1604.000000	98.893062 
1603.000000	98.896727 
1602.000000	98.901860 
1601.000000	98.907409 
1600.000000	98.912177 
1599.000000	98.916015 
1598.000000	98.919727 
1597.000000	98.924086 
1596.000000	98.929247 
1595.000000	98.934834 
1594.000000	98.940195 
1593.000000	98.944762 
1592.000000	98.948418 
1591.000000	98.951567 
1590.000000	98.954811 
1589.000000	98.958483 
1588.000000	98.962548 
1587.000000	98.966867 
1586.000000	98.971399 
1585.000000	98.976081 
1584.000000	98.980727 
1583.000000	98.985214 
1582.000000	98.989602 
1581.000000	98.994004 
1580.000000	98.998478 
1579.000000	99.003039 
1578.000000	99.007647 
1577.000000	99.012170 
1576.000000	99.016442 
1575.000000	99.020407 
1574.000000	99.024168 
1573.000000	99.027905 
1572.000000	99.031750 
1571.000000	99.035749 
1570.000000	99.039904 
1569.000000	99.044139 
1568.000000	99.048309 
1567.000000	99.052366 
1566.000000	99.056372 
1565.000000	99.060377 
1564.000000	99.064360 
1563.000000	99.068302 
1562.000000	99.072217 
1561.000000	99.076115 
1560.000000	99.079985 
1559.000000	99.083878 
1558.000000	99.087940 
1557.000000	99.092134 
1556.000000	99.096230 
1555.000000	99.100092 
1554.000000	99.103775 
1553.000000	99.107456 
1552.000000	99.111248 
1551.000000	99.115106 
1550.000000	99.118966 
1549.000000	99.122842 
1548.000000	99.126751 
1547.000000	99.130639 
1546.000000	99.134521 
1545.000000	99.138561 
1544.000000	99.142968 
1543.000000	99.147729 
1542.000000	99.152458 
1541.000000	99.156546 
1540.000000	99.159742 
1539.000000	99.162692 
1538.000000	99.166093 
1537.000000	99.169856 
1536.000000	99.173702 
1535.000000	99.177369 
1534.000000	99.180829 
1533.000000	99.184677 
1532.000000	99.189392 
1531.000000	99.194504 
1530.000000	99.199139 
1529.000000	99.203016 
1528.000000	99.206721 
1527.000000	99.211105 
1526.000000	99.216337 
1525.000000	99.221683 
1524.000000	99.226312 
1523.000000	99.229893 
1522.000000	99.232535 
1521.000000	99.235133 
1520.000000	99.238784 
1519.000000	99.243691 
1518.000000	99.249639 
1517.000000	99.256199 
1516.000000	99.262682 
1515.000000	99.268767 
1514.000000	99.274591 
1513.000000	99.280127 
1512.000000	99.285004 
1511.000000	99.289174 
1510.000000	99.293423 
1509.000000	99.298829 
1508.000000	99.305787 
1507.000000	99.312844 
1506.000000	99.317640 
1505.000000	99.319709 
1504.000000	99.320646 
1503.000000	99.322643 
1502.000000	99.326894 
1501.000000	99.332822 
1500.000000	99.339259 
1499.000000	99.346092 
1498.000000	99.354181 
1497.000000	99.362712 
1496.000000	99.368677 
1495.000000	99.370666 
1494.000000	99.370904 
1493.000000	99.372699 
1492.000000	99.377534 
1491.000000	99.384176 
1490.000000	99.389502 
1489.000000	99.391440 
1488.000000	99.391462 
1487.000000	99.392623 
1486.000000	99.396141 
1485.000000	99.401025 
1484.000000	99.405244 
1483.000000	99.407340 
1482.000000	99.407424 
1481.000000	99.407157 
1480.000000	99.408477 
1479.000000	99.411842 
1478.000000	99.415796 
1477.000000	99.417977 
1476.000000	99.417214 
1475.000000	99.414785 
1474.000000	99.413120 
1473.000000	99.413235 
1472.000000	99.414214 
1471.000000	99.415294 
1470.000000	99.416851 
1469.000000	99.419203 
1468.000000	99.421471 
1467.000000	99.422205 
1466.000000	99.421373 
1465.000000	99.421046 
1464.000000	99.422940 
1463.000000	99.425789 
1462.000000	99.427094 
1461.000000	99.426618 
1460.000000	99.426542 
1459.000000	99.429072 
1458.000000	99.433051 
1457.000000	99.433264 
1456.000000	99.427463 
1455.000000	99.420035 
1454.000000	99.415597 
1453.000000	99.414240 
1452.000000	99.412889 
1451.000000	99.409415 
1450.000000	99.405256 
1449.000000	99.402623 
1448.000000	99.401118 
1447.000000	99.399012 
1446.000000	99.396765 
1445.000000	99.395765 
1444.000000	99.395549 
1443.000000	99.393538 
1442.000000	99.387361 
1441.000000	99.377750 
1440.000000	99.368455 
1439.000000	99.363253 
1438.000000	99.363267 
1437.000000	99.366419 
1436.000000	99.369060 
1435.000000	99.369695 
1434.000000	99.369610 
1433.000000	99.370149 
1432.000000	99.371393 
1431.000000	99.372442 
1430.000000	99.371855 
1429.000000	99.367852 
1428.000000	99.359665 
1427.000000	99.349033 
1426.000000	99.339044 
1425.000000	99.330833 
1424.000000	99.322755 
1423.000000	99.313975 
1422.000000	99.306244 
1421.000000	99.300505 
1420.000000	99.293733 
1419.000000	99.282155 
1418.000000	99.268015 
1417.000000	99.257200 
1416.000000	99.251602 
1415.000000	99.248043 
1414.000000	99.241979 
1413.000000	99.231951 
1412.000000	99.221136 
1411.000000	99.214160 
1410.000000	99.212553 
1409.000000	99.213797 
1408.000000	99.214597 
1407.000000	99.213899 
1406.000000	99.213666 
1405.000000	99.217439 
1404.000000	99.227117 
1403.000000	99.240689 
1402.000000	99.253834 
1401.000000	99.263662 
1400.000000	99.270334 
1399.000000	99.275372 
1398.000000	99.277862 
1397.000000	99.273542 
1396.000000	99.260049 
1395.000000	99.244206 
1394.000000	99.240507 
1393.000000	99.256309 
1392.000000	99.284316 
1391.000000	99.311416 
1390.000000	99.329603 
1389.000000	99.339182 
1388.000000	99.345348 
1387.000000	99.351958 
1386.000000	99.358642 
1385.000000	99.363899 
1384.000000	99.368383 
1383.000000	99.374095 
1382.000000	99.382229 
1381.000000	99.392408 
1380.000000	99.403006 
1379.000000	99.411653 
1378.000000	99.416590 
1377.000000	99.418396 
1376.000000	99.419822 
1375.000000	99.423479 
1374.000000	99.429436 
1373.000000	99.434965 
1372.000000	99.437051 
1371.000000	99.435002 
1370.000000	99.431216 
1369.000000	99.429803 
1368.000000	99.433008 
1367.000000	99.438790 
1366.000000	99.442813 
1365.000000	99.442682 
1364.000000	99.440015 
1363.000000	99.438915 
1362.000000	99.441849 
1361.000000	99.447185 
1360.000000	99.451585 
1359.000000	99.453623 
1358.000000	99.454291 
1357.000000	99.455030 
1356.000000	99.456060 
1355.000000	99.456851 
1354.000000	99.457508 
1353.000000	99.458667 
1352.000000	99.460246 
1351.000000	99.461119 
1350.000000	99.460736 
1349.000000	99.460173 
1348.000000	99.460425 
1347.000000	99.461262 
1346.000000	99.462540 
1345.000000	99.465097 
1344.000000	99.468861 
1343.000000	99.471094 
1342.000000	99.468539 
1341.000000	99.461489 
1340.000000	99.454624 
1339.000000	99.452474 
1338.000000	99.454594 
1337.000000	99.457077 
1336.000000	99.457659 
1335.000000	99.457549 
1334.000000	99.458957 
1333.000000	99.462165 
1332.000000	99.465234 
1331.000000	99.465949 
1330.000000	99.463754 
1329.000000	99.460128 
1328.000000	99.457479 
1327.000000	99.457580 
1326.000000	99.460514 
1325.000000	99.464394 
1324.000000	99.466160 
1323.000000	99.463782 
1322.000000	99.458331 
1321.000000	99.453395 
1320.000000	99.451755 
1319.000000	99.453093 
1318.000000	99.455284 
1317.000000	99.457078 
1316.000000	99.458308 
1315.000000	99.458271 
1314.000000	99.456107 
1313.000000	99.453125 
1312.000000	99.452733 
1311.000000	99.456510 
1310.000000	99.461511 
1309.000000	99.463209 
1308.000000	99.460776 
1307.000000	99.458006 
1306.000000	99.458949 
1305.000000	99.463618 
1304.000000	99.468421 
1303.000000	99.469928 
1302.000000	99.467500 
1301.000000	99.462898 
1300.000000	99.458163 
1299.000000	99.453963 
1298.000000	99.449779 
1297.000000	99.445499 
1296.000000	99.442296 
1295.000000	99.441302 
1294.000000	99.441616 
1293.000000	99.440741 
1292.000000	99.437356 
1291.000000	99.432857 
1290.000000	99.429566 
1289.000000	99.427855 
1288.000000	99.425645 
1287.000000	99.420518 
1286.000000	99.412056 
1285.000000	99.402587 
1284.000000	99.395995 
1283.000000	99.394994 
1282.000000	99.398690 
1281.000000	99.402860 
1280.000000	99.403307 
1279.000000	99.399107 
1278.000000	99.392621 
1277.000000	99.386943 
1276.000000	99.383583 
1275.000000	99.382084 
1274.000000	99.380969 
1273.000000	99.378685 
1272.000000	99.373976 
1271.000000	99.365820 
1270.000000	99.353658 
1269.000000	99.338683 
1268.000000	99.324851 
1267.000000	99.316845 
1266.000000	99.315443 
1265.000000	99.315701 
1264.000000	99.311331 
1263.000000	99.300467 
1262.000000	99.285913 
1261.000000	99.270754 
1260.000000	99.255937 
1259.000000	99.241967 
1258.000000	99.230453 
1257.000000	99.222935 
1256.000000	99.219340 
1255.000000	99.217912 
1254.000000	99.215653 
1253.000000	99.209267 
1252.000000	99.197752 
1251.000000	99.184750 
1250.000000	99.176501 
1249.000000	99.175887 
1248.000000	99.179124 
1247.000000	99.178952 
1246.000000	99.170350 
1245.000000	99.153083 
1244.000000	99.131046 
1243.000000	99.111096 
1242.000000	99.100587 
1241.000000	99.102399 
1240.000000	99.111593 
1239.000000	99.118944 
1238.000000	99.118764 
1237.000000	99.112127 
1236.000000	99.102509 
1235.000000	99.091263 
1234.000000	99.079177 
1233.000000	99.069355 
1232.000000	99.064158 
1231.000000	99.059809 
1230.000000	99.048625 
1229.000000	99.028014 
1228.000000	99.003359 
1227.000000	98.979559 
1226.000000	98.952838 
1225.000000	98.914922 
1224.000000	98.863842 
1223.000000	98.807039 
1222.000000	98.754545 
1221.000000	98.712336 
1220.000000	98.681385 
1219.000000	98.657884 
1218.000000	98.632952 
1217.000000	98.596591 
1216.000000	98.544585 
1215.000000	98.479915 
1214.000000	98.407300 
1213.000000	98.329616 
1212.000000	98.250271 
1211.000000	98.173991 
1210.000000	98.101948 
1209.000000	98.029883 
1208.000000	97.954657 
1207.000000	97.879503 
1206.000000	97.809192 
1205.000000	97.742621 
1204.000000	97.673940 
1203.000000	97.598986 
1202.000000	97.517708 
1201.000000	97.432646 
1200.000000	97.348054 
1199.000000	97.268196 
1198.000000	97.193512 
1197.000000	97.120449 
1196.000000	97.047073 
1195.000000	96.975525 
1194.000000	96.906521 
1193.000000	96.835817 
1192.000000	96.760405 
1191.000000	96.684694 
1190.000000	96.615190 
1189.000000	96.551119 
1188.000000	96.485673 
1187.000000	96.415485 
1186.000000	96.343690 
1185.000000	96.273603 
1184.000000	96.204219 
1183.000000	96.133263 
1182.000000	96.061077 
1181.000000	95.989493 
1180.000000	95.918378 
1179.000000	95.844376 
1178.000000	95.762613 
1177.000000	95.669895 
1176.000000	95.567101 
1175.000000	95.458307 
1174.000000	95.347425 
1173.000000	95.236625 
1172.000000	95.127764 
1171.000000	95.022632 
1170.000000	94.920642 
1169.000000	94.818809 
1168.000000	94.715598 
1167.000000	94.613351 
1166.000000	94.517188 
1165.000000	94.435060 
1164.000000	94.379186 
1163.000000	94.362065 
1162.000000	94.387162 
1161.000000	94.444594 
1160.000000	94.516204 
1159.000000	94.582624 
1158.000000	94.627101 
1157.000000	94.638887 
1156.000000	94.616512 
1155.000000	94.566603 
1154.000000	94.498272 
1153.000000	94.418896 
1152.000000	94.333629 
1151.000000	94.244992 
1150.000000	94.152419 
1149.000000	94.055687 
1148.000000	93.958875 
1147.000000	93.866756 
1146.000000	93.777213 
1145.000000	93.682680 
1144.000000	93.580348 
1143.000000	93.475960 
1142.000000	93.376066 
1141.000000	93.281283 
1140.000000	93.188401 
1139.000000	93.093634 
1138.000000	92.992273 
1137.000000	92.880920 
1136.000000	92.762479 
1135.000000	92.644437 
1134.000000	92.530654 
1133.000000	92.419553 
1132.000000	92.310424 
1131.000000	92.204224 
1130.000000	92.096911 
1129.000000	91.980475 
1128.000000	91.854132 
1127.000000	91.727577 
1126.000000	91.609434 
1125.000000	91.498489 
1124.000000	91.389097 
1123.000000	91.278253 
1122.000000	91.164256 
1121.000000	91.045794 
1120.000000	90.926383 
1119.000000	90.813159 
1118.000000	90.707609 
1117.000000	90.603688 
1116.000000	90.497418 
1115.000000	90.391160 
1114.000000	90.286367 
1113.000000	90.180814 
1112.000000	90.076046 
1111.000000	89.978395 
1110.000000	89.888823 
1109.000000	89.800077 
1108.000000	89.707619 
1107.000000	89.615674 
1106.000000	89.528667 
1105.000000	89.444992 
1104.000000	89.363192 
1103.000000	89.286079 
1102.000000	89.214739 
1101.000000	89.146132 
1100.000000	89.080431 
1099.000000	89.022755 
1098.000000	88.973010 
1097.000000	88.922016 
1096.000000	88.861526 
1095.000000	88.790618 
1094.000000	88.708390 
1093.000000	88.608739 
1092.000000	88.488622 
1091.000000	88.355798 
1090.000000	88.222642 
1089.000000	88.095980 
1088.000000	87.976358 
1087.000000	87.861927 
1086.000000	87.749507 
1085.000000	87.636854 
1084.000000	87.526204 
1083.000000	87.420784 
1082.000000	87.317767 
1081.000000	87.211891 
1080.000000	87.106328 
1079.000000	87.011494 
1078.000000	86.931718 
1077.000000	86.861192 
1076.000000	86.793692 
1075.000000	86.727111 
1074.000000	86.657919 
1073.000000	86.580738 
1072.000000	86.493490 
1071.000000	86.393118 
1070.000000	86.268024 
1069.000000	86.108300 
1068.000000	85.924682 
1067.000000	85.744106 
1066.000000	85.582210 
1065.000000	85.432454 
1064.000000	85.285604 
1063.000000	85.144592 
1062.000000	85.014644 
1061.000000	84.893633 
1060.000000	84.780408 
1059.000000	84.681365 
1058.000000	84.601321 
1057.000000	84.536469 
1056.000000	84.480579 
1055.000000	84.428237 
1054.000000	84.368465 
1053.000000	84.285857 
1052.000000	84.172187 
1051.000000	84.027831 
1050.000000	83.851018 
1049.000000	83.638889 
1048.000000	83.400331 
1047.000000	83.152113 
1046.000000	82.900344 
1045.000000	82.640722 
1044.000000	82.377111 
1043.000000	82.122438 
1042.000000	81.878492 
1041.000000	81.632390 
1040.000000	81.379572 
1039.000000	81.135816 
1038.000000	80.919747 
1037.000000	80.735856 
1036.000000	80.579057 
1035.000000	80.442444 
1034.000000	80.316461 
1033.000000	80.193698 
1032.000000	80.078540 
1031.000000	79.981219 
1030.000000	79.902431 
1029.000000	79.836273 
1028.000000	79.785225 
1027.000000	79.754926 
1026.000000	79.735896 
1025.000000	79.710520 
1024.000000	79.678800 
1023.000000	79.656666 
1022.000000	79.647120 
1021.000000	79.633305 
1020.000000	79.603694 
1019.000000	79.564935 
1018.000000	79.525673 
1017.000000	79.487053 
1016.000000	79.454324 
1015.000000	79.438450 
1014.000000	79.438342 
1013.000000	79.436989 
1012.000000	79.421701 
1011.000000	79.395204 
1010.000000	79.364251 
1009.000000	79.333032 
1008.000000	79.310793 
1007.000000	79.308745 
1006.000000	79.323755 
1005.000000	79.339550 
1004.000000	79.348660 
1003.000000	79.359817 
1002.000000	79.381268 
1001.000000	79.411572 
1000.000000	79.449288 
999.000000	 79.496599 
998.000000	 79.550083 
997.000000	 79.601753 
996.000000	 79.651825 
995.000000	 79.707636 
994.000000	 79.769148 
993.000000	 79.829292 
992.000000	 79.888804 
991.000000	 79.956114 
990.000000	 80.032362 
989.000000	 80.111319 
988.000000	 80.194200 
987.000000	 80.289480 
986.000000	 80.397911 
985.000000	 80.512603 
984.000000	 80.633768 
983.000000	 80.768973 
982.000000	 80.920087 
981.000000	 81.084791 
980.000000	 81.268546 
979.000000	 81.477983 
978.000000	 81.703886 
977.000000	 81.928275 
976.000000	 82.148247 
975.000000	 82.376227 
974.000000	 82.617732 
973.000000	 82.866202 
972.000000	 83.119023 
971.000000	 83.380901 
970.000000	 83.650671 
969.000000	 83.921273 
968.000000	 84.193241 
967.000000	 84.472309 
966.000000	 84.753915 
965.000000	 85.026439 
964.000000	 85.289744 
963.000000	 85.553757 
962.000000	 85.818038 
961.000000	 86.069810 
960.000000	 86.304299 
959.000000	 86.530535 
958.000000	 86.753577 
957.000000	 86.966177 
956.000000	 87.162939 
955.000000	 87.349449 
954.000000	 87.531969 
953.000000	 87.708490 
952.000000	 87.874482 
951.000000	 88.028818 
950.000000	 88.171347 
949.000000	 88.302464 
948.000000	 88.426107 
947.000000	 88.545452 
946.000000	 88.656106 
945.000000	 88.751605 
944.000000	 88.833667 
943.000000	 88.908200 
942.000000	 88.974519 
941.000000	 89.029726 
940.000000	 89.081005 
939.000000	 89.140793 
938.000000	 89.210545 
937.000000	 89.281398 
936.000000	 89.349621 
935.000000	 89.418588 
934.000000	 89.487063 
933.000000	 89.550036 
932.000000	 89.611364 
931.000000	 89.681406 
930.000000	 89.760802 
929.000000	 89.839826 
928.000000	 89.914480 
927.000000	 89.989263 
926.000000	 90.062967 
925.000000	 90.126889 
924.000000	 90.180534 
923.000000	 90.234995 
922.000000	 90.295970 
921.000000	 90.355900 
920.000000	 90.407953 
919.000000	 90.456431 
918.000000	 90.507950 
917.000000	 90.562270 
916.000000	 90.617272 
915.000000	 90.674898 
914.000000	 90.737840 
913.000000	 90.807524 
912.000000	 90.887950 
911.000000	 90.984181 
910.000000	 91.095437 
909.000000	 91.217213 
908.000000	 91.351073 
907.000000	 91.504288 
906.000000	 91.679148 
905.000000	 91.869892 
904.000000	 92.069708 
903.000000	 92.274204 
902.000000	 92.480650 
901.000000	 92.691423 
900.000000	 92.914254 
899.000000	 93.150388 
898.000000	 93.387028 
897.000000	 93.611028 
896.000000	 93.824268 
895.000000	 94.034352 
894.000000	 94.236644 
893.000000	 94.419734 
892.000000	 94.584807 
891.000000	 94.745247 
890.000000	 94.909232 
889.000000	 95.076550 
888.000000	 95.250205 
887.000000	 95.434462 
886.000000	 95.619912 
885.000000	 95.786593 
884.000000	 95.926914 
883.000000	 96.053602 
882.000000	 96.180845 
881.000000	 96.307815 
880.000000	 96.424814 
879.000000	 96.525414 
878.000000	 96.608538 
877.000000	 96.678605 
876.000000	 96.748018 
875.000000	 96.829900 
874.000000	 96.923564 
873.000000	 97.015603 
872.000000	 97.099195 
871.000000	 97.184266 
870.000000	 97.284920 
869.000000	 97.403895 
868.000000	 97.532553 
867.000000	 97.659466 
866.000000	 97.776597 
865.000000	 97.883476 
864.000000	 97.987990 
863.000000	 98.098092 
862.000000	 98.210811 
861.000000	 98.314035 
860.000000	 98.400142 
859.000000	 98.473398 
858.000000	 98.543704 
857.000000	 98.618059 
856.000000	 98.698982 
855.000000	 98.785694 
854.000000	 98.873808 
853.000000	 98.955927 
852.000000	 99.023629 
851.000000	 99.069617 
850.000000	 99.092719 
849.000000	 99.103847 
848.000000	 99.121247 
847.000000	 99.152813 
846.000000	 99.186378 
845.000000	 99.204189 
844.000000	 99.202955 
843.000000	 99.191942 
842.000000	 99.175948 
841.000000	 99.151055 
840.000000	 99.114792 
839.000000	 99.068142 
838.000000	 99.007625 
837.000000	 98.928434 
836.000000	 98.838974 
835.000000	 98.760952 
834.000000	 98.708423 
833.000000	 98.673933 
832.000000	 98.640452 
831.000000	 98.600628 
830.000000	 98.560942 
829.000000	 98.534340 
828.000000	 98.533096 
827.000000	 98.561430 
826.000000	 98.608804 
825.000000	 98.654869 
824.000000	 98.684468 
823.000000	 98.694013 
822.000000	 98.685449 
821.000000	 98.662960 
820.000000	 98.634162 
819.000000	 98.603821 
818.000000	 98.565481 
817.000000	 98.507891 
816.000000	 98.429241 
815.000000	 98.335499 
814.000000	 98.224339 
813.000000	 98.081479 
812.000000	 97.894609 
811.000000	 97.658891 
810.000000	 97.365227 
809.000000	 96.997631 
808.000000	 96.552405 
807.000000	 96.050422 
806.000000	 95.520084 
805.000000	 94.975994 
804.000000	 94.424934 
803.000000	 93.884439 
802.000000	 93.382919 
801.000000	 92.946730 
800.000000	 92.596400 
799.000000	 92.347525 
798.000000	 92.204598 
797.000000	 92.159260 
796.000000	 92.200338 
795.000000	 92.316988 
794.000000	 92.487365 
793.000000	 92.676416 
792.000000	 92.854159 
791.000000	 93.009416 
790.000000	 93.139815 
789.000000	 93.235838 
788.000000	 93.281605 
787.000000	 93.266377 
786.000000	 93.189284 
785.000000	 93.056249 
784.000000	 92.877690 
783.000000	 92.668052 
782.000000	 92.445691 
781.000000	 92.235624 
780.000000	 92.070943 
779.000000	 91.982227 
778.000000	 91.980626 
777.000000	 92.055993 
776.000000	 92.191939 
775.000000	 92.375523 
774.000000	 92.593522 
773.000000	 92.830748 
772.000000	 93.075242 
771.000000	 93.317233 
770.000000	 93.542274 
769.000000	 93.735191 
768.000000	 93.893961 
767.000000	 94.031967 
766.000000	 94.162844 
765.000000	 94.287933 
764.000000	 94.399848 
763.000000	 94.492117 
762.000000	 94.563389 
761.000000	 94.617940 
760.000000	 94.664920 
759.000000	 94.713811 
758.000000	 94.769476 
757.000000	 94.833680 
756.000000	 94.908495 
755.000000	 94.992597 
754.000000	 95.077188 
753.000000	 95.153965 
752.000000	 95.226987 
751.000000	 95.310225 
750.000000	 95.413489 
749.000000	 95.535089 
748.000000	 95.665322 
747.000000	 95.790790 
746.000000	 95.899146 
745.000000	 95.989413 
744.000000	 96.077108 
743.000000	 96.181121 
742.000000	 96.305748 
741.000000	 96.441297 
740.000000	 96.578080 
739.000000	 96.711202 
738.000000	 96.835827 
737.000000	 96.949020 
736.000000	 97.054869 
735.000000	 97.157296 
734.000000	 97.250291 
733.000000	 97.326374 
732.000000	 97.391848 
731.000000	 97.461453 
730.000000	 97.538803 
729.000000	 97.613969 
728.000000	 97.678132 
727.000000	 97.729710 
726.000000	 97.768785 
725.000000	 97.796845 
724.000000	 97.823063 
723.000000	 97.860129 
722.000000	 97.911479 
721.000000	 97.970861 
720.000000	 98.034541 
719.000000	 98.103776 
718.000000	 98.173815 
717.000000	 98.232029 
716.000000	 98.271681 
715.000000	 98.298617 
714.000000	 98.320586 
713.000000	 98.338004 
712.000000	 98.348702 
711.000000	 98.354066 
710.000000	 98.355714 
709.000000	 98.352040 
708.000000	 98.341420 
707.000000	 98.324065 
706.000000	 98.299774 
705.000000	 98.265110 
704.000000	 98.211655 
703.000000	 98.125034 
702.000000	 97.986517 
701.000000	 97.783154 
700.000000	 97.518652 
699.000000	 97.208398 
698.000000	 96.871643 
697.000000	 96.539882 
696.000000	 96.268789 
695.000000	 96.123380 
694.000000	 96.136676 
693.000000	 96.286521 
692.000000	 96.512198 
691.000000	 96.749290 
690.000000	 96.958356 
689.000000	 97.131378 
688.000000	 97.278692 
687.000000	 97.409759 
686.000000	 97.522741 
685.000000	 97.616088 
684.000000	 97.703416 
683.000000	 97.803320 
682.000000	 97.918686 
681.000000	 98.036284 
680.000000	 98.143815 
679.000000	 98.234542 
678.000000	 98.301604 
677.000000	 98.348578 
676.000000	 98.395824 
675.000000	 98.464068 
674.000000	 98.547381 
673.000000	 98.614667 
672.000000	 98.639075 
671.000000	 98.619076 
670.000000	 98.570348 
669.000000	 98.534605 
668.000000	 98.593454 
667.000000	 98.744942 
666.000000	 98.880579 
665.000000	 98.982012 
664.000000	 99.079827 
663.000000	 99.187867 
662.000000	 99.291528 
661.000000	 99.370127 
660.000000	 99.415973 
659.000000	 99.434514 
658.000000	 99.438363 
657.000000	 99.446465 
656.000000	 99.467915 
655.000000	 99.492281 
654.000000	 99.503331 
653.000000	 99.496798 
652.000000	 99.477918 
651.000000	 99.452116 
650.000000	 99.424168 

