PE IR                   SPECTRUM    ASCII       PEDS        1.60        
  -1
~SP.SP
22/12/06
15:02:11.00
23/01/09
14:44:14.00
Administrator

650.000000
4









FRONTIER FT-IR,CPU32 MAIN 00.09.9951 07-SEPTEMBER-2011 11:49:41
MIR TGS
MIR
OPTKBR
90694
0.200000

4.000000
STRONG
RATIO
SPECTRUM
MAGNITUDE
MIRACLE ATR
DOUBLE

COMBINED


0


#HDR
-1
-1
#GR
CM-1
%T
0.00002384185791015625
0.0
4000.000000
-1.000000
3351
8
96.180827
79.812507
#DATA
4000.000000	96.065179 
3999.000000	96.063129 
3998.000000	96.062834 
3997.000000	96.064748 
3996.000000	96.067861 
3995.000000	96.070091 
3994.000000	96.069924 
3993.000000	96.067626 
3992.000000	96.065175 
3991.000000	96.064357 
3990.000000	96.065213 
3989.000000	96.066310 
3988.000000	96.066208 
3987.000000	96.064733 
3986.000000	96.063065 
3985.000000	96.062756 
3984.000000	96.064505 
3983.000000	96.067586 
3982.000000	96.070280 
3981.000000	96.071051 
3980.000000	96.069553 
3979.000000	96.066654 
3978.000000	96.063612 
3977.000000	96.061156 
3976.000000	96.059241 
3975.000000	96.057628 
3974.000000	96.056485 
3973.000000	96.056199 
3972.000000	96.056637 
3971.000000	96.057023 
3970.000000	96.056804 
3969.000000	96.056463 
3968.000000	96.057081 
3967.000000	96.059165 
3966.000000	96.062165 
3965.000000	96.065061 
3964.000000	96.067198 
3963.000000	96.068452 
3962.000000	96.068946 
3961.000000	96.068801 
3960.000000	96.068064 
3959.000000	96.066693 
3958.000000	96.064624 
3957.000000	96.062022 
3956.000000	96.059588 
3955.000000	96.058326 
3954.000000	96.058740 
3953.000000	96.060390 
3952.000000	96.062113 
3951.000000	96.062868 
3950.000000	96.062508 
3949.000000	96.061661 
3948.000000	96.061103 
3947.000000	96.061088 
3946.000000	96.061294 
3945.000000	96.061298 
3944.000000	96.061029 
3943.000000	96.060802 
3942.000000	96.060983 
3941.000000	96.061648 
3940.000000	96.062517 
3939.000000	96.063157 
3938.000000	96.063293 
3937.000000	96.062983 
3936.000000	96.062559 
3935.000000	96.062362 
3934.000000	96.062447 
3933.000000	96.062595 
3932.000000	96.062580 
3931.000000	96.062434 
3930.000000	96.062382 
3929.000000	96.062566 
3928.000000	96.062899 
3927.000000	96.063138 
3926.000000	96.063110 
3925.000000	96.062879 
3924.000000	96.062682 
3923.000000	96.062677 
3922.000000	96.062823 
3921.000000	96.063006 
3920.000000	96.063195 
3919.000000	96.063362 
3918.000000	96.063331 
3917.000000	96.062859 
3916.000000	96.061892 
3915.000000	96.060753 
3914.000000	96.059977 
3913.000000	96.059924 
3912.000000	96.060616 
3911.000000	96.061759 
3910.000000	96.062928 
3909.000000	96.063757 
3908.000000	96.063964 
3907.000000	96.063400 
3906.000000	96.062174 
3905.000000	96.060679 
3904.000000	96.059437 
3903.000000	96.058733 
3902.000000	96.058419 
3901.000000	96.058101 
3900.000000	96.057503 
3899.000000	96.056664 
3898.000000	96.055784 
3897.000000	96.054987 
3896.000000	96.054225 
3895.000000	96.053402 
3894.000000	96.052534 
3893.000000	96.051749 
3892.000000	96.051119 
3891.000000	96.050507 
3890.000000	96.049714 
3889.000000	96.048738 
3888.000000	96.047747 
3887.000000	96.046865 
3886.000000	96.046061 
3885.000000	96.045249 
3884.000000	96.044478 
3883.000000	96.043896 
3882.000000	96.043509 
3881.000000	96.043159 
3880.000000	96.042631 
3879.000000	96.041882 
3878.000000	96.041001 
3877.000000	96.040118 
3876.000000	96.039288 
3875.000000	96.038487 
3874.000000	96.037671 
3873.000000	96.036828 
3872.000000	96.035973 
3871.000000	96.035132 
3870.000000	96.034317 
3869.000000	96.033537 
3868.000000	96.032803 
3867.000000	96.032127 
3866.000000	96.031499 
3865.000000	96.030884 
3864.000000	96.030237 
3863.000000	96.029538 
3862.000000	96.028860 
3861.000000	96.028260 
3860.000000	96.027679 
3859.000000	96.027005 
3858.000000	96.026235 
3857.000000	96.025538 
3856.000000	96.025122 
3855.000000	96.025056 
3854.000000	96.025208 
3853.000000	96.025261 
3852.000000	96.024947 
3851.000000	96.024332 
3850.000000	96.023688 
3849.000000	96.023185 
3848.000000	96.022822 
3847.000000	96.022526 
3846.000000	96.022247 
3845.000000	96.021969 
3844.000000	96.021705 
3843.000000	96.021510 
3842.000000	96.021401 
3841.000000	96.021211 
3840.000000	96.020673 
3839.000000	96.019716 
3838.000000	96.018624 
3837.000000	96.017691 
3836.000000	96.016848 
3835.000000	96.015893 
3834.000000	96.014986 
3833.000000	96.014713 
3832.000000	96.015496 
3831.000000	96.017037 
3830.000000	96.018576 
3829.000000	96.019691 
3828.000000	96.020557 
3827.000000	96.021464 
3826.000000	96.022325 
3825.000000	96.022802 
3824.000000	96.022830 
3823.000000	96.022764 
3822.000000	96.022789 
3821.000000	96.022293 
3820.000000	96.020427 
3819.000000	96.017407 
3818.000000	96.014910 
3817.000000	96.014675 
3816.000000	96.017014 
3815.000000	96.020393 
3814.000000	96.022793 
3813.000000	96.023763 
3812.000000	96.023954 
3811.000000	96.023859 
3810.000000	96.023347 
3809.000000	96.022249 
3808.000000	96.021103 
3807.000000	96.020862 
3806.000000	96.021646 
3805.000000	96.022619 
3804.000000	96.023197 
3803.000000	96.023744 
3802.000000	96.025011 
3801.000000	96.026809 
3800.000000	96.027915 
3799.000000	96.027864 
3798.000000	96.027705 
3797.000000	96.028899 
3796.000000	96.031982 
3795.000000	96.036043 
3794.000000	96.039436 
3793.000000	96.041156 
3792.000000	96.041401 
3791.000000	96.041142 
3790.000000	96.041152 
3789.000000	96.041271 
3788.000000	96.040800 
3787.000000	96.039582 
3786.000000	96.038351 
3785.000000	96.037791 
3784.000000	96.037611 
3783.000000	96.037054 
3782.000000	96.036139 
3781.000000	96.035781 
3780.000000	96.036536 
3779.000000	96.037643 
3778.000000	96.037942 
3777.000000	96.037463 
3776.000000	96.037305 
3775.000000	96.037969 
3774.000000	96.038596 
3773.000000	96.038093 
3772.000000	96.036309 
3771.000000	96.033880 
3770.000000	96.031527 
3769.000000	96.029611 
3768.000000	96.028488 
3767.000000	96.028541 
3766.000000	96.029437 
3765.000000	96.029951 
3764.000000	96.028928 
3763.000000	96.026262 
3762.000000	96.022855 
3761.000000	96.019979 
3760.000000	96.018434 
3759.000000	96.017845 
3758.000000	96.016930 
3757.000000	96.014795 
3756.000000	96.011769 
3755.000000	96.008874 
3754.000000	96.006738 
3753.000000	96.005105 
3752.000000	96.003302 
3751.000000	96.001141 
3750.000000	95.999093 
3749.000000	95.997647 
3748.000000	95.997166 
3747.000000	95.997530 
3746.000000	95.997644 
3745.000000	95.995985 
3744.000000	95.991737 
3743.000000	95.985853 
3742.000000	95.980843 
3741.000000	95.978619 
3740.000000	95.979108 
3739.000000	95.980680 
3738.000000	95.981345 
3737.000000	95.980060 
3736.000000	95.977691 
3735.000000	95.976731 
3734.000000	95.978978 
3733.000000	95.983588 
3732.000000	95.987563 
3731.000000	95.987937 
3730.000000	95.983874 
3729.000000	95.976832 
3728.000000	95.969498 
3727.000000	95.964305 
3726.000000	95.962250 
3725.000000	95.963153 
3724.000000	95.966690 
3723.000000	95.972452 
3722.000000	95.978764 
3721.000000	95.982934 
3720.000000	95.983257 
3719.000000	95.979760 
3718.000000	95.973351 
3717.000000	95.964922 
3716.000000	95.955548 
3715.000000	95.946283 
3714.000000	95.937310 
3713.000000	95.928097 
3712.000000	95.918934 
3711.000000	95.911741 
3710.000000	95.908244 
3709.000000	95.908475 
3708.000000	95.911451 
3707.000000	95.916063 
3706.000000	95.921420 
3705.000000	95.927030 
3704.000000	95.932493 
3703.000000	95.936671 
3702.000000	95.937153 
3701.000000	95.932056 
3700.000000	95.922771 
3699.000000	95.913800 
3698.000000	95.908838 
3697.000000	95.907258 
3696.000000	95.904959 
3695.000000	95.898729 
3694.000000	95.889997 
3693.000000	95.884085 
3692.000000	95.885905 
3691.000000	95.896164 
3690.000000	95.909934 
3689.000000	95.919077 
3688.000000	95.918458 
3687.000000	95.910161 
3686.000000	95.900611 
3685.000000	95.894109 
3684.000000	95.890004 
3683.000000	95.884459 
3682.000000	95.873743 
3681.000000	95.856818 
3680.000000	95.835936 
3679.000000	95.815415 
3678.000000	95.799588 
3677.000000	95.791574 
3676.000000	95.791496 
3675.000000	95.794204 
3674.000000	95.793274 
3673.000000	95.787964 
3672.000000	95.781450 
3671.000000	95.775281 
3670.000000	95.767984 
3669.000000	95.758067 
3668.000000	95.747126 
3667.000000	95.738784 
3666.000000	95.734574 
3665.000000	95.732084 
3664.000000	95.727251 
3663.000000	95.717748 
3662.000000	95.704503 
3661.000000	95.690278 
3660.000000	95.677509 
3659.000000	95.667284 
3658.000000	95.658915 
3657.000000	95.649472 
3656.000000	95.634614 
3655.000000	95.612448 
3654.000000	95.586514 
3653.000000	95.563063 
3652.000000	95.545605 
3651.000000	95.532351 
3650.000000	95.519045 
3649.000000	95.505425 
3648.000000	95.495986 
3647.000000	95.492825 
3646.000000	95.492655 
3645.000000	95.491319 
3644.000000	95.488038 
3643.000000	95.484600 
3642.000000	95.482087 
3641.000000	95.478830 
3640.000000	95.471984 
3639.000000	95.460880 
3638.000000	95.448131 
3637.000000	95.437518 
3636.000000	95.430912 
3635.000000	95.426872 
3634.000000	95.421755 
3633.000000	95.412576 
3632.000000	95.399190 
3631.000000	95.384054 
3630.000000	95.371001 
3629.000000	95.362828 
3628.000000	95.358194 
3627.000000	95.354674 
3626.000000	95.353905 
3625.000000	95.357854 
3624.000000	95.364639 
3623.000000	95.370959 
3622.000000	95.375838 
3621.000000	95.380994 
3620.000000	95.387480 
3619.000000	95.393042 
3618.000000	95.394276 
3617.000000	95.391300 
3616.000000	95.388139 
3615.000000	95.388690 
3614.000000	95.393700 
3613.000000	95.401276 
3612.000000	95.409569 
3611.000000	95.418700 
3610.000000	95.429700 
3609.000000	95.442423 
3608.000000	95.454518 
3607.000000	95.463108 
3606.000000	95.467636 
3605.000000	95.469835 
3604.000000	95.471550 
3603.000000	95.473247 
3602.000000	95.474636 
3601.000000	95.476472 
3600.000000	95.480566 
3599.000000	95.487808 
3598.000000	95.496687 
3597.000000	95.504247 
3596.000000	95.508565 
3595.000000	95.510823 
3594.000000	95.514065 
3593.000000	95.519276 
3592.000000	95.524141 
3591.000000	95.526170 
3590.000000	95.525787 
3589.000000	95.525796 
3588.000000	95.527332 
3587.000000	95.527244 
3586.000000	95.522292 
3585.000000	95.514476 
3584.000000	95.509566 
3583.000000	95.510948 
3582.000000	95.516804 
3581.000000	95.522466 
3580.000000	95.524170 
3579.000000	95.520944 
3578.000000	95.514270 
3577.000000	95.507028 
3576.000000	95.501663 
3575.000000	95.498192 
3574.000000	95.494075 
3573.000000	95.487011 
3572.000000	95.477942 
3571.000000	95.470713 
3570.000000	95.468536 
3569.000000	95.471175 
3568.000000	95.475234 
3567.000000	95.476958 
3566.000000	95.474821 
3565.000000	95.469837 
3564.000000	95.464541 
3563.000000	95.461557 
3562.000000	95.462008 
3561.000000	95.464813 
3560.000000	95.467710 
3559.000000	95.469261 
3558.000000	95.469475 
3557.000000	95.468579 
3556.000000	95.466161 
3555.000000	95.462079 
3554.000000	95.457723 
3553.000000	95.455260 
3552.000000	95.455437 
3551.000000	95.456881 
3550.000000	95.457640 
3549.000000	95.456939 
3548.000000	95.455258 
3547.000000	95.453291 
3546.000000	95.451333 
3545.000000	95.449428 
3544.000000	95.447742 
3543.000000	95.446504 
3542.000000	95.445684 
3541.000000	95.444934 
3540.000000	95.443903 
3539.000000	95.442598 
3538.000000	95.441311 
3537.000000	95.440246 
3536.000000	95.439325 
3535.000000	95.438309 
3534.000000	95.437049 
3533.000000	95.435607 
3532.000000	95.434183 
3531.000000	95.432970 
3530.000000	95.432058 
3529.000000	95.431401 
3528.000000	95.430756 
3527.000000	95.429779 
3526.000000	95.428316 
3525.000000	95.426594 
3524.000000	95.425030 
3523.000000	95.423758 
3522.000000	95.422540 
3521.000000	95.421187 
3520.000000	95.419921 
3519.000000	95.419180 
3518.000000	95.419104 
3517.000000	95.419176 
3516.000000	95.418439 
3515.000000	95.416173 
3514.000000	95.412416 
3513.000000	95.408106 
3512.000000	95.404487 
3511.000000	95.402178 
3510.000000	95.400889 
3509.000000	95.399871 
3508.000000	95.398660 
3507.000000	95.397349 
3506.000000	95.396272 
3505.000000	95.395694 
3504.000000	95.395632 
3503.000000	95.395712 
3502.000000	95.395287 
3501.000000	95.393989 
3500.000000	95.392127 
3499.000000	95.390286 
3498.000000	95.388544 
3497.000000	95.386355 
3496.000000	95.383261 
3495.000000	95.379437 
3494.000000	95.375431 
3493.000000	95.371636 
3492.000000	95.368318 
3491.000000	95.365967 
3490.000000	95.365177 
3489.000000	95.366012 
3488.000000	95.367604 
3487.000000	95.368555 
3486.000000	95.367892 
3485.000000	95.365539 
3484.000000	95.362119 
3483.000000	95.358524 
3482.000000	95.355480 
3481.000000	95.353312 
3480.000000	95.351929 
3479.000000	95.350946 
3478.000000	95.349864 
3477.000000	95.348283 
3476.000000	95.346139 
3475.000000	95.343684 
3474.000000	95.340997 
3473.000000	95.337546 
3472.000000	95.332704 
3471.000000	95.326862 
3470.000000	95.321639 
3469.000000	95.318560 
3468.000000	95.317594 
3467.000000	95.317285 
3466.000000	95.316292 
3465.000000	95.314389 
3464.000000	95.312053 
3463.000000	95.309719 
3462.000000	95.307607 
3461.000000	95.305757 
3460.000000	95.303775 
3459.000000	95.300894 
3458.000000	95.296806 
3457.000000	95.292284 
3456.000000	95.288488 
3455.000000	95.285642 
3454.000000	95.282869 
3453.000000	95.279428 
3452.000000	95.275581 
3451.000000	95.271998 
3450.000000	95.268784 
3449.000000	95.265606 
3448.000000	95.262592 
3447.000000	95.260519 
3446.000000	95.259918 
3445.000000	95.260372 
3444.000000	95.260888 
3443.000000	95.260711 
3442.000000	95.259763 
3441.000000	95.258516 
3440.000000	95.257535 
3439.000000	95.257028 
3438.000000	95.256560 
3437.000000	95.255224 
3436.000000	95.252280 
3435.000000	95.247749 
3434.000000	95.242419 
3433.000000	95.237368 
3432.000000	95.233528 
3431.000000	95.231553 
3430.000000	95.231622 
3429.000000	95.233037 
3428.000000	95.234179 
3427.000000	95.233411 
3426.000000	95.230180 
3425.000000	95.225187 
3424.000000	95.219642 
3423.000000	95.214567 
3422.000000	95.210706 
3421.000000	95.208532 
3420.000000	95.207920 
3419.000000	95.208121 
3418.000000	95.208578 
3417.000000	95.209724 
3416.000000	95.212444 
3415.000000	95.216689 
3414.000000	95.220889 
3413.000000	95.223004 
3412.000000	95.222217 
3411.000000	95.219424 
3410.000000	95.216243 
3409.000000	95.213560 
3408.000000	95.211136 
3407.000000	95.208572 
3406.000000	95.206254 
3405.000000	95.205022 
3404.000000	95.205043 
3403.000000	95.205419 
3402.000000	95.205019 
3401.000000	95.203449 
3400.000000	95.201056 
3399.000000	95.198449 
3398.000000	95.196320 
3397.000000	95.195353 
3396.000000	95.195659 
3395.000000	95.196309 
3394.000000	95.195955 
3393.000000	95.194170 
3392.000000	95.191935 
3391.000000	95.190535 
3390.000000	95.190099 
3389.000000	95.189471 
3388.000000	95.187500 
3387.000000	95.184375 
3386.000000	95.181560 
3385.000000	95.180335 
3384.000000	95.180611 
3383.000000	95.181448 
3382.000000	95.182549 
3381.000000	95.184511 
3380.000000	95.187580 
3379.000000	95.191014 
3378.000000	95.194123 
3377.000000	95.197230 
3376.000000	95.200676 
3375.000000	95.203461 
3374.000000	95.204153 
3373.000000	95.202910 
3372.000000	95.201552 
3371.000000	95.201523 
3370.000000	95.202418 
3369.000000	95.202952 
3368.000000	95.202692 
3367.000000	95.202274 
3366.000000	95.202374 
3365.000000	95.203043 
3364.000000	95.203965 
3363.000000	95.204879 
3362.000000	95.205668 
3361.000000	95.206308 
3360.000000	95.206871 
3359.000000	95.207501 
3358.000000	95.208321 
3357.000000	95.209375 
3356.000000	95.210641 
3355.000000	95.212045 
3354.000000	95.213464 
3353.000000	95.214780 
3352.000000	95.215937 
3351.000000	95.216928 
3350.000000	95.217753 
3349.000000	95.218442 
3348.000000	95.219111 
3347.000000	95.219929 
3346.000000	95.220986 
3345.000000	95.222232 
3344.000000	95.223536 
3343.000000	95.224796 
3342.000000	95.225974 
3341.000000	95.227060 
3340.000000	95.228047 
3339.000000	95.228942 
3338.000000	95.229793 
3337.000000	95.230692 
3336.000000	95.231711 
3335.000000	95.232872 
3334.000000	95.234108 
3333.000000	95.235285 
3332.000000	95.236302 
3331.000000	95.237157 
3330.000000	95.237973 
3329.000000	95.238908 
3328.000000	95.240004 
3327.000000	95.241140 
3326.000000	95.242127 
3325.000000	95.242903 
3324.000000	95.243625 
3323.000000	95.244541 
3322.000000	95.245769 
3321.000000	95.247241 
3320.000000	95.248844 
3319.000000	95.250546 
3318.000000	95.252324 
3317.000000	95.254034 
3316.000000	95.255452 
3315.000000	95.256470 
3314.000000	95.257148 
3313.000000	95.257581 
3312.000000	95.257854 
3311.000000	95.258142 
3310.000000	95.258713 
3309.000000	95.259705 
3308.000000	95.260970 
3307.000000	95.262195 
3306.000000	95.263214 
3305.000000	95.264137 
3304.000000	95.265191 
3303.000000	95.266498 
3302.000000	95.267969 
3301.000000	95.269382 
3300.000000	95.270562 
3299.000000	95.271523 
3298.000000	95.272458 
3297.000000	95.273560 
3296.000000	95.274852 
3295.000000	95.276194 
3294.000000	95.277453 
3293.000000	95.278607 
3292.000000	95.279720 
3291.000000	95.280869 
3290.000000	95.282075 
3289.000000	95.283296 
3288.000000	95.284470 
3287.000000	95.285591 
3286.000000	95.286694 
3285.000000	95.287810 
3284.000000	95.288937 
3283.000000	95.290066 
3282.000000	95.291189 
3281.000000	95.292296 
3280.000000	95.293383 
3279.000000	95.294452 
3278.000000	95.295513 
3277.000000	95.296575 
3276.000000	95.297651 
3275.000000	95.298752 
3274.000000	95.299891 
3273.000000	95.301073 
3272.000000	95.302294 
3271.000000	95.303543 
3270.000000	95.304811 
3269.000000	95.306092 
3268.000000	95.307386 
3267.000000	95.308692 
3266.000000	95.310012 
3265.000000	95.311350 
3264.000000	95.312708 
3263.000000	95.314088 
3262.000000	95.315465 
3261.000000	95.316793 
3260.000000	95.318031 
3259.000000	95.319189 
3258.000000	95.320349 
3257.000000	95.321634 
3256.000000	95.323139 
3255.000000	95.324854 
3254.000000	95.326600 
3253.000000	95.328131 
3252.000000	95.329336 
3251.000000	95.330412 
3250.000000	95.331743 
3249.000000	95.333468 
3248.000000	95.335294 
3247.000000	95.336845 
3246.000000	95.338098 
3245.000000	95.339311 
3244.000000	95.340639 
3243.000000	95.342026 
3242.000000	95.343461 
3241.000000	95.345088 
3240.000000	95.346987 
3239.000000	95.349071 
3238.000000	95.351257 
3237.000000	95.353595 
3236.000000	95.356189 
3235.000000	95.359059 
3234.000000	95.362068 
3233.000000	95.364883 
3232.000000	95.367092 
3231.000000	95.368579 
3230.000000	95.369804 
3229.000000	95.371473 
3228.000000	95.373759 
3227.000000	95.376134 
3226.000000	95.378142 
3225.000000	95.380055 
3224.000000	95.382467 
3223.000000	95.385408 
3222.000000	95.388258 
3221.000000	95.390578 
3220.000000	95.392702 
3219.000000	95.395295 
3218.000000	95.398462 
3217.000000	95.401416 
3216.000000	95.403119 
3215.000000	95.403219 
3214.000000	95.402492 
3213.000000	95.402327 
3212.000000	95.403391 
3211.000000	95.405032 
3210.000000	95.406203 
3209.000000	95.406990 
3208.000000	95.408741 
3207.000000	95.412413 
3206.000000	95.417320 
3205.000000	95.421793 
3204.000000	95.424924 
3203.000000	95.427105 
3202.000000	95.429062 
3201.000000	95.431031 
3200.000000	95.432973 
3199.000000	95.434962 
3198.000000	95.436917 
3197.000000	95.438378 
3196.000000	95.439023 
3195.000000	95.439219 
3194.000000	95.439646 
3193.000000	95.440544 
3192.000000	95.441826 
3191.000000	95.443827 
3190.000000	95.447221 
3189.000000	95.451964 
3188.000000	95.456791 
3187.000000	95.460153 
3186.000000	95.461538 
3185.000000	95.461729 
3184.000000	95.462093 
3183.000000	95.463561 
3182.000000	95.466099 
3181.000000	95.468966 
3180.000000	95.471513 
3179.000000	95.473775 
3178.000000	95.476153 
3177.000000	95.478665 
3176.000000	95.481026 
3175.000000	95.483534 
3174.000000	95.487144 
3173.000000	95.492193 
3172.000000	95.497443 
3171.000000	95.501182 
3170.000000	95.503042 
3169.000000	95.504036 
3168.000000	95.505030 
3167.000000	95.505953 
3166.000000	95.506727 
3165.000000	95.507835 
3164.000000	95.509466 
3163.000000	95.510911 
3162.000000	95.511479 
3161.000000	95.511537 
3160.000000	95.512080 
3159.000000	95.513573 
3158.000000	95.515727 
3157.000000	95.518143 
3156.000000	95.520647 
3155.000000	95.523124 
3154.000000	95.525454 
3153.000000	95.527637 
3152.000000	95.529642 
3151.000000	95.531197 
3150.000000	95.532099 
3149.000000	95.532760 
3148.000000	95.534026 
3147.000000	95.536277 
3146.000000	95.539034 
3145.000000	95.541478 
3144.000000	95.543318 
3143.000000	95.544893 
3142.000000	95.546608 
3141.000000	95.548574 
3140.000000	95.550723 
3139.000000	95.552942 
3138.000000	95.555024 
3137.000000	95.556708 
3136.000000	95.557943 
3135.000000	95.558977 
3134.000000	95.560165 
3133.000000	95.561665 
3132.000000	95.563381 
3131.000000	95.565151 
3130.000000	95.566904 
3129.000000	95.568664 
3128.000000	95.570471 
3127.000000	95.572323 
3126.000000	95.574196 
3125.000000	95.576067 
3124.000000	95.577923 
3123.000000	95.579771 
3122.000000	95.581622 
3121.000000	95.583493 
3120.000000	95.585386 
3119.000000	95.587298 
3118.000000	95.589218 
3117.000000	95.591134 
3116.000000	95.593038 
3115.000000	95.594926 
3114.000000	95.596795 
3113.000000	95.598646 
3112.000000	95.600480 
3111.000000	95.602298 
3110.000000	95.604098 
3109.000000	95.605872 
3108.000000	95.607624 
3107.000000	95.609385 
3106.000000	95.611201 
3105.000000	95.613083 
3104.000000	95.614964 
3103.000000	95.616750 
3102.000000	95.618377 
3101.000000	95.619848 
3100.000000	95.621239 
3099.000000	95.622691 
3098.000000	95.624348 
3097.000000	95.626267 
3096.000000	95.628365 
3095.000000	95.630490 
3094.000000	95.632505 
3093.000000	95.634296 
3092.000000	95.635825 
3091.000000	95.637193 
3090.000000	95.638563 
3089.000000	95.639941 
3088.000000	95.641182 
3087.000000	95.642297 
3086.000000	95.643591 
3085.000000	95.645297 
3084.000000	95.647221 
3083.000000	95.649021 
3082.000000	95.650764 
3081.000000	95.652856 
3080.000000	95.655371 
3079.000000	95.657886 
3078.000000	95.660108 
3077.000000	95.662190 
3076.000000	95.664131 
3075.000000	95.665279 
3074.000000	95.664966 
3073.000000	95.663445 
3072.000000	95.661791 
3071.000000	95.660845 
3070.000000	95.660697 
3069.000000	95.661264 
3068.000000	95.662878 
3067.000000	95.665944 
3066.000000	95.670205 
3065.000000	95.674744 
3064.000000	95.678689 
3063.000000	95.681671 
3062.000000	95.683619 
3061.000000	95.684452 
3060.000000	95.684324 
3059.000000	95.684074 
3058.000000	95.684974 
3057.000000	95.687778 
3056.000000	95.691977 
3055.000000	95.696052 
3054.000000	95.698626 
3053.000000	95.699436 
3052.000000	95.699424 
3051.000000	95.700126 
3050.000000	95.702750 
3049.000000	95.707393 
3048.000000	95.712809 
3047.000000	95.717208 
3046.000000	95.719746 
3045.000000	95.721202 
3044.000000	95.723026 
3043.000000	95.725809 
3042.000000	95.729021 
3041.000000	95.732214 
3040.000000	95.735871 
3039.000000	95.740649 
3038.000000	95.746240 
3037.000000	95.751623 
3036.000000	95.756319 
3035.000000	95.760711 
3034.000000	95.765012 
3033.000000	95.768631 
3032.000000	95.771090 
3031.000000	95.773180 
3030.000000	95.776486 
3029.000000	95.781692 
3028.000000	95.787920 
3027.000000	95.793755 
3026.000000	95.798404 
3025.000000	95.801743 
3024.000000	95.803963 
3023.000000	95.805827 
3022.000000	95.808920 
3021.000000	95.814902 
3020.000000	95.824241 
3019.000000	95.835616 
3018.000000	95.846519 
3017.000000	95.854731 
3016.000000	95.859681 
3015.000000	95.862710 
3014.000000	95.865934 
3013.000000	95.870547 
3012.000000	95.876194 
3011.000000	95.881806 
3010.000000	95.886553 
3009.000000	95.890016 
3008.000000	95.892248 
3007.000000	95.894326 
3006.000000	95.898382 
3005.000000	95.906231 
3004.000000	95.917663 
3003.000000	95.930240 
3002.000000	95.940811 
3001.000000	95.947270 
3000.000000	95.949428 
2999.000000	95.949054 
2998.000000	95.949043 
2997.000000	95.951640 
2996.000000	95.957107 
2995.000000	95.964273 
2994.000000	95.972261 
2993.000000	95.981190 
2992.000000	95.991164 
2991.000000	96.001153 
2990.000000	96.009156 
2989.000000	96.013156 
2988.000000	96.011866 
2987.000000	96.005327 
2986.000000	95.995538 
2985.000000	95.986201 
2984.000000	95.980897 
2983.000000	95.980906 
2982.000000	95.984607 
2981.000000	95.988775 
2980.000000	95.990838 
2979.000000	95.990467 
2978.000000	95.989416 
2977.000000	95.989802 
2976.000000	95.992242 
2975.000000	95.995418 
2974.000000	95.997555 
2973.000000	95.998493 
2972.000000	96.000251 
2971.000000	96.005119 
2970.000000	96.012994 
2969.000000	96.020873 
2968.000000	96.025580 
2967.000000	96.026880 
2966.000000	96.027266 
2965.000000	96.028689 
2964.000000	96.030406 
2963.000000	96.030679 
2962.000000	96.029587 
2961.000000	96.028829 
2960.000000	96.029097 
2959.000000	96.029072 
2958.000000	96.027370 
2957.000000	96.024520 
2956.000000	96.022472 
2955.000000	96.022683 
2954.000000	96.024960 
2953.000000	96.027685 
2952.000000	96.028844 
2951.000000	96.027349 
2950.000000	96.023871 
2949.000000	96.020329 
2948.000000	96.018186 
2947.000000	96.017272 
2946.000000	96.016363 
2945.000000	96.014670 
2944.000000	96.012535 
2943.000000	96.010806 
2942.000000	96.009981 
2941.000000	96.010245 
2940.000000	96.011999 
2939.000000	96.015746 
2938.000000	96.021048 
2937.000000	96.025942 
2936.000000	96.028279 
2935.000000	96.027785 
2934.000000	96.026380 
2933.000000	96.026339 
2932.000000	96.028330 
2931.000000	96.031314 
2930.000000	96.033724 
2929.000000	96.034538 
2928.000000	96.033823 
2927.000000	96.032789 
2926.000000	96.032841 
2925.000000	96.033933 
2924.000000	96.034389 
2923.000000	96.032990 
2922.000000	96.030687 
2921.000000	96.029593 
2920.000000	96.030433 
2919.000000	96.032033 
2918.000000	96.033128 
2917.000000	96.033743 
2916.000000	96.034398 
2915.000000	96.034858 
2914.000000	96.034429 
2913.000000	96.033038 
2912.000000	96.031294 
2911.000000	96.029707 
2910.000000	96.028391 
2909.000000	96.027415 
2908.000000	96.026909 
2907.000000	96.026793 
2906.000000	96.026721 
2905.000000	96.026367 
2904.000000	96.025686 
2903.000000	96.024901 
2902.000000	96.024298 
2901.000000	96.023970 
2900.000000	96.023650 
2899.000000	96.022900 
2898.000000	96.021584 
2897.000000	96.020116 
2896.000000	96.019152 
2895.000000	96.018940 
2894.000000	96.019043 
2893.000000	96.018737 
2892.000000	96.017694 
2891.000000	96.016075 
2890.000000	96.014203 
2889.000000	96.012389 
2888.000000	96.010994 
2887.000000	96.010336 
2886.000000	96.010390 
2885.000000	96.010619 
2884.000000	96.010271 
2883.000000	96.008854 
2882.000000	96.006380 
2881.000000	96.003335 
2880.000000	96.000429 
2879.000000	95.998189 
2878.000000	95.996619 
2877.000000	95.995183 
2876.000000	95.993193 
2875.000000	95.990357 
2874.000000	95.987079 
2873.000000	95.984303 
2872.000000	95.982996 
2871.000000	95.983571 
2870.000000	95.985618 
2869.000000	95.988093 
2868.000000	95.989881 
2867.000000	95.990256 
2866.000000	95.988934 
2865.000000	95.985916 
2864.000000	95.981669 
2863.000000	95.977403 
2862.000000	95.974511 
2861.000000	95.973295 
2860.000000	95.972514 
2859.000000	95.970737 
2858.000000	95.968140 
2857.000000	95.966375 
2856.000000	95.966470 
2855.000000	95.967388 
2854.000000	95.966990 
2853.000000	95.964041 
2852.000000	95.958799 
2851.000000	95.952194 
2850.000000	95.945206 
2849.000000	95.939026 
2848.000000	95.934929 
2847.000000	95.933371 
2846.000000	95.933410 
2845.000000	95.933371 
2844.000000	95.932156 
2843.000000	95.929755 
2842.000000	95.926776 
2841.000000	95.923970 
2840.000000	95.922129 
2839.000000	95.921802 
2838.000000	95.922709 
2837.000000	95.923658 
2836.000000	95.923546 
2835.000000	95.922503 
2834.000000	95.921642 
2833.000000	95.921727 
2832.000000	95.922471 
2831.000000	95.923087 
2830.000000	95.922982 
2829.000000	95.921741 
2828.000000	95.919158 
2827.000000	95.915882 
2826.000000	95.913646 
2825.000000	95.914038 
2824.000000	95.917042 
2823.000000	95.920962 
2822.000000	95.923830 
2821.000000	95.924689 
2820.000000	95.923556 
2819.000000	95.920936 
2818.000000	95.917671 
2817.000000	95.914792 
2816.000000	95.913074 
2815.000000	95.912703 
2814.000000	95.913346 
2813.000000	95.914304 
2812.000000	95.914725 
2811.000000	95.914276 
2810.000000	95.913804 
2809.000000	95.914751 
2808.000000	95.917593 
2807.000000	95.921210 
2806.000000	95.924021 
2805.000000	95.925371 
2804.000000	95.925622 
2803.000000	95.925477 
2802.000000	95.925674 
2801.000000	95.926827 
2800.000000	95.928835 
2799.000000	95.930567 
2798.000000	95.930741 
2797.000000	95.929243 
2796.000000	95.927354 
2795.000000	95.926714 
2794.000000	95.928198 
2793.000000	95.931542 
2792.000000	95.935573 
2791.000000	95.938918 
2790.000000	95.940975 
2789.000000	95.942280 
2788.000000	95.943846 
2787.000000	95.946223 
2786.000000	95.949282 
2785.000000	95.952505 
2784.000000	95.955056 
2783.000000	95.955871 
2782.000000	95.954254 
2781.000000	95.950488 
2780.000000	95.945619 
2779.000000	95.940838 
2778.000000	95.937198 
2777.000000	95.935476 
2776.000000	95.935775 
2775.000000	95.937334 
2774.000000	95.939063 
2773.000000	95.940321 
2772.000000	95.941171 
2771.000000	95.942159 
2770.000000	95.943985 
2769.000000	95.946920 
2768.000000	95.950170 
2767.000000	95.952138 
2766.000000	95.951790 
2765.000000	95.949664 
2764.000000	95.947423 
2763.000000	95.946438 
2762.000000	95.946923 
2761.000000	95.948164 
2760.000000	95.949207 
2759.000000	95.949540 
2758.000000	95.949502 
2757.000000	95.949947 
2756.000000	95.951260 
2755.000000	95.952857 
2754.000000	95.953911 
2753.000000	95.954362 
2752.000000	95.954789 
2751.000000	95.955478 
2750.000000	95.956026 
2749.000000	95.955895 
2748.000000	95.955000 
2747.000000	95.953738 
2746.000000	95.952751 
2745.000000	95.952592 
2744.000000	95.953386 
2743.000000	95.954758 
2742.000000	95.956168 
2741.000000	95.957359 
2740.000000	95.958349 
2739.000000	95.959155 
2738.000000	95.959698 
2737.000000	95.959962 
2736.000000	95.960118 
2735.000000	95.960403 
2734.000000	95.960927 
2733.000000	95.961620 
2732.000000	95.962323 
2731.000000	95.962896 
2730.000000	95.963292 
2729.000000	95.963564 
2728.000000	95.963797 
2727.000000	95.964047 
2726.000000	95.964361 
2725.000000	95.964785 
2724.000000	95.965305 
2723.000000	95.965808 
2722.000000	95.966190 
2721.000000	95.966493 
2720.000000	95.966944 
2719.000000	95.967759 
2718.000000	95.968897 
2717.000000	95.970001 
2716.000000	95.970740 
2715.000000	95.971102 
2714.000000	95.971384 
2713.000000	95.971939 
2712.000000	95.972858 
2711.000000	95.973800 
2710.000000	95.974157 
2709.000000	95.973583 
2708.000000	95.972414 
2707.000000	95.971398 
2706.000000	95.971020 
2705.000000	95.971365 
2704.000000	95.972390 
2703.000000	95.973783 
2702.000000	95.974624 
2701.000000	95.973898 
2700.000000	95.971779 
2699.000000	95.970080 
2698.000000	95.970811 
2697.000000	95.974197 
2696.000000	95.978238 
2695.000000	95.980509 
2694.000000	95.980376 
2693.000000	95.979189 
2692.000000	95.978514 
2691.000000	95.978637 
2690.000000	95.978955 
2689.000000	95.979011 
2688.000000	95.978435 
2687.000000	95.976582 
2686.000000	95.973496 
2685.000000	95.970968 
2684.000000	95.971287 
2683.000000	95.974853 
2682.000000	95.980184 
2681.000000	95.986012 
2680.000000	95.991555 
2679.000000	95.994680 
2678.000000	95.992428 
2677.000000	95.984710 
2676.000000	95.975755 
2675.000000	95.969669 
2674.000000	95.965563 
2673.000000	95.959159 
2672.000000	95.948564 
2671.000000	95.936502 
2670.000000	95.927080 
2669.000000	95.922209 
2668.000000	95.921501 
2667.000000	95.923965 
2666.000000	95.928927 
2665.000000	95.936073 
2664.000000	95.945102 
2663.000000	95.955184 
2662.000000	95.964988 
2661.000000	95.973671 
2660.000000	95.981245 
2659.000000	95.987090 
2658.000000	95.988711 
2657.000000	95.983514 
2656.000000	95.971937 
2655.000000	95.957663 
2654.000000	95.944250 
2653.000000	95.932385 
2652.000000	95.920986 
2651.000000	95.909950 
2650.000000	95.901081 
2649.000000	95.896734 
2648.000000	95.898059 
2647.000000	95.904262 
2646.000000	95.913213 
2645.000000	95.923039 
2644.000000	95.933338 
2643.000000	95.944683 
2642.000000	95.957090 
2641.000000	95.969607 
2640.000000	95.981421 
2639.000000	95.992604 
2638.000000	96.003378 
2637.000000	96.013269 
2636.000000	96.021357 
2635.000000	96.026763 
2634.000000	96.028394 
2633.000000	96.024996 
2632.000000	96.016628 
2631.000000	96.006076 
2630.000000	95.997500 
2629.000000	95.992942 
2628.000000	95.990840 
2627.000000	95.988701 
2626.000000	95.986685 
2625.000000	95.987337 
2624.000000	95.991756 
2623.000000	95.997499 
2622.000000	96.001321 
2621.000000	96.003188 
2620.000000	96.005912 
2619.000000	96.010847 
2618.000000	96.015557 
2617.000000	96.016643 
2616.000000	96.013682 
2615.000000	96.009214 
2614.000000	96.005648 
2613.000000	96.003616 
2612.000000	96.003096 
2611.000000	96.004193 
2610.000000	96.005991 
2609.000000	96.006179 
2608.000000	96.003393 
2607.000000	95.999357 
2606.000000	95.997324 
2605.000000	95.998378 
2604.000000	96.000494 
2603.000000	96.001377 
2602.000000	96.001201 
2601.000000	96.001859 
2600.000000	96.004219 
2599.000000	96.007133 
2598.000000	96.009046 
2597.000000	96.009584 
2596.000000	96.009202 
2595.000000	96.008145 
2594.000000	96.006466 
2593.000000	96.004613 
2592.000000	96.003298 
2591.000000	96.002838 
2590.000000	96.002981 
2589.000000	96.003289 
2588.000000	96.003512 
2587.000000	96.003599 
2586.000000	96.003510 
2585.000000	96.003138 
2584.000000	96.002423 
2583.000000	96.001524 
2582.000000	96.000849 
2581.000000	96.000808 
2580.000000	96.001463 
2579.000000	96.002450 
2578.000000	96.003267 
2577.000000	96.003609 
2576.000000	96.003384 
2575.000000	96.002632 
2574.000000	96.001606 
2573.000000	96.000826 
2572.000000	96.000738 
2571.000000	96.001283 
2570.000000	96.001956 
2569.000000	96.002234 
2568.000000	96.001720 
2567.000000	96.000046 
2566.000000	95.997153 
2565.000000	95.993785 
2564.000000	95.991190 
2563.000000	95.990043 
2562.000000	95.990052 
2561.000000	95.990791 
2560.000000	95.992447 
2559.000000	95.995222 
2558.000000	95.998388 
2557.000000	96.000571 
2556.000000	96.001104 
2555.000000	96.000637 
2554.000000	96.000374 
2553.000000	96.000820 
2552.000000	96.001373 
2551.000000	96.001021 
2550.000000	95.999320 
2549.000000	95.996823 
2548.000000	95.994727 
2547.000000	95.993977 
2546.000000	95.994639 
2545.000000	95.996048 
2544.000000	95.997426 
2543.000000	95.998320 
2542.000000	95.998477 
2541.000000	95.997656 
2540.000000	95.995856 
2539.000000	95.993668 
2538.000000	95.991986 
2537.000000	95.991211 
2536.000000	95.991012 
2535.000000	95.991017 
2534.000000	95.991408 
2533.000000	95.992438 
2532.000000	95.993677 
2531.000000	95.994349 
2530.000000	95.994464 
2529.000000	95.995058 
2528.000000	95.997022 
2527.000000	96.000071 
2526.000000	96.002978 
2525.000000	96.004639 
2524.000000	96.004716 
2523.000000	96.003660 
2522.000000	96.002501 
2521.000000	96.002264 
2520.000000	96.003186 
2519.000000	96.004496 
2518.000000	96.005182 
2517.000000	96.004910 
2516.000000	96.004037 
2515.000000	96.003067 
2514.000000	96.002451 
2513.000000	96.002591 
2512.000000	96.003468 
2511.000000	96.004450 
2510.000000	96.004996 
2509.000000	96.005404 
2508.000000	96.006272 
2507.000000	96.007443 
2506.000000	96.008193 
2505.000000	96.008413 
2504.000000	96.008740 
2503.000000	96.009420 
2502.000000	96.009814 
2501.000000	96.009218 
2500.000000	96.007554 
2499.000000	96.005275 
2498.000000	96.003248 
2497.000000	96.002689 
2496.000000	96.004205 
2495.000000	96.006771 
2494.000000	96.008611 
2493.000000	96.009489 
2492.000000	96.011008 
2491.000000	96.014073 
2490.000000	96.017098 
2489.000000	96.017749 
2488.000000	96.015608 
2487.000000	96.012002 
2486.000000	96.007830 
2485.000000	96.002784 
2484.000000	95.996765 
2483.000000	95.991003 
2482.000000	95.987391 
2481.000000	95.987131 
2480.000000	95.990156 
2479.000000	95.995303 
2478.000000	96.000860 
2477.000000	96.005415 
2476.000000	96.008423 
2475.000000	96.009970 
2474.000000	96.010260 
2473.000000	96.009490 
2472.000000	96.007953 
2471.000000	96.005990 
2470.000000	96.003924 
2469.000000	96.002103 
2468.000000	96.000766 
2467.000000	95.999803 
2466.000000	95.999049 
2465.000000	95.998959 
2464.000000	96.000468 
2463.000000	96.003840 
2462.000000	96.007949 
2461.000000	96.011090 
2460.000000	96.012414 
2459.000000	96.012206 
2458.000000	96.011090 
2457.000000	96.009360 
2456.000000	96.007018 
2455.000000	96.004208 
2454.000000	96.001586 
2453.000000	96.000152 
2452.000000	96.000460 
2451.000000	96.001989 
2450.000000	96.003548 
2449.000000	96.004479 
2448.000000	96.005202 
2447.000000	96.006482 
2446.000000	96.008512 
2445.000000	96.010800 
2444.000000	96.012567 
2443.000000	96.013130 
2442.000000	96.012255 
2441.000000	96.010432 
2440.000000	96.008656 
2439.000000	96.007658 
2438.000000	96.007459 
2437.000000	96.007669 
2436.000000	96.007945 
2435.000000	96.008113 
2434.000000	96.008098 
2433.000000	96.007898 
2432.000000	96.007566 
2431.000000	96.007136 
2430.000000	96.006651 
2429.000000	96.006254 
2428.000000	96.006122 
2427.000000	96.006266 
2426.000000	96.006489 
2425.000000	96.006556 
2424.000000	96.006297 
2423.000000	96.005612 
2422.000000	96.004552 
2421.000000	96.003426 
2420.000000	96.002656 
2419.000000	96.002419 
2418.000000	96.002573 
2417.000000	96.002839 
2416.000000	96.002984 
2415.000000	96.002872 
2414.000000	96.002471 
2413.000000	96.001908 
2412.000000	96.001410 
2411.000000	96.001028 
2410.000000	96.000622 
2409.000000	96.000082 
2408.000000	95.999447 
2407.000000	95.998779 
2406.000000	95.998132 
2405.000000	95.997521 
2404.000000	95.996920 
2403.000000	95.996292 
2402.000000	95.995610 
2401.000000	95.994871 
2400.000000	95.994074 
2399.000000	95.993226 
2398.000000	95.992350 
2397.000000	95.991506 
2396.000000	95.990769 
2395.000000	95.990154 
2394.000000	95.989551 
2393.000000	95.988770 
2392.000000	95.987804 
2391.000000	95.986809 
2390.000000	95.985843 
2389.000000	95.984909 
2388.000000	95.984020 
2387.000000	95.983179 
2386.000000	95.982298 
2385.000000	95.981254 
2384.000000	95.980050 
2383.000000	95.978771 
2382.000000	95.977502 
2381.000000	95.976330 
2380.000000	95.975352 
2379.000000	95.974552 
2378.000000	95.973739 
2377.000000	95.972743 
2376.000000	95.971598 
2375.000000	95.970396 
2374.000000	95.969082 
2373.000000	95.967563 
2372.000000	95.965985 
2371.000000	95.964704 
2370.000000	95.963942 
2369.000000	95.963540 
2368.000000	95.963003 
2367.000000	95.961828 
2366.000000	95.959927 
2365.000000	95.957755 
2364.000000	95.955922 
2363.000000	95.954443 
2362.000000	95.952827 
2361.000000	95.950908 
2360.000000	95.948987 
2359.000000	95.947417 
2358.000000	95.946310 
2357.000000	95.945556 
2356.000000	95.945138 
2355.000000	95.944906 
2354.000000	95.945041 
2353.000000	95.945423 
2352.000000	95.945406 
2351.000000	95.944414 
2350.000000	95.942307 
2349.000000	95.939483 
2348.000000	95.936648 
2347.000000	95.934770 
2346.000000	95.934332 
2345.000000	95.934811 
2344.000000	95.935239 
2343.000000	95.935137 
2342.000000	95.934922 
2341.000000	95.934779 
2340.000000	95.934609 
2339.000000	95.934429 
2338.000000	95.934376 
2337.000000	95.934557 
2336.000000	95.934647 
2335.000000	95.934560 
2334.000000	95.934484 
2333.000000	95.934828 
2332.000000	95.935349 
2331.000000	95.935948 
2330.000000	95.936413 
2329.000000	95.936994 
2328.000000	95.937359 
2327.000000	95.937463 
2326.000000	95.937429 
2325.000000	95.937632 
2324.000000	95.938314 
2323.000000	95.939441 
2322.000000	95.940876 
2321.000000	95.942370 
2320.000000	95.943646 
2319.000000	95.944751 
2318.000000	95.945762 
2317.000000	95.946929 
2316.000000	95.948152 
2315.000000	95.949515 
2314.000000	95.950875 
2313.000000	95.952328 
2312.000000	95.953676 
2311.000000	95.955031 
2310.000000	95.956327 
2309.000000	95.957727 
2308.000000	95.959064 
2307.000000	95.960530 
2306.000000	95.962138 
2305.000000	95.964028 
2304.000000	95.965784 
2303.000000	95.967486 
2302.000000	95.969164 
2301.000000	95.971067 
2300.000000	95.972659 
2299.000000	95.974131 
2298.000000	95.975479 
2297.000000	95.976944 
2296.000000	95.977929 
2295.000000	95.978389 
2294.000000	95.978596 
2293.000000	95.979298 
2292.000000	95.980662 
2291.000000	95.982478 
2290.000000	95.984371 
2289.000000	95.986003 
2288.000000	95.987287 
2287.000000	95.988387 
2286.000000	95.989662 
2285.000000	95.990868 
2284.000000	95.991418 
2283.000000	95.990997 
2282.000000	95.990239 
2281.000000	95.990116 
2280.000000	95.991262 
2279.000000	95.993731 
2278.000000	95.997278 
2277.000000	96.001307 
2276.000000	96.004732 
2275.000000	96.006541 
2274.000000	96.006296 
2273.000000	96.004555 
2272.000000	96.002506 
2271.000000	96.001272 
2270.000000	96.001126 
2269.000000	96.001516 
2268.000000	96.001669 
2267.000000	96.001415 
2266.000000	96.001157 
2265.000000	96.001262 
2264.000000	96.001692 
2263.000000	96.002325 
2262.000000	96.003263 
2261.000000	96.004504 
2260.000000	96.005832 
2259.000000	96.006960 
2258.000000	96.007912 
2257.000000	96.008788 
2256.000000	96.009555 
2255.000000	96.010055 
2254.000000	96.010113 
2253.000000	96.009771 
2252.000000	96.009318 
2251.000000	96.009326 
2250.000000	96.010043 
2249.000000	96.011144 
2248.000000	96.012012 
2247.000000	96.012467 
2246.000000	96.012588 
2245.000000	96.012219 
2244.000000	96.011114 
2243.000000	96.009594 
2242.000000	96.008390 
2241.000000	96.007683 
2240.000000	96.006945 
2239.000000	96.005934 
2238.000000	96.005253 
2237.000000	96.005495 
2236.000000	96.006374 
2235.000000	96.007091 
2234.000000	96.007248 
2233.000000	96.006937 
2232.000000	96.006301 
2231.000000	96.005415 
2230.000000	96.004423 
2229.000000	96.003499 
2228.000000	96.002770 
2227.000000	96.002417 
2226.000000	96.002694 
2225.000000	96.003715 
2224.000000	96.005227 
2223.000000	96.006664 
2222.000000	96.007333 
2221.000000	96.006728 
2220.000000	96.004927 
2219.000000	96.002813 
2218.000000	96.001463 
2217.000000	96.001072 
2216.000000	96.000839 
2215.000000	96.000003 
2214.000000	95.998769 
2213.000000	95.997944 
2212.000000	95.998029 
2211.000000	95.998993 
2210.000000	96.000513 
2209.000000	96.002055 
2208.000000	96.003016 
2207.000000	96.003199 
2206.000000	96.003034 
2205.000000	96.003087 
2204.000000	96.003435 
2203.000000	96.003758 
2202.000000	96.003888 
2201.000000	96.003980 
2200.000000	96.004177 
2199.000000	96.004371 
2198.000000	96.004367 
2197.000000	96.004137 
2196.000000	96.003878 
2195.000000	96.003874 
2194.000000	96.004292 
2193.000000	96.005042 
2192.000000	96.005852 
2191.000000	96.006503 
2190.000000	96.006954 
2189.000000	96.007215 
2188.000000	96.007245 
2187.000000	96.007057 
2186.000000	96.006836 
2185.000000	96.006827 
2184.000000	96.007149 
2183.000000	96.007779 
2182.000000	96.008595 
2181.000000	96.009344 
2180.000000	96.009711 
2179.000000	96.009550 
2178.000000	96.009067 
2177.000000	96.008628 
2176.000000	96.008436 
2175.000000	96.008562 
2174.000000	96.009063 
2173.000000	96.009901 
2172.000000	96.010822 
2171.000000	96.011503 
2170.000000	96.011832 
2169.000000	96.011870 
2168.000000	96.011612 
2167.000000	96.011002 
2166.000000	96.010260 
2165.000000	96.009922 
2164.000000	96.010377 
2163.000000	96.011520 
2162.000000	96.012901 
2161.000000	96.014100 
2160.000000	96.014929 
2159.000000	96.015435 
2158.000000	96.015820 
2157.000000	96.016199 
2156.000000	96.016392 
2155.000000	96.016125 
2154.000000	96.015456 
2153.000000	96.014776 
2152.000000	96.014324 
2151.000000	96.013921 
2150.000000	96.013271 
2149.000000	96.012369 
2148.000000	96.011517 
2147.000000	96.011086 
2146.000000	96.011330 
2145.000000	96.012245 
2144.000000	96.013534 
2143.000000	96.014923 
2142.000000	96.016453 
2141.000000	96.018052 
2140.000000	96.018927 
2139.000000	96.018125 
2138.000000	96.015961 
2137.000000	96.014336 
2136.000000	96.014858 
2135.000000	96.017097 
2134.000000	96.019202 
2133.000000	96.020037 
2132.000000	96.019898 
2131.000000	96.019320 
2130.000000	96.018182 
2129.000000	96.016269 
2128.000000	96.013921 
2127.000000	96.011773 
2126.000000	96.010297 
2125.000000	96.009793 
2124.000000	96.010323 
2123.000000	96.011409 
2122.000000	96.012278 
2121.000000	96.012685 
2120.000000	96.013043 
2119.000000	96.013562 
2118.000000	96.013795 
2117.000000	96.013298 
2116.000000	96.012199 
2115.000000	96.010749 
2114.000000	96.008810 
2113.000000	96.006234 
2112.000000	96.003368 
2111.000000	96.000779 
2110.000000	95.998827 
2109.000000	95.997858 
2108.000000	95.998303 
2107.000000	96.000126 
2106.000000	96.002531 
2105.000000	96.004793 
2104.000000	96.007028 
2103.000000	96.009539 
2102.000000	96.011828 
2101.000000	96.012955 
2100.000000	96.012671 
2099.000000	96.011563 
2098.000000	96.010277 
2097.000000	96.009201 
2096.000000	96.008782 
2095.000000	96.009334 
2094.000000	96.010411 
2093.000000	96.011001 
2092.000000	96.010551 
2091.000000	96.009416 
2090.000000	96.008384 
2089.000000	96.008267 
2088.000000	96.009761 
2087.000000	96.012875 
2086.000000	96.016237 
2085.000000	96.017811 
2084.000000	96.016739 
2083.000000	96.013958 
2082.000000	96.011112 
2081.000000	96.009124 
2080.000000	96.008105 
2079.000000	96.007859 
2078.000000	96.007813 
2077.000000	96.007055 
2076.000000	96.005160 
2075.000000	96.002747 
2074.000000	96.000791 
2073.000000	95.999659 
2072.000000	95.999241 
2071.000000	95.999611 
2070.000000	96.000875 
2069.000000	96.002611 
2068.000000	96.004116 
2067.000000	96.005116 
2066.000000	96.005764 
2065.000000	96.006074 
2064.000000	96.005844 
2063.000000	96.005147 
2062.000000	96.004456 
2061.000000	96.004185 
2060.000000	96.004326 
2059.000000	96.004566 
2058.000000	96.004556 
2057.000000	96.004030 
2056.000000	96.002937 
2055.000000	96.001575 
2054.000000	96.000424 
2053.000000	95.999757 
2052.000000	95.999494 
2051.000000	95.999436 
2050.000000	95.999475 
2049.000000	95.999578 
2048.000000	95.999672 
2047.000000	95.999640 
2046.000000	95.999374 
2045.000000	95.998917 
2044.000000	95.998574 
2043.000000	95.998703 
2042.000000	95.999231 
2041.000000	95.999493 
2040.000000	95.998873 
2039.000000	95.997523 
2038.000000	95.996302 
2037.000000	95.995835 
2036.000000	95.995777 
2035.000000	95.995177 
2034.000000	95.993521 
2033.000000	95.991291 
2032.000000	95.989579 
2031.000000	95.989155 
2030.000000	95.990001 
2029.000000	95.991488 
2028.000000	95.992959 
2027.000000	95.994163 
2026.000000	95.994977 
2025.000000	95.995035 
2024.000000	95.994056 
2023.000000	95.992496 
2022.000000	95.991376 
2021.000000	95.991170 
2020.000000	95.991295 
2019.000000	95.990989 
2018.000000	95.990303 
2017.000000	95.989779 
2016.000000	95.989456 
2015.000000	95.988843 
2014.000000	95.987710 
2013.000000	95.986210 
2012.000000	95.984351 
2011.000000	95.982027 
2010.000000	95.979699 
2009.000000	95.978327 
2008.000000	95.978256 
2007.000000	95.978687 
2006.000000	95.978695 
2005.000000	95.978426 
2004.000000	95.978740 
2003.000000	95.979827 
2002.000000	95.980666 
2001.000000	95.979941 
2000.000000	95.977390 
1999.000000	95.974136 
1998.000000	95.971723 
1997.000000	95.970867 
1996.000000	95.971310 
1995.000000	95.972718 
1994.000000	95.975159 
1993.000000	95.978426 
1992.000000	95.981412 
1991.000000	95.983003 
1990.000000	95.983475 
1989.000000	95.983999 
1988.000000	95.984787 
1987.000000	95.984617 
1986.000000	95.982506 
1985.000000	95.979237 
1984.000000	95.976701 
1983.000000	95.975877 
1982.000000	95.976027 
1981.000000	95.975829 
1980.000000	95.975030 
1979.000000	95.974697 
1978.000000	95.975971 
1977.000000	95.978826 
1976.000000	95.982138 
1975.000000	95.984800 
1974.000000	95.986642 
1973.000000	95.988198 
1972.000000	95.989871 
1971.000000	95.991646 
1970.000000	95.993516 
1969.000000	95.995628 
1968.000000	95.997658 
1967.000000	95.998459 
1966.000000	95.997059 
1965.000000	95.993946 
1964.000000	95.990798 
1963.000000	95.988876 
1962.000000	95.988185 
1961.000000	95.988145 
1960.000000	95.988564 
1959.000000	95.989740 
1958.000000	95.991897 
1957.000000	95.994883 
1956.000000	95.998191 
1955.000000	96.000964 
1954.000000	96.002241 
1953.000000	96.001652 
1952.000000	95.999737 
1951.000000	95.997474 
1950.000000	95.995552 
1949.000000	95.994256 
1948.000000	95.993789 
1947.000000	95.994263 
1946.000000	95.995421 
1945.000000	95.996770 
1944.000000	95.998035 
1943.000000	95.999190 
1942.000000	95.999973 
1941.000000	95.999951 
1940.000000	95.999179 
1939.000000	95.998192 
1938.000000	95.997376 
1937.000000	95.996687 
1936.000000	95.995932 
1935.000000	95.995119 
1934.000000	95.994349 
1933.000000	95.993580 
1932.000000	95.992730 
1931.000000	95.991970 
1930.000000	95.991643 
1929.000000	95.991808 
1928.000000	95.992123 
1927.000000	95.992288 
1926.000000	95.992492 
1925.000000	95.992976 
1924.000000	95.993365 
1923.000000	95.992811 
1922.000000	95.991035 
1921.000000	95.988804 
1920.000000	95.987017 
1919.000000	95.985859 
1918.000000	95.985195 
1917.000000	95.985114 
1916.000000	95.985803 
1915.000000	95.987012 
1914.000000	95.988015 
1913.000000	95.988303 
1912.000000	95.988058 
1911.000000	95.987787 
1910.000000	95.987709 
1909.000000	95.987622 
1908.000000	95.987189 
1907.000000	95.986015 
1906.000000	95.983643 
1905.000000	95.979791 
1904.000000	95.974965 
1903.000000	95.970688 
1902.000000	95.968671 
1901.000000	95.969482 
1900.000000	95.971955 
1899.000000	95.973997 
1898.000000	95.974356 
1897.000000	95.973404 
1896.000000	95.972267 
1895.000000	95.971255 
1894.000000	95.969493 
1893.000000	95.966133 
1892.000000	95.961517 
1891.000000	95.957091 
1890.000000	95.954303 
1889.000000	95.953397 
1888.000000	95.953483 
1887.000000	95.953808 
1886.000000	95.954181 
1885.000000	95.954500 
1884.000000	95.954547 
1883.000000	95.954356 
1882.000000	95.954432 
1881.000000	95.955165 
1880.000000	95.956129 
1879.000000	95.956165 
1878.000000	95.954330 
1877.000000	95.950827 
1876.000000	95.947031 
1875.000000	95.944509 
1874.000000	95.944031 
1873.000000	95.945364 
1872.000000	95.947779 
1871.000000	95.950668 
1870.000000	95.953759 
1869.000000	95.956734 
1868.000000	95.958840 
1867.000000	95.959659 
1866.000000	95.959440 
1865.000000	95.958236 
1864.000000	95.956107 
1863.000000	95.954053 
1862.000000	95.953684 
1861.000000	95.955721 
1860.000000	95.959211 
1859.000000	95.962437 
1858.000000	95.964543 
1857.000000	95.965918 
1856.000000	95.967309 
1855.000000	95.969175 
1854.000000	95.971751 
1853.000000	95.975059 
1852.000000	95.978675 
1851.000000	95.981456 
1850.000000	95.982187 
1849.000000	95.980841 
1848.000000	95.979044 
1847.000000	95.978627 
1846.000000	95.979724 
1845.000000	95.980920 
1844.000000	95.981030 
1843.000000	95.980307 
1842.000000	95.979706 
1841.000000	95.979581 
1840.000000	95.980119 
1839.000000	95.982012 
1838.000000	95.985461 
1837.000000	95.989049 
1836.000000	95.991140 
1835.000000	95.992021 
1834.000000	95.993209 
1833.000000	95.995056 
1832.000000	95.996545 
1831.000000	95.997154 
1830.000000	95.997538 
1829.000000	95.997928 
1828.000000	95.997920 
1827.000000	95.997903 
1826.000000	95.999149 
1825.000000	96.002271 
1824.000000	96.005615 
1823.000000	96.006884 
1822.000000	96.005758 
1821.000000	96.003630 
1820.000000	96.001905 
1819.000000	96.000851 
1818.000000	96.000101 
1817.000000	95.999477 
1816.000000	95.998962 
1815.000000	95.998418 
1814.000000	95.997817 
1813.000000	95.997543 
1812.000000	95.998046 
1811.000000	95.999338 
1810.000000	96.000992 
1809.000000	96.002489 
1808.000000	96.003326 
1807.000000	96.003358 
1806.000000	96.003185 
1805.000000	96.003561 
1804.000000	96.004409 
1803.000000	96.004981 
1802.000000	96.004931 
1801.000000	96.004858 
1800.000000	96.005419 
1799.000000	96.006502 
1798.000000	96.007603 
1797.000000	96.008488 
1796.000000	96.009219 
1795.000000	96.009917 
1794.000000	96.010648 
1793.000000	96.011466 
1792.000000	96.012305 
1791.000000	96.013010 
1790.000000	96.013632 
1789.000000	96.014242 
1788.000000	96.014740 
1787.000000	96.015109 
1786.000000	96.015550 
1785.000000	96.016252 
1784.000000	96.017164 
1783.000000	96.018077 
1782.000000	96.018849 
1781.000000	96.019500 
1780.000000	96.020105 
1779.000000	96.020713 
1778.000000	96.021338 
1777.000000	96.021960 
1776.000000	96.022564 
1775.000000	96.023166 
1774.000000	96.023834 
1773.000000	96.024652 
1772.000000	96.025518 
1771.000000	96.026102 
1770.000000	96.026292 
1769.000000	96.026395 
1768.000000	96.026850 
1767.000000	96.027835 
1766.000000	96.029115 
1765.000000	96.030365 
1764.000000	96.031442 
1763.000000	96.032311 
1762.000000	96.032891 
1761.000000	96.033168 
1760.000000	96.033490 
1759.000000	96.034286 
1758.000000	96.035370 
1757.000000	96.035890 
1756.000000	96.035254 
1755.000000	96.034007 
1754.000000	96.033309 
1753.000000	96.033645 
1752.000000	96.034540 
1751.000000	96.035016 
1750.000000	96.034479 
1749.000000	96.033293 
1748.000000	96.032322 
1747.000000	96.031982 
1746.000000	96.032032 
1745.000000	96.032129 
1744.000000	96.032141 
1743.000000	96.031980 
1742.000000	96.031388 
1741.000000	96.030130 
1740.000000	96.028209 
1739.000000	96.025941 
1738.000000	96.023978 
1737.000000	96.023112 
1736.000000	96.023428 
1735.000000	96.024079 
1734.000000	96.023625 
1733.000000	96.020815 
1732.000000	96.017247 
1731.000000	96.015490 
1730.000000	96.015571 
1729.000000	96.015345 
1728.000000	96.013017 
1727.000000	96.008891 
1726.000000	96.004460 
1725.000000	96.000822 
1724.000000	95.997983 
1723.000000	95.995379 
1722.000000	95.992788 
1721.000000	95.990488 
1720.000000	95.988577 
1719.000000	95.986484 
1718.000000	95.983378 
1717.000000	95.978989 
1716.000000	95.974203 
1715.000000	95.970140 
1714.000000	95.967015 
1713.000000	95.964114 
1712.000000	95.960509 
1711.000000	95.955870 
1710.000000	95.950677 
1709.000000	95.945849 
1708.000000	95.942028 
1707.000000	95.939116 
1706.000000	95.936506 
1705.000000	95.933522 
1704.000000	95.930012 
1703.000000	95.926226 
1702.000000	95.922113 
1701.000000	95.917802 
1700.000000	95.913980 
1699.000000	95.910438 
1698.000000	95.906820 
1697.000000	95.903112 
1696.000000	95.899103 
1695.000000	95.894716 
1694.000000	95.890337 
1693.000000	95.886312 
1692.000000	95.882502 
1691.000000	95.878648 
1690.000000	95.874690 
1689.000000	95.870782 
1688.000000	95.867020 
1687.000000	95.863234 
1686.000000	95.859114 
1685.000000	95.854786 
1684.000000	95.850944 
1683.000000	95.847316 
1682.000000	95.843352 
1681.000000	95.839243 
1680.000000	95.835303 
1679.000000	95.831889 
1678.000000	95.828872 
1677.000000	95.825386 
1676.000000	95.820641 
1675.000000	95.815456 
1674.000000	95.811416 
1673.000000	95.808935 
1672.000000	95.807319 
1671.000000	95.805915 
1670.000000	95.804893 
1669.000000	95.803876 
1668.000000	95.801531 
1667.000000	95.797437 
1666.000000	95.791853 
1665.000000	95.785235 
1664.000000	95.778599 
1663.000000	95.773443 
1662.000000	95.769802 
1661.000000	95.766366 
1660.000000	95.762830 
1659.000000	95.759861 
1658.000000	95.758043 
1657.000000	95.757248 
1656.000000	95.756133 
1655.000000	95.751596 
1654.000000	95.744864 
1653.000000	95.743100 
1652.000000	95.743266 
1651.000000	95.741359 
1650.000000	95.738734 
1649.000000	95.736241 
1648.000000	95.734779 
1647.000000	95.733052 
1646.000000	95.728177 
1645.000000	95.721591 
1644.000000	95.718205 
1643.000000	95.719068 
1642.000000	95.721215 
1641.000000	95.720899 
1640.000000	95.717150 
1639.000000	95.712519 
1638.000000	95.709947 
1637.000000	95.710565 
1636.000000	95.714619 
1635.000000	95.719865 
1634.000000	95.723965 
1633.000000	95.726686 
1632.000000	95.727572 
1631.000000	95.727042 
1630.000000	95.727168 
1629.000000	95.729578 
1628.000000	95.733006 
1627.000000	95.734898 
1626.000000	95.735137 
1625.000000	95.735680 
1624.000000	95.737822 
1623.000000	95.740878 
1622.000000	95.743044 
1621.000000	95.744091 
1620.000000	95.745112 
1619.000000	95.746695 
1618.000000	95.749665 
1617.000000	95.755874 
1616.000000	95.764518 
1615.000000	95.772026 
1614.000000	95.776978 
1613.000000	95.779666 
1612.000000	95.780716 
1611.000000	95.781537 
1610.000000	95.783835 
1609.000000	95.787875 
1608.000000	95.792231 
1607.000000	95.795734 
1606.000000	95.798600 
1605.000000	95.801816 
1604.000000	95.805873 
1603.000000	95.810131 
1602.000000	95.813427 
1601.000000	95.815431 
1600.000000	95.817175 
1599.000000	95.820094 
1598.000000	95.824733 
1597.000000	95.830525 
1596.000000	95.836327 
1595.000000	95.841006 
1594.000000	95.844012 
1593.000000	95.845701 
1592.000000	95.847139 
1591.000000	95.849328 
1590.000000	95.852418 
1589.000000	95.855806 
1588.000000	95.858891 
1587.000000	95.861533 
1586.000000	95.863854 
1585.000000	95.865981 
1584.000000	95.868173 
1583.000000	95.870740 
1582.000000	95.873716 
1581.000000	95.876810 
1580.000000	95.879797 
1579.000000	95.882659 
1578.000000	95.885291 
1577.000000	95.887443 
1576.000000	95.889154 
1575.000000	95.890949 
1574.000000	95.893204 
1573.000000	95.895694 
1572.000000	95.897940 
1571.000000	95.899812 
1570.000000	95.901814 
1569.000000	95.904238 
1568.000000	95.906704 
1567.000000	95.908923 
1566.000000	95.910918 
1565.000000	95.912877 
1564.000000	95.915114 
1563.000000	95.917850 
1562.000000	95.920874 
1561.000000	95.923344 
1560.000000	95.924862 
1559.000000	95.927058 
1558.000000	95.929341 
1557.000000	95.930507 
1556.000000	95.931116 
1555.000000	95.931381 
1554.000000	95.931820 
1553.000000	95.932937 
1552.000000	95.934791 
1551.000000	95.936997 
1550.000000	95.939075 
1549.000000	95.940823 
1548.000000	95.942433 
1547.000000	95.944131 
1546.000000	95.945917 
1545.000000	95.947705 
1544.000000	95.949381 
1543.000000	95.950839 
1542.000000	95.952080 
1541.000000	95.953279 
1540.000000	95.954612 
1539.000000	95.955980 
1538.000000	95.957386 
1537.000000	95.958859 
1536.000000	95.960342 
1535.000000	95.961827 
1534.000000	95.963363 
1533.000000	95.964953 
1532.000000	95.966526 
1531.000000	95.968075 
1530.000000	95.969624 
1529.000000	95.971174 
1528.000000	95.972705 
1527.000000	95.974191 
1526.000000	95.975635 
1525.000000	95.977062 
1524.000000	95.978499 
1523.000000	95.979958 
1522.000000	95.981447 
1521.000000	95.982960 
1520.000000	95.984482 
1519.000000	95.986029 
1518.000000	95.987625 
1517.000000	95.989253 
1516.000000	95.990872 
1515.000000	95.992472 
1514.000000	95.994070 
1513.000000	95.995689 
1512.000000	95.997345 
1511.000000	95.999030 
1510.000000	96.000701 
1509.000000	96.002289 
1508.000000	96.003721 
1507.000000	96.004976 
1506.000000	96.006134 
1505.000000	96.007466 
1504.000000	96.009107 
1503.000000	96.010920 
1502.000000	96.012668 
1501.000000	96.014153 
1500.000000	96.015338 
1499.000000	96.016465 
1498.000000	96.017829 
1497.000000	96.019458 
1496.000000	96.021052 
1495.000000	96.022334 
1494.000000	96.023339 
1493.000000	96.024184 
1492.000000	96.024891 
1491.000000	96.025627 
1490.000000	96.026724 
1489.000000	96.028138 
1488.000000	96.029449 
1487.000000	96.030428 
1486.000000	96.031273 
1485.000000	96.032211 
1484.000000	96.033211 
1483.000000	96.034161 
1482.000000	96.035071 
1481.000000	96.035809 
1480.000000	96.035842 
1479.000000	96.034607 
1478.000000	96.032162 
1477.000000	96.029569 
1476.000000	96.028301 
1475.000000	96.028934 
1474.000000	96.030766 
1473.000000	96.032270 
1472.000000	96.032175 
1471.000000	96.030735 
1470.000000	96.029164 
1469.000000	96.027765 
1468.000000	96.025869 
1467.000000	96.023082 
1466.000000	96.020214 
1465.000000	96.018921 
1464.000000	96.019517 
1463.000000	96.020390 
1462.000000	96.020183 
1461.000000	96.018811 
1460.000000	96.016962 
1459.000000	96.015333 
1458.000000	96.014248 
1457.000000	96.012524 
1456.000000	96.008202 
1455.000000	96.002739 
1454.000000	95.998939 
1453.000000	95.997856 
1452.000000	95.998728 
1451.000000	95.999444 
1450.000000	95.998474 
1449.000000	95.996140 
1448.000000	95.993895 
1447.000000	95.992528 
1446.000000	95.991420 
1445.000000	95.989771 
1444.000000	95.986939 
1443.000000	95.982673 
1442.000000	95.977526 
1441.000000	95.972320 
1440.000000	95.967535 
1439.000000	95.963444 
1438.000000	95.960976 
1437.000000	95.961995 
1436.000000	95.965645 
1435.000000	95.968080 
1434.000000	95.968541 
1433.000000	95.968328 
1432.000000	95.966677 
1431.000000	95.961455 
1430.000000	95.952446 
1429.000000	95.942847 
1428.000000	95.936665 
1427.000000	95.935386 
1426.000000	95.937651 
1425.000000	95.941195 
1424.000000	95.943909 
1423.000000	95.944626 
1422.000000	95.944150 
1421.000000	95.944780 
1420.000000	95.949597 
1419.000000	95.960043 
1418.000000	95.971340 
1417.000000	95.979133 
1416.000000	95.984402 
1415.000000	95.988504 
1414.000000	95.991993 
1413.000000	95.995389 
1412.000000	95.998380 
1411.000000	95.999910 
1410.000000	96.000439 
1409.000000	96.002791 
1408.000000	96.008833 
1407.000000	96.016747 
1406.000000	96.023158 
1405.000000	96.027288 
1404.000000	96.031174 
1403.000000	96.035986 
1402.000000	96.040424 
1401.000000	96.042852 
1400.000000	96.042963 
1399.000000	96.041850 
1398.000000	96.041767 
1397.000000	96.045559 
1396.000000	96.054103 
1395.000000	96.063377 
1394.000000	96.066804 
1393.000000	96.062930 
1392.000000	96.056883 
1391.000000	96.053893 
1390.000000	96.054730 
1389.000000	96.057092 
1388.000000	96.058995 
1387.000000	96.060428 
1386.000000	96.062066 
1385.000000	96.063678 
1384.000000	96.064382 
1383.000000	96.063827 
1382.000000	96.062762 
1381.000000	96.062293 
1380.000000	96.062816 
1379.000000	96.064015 
1378.000000	96.065598 
1377.000000	96.067456 
1376.000000	96.069195 
1375.000000	96.070008 
1374.000000	96.069293 
1373.000000	96.067441 
1372.000000	96.065607 
1371.000000	96.064694 
1370.000000	96.065091 
1369.000000	96.066751 
1368.000000	96.068806 
1367.000000	96.069760 
1366.000000	96.068766 
1365.000000	96.066481 
1364.000000	96.064571 
1363.000000	96.064196 
1362.000000	96.065090 
1361.000000	96.066334 
1360.000000	96.067356 
1359.000000	96.067787 
1358.000000	96.067244 
1357.000000	96.065766 
1356.000000	96.064132 
1355.000000	96.063275 
1354.000000	96.063356 
1353.000000	96.063698 
1352.000000	96.063622 
1351.000000	96.063067 
1350.000000	96.062421 
1349.000000	96.061984 
1348.000000	96.061854 
1347.000000	96.062043 
1346.000000	96.062527 
1345.000000	96.063245 
1344.000000	96.064149 
1343.000000	96.065235 
1342.000000	96.066439 
1341.000000	96.067418 
1340.000000	96.067613 
1339.000000	96.066702 
1338.000000	96.065077 
1337.000000	96.063751 
1336.000000	96.063503 
1335.000000	96.064328 
1334.000000	96.065558 
1333.000000	96.066574 
1332.000000	96.067349 
1331.000000	96.068163 
1330.000000	96.068898 
1329.000000	96.068844 
1328.000000	96.067417 
1327.000000	96.064953 
1326.000000	96.062654 
1325.000000	96.061626 
1324.000000	96.062231 
1323.000000	96.064073 
1322.000000	96.066217 
1321.000000	96.067628 
1320.000000	96.067804 
1319.000000	96.067196 
1318.000000	96.066745 
1317.000000	96.066883 
1316.000000	96.067164 
1315.000000	96.066867 
1314.000000	96.065703 
1313.000000	96.063962 
1312.000000	96.062281 
1311.000000	96.061377 
1310.000000	96.061648 
1309.000000	96.062715 
1308.000000	96.063486 
1307.000000	96.063101 
1306.000000	96.062053 
1305.000000	96.061975 
1304.000000	96.064044 
1303.000000	96.067506 
1302.000000	96.070076 
1301.000000	96.070154 
1300.000000	96.068534 
1299.000000	96.067659 
1298.000000	96.069040 
1297.000000	96.071487 
1296.000000	96.072030 
1295.000000	96.068680 
1294.000000	96.062457 
1293.000000	96.056911 
1292.000000	96.055080 
1291.000000	96.056552 
1290.000000	96.057809 
1289.000000	96.055830 
1288.000000	96.050967 
1287.000000	96.045726 
1286.000000	96.041311 
1285.000000	96.036814 
1284.000000	96.031794 
1283.000000	96.027617 
1282.000000	96.025275 
1281.000000	96.023500 
1280.000000	96.020963 
1279.000000	96.019703 
1278.000000	96.023713 
1277.000000	96.033435 
1276.000000	96.043505 
1275.000000	96.047623 
1274.000000	96.044894 
1273.000000	96.039607 
1272.000000	96.035179 
1271.000000	96.030727 
1270.000000	96.024841 
1269.000000	96.020578 
1268.000000	96.023771 
1267.000000	96.036363 
1266.000000	96.053572 
1265.000000	96.068584 
1264.000000	96.078194 
1263.000000	96.082561 
1262.000000	96.081912 
1261.000000	96.076494 
1260.000000	96.068962 
1259.000000	96.063695 
1258.000000	96.062665 
1257.000000	96.063912 
1256.000000	96.064830 
1255.000000	96.064911 
1254.000000	96.064215 
1253.000000	96.061138 
1252.000000	96.054051 
1251.000000	96.044669 
1250.000000	96.037355 
1249.000000	96.033996 
1248.000000	96.030955 
1247.000000	96.022972 
1246.000000	96.010211 
1245.000000	95.999771 
1244.000000	95.998156 
1243.000000	96.002443 
1242.000000	96.001764 
1241.000000	95.989261 
1240.000000	95.970307 
1239.000000	95.956315 
1238.000000	95.951458 
1237.000000	95.949174 
1236.000000	95.942067 
1235.000000	95.930933 
1234.000000	95.921599 
1233.000000	95.915397 
1232.000000	95.906562 
1231.000000	95.889264 
1230.000000	95.864797 
1229.000000	95.840668 
1228.000000	95.823098 
1227.000000	95.811039 
1226.000000	95.797782 
1225.000000	95.777563 
1224.000000	95.749007 
1223.000000	95.712449 
1222.000000	95.667463 
1221.000000	95.615717 
1220.000000	95.563575 
1219.000000	95.516890 
1218.000000	95.473242 
1217.000000	95.424342 
1216.000000	95.367210 
1215.000000	95.308356 
1214.000000	95.254888 
1213.000000	95.205492 
1212.000000	95.153483 
1211.000000	95.095515 
1210.000000	95.033903 
1209.000000	94.972433 
1208.000000	94.912779 
1207.000000	94.853662 
1206.000000	94.792051 
1205.000000	94.727314 
1204.000000	94.664691 
1203.000000	94.610817 
1202.000000	94.564259 
1201.000000	94.515034 
1200.000000	94.456519 
1199.000000	94.393636 
1198.000000	94.335533 
1197.000000	94.283921 
1196.000000	94.233286 
1195.000000	94.179534 
1194.000000	94.123248 
1193.000000	94.066044 
1192.000000	94.008871 
1191.000000	93.953955 
1190.000000	93.904219 
1189.000000	93.859612 
1188.000000	93.816261 
1187.000000	93.769934 
1186.000000	93.719296 
1185.000000	93.666055 
1184.000000	93.612935 
1183.000000	93.560872 
1182.000000	93.507266 
1181.000000	93.447943 
1180.000000	93.381866 
1179.000000	93.312804 
1178.000000	93.245255 
1177.000000	93.179620 
1176.000000	93.112212 
1175.000000	93.038932 
1174.000000	92.958612 
1173.000000	92.874108 
1172.000000	92.790305 
1171.000000	92.709532 
1170.000000	92.629036 
1169.000000	92.544908 
1168.000000	92.457987 
1167.000000	92.373751 
1166.000000	92.298328 
1165.000000	92.238875 
1164.000000	92.206011 
1163.000000	92.208587 
1162.000000	92.243758 
1161.000000	92.296324 
1160.000000	92.349053 
1159.000000	92.389933 
1158.000000	92.410573 
1157.000000	92.405051 
1156.000000	92.373143 
1155.000000	92.320656 
1154.000000	92.254862 
1153.000000	92.182268 
1152.000000	92.109775 
1151.000000	92.041707 
1150.000000	91.974761 
1149.000000	91.902505 
1148.000000	91.826279 
1147.000000	91.754719 
1146.000000	91.690564 
1145.000000	91.625714 
1144.000000	91.552652 
1143.000000	91.472985 
1142.000000	91.390708 
1141.000000	91.304684 
1140.000000	91.213524 
1139.000000	91.121624 
1138.000000	91.034167 
1137.000000	90.950783 
1136.000000	90.869034 
1135.000000	90.789069 
1134.000000	90.710176 
1133.000000	90.628104 
1132.000000	90.540812 
1131.000000	90.452004 
1130.000000	90.364491 
1129.000000	90.275237 
1128.000000	90.181558 
1127.000000	90.086563 
1126.000000	89.993363 
1125.000000	89.899144 
1124.000000	89.800265 
1123.000000	89.698422 
1122.000000	89.597141 
1121.000000	89.497603 
1120.000000	89.402696 
1119.000000	89.318694 
1118.000000	89.246675 
1117.000000	89.177484 
1116.000000	89.101059 
1115.000000	89.016644 
1114.000000	88.929013 
1113.000000	88.839974 
1112.000000	88.749484 
1111.000000	88.660607 
1110.000000	88.577516 
1109.000000	88.501422 
1108.000000	88.431496 
1107.000000	88.365148 
1106.000000	88.295546 
1105.000000	88.216071 
1104.000000	88.130504 
1103.000000	88.051164 
1102.000000	87.983124 
1101.000000	87.917938 
1100.000000	87.846887 
1099.000000	87.770724 
1098.000000	87.692041 
1097.000000	87.607726 
1096.000000	87.517653 
1095.000000	87.432989 
1094.000000	87.366329 
1093.000000	87.317700 
1092.000000	87.276770 
1091.000000	87.234425 
1090.000000	87.187257 
1089.000000	87.136035 
1088.000000	87.085256 
1087.000000	87.040068 
1086.000000	86.999770 
1085.000000	86.958966 
1084.000000	86.917312 
1083.000000	86.881119 
1082.000000	86.852421 
1081.000000	86.824448 
1080.000000	86.791915 
1079.000000	86.757687 
1078.000000	86.724762 
1077.000000	86.689675 
1076.000000	86.648962 
1075.000000	86.603897 
1074.000000	86.552604 
1073.000000	86.485256 
1072.000000	86.394965 
1071.000000	86.288305 
1070.000000	86.178255 
1069.000000	86.069186 
1068.000000	85.953372 
1067.000000	85.819401 
1066.000000	85.661021 
1065.000000	85.481739 
1064.000000	85.293903 
1063.000000	85.110614 
1062.000000	84.937551 
1061.000000	84.775637 
1060.000000	84.628250 
1059.000000	84.497085 
1058.000000	84.372555 
1057.000000	84.239684 
1056.000000	84.094770 
1055.000000	83.946513 
1054.000000	83.800807 
1053.000000	83.656001 
1052.000000	83.513837 
1051.000000	83.380274 
1050.000000	83.251113 
1049.000000	83.111625 
1048.000000	82.955405 
1047.000000	82.789676 
1046.000000	82.619811 
1045.000000	82.444022 
1044.000000	82.265546 
1043.000000	82.094167 
1042.000000	81.931103 
1041.000000	81.766080 
1040.000000	81.594217 
1039.000000	81.423273 
1038.000000	81.260602 
1037.000000	81.106748 
1036.000000	80.965284 
1035.000000	80.843241 
1034.000000	80.736762 
1033.000000	80.632146 
1032.000000	80.527719 
1031.000000	80.439527 
1030.000000	80.378167 
1029.000000	80.334332 
1028.000000	80.294422 
1027.000000	80.257133 
1026.000000	80.226499 
1025.000000	80.200771 
1024.000000	80.176730 
1023.000000	80.155251 
1022.000000	80.135941 
1021.000000	80.114784 
1020.000000	80.091591 
1019.000000	80.071577 
1018.000000	80.057107 
1017.000000	80.046097 
1016.000000	80.037871 
1015.000000	80.029782 
1014.000000	80.010191 
1013.000000	79.969469 
1012.000000	79.917851 
1011.000000	79.877058 
1010.000000	79.853640 
1009.000000	79.836297 
1008.000000	79.819787 
1007.000000	79.812507 
1006.000000	79.816838 
1005.000000	79.821437 
1004.000000	79.820704 
1003.000000	79.825605 
1002.000000	79.846679 
1001.000000	79.879884 
1000.000000	79.916358 
999.000000	 79.953606 
998.000000	 79.990819 
997.000000	 80.025461 
996.000000	 80.060886 
995.000000	 80.106331 
994.000000	 80.164101 
993.000000	 80.226882 
992.000000	 80.290688 
991.000000	 80.359051 
990.000000	 80.432134 
989.000000	 80.504917 
988.000000	 80.579159 
987.000000	 80.663279 
986.000000	 80.756726 
985.000000	 80.849129 
984.000000	 80.940061 
983.000000	 81.045161 
982.000000	 81.175663 
981.000000	 81.324717 
980.000000	 81.481171 
979.000000	 81.645458 
978.000000	 81.823922 
977.000000	 82.016956 
976.000000	 82.220011 
975.000000	 82.428720 
974.000000	 82.637875 
973.000000	 82.843174 
972.000000	 83.048906 
971.000000	 83.266720 
970.000000	 83.501829 
969.000000	 83.745524 
968.000000	 83.983998 
967.000000	 84.209159 
966.000000	 84.419832 
965.000000	 84.619327 
964.000000	 84.814428 
963.000000	 85.011387 
962.000000	 85.210428 
961.000000	 85.407479 
960.000000	 85.600774 
959.000000	 85.791390 
958.000000	 85.979172 
957.000000	 86.163414 
956.000000	 86.344952 
955.000000	 86.520929 
954.000000	 86.680326 
953.000000	 86.812997 
952.000000	 86.921881 
951.000000	 87.019146 
950.000000	 87.111842 
949.000000	 87.199162 
948.000000	 87.282291 
947.000000	 87.367063 
946.000000	 87.455964 
945.000000	 87.545339 
944.000000	 87.630711 
943.000000	 87.707793 
942.000000	 87.770238 
941.000000	 87.816197 
940.000000	 87.856706 
939.000000	 87.907075 
938.000000	 87.968241 
937.000000	 88.026619 
936.000000	 88.074361 
935.000000	 88.119301 
934.000000	 88.171428 
933.000000	 88.229179 
932.000000	 88.284672 
931.000000	 88.335205 
930.000000	 88.384419 
929.000000	 88.437277 
928.000000	 88.497426 
927.000000	 88.564776 
926.000000	 88.633108 
925.000000	 88.694151 
924.000000	 88.744758 
923.000000	 88.786126 
922.000000	 88.818270 
921.000000	 88.842727 
920.000000	 88.869047 
919.000000	 88.908272 
918.000000	 88.958278 
917.000000	 89.004840 
916.000000	 89.040303 
915.000000	 89.073046 
914.000000	 89.116220 
913.000000	 89.176344 
912.000000	 89.255574 
911.000000	 89.354696 
910.000000	 89.468767 
909.000000	 89.588868 
908.000000	 89.714364 
907.000000	 89.855540 
906.000000	 90.017912 
905.000000	 90.190781 
904.000000	 90.358134 
903.000000	 90.516087 
902.000000	 90.672557 
901.000000	 90.833010 
900.000000	 90.993832 
899.000000	 91.149541 
898.000000	 91.301178 
897.000000	 91.455145 
896.000000	 91.615524 
895.000000	 91.778980 
894.000000	 91.936929 
893.000000	 92.081649 
892.000000	 92.209714 
891.000000	 92.321380 
890.000000	 92.420006 
889.000000	 92.512019 
888.000000	 92.603245 
887.000000	 92.693350 
886.000000	 92.777649 
885.000000	 92.857199 
884.000000	 92.943262 
883.000000	 93.047265 
882.000000	 93.168096 
881.000000	 93.292438 
880.000000	 93.404968 
879.000000	 93.496078 
878.000000	 93.566675 
877.000000	 93.632629 
876.000000	 93.718708 
875.000000	 93.837105 
874.000000	 93.972352 
873.000000	 94.096310 
872.000000	 94.197720 
871.000000	 94.288559 
870.000000	 94.382731 
869.000000	 94.479276 
868.000000	 94.569704 
867.000000	 94.652338 
866.000000	 94.733481 
865.000000	 94.819996 
864.000000	 94.915596 
863.000000	 95.019818 
862.000000	 95.125545 
861.000000	 95.220903 
860.000000	 95.298744 
859.000000	 95.362793 
858.000000	 95.421130 
857.000000	 95.476128 
856.000000	 95.525195 
855.000000	 95.568536 
854.000000	 95.609489 
853.000000	 95.648094 
852.000000	 95.681786 
851.000000	 95.713758 
850.000000	 95.752724 
849.000000	 95.799788 
848.000000	 95.841797 
847.000000	 95.864770 
846.000000	 95.870958 
845.000000	 95.875313 
844.000000	 95.886021 
843.000000	 95.896305 
842.000000	 95.896496 
841.000000	 95.885560 
840.000000	 95.865500 
839.000000	 95.831152 
838.000000	 95.774741 
837.000000	 95.699593 
836.000000	 95.621585 
835.000000	 95.554856 
834.000000	 95.500852 
833.000000	 95.453760 
832.000000	 95.411918 
831.000000	 95.379716 
830.000000	 95.361719 
829.000000	 95.359852 
828.000000	 95.373780 
827.000000	 95.397933 
826.000000	 95.420255 
825.000000	 95.432585 
824.000000	 95.442710 
823.000000	 95.466731 
822.000000	 95.506227 
821.000000	 95.541595 
820.000000	 95.552401 
819.000000	 95.537612 
818.000000	 95.511685 
817.000000	 95.484693 
816.000000	 95.450652 
815.000000	 95.393977 
814.000000	 95.303206 
813.000000	 95.176507 
812.000000	 95.015083 
811.000000	 94.814466 
810.000000	 94.565337 
809.000000	 94.264008 
808.000000	 93.919781 
807.000000	 93.548238 
806.000000	 93.157608 
805.000000	 92.747750 
804.000000	 92.325406 
803.000000	 91.913991 
802.000000	 91.542459 
801.000000	 91.228917 
800.000000	 90.979624 
799.000000	 90.797372 
798.000000	 90.684286 
797.000000	 90.641186 
796.000000	 90.668819 
795.000000	 90.763969 
794.000000	 90.909886 
793.000000	 91.076251 
792.000000	 91.234082 
791.000000	 91.368846 
790.000000	 91.478154 
789.000000	 91.560988 
788.000000	 91.611194 
787.000000	 91.617625 
786.000000	 91.568662 
785.000000	 91.460873 
784.000000	 91.306814 
783.000000	 91.131978 
782.000000	 90.961099 
781.000000	 90.809640 
780.000000	 90.689284 
779.000000	 90.614127 
778.000000	 90.595458 
777.000000	 90.635020 
776.000000	 90.728447 
775.000000	 90.870956 
774.000000	 91.054205 
773.000000	 91.260971 
772.000000	 91.469189 
771.000000	 91.661893 
770.000000	 91.831851 
769.000000	 91.978553 
768.000000	 92.103560 
767.000000	 92.207756 
766.000000	 92.289542 
765.000000	 92.345378 
764.000000	 92.375331 
763.000000	 92.389095 
762.000000	 92.403482 
761.000000	 92.431645 
760.000000	 92.475984 
759.000000	 92.531790 
758.000000	 92.594322 
757.000000	 92.659819 
756.000000	 92.722478 
755.000000	 92.775779 
754.000000	 92.818439 
753.000000	 92.856857 
752.000000	 92.900635 
751.000000	 92.956427 
750.000000	 93.024762 
749.000000	 93.100203 
748.000000	 93.174622 
747.000000	 93.243499 
746.000000	 93.310875 
745.000000	 93.386049 
744.000000	 93.474572 
743.000000	 93.575126 
742.000000	 93.684689 
741.000000	 93.801005 
740.000000	 93.917846 
739.000000	 94.023730 
738.000000	 94.110517 
737.000000	 94.180910 
736.000000	 94.244413 
735.000000	 94.309163 
734.000000	 94.379581 
733.000000	 94.455370 
732.000000	 94.527845 
731.000000	 94.582600 
730.000000	 94.611791 
729.000000	 94.619757 
728.000000	 94.618428 
727.000000	 94.621258 
726.000000	 94.638221 
725.000000	 94.672509 
724.000000	 94.717554 
723.000000	 94.761015 
722.000000	 94.797998 
721.000000	 94.838679 
720.000000	 94.896840 
719.000000	 94.970795 
718.000000	 95.041807 
717.000000	 95.092658 
716.000000	 95.120730 
715.000000	 95.134485 
714.000000	 95.145433 
713.000000	 95.163420 
712.000000	 95.193469 
711.000000	 95.230304 
710.000000	 95.259092 
709.000000	 95.267874 
708.000000	 95.256024 
707.000000	 95.235414 
706.000000	 95.217353 
705.000000	 95.199197 
704.000000	 95.166315 
703.000000	 95.102269 
702.000000	 95.000529 
701.000000	 94.866213 
700.000000	 94.703390 
699.000000	 94.511264 
698.000000	 94.292769 
697.000000	 94.068361 
696.000000	 93.878342 
695.000000	 93.760836 
694.000000	 93.733926 
693.000000	 93.792155 
692.000000	 93.909565 
691.000000	 94.055335 
690.000000	 94.207139 
689.000000	 94.353740 
688.000000	 94.485402 
687.000000	 94.585626 
686.000000	 94.647044 
685.000000	 94.684661 
684.000000	 94.722154 
683.000000	 94.776288 
682.000000	 94.854462 
681.000000	 94.952241 
680.000000	 95.045735 
679.000000	 95.106915 
678.000000	 95.138046 
677.000000	 95.165642 
676.000000	 95.208761 
675.000000	 95.267229 
674.000000	 95.330185 
673.000000	 95.392272 
672.000000	 95.468448 
671.000000	 95.590118 
670.000000	 95.783829 
669.000000	 96.026912 
668.000000	 96.180827 
667.000000	 96.137308 
666.000000	 96.004997 
665.000000	 95.890845 
664.000000	 95.829285 
663.000000	 95.830616 
662.000000	 95.878263 
661.000000	 95.926306 
660.000000	 95.940810 
659.000000	 95.929641 
658.000000	 95.920128 
657.000000	 95.918558 
656.000000	 95.923046 
655.000000	 95.948380 
654.000000	 95.993811 
653.000000	 96.026555 
652.000000	 96.034070 
651.000000	 96.048093 
650.000000	 96.090148 

