PE IR                   SPECTRUM    ASCII       PEDS        1.60        
  -1
~SP.SP
22/12/06
15:06:49.00
23/01/09
14:48:15.00
Administrator

650.000000
4









FRONTIER FT-IR,CPU32 MAIN 00.09.9951 07-SEPTEMBER-2011 11:49:41
MIR TGS
MIR
OPTKBR
90694
0.200000

4.000000
STRONG
RATIO
SPECTRUM
MAGNITUDE
MIRACLE ATR
DOUBLE

COMBINED


0


#HDR
-1
-1
#GR
CM-1
%T
0.00002384185791015625
0.0
4000.000000
-1.000000
3351
8
93.713323
68.727708
#DATA
4000.000000	93.560657 
3999.000000	93.556645 
3998.000000	93.555420 
3997.000000	93.556996 
3996.000000	93.559921 
3995.000000	93.562279 
3994.000000	93.562857 
3993.000000	93.561517 
3992.000000	93.559224 
3991.000000	93.557410 
3990.000000	93.557097 
3989.000000	93.558349 
3988.000000	93.560254 
3987.000000	93.561597 
3986.000000	93.561850 
3985.000000	93.561552 
3984.000000	93.561705 
3983.000000	93.562758 
3982.000000	93.564164 
3981.000000	93.564770 
3980.000000	93.563541 
3979.000000	93.560068 
3978.000000	93.554685 
3977.000000	93.548455 
3976.000000	93.542964 
3975.000000	93.539751 
3974.000000	93.539639 
3973.000000	93.542242 
3972.000000	93.545947 
3971.000000	93.548831 
3970.000000	93.550064 
3969.000000	93.550474 
3968.000000	93.551558 
3967.000000	93.553994 
3966.000000	93.557195 
3965.000000	93.560092 
3964.000000	93.562060 
3963.000000	93.563084 
3962.000000	93.563407 
3961.000000	93.563239 
3960.000000	93.562676 
3959.000000	93.561631 
3958.000000	93.559834 
3957.000000	93.557155 
3956.000000	93.554155 
3955.000000	93.552151 
3954.000000	93.552319 
3953.000000	93.554660 
3952.000000	93.557806 
3951.000000	93.559911 
3950.000000	93.560190 
3949.000000	93.559352 
3948.000000	93.558756 
3947.000000	93.559100 
3946.000000	93.559965 
3945.000000	93.560490 
3944.000000	93.560292 
3943.000000	93.559766 
3942.000000	93.559676 
3941.000000	93.560465 
3940.000000	93.561848 
3939.000000	93.562967 
3938.000000	93.563008 
3937.000000	93.561787 
3936.000000	93.559873 
3935.000000	93.558195 
3934.000000	93.557372 
3933.000000	93.557402 
3932.000000	93.557838 
3931.000000	93.558220 
3930.000000	93.558406 
3929.000000	93.558544 
3928.000000	93.558762 
3927.000000	93.558941 
3926.000000	93.558869 
3925.000000	93.558584 
3924.000000	93.558427 
3923.000000	93.558598 
3922.000000	93.558789 
3921.000000	93.558519 
3920.000000	93.557702 
3919.000000	93.556662 
3918.000000	93.555542 
3917.000000	93.553958 
3916.000000	93.551609 
3915.000000	93.549121 
3914.000000	93.547843 
3913.000000	93.548736 
3912.000000	93.551593 
3911.000000	93.555185 
3910.000000	93.558154 
3909.000000	93.559911 
3908.000000	93.560611 
3907.000000	93.560404 
3906.000000	93.559077 
3905.000000	93.556323 
3904.000000	93.552504 
3903.000000	93.548837 
3902.000000	93.546348 
3901.000000	93.545086 
3900.000000	93.544487 
3899.000000	93.544184 
3898.000000	93.544247 
3897.000000	93.544652 
3896.000000	93.544950 
3895.000000	93.544709 
3894.000000	93.544013 
3893.000000	93.543315 
3892.000000	93.542699 
3891.000000	93.541589 
3890.000000	93.539600 
3889.000000	93.537204 
3888.000000	93.535354 
3887.000000	93.534530 
3886.000000	93.534376 
3885.000000	93.534149 
3884.000000	93.533566 
3883.000000	93.532962 
3882.000000	93.532654 
3881.000000	93.532511 
3880.000000	93.532108 
3879.000000	93.531236 
3878.000000	93.530083 
3877.000000	93.528964 
3876.000000	93.527999 
3875.000000	93.527081 
3874.000000	93.526097 
3873.000000	93.525059 
3872.000000	93.524030 
3871.000000	93.523017 
3870.000000	93.521971 
3869.000000	93.520892 
3868.000000	93.519840 
3867.000000	93.518859 
3866.000000	93.517945 
3865.000000	93.517054 
3864.000000	93.516151 
3863.000000	93.515240 
3862.000000	93.514390 
3861.000000	93.513658 
3860.000000	93.512999 
3859.000000	93.512251 
3858.000000	93.511317 
3857.000000	93.510279 
3856.000000	93.509383 
3855.000000	93.508832 
3854.000000	93.508609 
3853.000000	93.508438 
3852.000000	93.508026 
3851.000000	93.507335 
3850.000000	93.506558 
3849.000000	93.505912 
3848.000000	93.505445 
3847.000000	93.505049 
3846.000000	93.504517 
3845.000000	93.503658 
3844.000000	93.502450 
3843.000000	93.501101 
3842.000000	93.499892 
3841.000000	93.498998 
3840.000000	93.498417 
3839.000000	93.498085 
3838.000000	93.497976 
3837.000000	93.497954 
3836.000000	93.497693 
3835.000000	93.496998 
3834.000000	93.496142 
3833.000000	93.495747 
3832.000000	93.496168 
3831.000000	93.497139 
3830.000000	93.498153 
3829.000000	93.499047 
3828.000000	93.499988 
3827.000000	93.500979 
3826.000000	93.501641 
3825.000000	93.501679 
3824.000000	93.501335 
3823.000000	93.501185 
3822.000000	93.501389 
3821.000000	93.501353 
3820.000000	93.500501 
3819.000000	93.499114 
3818.000000	93.498230 
3817.000000	93.498590 
3816.000000	93.500085 
3815.000000	93.501746 
3814.000000	93.502663 
3813.000000	93.502792 
3812.000000	93.502582 
3811.000000	93.502384 
3810.000000	93.502173 
3809.000000	93.501848 
3808.000000	93.501555 
3807.000000	93.501540 
3806.000000	93.501706 
3805.000000	93.501718 
3804.000000	93.501504 
3803.000000	93.501403 
3802.000000	93.501709 
3801.000000	93.502161 
3800.000000	93.502208 
3799.000000	93.501735 
3798.000000	93.501236 
3797.000000	93.501343 
3796.000000	93.502327 
3795.000000	93.503956 
3794.000000	93.505642 
3793.000000	93.506843 
3792.000000	93.507358 
3791.000000	93.507364 
3790.000000	93.507146 
3789.000000	93.506750 
3788.000000	93.506071 
3787.000000	93.505223 
3786.000000	93.504595 
3785.000000	93.504342 
3784.000000	93.504035 
3783.000000	93.503187 
3782.000000	93.502002 
3781.000000	93.501218 
3780.000000	93.501163 
3779.000000	93.501328 
3778.000000	93.501157 
3777.000000	93.500914 
3776.000000	93.501164 
3775.000000	93.501655 
3774.000000	93.501480 
3773.000000	93.500361 
3772.000000	93.498791 
3771.000000	93.497075 
3770.000000	93.495041 
3769.000000	93.492840 
3768.000000	93.491462 
3767.000000	93.491695 
3766.000000	93.492956 
3765.000000	93.493624 
3764.000000	93.492702 
3763.000000	93.490608 
3762.000000	93.488378 
3761.000000	93.486650 
3760.000000	93.485268 
3759.000000	93.483588 
3758.000000	93.480967 
3757.000000	93.477416 
3756.000000	93.473922 
3755.000000	93.471627 
3754.000000	93.470708 
3753.000000	93.470325 
3752.000000	93.469922 
3751.000000	93.469923 
3750.000000	93.470092 
3749.000000	93.468975 
3748.000000	93.466425 
3747.000000	93.464088 
3746.000000	93.462795 
3745.000000	93.460427 
3744.000000	93.454816 
3743.000000	93.447767 
3742.000000	93.443156 
3741.000000	93.442961 
3740.000000	93.446126 
3739.000000	93.449528 
3738.000000	93.450238 
3737.000000	93.447772 
3736.000000	93.445257 
3735.000000	93.446864 
3734.000000	93.453006 
3733.000000	93.459555 
3732.000000	93.461866 
3731.000000	93.458245 
3730.000000	93.450348 
3729.000000	93.441542 
3728.000000	93.434928 
3727.000000	93.431621 
3726.000000	93.430540 
3725.000000	93.430276 
3724.000000	93.430759 
3723.000000	93.432345 
3722.000000	93.433862 
3721.000000	93.433660 
3720.000000	93.431593 
3719.000000	93.428506 
3718.000000	93.424042 
3717.000000	93.416375 
3716.000000	93.405281 
3715.000000	93.392864 
3714.000000	93.380954 
3713.000000	93.369386 
3712.000000	93.357362 
3711.000000	93.346077 
3710.000000	93.337662 
3709.000000	93.333501 
3708.000000	93.334179 
3707.000000	93.339222 
3706.000000	93.347366 
3705.000000	93.356913 
3704.000000	93.365818 
3703.000000	93.371338 
3702.000000	93.370323 
3701.000000	93.361572 
3700.000000	93.347922 
3699.000000	93.335005 
3698.000000	93.327109 
3697.000000	93.323723 
3696.000000	93.320579 
3695.000000	93.313963 
3694.000000	93.304393 
3693.000000	93.296631 
3692.000000	93.296199 
3691.000000	93.305218 
3690.000000	93.318544 
3689.000000	93.325530 
3688.000000	93.319607 
3687.000000	93.304682 
3686.000000	93.290202 
3685.000000	93.281621 
3684.000000	93.276899 
3683.000000	93.269904 
3682.000000	93.256132 
3681.000000	93.235707 
3680.000000	93.212857 
3679.000000	93.193086 
3678.000000	93.180513 
3677.000000	93.175823 
3676.000000	93.174406 
3675.000000	93.168827 
3674.000000	93.155537 
3673.000000	93.138083 
3672.000000	93.122208 
3671.000000	93.110239 
3670.000000	93.099621 
3669.000000	93.086710 
3668.000000	93.071294 
3667.000000	93.056530 
3666.000000	93.045213 
3665.000000	93.036587 
3664.000000	93.026789 
3663.000000	93.012476 
3662.000000	92.993950 
3661.000000	92.974544 
3660.000000	92.957536 
3659.000000	92.943117 
3658.000000	92.928068 
3657.000000	92.908087 
3656.000000	92.881789 
3655.000000	92.852895 
3654.000000	92.827467 
3653.000000	92.809249 
3652.000000	92.796029 
3651.000000	92.779587 
3650.000000	92.752672 
3649.000000	92.718886 
3648.000000	92.690169 
3647.000000	92.673486 
3646.000000	92.666551 
3645.000000	92.663950 
3644.000000	92.662159 
3643.000000	92.659681 
3642.000000	92.655395 
3641.000000	92.647981 
3640.000000	92.637261 
3639.000000	92.624821 
3638.000000	92.613015 
3637.000000	92.602957 
3636.000000	92.593455 
3635.000000	92.581812 
3634.000000	92.566133 
3633.000000	92.547219 
3632.000000	92.527478 
3631.000000	92.507858 
3630.000000	92.487213 
3629.000000	92.466263 
3628.000000	92.449262 
3627.000000	92.440397 
3626.000000	92.441727 
3625.000000	92.452903 
3624.000000	92.471281 
3623.000000	92.493428 
3622.000000	92.516295 
3621.000000	92.536576 
3620.000000	92.549813 
3619.000000	92.552691 
3618.000000	92.546305 
3617.000000	92.535671 
3616.000000	92.526598 
3615.000000	92.523026 
3614.000000	92.526303 
3613.000000	92.535952 
3612.000000	92.550574 
3611.000000	92.567935 
3610.000000	92.584877 
3609.000000	92.598943 
3608.000000	92.609594 
3607.000000	92.618283 
3606.000000	92.627673 
3605.000000	92.639792 
3604.000000	92.654687 
3603.000000	92.669966 
3602.000000	92.682927 
3601.000000	92.693172 
3600.000000	92.702189 
3599.000000	92.710686 
3598.000000	92.717593 
3597.000000	92.721980 
3596.000000	92.725258 
3595.000000	92.730159 
3594.000000	92.737363 
3593.000000	92.744428 
3592.000000	92.748566 
3591.000000	92.749795 
3590.000000	92.750555 
3589.000000	92.752800 
3588.000000	92.755249 
3587.000000	92.754447 
3586.000000	92.749512 
3585.000000	92.744230 
3584.000000	92.743745 
3583.000000	92.749365 
3582.000000	92.757842 
3581.000000	92.764380 
3580.000000	92.765953 
3579.000000	92.762202 
3578.000000	92.754532 
3577.000000	92.745368 
3576.000000	92.737064 
3575.000000	92.730533 
3574.000000	92.724380 
3573.000000	92.716949 
3572.000000	92.709234 
3571.000000	92.704873 
3570.000000	92.706414 
3569.000000	92.711829 
3568.000000	92.715219 
3567.000000	92.712054 
3566.000000	92.703181 
3565.000000	92.693225 
3564.000000	92.686480 
3563.000000	92.684855 
3562.000000	92.687868 
3561.000000	92.693384 
3560.000000	92.698793 
3559.000000	92.702366 
3558.000000	92.703660 
3557.000000	92.702939 
3556.000000	92.700629 
3555.000000	92.697515 
3554.000000	92.694864 
3553.000000	92.693614 
3552.000000	92.693610 
3551.000000	92.693965 
3550.000000	92.694085 
3549.000000	92.693914 
3548.000000	92.693308 
3547.000000	92.691724 
3546.000000	92.688818 
3545.000000	92.685174 
3544.000000	92.682078 
3543.000000	92.680411 
3542.000000	92.679910 
3541.000000	92.679600 
3540.000000	92.678795 
3539.000000	92.677602 
3538.000000	92.676463 
3537.000000	92.675553 
3536.000000	92.674750 
3535.000000	92.673887 
3534.000000	92.672900 
3533.000000	92.671837 
3532.000000	92.670781 
3531.000000	92.669807 
3530.000000	92.668956 
3529.000000	92.668215 
3528.000000	92.667484 
3527.000000	92.666620 
3526.000000	92.665551 
3525.000000	92.664326 
3524.000000	92.663059 
3523.000000	92.661814 
3522.000000	92.660589 
3521.000000	92.659401 
3520.000000	92.658308 
3519.000000	92.657359 
3518.000000	92.656530 
3517.000000	92.655660 
3516.000000	92.654499 
3515.000000	92.652895 
3514.000000	92.650912 
3513.000000	92.648833 
3512.000000	92.646955 
3511.000000	92.645375 
3510.000000	92.643967 
3509.000000	92.642500 
3508.000000	92.640874 
3507.000000	92.639172 
3506.000000	92.637520 
3505.000000	92.635932 
3504.000000	92.634301 
3503.000000	92.632494 
3502.000000	92.630457 
3501.000000	92.628287 
3500.000000	92.626200 
3499.000000	92.624398 
3498.000000	92.622855 
3497.000000	92.621173 
3496.000000	92.618805 
3495.000000	92.615528 
3494.000000	92.611717 
3493.000000	92.608119 
3492.000000	92.605289 
3491.000000	92.603311 
3490.000000	92.601908 
3489.000000	92.600678 
3488.000000	92.599199 
3487.000000	92.597007 
3486.000000	92.593734 
3485.000000	92.589394 
3484.000000	92.584501 
3483.000000	92.579851 
3482.000000	92.576039 
3481.000000	92.573150 
3480.000000	92.570839 
3479.000000	92.568673 
3478.000000	92.566435 
3477.000000	92.564092 
3476.000000	92.561546 
3475.000000	92.558518 
3474.000000	92.554699 
3473.000000	92.550051 
3472.000000	92.545066 
3471.000000	92.540735 
3470.000000	92.538058 
3469.000000	92.537286 
3468.000000	92.537360 
3467.000000	92.536427 
3466.000000	92.533197 
3465.000000	92.527789 
3464.000000	92.521593 
3463.000000	92.516290 
3462.000000	92.512711 
3461.000000	92.510264 
3460.000000	92.507367 
3459.000000	92.502966 
3458.000000	92.497879 
3457.000000	92.494204 
3456.000000	92.493230 
3455.000000	92.494189 
3454.000000	92.495150 
3453.000000	92.494837 
3452.000000	92.493181 
3451.000000	92.490631 
3450.000000	92.487661 
3449.000000	92.484948 
3448.000000	92.483309 
3447.000000	92.483085 
3446.000000	92.483745 
3445.000000	92.484397 
3444.000000	92.484626 
3443.000000	92.484690 
3442.000000	92.485058 
3441.000000	92.485881 
3440.000000	92.486874 
3439.000000	92.487579 
3438.000000	92.487724 
3437.000000	92.487322 
3436.000000	92.486546 
3435.000000	92.485496 
3434.000000	92.484066 
3433.000000	92.482009 
3432.000000	92.479331 
3431.000000	92.476776 
3430.000000	92.475678 
3429.000000	92.476882 
3428.000000	92.479592 
3427.000000	92.481518 
3426.000000	92.480625 
3425.000000	92.476807 
3424.000000	92.472008 
3423.000000	92.468822 
3422.000000	92.468710 
3421.000000	92.471312 
3420.000000	92.474866 
3419.000000	92.477425 
3418.000000	92.478337 
3417.000000	92.478749 
3416.000000	92.480494 
3415.000000	92.484256 
3414.000000	92.488794 
3413.000000	92.492124 
3412.000000	92.493568 
3411.000000	92.494323 
3410.000000	92.495932 
3409.000000	92.498403 
3408.000000	92.500160 
3407.000000	92.499720 
3406.000000	92.496982 
3405.000000	92.492970 
3404.000000	92.488917 
3403.000000	92.485744 
3402.000000	92.484043 
3401.000000	92.483959 
3400.000000	92.485072 
3399.000000	92.486790 
3398.000000	92.488990 
3397.000000	92.491912 
3396.000000	92.495226 
3395.000000	92.497566 
3394.000000	92.497381 
3393.000000	92.494303 
3392.000000	92.489695 
3391.000000	92.485791 
3390.000000	92.484012 
3389.000000	92.484046 
3388.000000	92.484457 
3387.000000	92.484303 
3386.000000	92.484098 
3385.000000	92.484884 
3384.000000	92.486672 
3383.000000	92.488438 
3382.000000	92.489614 
3381.000000	92.490727 
3380.000000	92.492282 
3379.000000	92.493993 
3378.000000	92.495714 
3377.000000	92.498269 
3376.000000	92.502329 
3375.000000	92.506982 
3374.000000	92.510610 
3373.000000	92.512987 
3372.000000	92.515303 
3371.000000	92.517983 
3370.000000	92.519640 
3369.000000	92.518902 
3368.000000	92.516347 
3367.000000	92.513990 
3366.000000	92.513194 
3365.000000	92.513755 
3364.000000	92.514893 
3363.000000	92.516327 
3362.000000	92.518230 
3361.000000	92.520621 
3360.000000	92.523135 
3359.000000	92.525269 
3358.000000	92.526681 
3357.000000	92.527376 
3356.000000	92.527741 
3355.000000	92.528377 
3354.000000	92.529717 
3353.000000	92.531745 
3352.000000	92.534024 
3351.000000	92.535935 
3350.000000	92.537009 
3349.000000	92.537181 
3348.000000	92.536871 
3347.000000	92.536827 
3346.000000	92.537659 
3345.000000	92.539486 
3344.000000	92.541989 
3343.000000	92.544677 
3342.000000	92.547138 
3341.000000	92.549128 
3340.000000	92.550549 
3339.000000	92.551481 
3338.000000	92.552228 
3337.000000	92.553178 
3336.000000	92.554558 
3335.000000	92.556276 
3334.000000	92.557968 
3333.000000	92.559245 
3332.000000	92.559979 
3331.000000	92.560361 
3330.000000	92.560763 
3329.000000	92.561485 
3328.000000	92.562573 
3327.000000	92.563860 
3326.000000	92.565126 
3325.000000	92.566281 
3324.000000	92.567421 
3323.000000	92.568661 
3322.000000	92.569957 
3321.000000	92.571173 
3320.000000	92.572308 
3319.000000	92.573558 
3318.000000	92.575089 
3317.000000	92.576779 
3316.000000	92.578264 
3315.000000	92.579305 
3314.000000	92.579988 
3313.000000	92.580551 
3312.000000	92.581128 
3311.000000	92.581722 
3310.000000	92.582348 
3309.000000	92.583073 
3308.000000	92.583944 
3307.000000	92.584941 
3306.000000	92.586020 
3305.000000	92.587159 
3304.000000	92.588352 
3303.000000	92.589558 
3302.000000	92.590692 
3301.000000	92.591679 
3300.000000	92.592519 
3299.000000	92.593298 
3298.000000	92.594137 
3297.000000	92.595098 
3296.000000	92.596155 
3295.000000	92.597241 
3294.000000	92.598309 
3293.000000	92.599358 
3292.000000	92.600405 
3291.000000	92.601462 
3290.000000	92.602534 
3289.000000	92.603614 
3288.000000	92.604689 
3287.000000	92.605751 
3286.000000	92.606805 
3285.000000	92.607863 
3284.000000	92.608938 
3283.000000	92.610033 
3282.000000	92.611141 
3281.000000	92.612250 
3280.000000	92.613348 
3279.000000	92.614434 
3278.000000	92.615515 
3277.000000	92.616601 
3276.000000	92.617695 
3275.000000	92.618799 
3274.000000	92.619928 
3273.000000	92.621101 
3272.000000	92.622326 
3271.000000	92.623589 
3270.000000	92.624862 
3269.000000	92.626135 
3268.000000	92.627429 
3267.000000	92.628775 
3266.000000	92.630179 
3265.000000	92.631634 
3264.000000	92.633137 
3263.000000	92.634670 
3262.000000	92.636164 
3261.000000	92.637545 
3260.000000	92.638804 
3259.000000	92.640028 
3258.000000	92.641344 
3257.000000	92.642826 
3256.000000	92.644458 
3255.000000	92.646148 
3254.000000	92.647756 
3253.000000	92.649138 
3252.000000	92.650258 
3251.000000	92.651328 
3250.000000	92.652696 
3249.000000	92.654494 
3248.000000	92.656491 
3247.000000	92.658352 
3246.000000	92.660025 
3245.000000	92.661700 
3244.000000	92.663485 
3243.000000	92.665296 
3242.000000	92.667053 
3241.000000	92.668789 
3240.000000	92.670540 
3239.000000	92.672287 
3238.000000	92.674075 
3237.000000	92.676035 
3236.000000	92.678251 
3235.000000	92.680671 
3234.000000	92.683147 
3233.000000	92.685452 
3232.000000	92.687267 
3231.000000	92.688396 
3230.000000	92.689129 
3229.000000	92.690243 
3228.000000	92.692290 
3227.000000	92.695052 
3226.000000	92.697801 
3225.000000	92.700155 
3224.000000	92.702334 
3223.000000	92.704606 
3222.000000	92.706894 
3221.000000	92.709129 
3220.000000	92.711634 
3219.000000	92.714758 
3218.000000	92.718155 
3217.000000	92.720800 
3216.000000	92.721860 
3215.000000	92.721438 
3214.000000	92.720650 
3213.000000	92.720768 
3212.000000	92.722153 
3211.000000	92.724134 
3210.000000	92.725940 
3209.000000	92.727762 
3208.000000	92.730487 
3207.000000	92.734263 
3206.000000	92.737826 
3205.000000	92.739809 
3204.000000	92.740334 
3203.000000	92.740866 
3202.000000	92.742465 
3201.000000	92.744741 
3200.000000	92.746660 
3199.000000	92.747718 
3198.000000	92.748001 
3197.000000	92.747684 
3196.000000	92.747112 
3195.000000	92.747089 
3194.000000	92.748419 
3193.000000	92.751121 
3192.000000	92.754547 
3191.000000	92.758282 
3190.000000	92.762391 
3189.000000	92.766707 
3188.000000	92.770515 
3187.000000	92.773229 
3186.000000	92.775053 
3185.000000	92.776730 
3184.000000	92.778730 
3183.000000	92.780844 
3182.000000	92.782424 
3181.000000	92.782971 
3180.000000	92.782721 
3179.000000	92.782787 
3178.000000	92.784334 
3177.000000	92.787437 
3176.000000	92.791041 
3175.000000	92.794190 
3174.000000	92.797035 
3173.000000	92.800256 
3172.000000	92.803907 
3171.000000	92.807377 
3170.000000	92.810293 
3169.000000	92.812779 
3168.000000	92.814774 
3167.000000	92.815838 
3166.000000	92.816009 
3165.000000	92.816220 
3164.000000	92.817364 
3163.000000	92.819251 
3162.000000	92.820987 
3161.000000	92.822127 
3160.000000	92.823072 
3159.000000	92.824459 
3158.000000	92.826494 
3157.000000	92.828938 
3156.000000	92.831422 
3155.000000	92.833691 
3154.000000	92.835697 
3153.000000	92.837515 
3152.000000	92.839183 
3151.000000	92.840658 
3150.000000	92.841946 
3149.000000	92.843247 
3148.000000	92.844829 
3147.000000	92.846751 
3146.000000	92.848809 
3145.000000	92.850689 
3144.000000	92.852288 
3143.000000	92.853731 
3142.000000	92.855187 
3141.000000	92.856716 
3140.000000	92.858294 
3139.000000	92.859903 
3138.000000	92.861517 
3137.000000	92.863041 
3136.000000	92.864379 
3135.000000	92.865546 
3134.000000	92.866677 
3133.000000	92.867898 
3132.000000	92.869209 
3131.000000	92.870527 
3130.000000	92.871792 
3129.000000	92.873027 
3128.000000	92.874281 
3127.000000	92.875592 
3126.000000	92.876980 
3125.000000	92.878433 
3124.000000	92.879856 
3123.000000	92.881104 
3122.000000	92.882142 
3121.000000	92.883162 
3120.000000	92.884417 
3119.000000	92.885931 
3118.000000	92.887478 
3117.000000	92.888817 
3116.000000	92.889828 
3115.000000	92.890455 
3114.000000	92.890755 
3113.000000	92.891008 
3112.000000	92.891541 
3111.000000	92.892308 
3110.000000	92.892869 
3109.000000	92.893002 
3108.000000	92.893189 
3107.000000	92.894146 
3106.000000	92.895886 
3105.000000	92.897513 
3104.000000	92.898125 
3103.000000	92.897670 
3102.000000	92.896744 
3101.000000	92.895941 
3100.000000	92.895538 
3099.000000	92.895713 
3098.000000	92.896630 
3097.000000	92.898213 
3096.000000	92.900119 
3095.000000	92.901936 
3094.000000	92.903326 
3093.000000	92.904088 
3092.000000	92.904386 
3091.000000	92.904810 
3090.000000	92.905797 
3089.000000	92.906990 
3088.000000	92.907535 
3087.000000	92.907069 
3086.000000	92.905986 
3085.000000	92.904666 
3084.000000	92.903094 
3083.000000	92.901556 
3082.000000	92.900978 
3081.000000	92.901851 
3080.000000	92.903283 
3079.000000	92.903938 
3078.000000	92.903807 
3077.000000	92.904104 
3076.000000	92.905353 
3075.000000	92.906466 
3074.000000	92.906210 
3073.000000	92.905072 
3072.000000	92.904883 
3071.000000	92.906491 
3070.000000	92.908629 
3069.000000	92.909767 
3068.000000	92.910638 
3067.000000	92.913641 
3066.000000	92.919382 
3065.000000	92.925001 
3064.000000	92.927103 
3063.000000	92.925624 
3062.000000	92.923449 
3061.000000	92.922653 
3060.000000	92.922765 
3059.000000	92.922825 
3058.000000	92.923259 
3057.000000	92.924721 
3056.000000	92.926495 
3055.000000	92.927487 
3054.000000	92.928031 
3053.000000	92.929405 
3052.000000	92.931934 
3051.000000	92.934719 
3050.000000	92.937020 
3049.000000	92.938786 
3048.000000	92.939799 
3047.000000	92.939287 
3046.000000	92.936788 
3045.000000	92.932950 
3044.000000	92.929155 
3043.000000	92.926324 
3042.000000	92.924079 
3041.000000	92.921112 
3040.000000	92.916557 
3039.000000	92.910847 
3038.000000	92.904929 
3037.000000	92.898983 
3036.000000	92.892739 
3035.000000	92.886824 
3034.000000	92.882401 
3033.000000	92.879144 
3032.000000	92.875073 
3031.000000	92.869555 
3030.000000	92.865385 
3029.000000	92.866248 
3028.000000	92.872625 
3027.000000	92.881324 
3026.000000	92.888675 
3025.000000	92.893305 
3024.000000	92.896127 
3023.000000	92.899064 
3022.000000	92.904063 
3021.000000	92.912230 
3020.000000	92.923086 
3019.000000	92.934950 
3018.000000	92.946369 
3017.000000	92.957051 
3016.000000	92.967539 
3015.000000	92.978503 
3014.000000	92.990438 
3013.000000	93.003447 
3012.000000	93.016922 
3011.000000	93.029517 
3010.000000	93.039377 
3009.000000	93.044862 
3008.000000	93.046195 
3007.000000	93.046581 
3006.000000	93.050726 
3005.000000	93.061459 
3004.000000	93.077773 
3003.000000	93.096048 
3002.000000	93.112679 
3001.000000	93.125715 
3000.000000	93.135280 
2999.000000	93.143315 
2998.000000	93.152223 
2997.000000	93.162847 
2996.000000	93.174109 
2995.000000	93.185197 
2994.000000	93.197412 
2993.000000	93.212873 
2992.000000	93.231803 
2991.000000	93.251999 
2990.000000	93.270581 
2989.000000	93.285263 
2988.000000	93.294301 
2987.000000	93.296907 
2986.000000	93.294525 
2985.000000	93.290952 
2984.000000	93.290259 
2983.000000	93.294330 
2982.000000	93.302206 
2981.000000	93.311259 
2980.000000	93.319010 
2979.000000	93.324370 
2978.000000	93.327469 
2977.000000	93.328117 
2976.000000	93.324313 
2975.000000	93.312644 
2974.000000	93.290881 
2973.000000	93.261356 
2972.000000	93.232673 
2971.000000	93.216736 
2970.000000	93.221672 
2969.000000	93.246371 
2968.000000	93.280907 
2967.000000	93.313474 
2966.000000	93.338058 
2965.000000	93.354727 
2964.000000	93.365057 
2963.000000	93.370010 
2962.000000	93.371344 
2961.000000	93.371787 
2960.000000	93.372455 
2959.000000	93.371811 
2958.000000	93.368428 
2957.000000	93.363591 
2956.000000	93.360096 
2955.000000	93.359481 
2954.000000	93.361339 
2953.000000	93.364311 
2952.000000	93.366494 
2951.000000	93.365777 
2950.000000	93.361472 
2949.000000	93.355682 
2948.000000	93.351897 
2947.000000	93.351930 
2946.000000	93.354738 
2945.000000	93.358109 
2944.000000	93.360821 
2943.000000	93.363190 
2942.000000	93.366428 
2941.000000	93.371930 
2940.000000	93.380728 
2939.000000	93.392879 
2938.000000	93.407059 
2937.000000	93.420880 
2936.000000	93.432178 
2935.000000	93.440664 
2934.000000	93.448447 
2933.000000	93.458496 
2932.000000	93.472016 
2931.000000	93.487132 
2930.000000	93.500179 
2929.000000	93.508346 
2928.000000	93.511550 
2927.000000	93.512608 
2926.000000	93.514785 
2925.000000	93.517985 
2924.000000	93.518702 
2923.000000	93.514810 
2922.000000	93.509209 
2921.000000	93.507026 
2920.000000	93.509885 
2919.000000	93.515209 
2918.000000	93.520825 
2917.000000	93.527441 
2916.000000	93.535523 
2915.000000	93.542226 
2914.000000	93.543836 
2913.000000	93.540202 
2912.000000	93.534999 
2911.000000	93.531941 
2910.000000	93.532205 
2909.000000	93.535314 
2908.000000	93.540629 
2907.000000	93.547241 
2906.000000	93.553524 
2905.000000	93.557835 
2904.000000	93.559750 
2903.000000	93.560288 
2902.000000	93.560953 
2901.000000	93.562088 
2900.000000	93.562356 
2899.000000	93.560243 
2898.000000	93.556254 
2897.000000	93.553205 
2896.000000	93.553623 
2895.000000	93.557025 
2894.000000	93.560295 
2893.000000	93.560724 
2892.000000	93.558075 
2891.000000	93.553842 
2890.000000	93.549329 
2889.000000	93.545009 
2888.000000	93.541352 
2887.000000	93.539404 
2886.000000	93.539908 
2885.000000	93.541923 
2884.000000	93.542872 
2883.000000	93.540507 
2882.000000	93.534856 
2881.000000	93.528157 
2880.000000	93.522904 
2879.000000	93.519931 
2878.000000	93.518207 
2877.000000	93.515954 
2876.000000	93.511978 
2875.000000	93.506451 
2874.000000	93.500849 
2873.000000	93.496969 
2872.000000	93.495741 
2871.000000	93.496730 
2870.000000	93.498487 
2869.000000	93.499238 
2868.000000	93.497614 
2867.000000	93.493371 
2866.000000	93.487647 
2865.000000	93.482216 
2864.000000	93.478324 
2863.000000	93.476330 
2862.000000	93.475989 
2861.000000	93.476438 
2860.000000	93.476243 
2859.000000	93.474506 
2858.000000	93.472103 
2857.000000	93.470906 
2856.000000	93.471331 
2855.000000	93.471419 
2854.000000	93.468725 
2853.000000	93.462400 
2852.000000	93.453171 
2851.000000	93.442314 
2850.000000	93.431468 
2849.000000	93.422705 
2848.000000	93.417501 
2847.000000	93.415474 
2846.000000	93.414542 
2845.000000	93.412417 
2844.000000	93.407873 
2843.000000	93.401039 
2842.000000	93.393305 
2841.000000	93.386872 
2840.000000	93.383498 
2839.000000	93.383091 
2838.000000	93.383576 
2837.000000	93.382537 
2836.000000	93.379379 
2835.000000	93.375917 
2834.000000	93.374556 
2833.000000	93.375821 
2832.000000	93.377967 
2831.000000	93.379134 
2830.000000	93.379223 
2829.000000	93.378994 
2828.000000	93.378155 
2827.000000	93.375718 
2826.000000	93.372152 
2825.000000	93.369768 
2824.000000	93.370398 
2823.000000	93.373589 
2822.000000	93.377384 
2821.000000	93.379926 
2820.000000	93.379957 
2819.000000	93.376925 
2818.000000	93.371713 
2817.000000	93.366753 
2816.000000	93.364272 
2815.000000	93.364345 
2814.000000	93.365119 
2813.000000	93.364775 
2812.000000	93.363088 
2811.000000	93.361312 
2810.000000	93.360977 
2809.000000	93.362595 
2808.000000	93.365196 
2807.000000	93.367274 
2806.000000	93.368346 
2805.000000	93.369254 
2804.000000	93.370924 
2803.000000	93.373427 
2802.000000	93.376356 
2801.000000	93.379353 
2800.000000	93.381829 
2799.000000	93.382812 
2798.000000	93.381821 
2797.000000	93.379715 
2796.000000	93.378191 
2795.000000	93.378403 
2794.000000	93.380260 
2793.000000	93.382750 
2792.000000	93.384653 
2791.000000	93.385277 
2790.000000	93.384947 
2789.000000	93.384807 
2788.000000	93.385865 
2787.000000	93.388248 
2786.000000	93.391447 
2785.000000	93.394866 
2784.000000	93.397790 
2783.000000	93.399225 
2782.000000	93.398444 
2781.000000	93.395682 
2780.000000	93.391985 
2779.000000	93.388399 
2778.000000	93.385612 
2777.000000	93.384203 
2776.000000	93.384532 
2775.000000	93.386287 
2774.000000	93.388583 
2773.000000	93.390676 
2772.000000	93.392468 
2771.000000	93.394363 
2770.000000	93.396787 
2769.000000	93.399750 
2768.000000	93.402578 
2767.000000	93.404167 
2766.000000	93.403832 
2765.000000	93.401970 
2764.000000	93.399915 
2763.000000	93.398982 
2762.000000	93.399556 
2761.000000	93.401006 
2760.000000	93.402230 
2759.000000	93.402534 
2758.000000	93.402193 
2757.000000	93.402137 
2756.000000	93.403020 
2755.000000	93.404681 
2754.000000	93.406489 
2753.000000	93.407985 
2752.000000	93.409020 
2751.000000	93.409602 
2750.000000	93.409869 
2749.000000	93.410102 
2748.000000	93.410536 
2747.000000	93.411225 
2746.000000	93.412147 
2745.000000	93.413291 
2744.000000	93.414528 
2743.000000	93.415615 
2742.000000	93.416452 
2741.000000	93.417192 
2740.000000	93.417990 
2739.000000	93.418776 
2738.000000	93.419372 
2737.000000	93.419754 
2736.000000	93.420096 
2735.000000	93.420589 
2734.000000	93.421272 
2733.000000	93.422044 
2732.000000	93.422771 
2731.000000	93.423384 
2730.000000	93.423908 
2729.000000	93.424413 
2728.000000	93.424931 
2727.000000	93.425452 
2726.000000	93.425981 
2725.000000	93.426563 
2724.000000	93.427220 
2723.000000	93.427936 
2722.000000	93.428651 
2721.000000	93.429303 
2720.000000	93.429963 
2719.000000	93.430878 
2718.000000	93.432137 
2717.000000	93.433328 
2716.000000	93.433906 
2715.000000	93.433872 
2714.000000	93.433885 
2713.000000	93.434618 
2712.000000	93.436108 
2711.000000	93.437584 
2710.000000	93.438018 
2709.000000	93.437042 
2708.000000	93.435361 
2707.000000	93.434126 
2706.000000	93.433977 
2705.000000	93.434899 
2704.000000	93.436624 
2703.000000	93.438734 
2702.000000	93.440549 
2701.000000	93.441411 
2700.000000	93.441325 
2699.000000	93.441247 
2698.000000	93.442425 
2697.000000	93.445106 
2696.000000	93.447907 
2695.000000	93.448957 
2694.000000	93.447869 
2693.000000	93.446117 
2692.000000	93.445288 
2691.000000	93.445648 
2690.000000	93.446818 
2689.000000	93.448706 
2688.000000	93.450741 
2687.000000	93.451343 
2686.000000	93.449928 
2685.000000	93.448839 
2684.000000	93.451264 
2683.000000	93.457329 
2682.000000	93.464093 
2681.000000	93.469174 
2680.000000	93.472143 
2679.000000	93.472498 
2678.000000	93.469217 
2677.000000	93.463210 
2676.000000	93.457471 
2675.000000	93.453030 
2674.000000	93.446873 
2673.000000	93.436005 
2672.000000	93.422103 
2671.000000	93.410101 
2670.000000	93.403013 
2669.000000	93.400118 
2668.000000	93.399583 
2667.000000	93.400876 
2666.000000	93.404671 
2665.000000	93.411851 
2664.000000	93.422669 
2663.000000	93.435863 
2662.000000	93.448621 
2661.000000	93.458305 
2660.000000	93.464067 
2659.000000	93.466149 
2658.000000	93.464276 
2657.000000	93.457848 
2656.000000	93.447384 
2655.000000	93.434556 
2654.000000	93.420806 
2653.000000	93.406894 
2652.000000	93.393747 
2651.000000	93.382661 
2650.000000	93.374550 
2649.000000	93.369958 
2648.000000	93.369863 
2647.000000	93.375369 
2646.000000	93.386011 
2645.000000	93.399036 
2644.000000	93.411112 
2643.000000	93.420819 
2642.000000	93.429320 
2641.000000	93.438948 
2640.000000	93.451262 
2639.000000	93.465946 
2638.000000	93.481044 
2637.000000	93.494317 
2636.000000	93.504600 
2635.000000	93.511705 
2634.000000	93.515064 
2633.000000	93.513166 
2632.000000	93.505137 
2631.000000	93.492867 
2630.000000	93.480757 
2629.000000	93.472580 
2628.000000	93.468848 
2627.000000	93.467790 
2626.000000	93.468346 
2625.000000	93.471091 
2624.000000	93.476180 
2623.000000	93.481836 
2622.000000	93.485979 
2621.000000	93.488660 
2620.000000	93.491552 
2619.000000	93.495109 
2618.000000	93.497479 
2617.000000	93.496702 
2616.000000	93.493136 
2615.000000	93.489074 
2614.000000	93.486467 
2613.000000	93.485696 
2612.000000	93.486305 
2611.000000	93.487920 
2610.000000	93.489879 
2609.000000	93.490623 
2608.000000	93.488714 
2607.000000	93.484835 
2606.000000	93.481854 
2605.000000	93.481949 
2604.000000	93.484174 
2603.000000	93.485810 
2602.000000	93.485819 
2601.000000	93.485717 
2600.000000	93.486928 
2599.000000	93.488740 
2598.000000	93.489675 
2597.000000	93.489637 
2596.000000	93.489459 
2595.000000	93.489196 
2594.000000	93.488288 
2593.000000	93.486922 
2592.000000	93.485910 
2591.000000	93.485342 
2590.000000	93.484428 
2589.000000	93.482722 
2588.000000	93.480781 
2587.000000	93.479365 
2586.000000	93.478515 
2585.000000	93.477793 
2584.000000	93.477115 
2583.000000	93.476958 
2582.000000	93.477889 
2581.000000	93.480049 
2580.000000	93.482826 
2579.000000	93.484996 
2578.000000	93.485604 
2577.000000	93.484757 
2576.000000	93.483308 
2575.000000	93.481864 
2574.000000	93.480545 
2573.000000	93.479618 
2572.000000	93.479623 
2571.000000	93.480649 
2570.000000	93.481990 
2569.000000	93.482737 
2568.000000	93.482230 
2567.000000	93.479993 
2566.000000	93.476096 
2565.000000	93.471832 
2564.000000	93.469092 
2563.000000	93.468645 
2562.000000	93.469752 
2561.000000	93.471621 
2560.000000	93.474477 
2559.000000	93.478594 
2558.000000	93.483172 
2557.000000	93.486948 
2556.000000	93.489407 
2555.000000	93.490823 
2554.000000	93.491644 
2553.000000	93.492277 
2552.000000	93.492845 
2551.000000	93.492730 
2550.000000	93.491126 
2549.000000	93.488496 
2548.000000	93.486695 
2547.000000	93.486878 
2546.000000	93.488051 
2545.000000	93.488524 
2544.000000	93.488229 
2543.000000	93.488493 
2542.000000	93.489825 
2541.000000	93.491179 
2540.000000	93.491512 
2539.000000	93.491011 
2538.000000	93.490355 
2537.000000	93.489607 
2536.000000	93.488522 
2535.000000	93.487499 
2534.000000	93.487438 
2533.000000	93.488632 
2532.000000	93.490344 
2531.000000	93.491684 
2530.000000	93.492740 
2529.000000	93.494500 
2528.000000	93.497602 
2527.000000	93.501471 
2526.000000	93.504823 
2525.000000	93.506809 
2524.000000	93.507426 
2523.000000	93.507107 
2522.000000	93.506376 
2521.000000	93.505788 
2520.000000	93.505686 
2519.000000	93.505830 
2518.000000	93.505651 
2517.000000	93.505082 
2516.000000	93.504882 
2515.000000	93.505910 
2514.000000	93.508249 
2513.000000	93.511028 
2512.000000	93.513005 
2511.000000	93.513432 
2510.000000	93.512642 
2509.000000	93.511856 
2508.000000	93.512081 
2507.000000	93.513206 
2506.000000	93.514498 
2505.000000	93.515723 
2504.000000	93.517155 
2503.000000	93.518589 
2502.000000	93.519181 
2501.000000	93.518441 
2500.000000	93.516710 
2499.000000	93.514567 
2498.000000	93.512550 
2497.000000	93.511520 
2496.000000	93.512266 
2495.000000	93.514330 
2494.000000	93.516092 
2493.000000	93.516731 
2492.000000	93.517243 
2491.000000	93.518753 
2490.000000	93.520595 
2489.000000	93.521117 
2488.000000	93.519804 
2487.000000	93.517405 
2486.000000	93.514363 
2485.000000	93.510361 
2484.000000	93.505552 
2483.000000	93.501216 
2482.000000	93.498812 
2481.000000	93.498983 
2480.000000	93.501628 
2479.000000	93.506216 
2478.000000	93.511673 
2477.000000	93.516448 
2476.000000	93.519214 
2475.000000	93.519527 
2474.000000	93.517929 
2473.000000	93.515609 
2472.000000	93.513637 
2471.000000	93.512215 
2470.000000	93.510821 
2469.000000	93.509250 
2468.000000	93.508129 
2467.000000	93.508126 
2466.000000	93.509133 
2465.000000	93.510678 
2464.000000	93.512728 
2463.000000	93.515406 
2462.000000	93.518184 
2461.000000	93.520115 
2460.000000	93.520815 
2459.000000	93.520582 
2458.000000	93.519622 
2457.000000	93.517791 
2456.000000	93.515144 
2455.000000	93.512232 
2454.000000	93.509787 
2453.000000	93.508426 
2452.000000	93.508482 
2451.000000	93.509733 
2450.000000	93.511340 
2449.000000	93.512575 
2448.000000	93.513681 
2447.000000	93.515550 
2446.000000	93.518492 
2445.000000	93.521628 
2444.000000	93.523615 
2443.000000	93.523732 
2442.000000	93.522216 
2441.000000	93.519965 
2440.000000	93.517993 
2439.000000	93.516911 
2438.000000	93.516739 
2437.000000	93.517099 
2436.000000	93.517546 
2435.000000	93.517765 
2434.000000	93.517631 
2433.000000	93.517233 
2432.000000	93.516777 
2431.000000	93.516376 
2430.000000	93.516017 
2429.000000	93.515754 
2428.000000	93.515769 
2427.000000	93.516129 
2426.000000	93.516595 
2425.000000	93.516777 
2424.000000	93.516374 
2423.000000	93.515232 
2422.000000	93.513389 
2421.000000	93.511266 
2420.000000	93.509645 
2419.000000	93.509211 
2418.000000	93.510132 
2417.000000	93.512055 
2416.000000	93.514180 
2415.000000	93.515555 
2414.000000	93.515596 
2413.000000	93.514548 
2412.000000	93.513454 
2411.000000	93.513135 
2410.000000	93.513442 
2409.000000	93.513632 
2408.000000	93.513186 
2407.000000	93.512050 
2406.000000	93.510406 
2405.000000	93.508549 
2404.000000	93.506859 
2403.000000	93.505606 
2402.000000	93.504766 
2401.000000	93.504139 
2400.000000	93.503569 
2399.000000	93.503013 
2398.000000	93.502510 
2397.000000	93.502126 
2396.000000	93.501797 
2395.000000	93.501224 
2394.000000	93.500007 
2393.000000	93.498256 
2392.000000	93.496501 
2391.000000	93.494904 
2390.000000	93.493299 
2389.000000	93.491716 
2388.000000	93.490353 
2387.000000	93.489202 
2386.000000	93.488006 
2385.000000	93.486589 
2384.000000	93.484997 
2383.000000	93.483347 
2382.000000	93.481703 
2381.000000	93.480114 
2380.000000	93.478617 
2379.000000	93.477156 
2378.000000	93.475623 
2377.000000	93.473970 
2376.000000	93.472200 
2375.000000	93.470274 
2374.000000	93.468141 
2373.000000	93.465862 
2372.000000	93.463599 
2371.000000	93.461456 
2370.000000	93.459404 
2369.000000	93.457363 
2368.000000	93.455265 
2367.000000	93.453072 
2366.000000	93.450777 
2365.000000	93.448413 
2364.000000	93.446033 
2363.000000	93.443643 
2362.000000	93.441183 
2361.000000	93.438637 
2360.000000	93.436044 
2359.000000	93.433441 
2358.000000	93.430888 
2357.000000	93.428527 
2356.000000	93.426471 
2355.000000	93.424672 
2354.000000	93.423182 
2353.000000	93.421911 
2352.000000	93.420365 
2351.000000	93.418145 
2350.000000	93.415214 
2349.000000	93.411967 
2348.000000	93.408959 
2347.000000	93.406703 
2346.000000	93.405333 
2345.000000	93.404138 
2344.000000	93.402350 
2343.000000	93.400043 
2342.000000	93.398103 
2341.000000	93.396800 
2340.000000	93.395634 
2339.000000	93.394170 
2338.000000	93.392796 
2337.000000	93.391985 
2336.000000	93.391185 
2335.000000	93.389624 
2334.000000	93.388202 
2333.000000	93.388362 
2332.000000	93.389562 
2331.000000	93.390038 
2330.000000	93.388816 
2329.000000	93.386768 
2328.000000	93.383396 
2327.000000	93.378552 
2326.000000	93.373889 
2325.000000	93.371533 
2324.000000	93.372470 
2323.000000	93.375043 
2322.000000	93.378337 
2321.000000	93.380887 
2320.000000	93.381857 
2319.000000	93.381539 
2318.000000	93.381695 
2317.000000	93.384007 
2316.000000	93.387982 
2315.000000	93.392692 
2314.000000	93.397264 
2313.000000	93.401685 
2312.000000	93.405314 
2311.000000	93.408283 
2310.000000	93.411081 
2309.000000	93.413705 
2308.000000	93.415814 
2307.000000	93.418341 
2306.000000	93.423264 
2305.000000	93.429968 
2304.000000	93.435571 
2303.000000	93.438393 
2302.000000	93.440154 
2301.000000	93.442974 
2300.000000	93.447045 
2299.000000	93.451826 
2298.000000	93.456579 
2297.000000	93.460761 
2296.000000	93.463319 
2295.000000	93.464659 
2294.000000	93.466543 
2293.000000	93.470596 
2292.000000	93.476544 
2291.000000	93.482697 
2290.000000	93.487516 
2289.000000	93.490086 
2288.000000	93.490887 
2287.000000	93.491572 
2286.000000	93.493629 
2285.000000	93.496042 
2284.000000	93.496600 
2283.000000	93.494750 
2282.000000	93.492729 
2281.000000	93.493022 
2280.000000	93.496215 
2279.000000	93.501481 
2278.000000	93.508123 
2277.000000	93.515580 
2276.000000	93.522284 
2275.000000	93.526005 
2274.000000	93.525571 
2273.000000	93.522172 
2272.000000	93.518568 
2271.000000	93.516996 
2270.000000	93.517669 
2269.000000	93.519189 
2268.000000	93.520012 
2267.000000	93.519614 
2266.000000	93.518416 
2265.000000	93.517167 
2264.000000	93.516586 
2263.000000	93.517331 
2262.000000	93.519600 
2261.000000	93.522612 
2260.000000	93.525051 
2259.000000	93.526050 
2258.000000	93.525772 
2257.000000	93.524867 
2256.000000	93.524043 
2255.000000	93.523925 
2254.000000	93.524768 
2253.000000	93.526135 
2252.000000	93.527245 
2251.000000	93.528033 
2250.000000	93.529258 
2249.000000	93.531429 
2248.000000	93.533977 
2247.000000	93.535873 
2246.000000	93.536646 
2245.000000	93.536507 
2244.000000	93.535784 
2243.000000	93.534664 
2242.000000	93.533339 
2241.000000	93.531981 
2240.000000	93.530698 
2239.000000	93.529743 
2238.000000	93.529642 
2237.000000	93.530694 
2236.000000	93.532426 
2235.000000	93.533841 
2234.000000	93.534265 
2233.000000	93.533766 
2232.000000	93.532939 
2231.000000	93.532485 
2230.000000	93.532806 
2229.000000	93.533706 
2228.000000	93.534501 
2227.000000	93.534686 
2226.000000	93.534585 
2225.000000	93.535105 
2224.000000	93.536731 
2223.000000	93.538828 
2222.000000	93.540009 
2221.000000	93.539272 
2220.000000	93.536803 
2219.000000	93.533794 
2218.000000	93.531385 
2217.000000	93.529864 
2216.000000	93.528864 
2215.000000	93.528008 
2214.000000	93.527191 
2213.000000	93.526597 
2212.000000	93.526853 
2211.000000	93.528830 
2210.000000	93.532661 
2209.000000	93.537063 
2208.000000	93.540367 
2207.000000	93.542296 
2206.000000	93.543943 
2205.000000	93.545919 
2204.000000	93.547331 
2203.000000	93.547099 
2202.000000	93.545539 
2201.000000	93.544007 
2200.000000	93.543416 
2199.000000	93.543602 
2198.000000	93.543909 
2197.000000	93.543853 
2196.000000	93.543366 
2195.000000	93.542789 
2194.000000	93.542672 
2193.000000	93.543304 
2192.000000	93.544455 
2191.000000	93.545656 
2190.000000	93.546596 
2189.000000	93.547131 
2188.000000	93.547105 
2187.000000	93.546431 
2186.000000	93.545311 
2185.000000	93.544227 
2184.000000	93.543653 
2183.000000	93.543765 
2182.000000	93.544301 
2181.000000	93.544687 
2180.000000	93.544486 
2179.000000	93.543755 
2178.000000	93.542951 
2177.000000	93.542434 
2176.000000	93.542244 
2175.000000	93.542308 
2174.000000	93.542575 
2173.000000	93.542954 
2172.000000	93.543309 
2171.000000	93.543558 
2170.000000	93.543698 
2169.000000	93.543712 
2168.000000	93.543538 
2167.000000	93.543163 
2166.000000	93.542704 
2165.000000	93.542352 
2164.000000	93.542204 
2163.000000	93.542198 
2162.000000	93.542169 
2161.000000	93.541972 
2160.000000	93.541577 
2159.000000	93.541073 
2158.000000	93.540593 
2157.000000	93.540207 
2156.000000	93.539884 
2155.000000	93.539565 
2154.000000	93.539230 
2153.000000	93.538890 
2152.000000	93.538526 
2151.000000	93.538080 
2150.000000	93.537543 
2149.000000	93.537008 
2148.000000	93.536597 
2147.000000	93.536350 
2146.000000	93.536203 
2145.000000	93.536077 
2144.000000	93.535966 
2143.000000	93.535940 
2142.000000	93.536047 
2141.000000	93.536196 
2140.000000	93.536148 
2139.000000	93.535735 
2138.000000	93.535042 
2137.000000	93.534443 
2136.000000	93.534267 
2135.000000	93.534527 
2134.000000	93.534906 
2133.000000	93.535034 
2132.000000	93.534814 
2131.000000	93.534385 
2130.000000	93.533886 
2129.000000	93.533324 
2128.000000	93.532667 
2127.000000	93.531975 
2126.000000	93.531437 
2125.000000	93.531291 
2124.000000	93.531627 
2123.000000	93.532194 
2122.000000	93.532531 
2121.000000	93.532429 
2120.000000	93.532174 
2119.000000	93.532218 
2118.000000	93.532680 
2117.000000	93.533324 
2116.000000	93.533881 
2115.000000	93.534182 
2114.000000	93.534079 
2113.000000	93.533613 
2112.000000	93.533228 
2111.000000	93.533452 
2110.000000	93.534262 
2109.000000	93.535044 
2108.000000	93.535319 
2107.000000	93.535281 
2106.000000	93.535511 
2105.000000	93.536381 
2104.000000	93.537861 
2103.000000	93.539633 
2102.000000	93.541292 
2101.000000	93.542592 
2100.000000	93.543539 
2099.000000	93.544148 
2098.000000	93.544310 
2097.000000	93.544227 
2096.000000	93.544693 
2095.000000	93.546254 
2094.000000	93.548250 
2093.000000	93.549455 
2092.000000	93.549635 
2091.000000	93.549612 
2090.000000	93.549927 
2089.000000	93.550494 
2088.000000	93.551544 
2087.000000	93.553711 
2086.000000	93.556727 
2085.000000	93.559068 
2084.000000	93.559657 
2083.000000	93.559028 
2082.000000	93.558366 
2081.000000	93.557935 
2080.000000	93.557244 
2079.000000	93.556278 
2078.000000	93.555603 
2077.000000	93.555509 
2076.000000	93.555799 
2075.000000	93.556250 
2074.000000	93.556722 
2073.000000	93.556969 
2072.000000	93.556831 
2071.000000	93.556546 
2070.000000	93.556454 
2069.000000	93.556576 
2068.000000	93.556841 
2067.000000	93.557466 
2066.000000	93.558650 
2065.000000	93.560035 
2064.000000	93.560926 
2063.000000	93.561095 
2062.000000	93.560965 
2061.000000	93.561082 
2060.000000	93.561653 
2059.000000	93.562446 
2058.000000	93.562832 
2057.000000	93.562063 
2056.000000	93.559890 
2055.000000	93.557012 
2054.000000	93.554739 
2053.000000	93.553939 
2052.000000	93.554544 
2051.000000	93.555795 
2050.000000	93.556804 
2049.000000	93.557149 
2048.000000	93.557098 
2047.000000	93.557233 
2046.000000	93.557739 
2045.000000	93.558241 
2044.000000	93.558481 
2043.000000	93.558772 
2042.000000	93.559363 
2041.000000	93.559700 
2040.000000	93.558991 
2039.000000	93.557285 
2038.000000	93.555481 
2037.000000	93.554263 
2036.000000	93.553461 
2035.000000	93.552567 
2034.000000	93.551426 
2033.000000	93.550262 
2032.000000	93.549394 
2031.000000	93.549116 
2030.000000	93.549576 
2029.000000	93.550559 
2028.000000	93.551554 
2027.000000	93.552114 
2026.000000	93.551990 
2025.000000	93.551028 
2024.000000	93.549321 
2023.000000	93.547505 
2022.000000	93.546400 
2021.000000	93.546148 
2020.000000	93.546054 
2019.000000	93.545406 
2018.000000	93.544255 
2017.000000	93.543206 
2016.000000	93.542648 
2015.000000	93.542432 
2014.000000	93.542164 
2013.000000	93.541505 
2012.000000	93.540289 
2011.000000	93.538684 
2010.000000	93.537247 
2009.000000	93.536478 
2008.000000	93.536302 
2007.000000	93.536190 
2006.000000	93.535823 
2005.000000	93.535452 
2004.000000	93.535490 
2003.000000	93.535916 
2002.000000	93.536185 
2001.000000	93.535699 
2000.000000	93.534383 
1999.000000	93.532811 
1998.000000	93.531686 
1997.000000	93.531195 
1996.000000	93.531122 
1995.000000	93.531499 
1994.000000	93.532663 
1993.000000	93.534462 
1992.000000	93.535912 
1991.000000	93.536181 
1990.000000	93.535596 
1989.000000	93.535163 
1988.000000	93.535264 
1987.000000	93.535327 
1986.000000	93.534808 
1985.000000	93.534035 
1984.000000	93.533827 
1983.000000	93.534533 
1982.000000	93.535623 
1981.000000	93.536110 
1980.000000	93.535429 
1979.000000	93.534042 
1978.000000	93.533168 
1977.000000	93.533642 
1976.000000	93.535245 
1975.000000	93.537159 
1974.000000	93.538989 
1973.000000	93.540957 
1972.000000	93.543168 
1971.000000	93.545263 
1970.000000	93.546933 
1969.000000	93.548327 
1968.000000	93.549569 
1967.000000	93.550177 
1966.000000	93.549575 
1965.000000	93.548061 
1964.000000	93.546687 
1963.000000	93.546123 
1962.000000	93.546107 
1961.000000	93.546155 
1960.000000	93.546449 
1959.000000	93.547611 
1958.000000	93.549842 
1957.000000	93.552696 
1956.000000	93.555561 
1955.000000	93.557907 
1954.000000	93.559188 
1953.000000	93.559091 
1952.000000	93.557959 
1951.000000	93.556705 
1950.000000	93.556171 
1949.000000	93.556700 
1948.000000	93.558188 
1947.000000	93.560196 
1946.000000	93.562014 
1945.000000	93.562981 
1944.000000	93.562951 
1943.000000	93.562237 
1942.000000	93.561110 
1941.000000	93.559713 
1940.000000	93.558553 
1939.000000	93.558388 
1938.000000	93.559282 
1937.000000	93.560236 
1936.000000	93.560250 
1935.000000	93.559344 
1934.000000	93.558154 
1933.000000	93.556946 
1932.000000	93.555517 
1931.000000	93.553905 
1930.000000	93.552606 
1929.000000	93.552064 
1928.000000	93.552182 
1927.000000	93.552589 
1926.000000	93.553088 
1925.000000	93.553532 
1924.000000	93.553556 
1923.000000	93.552644 
1922.000000	93.550744 
1921.000000	93.548533 
1920.000000	93.546942 
1919.000000	93.546513 
1918.000000	93.547035 
1917.000000	93.547841 
1916.000000	93.548571 
1915.000000	93.549299 
1914.000000	93.549767 
1913.000000	93.549208 
1912.000000	93.547553 
1911.000000	93.546152 
1910.000000	93.546186 
1909.000000	93.546745 
1908.000000	93.545751 
1907.000000	93.542600 
1906.000000	93.538465 
1905.000000	93.534106 
1904.000000	93.529210 
1903.000000	93.524128 
1902.000000	93.520635 
1901.000000	93.519918 
1900.000000	93.520783 
1899.000000	93.520915 
1898.000000	93.519392 
1897.000000	93.517180 
1896.000000	93.515567 
1895.000000	93.514597 
1894.000000	93.513003 
1893.000000	93.509399 
1892.000000	93.503771 
1891.000000	93.498030 
1890.000000	93.494575 
1889.000000	93.493856 
1888.000000	93.493920 
1887.000000	93.493088 
1886.000000	93.491828 
1885.000000	93.491456 
1884.000000	93.492412 
1883.000000	93.494341 
1882.000000	93.496783 
1881.000000	93.498951 
1880.000000	93.499586 
1879.000000	93.497777 
1878.000000	93.493666 
1877.000000	93.488290 
1876.000000	93.483138 
1875.000000	93.479722 
1874.000000	93.478895 
1873.000000	93.480322 
1872.000000	93.482927 
1871.000000	93.485991 
1870.000000	93.489460 
1869.000000	93.493316 
1868.000000	93.497152 
1867.000000	93.500522 
1866.000000	93.502863 
1865.000000	93.502947 
1864.000000	93.500033 
1863.000000	93.495895 
1862.000000	93.494183 
1861.000000	93.496818 
1860.000000	93.501982 
1859.000000	93.506507 
1858.000000	93.509351 
1857.000000	93.511414 
1856.000000	93.513301 
1855.000000	93.515215 
1854.000000	93.518017 
1853.000000	93.522618 
1852.000000	93.528276 
1851.000000	93.532457 
1850.000000	93.532722 
1849.000000	93.528622 
1848.000000	93.522650 
1847.000000	93.518746 
1846.000000	93.518892 
1845.000000	93.521177 
1844.000000	93.522007 
1843.000000	93.520708 
1842.000000	93.519408 
1841.000000	93.519566 
1840.000000	93.521666 
1839.000000	93.526274 
1838.000000	93.532874 
1837.000000	93.538458 
1836.000000	93.540127 
1835.000000	93.539059 
1834.000000	93.539056 
1833.000000	93.541519 
1832.000000	93.544518 
1831.000000	93.546145 
1830.000000	93.546029 
1829.000000	93.543444 
1828.000000	93.537663 
1827.000000	93.531397 
1826.000000	93.530586 
1825.000000	93.537831 
1824.000000	93.547434 
1823.000000	93.551017 
1822.000000	93.546196 
1821.000000	93.536285 
1820.000000	93.525093 
1819.000000	93.514724 
1818.000000	93.506656 
1817.000000	93.501849 
1816.000000	93.499195 
1815.000000	93.496045 
1814.000000	93.490908 
1813.000000	93.484034 
1812.000000	93.475929 
1811.000000	93.467345 
1810.000000	93.460292 
1809.000000	93.455827 
1808.000000	93.450728 
1807.000000	93.440902 
1806.000000	93.427595 
1805.000000	93.415927 
1804.000000	93.408152 
1803.000000	93.401472 
1802.000000	93.392511 
1801.000000	93.381275 
1800.000000	93.369635 
1799.000000	93.358613 
1798.000000	93.348389 
1797.000000	93.338274 
1796.000000	93.326528 
1795.000000	93.313013 
1794.000000	93.300918 
1793.000000	93.293505 
1792.000000	93.288289 
1791.000000	93.278783 
1790.000000	93.263186 
1789.000000	93.244392 
1788.000000	93.224055 
1787.000000	93.203023 
1786.000000	93.185008 
1785.000000	93.174226 
1784.000000	93.169059 
1783.000000	93.162939 
1782.000000	93.151559 
1781.000000	93.135018 
1780.000000	93.114614 
1779.000000	93.090964 
1778.000000	93.063309 
1777.000000	93.029803 
1776.000000	92.988958 
1775.000000	92.942805 
1774.000000	92.897250 
1773.000000	92.855577 
1772.000000	92.813233 
1771.000000	92.762657 
1770.000000	92.702827 
1769.000000	92.639765 
1768.000000	92.579053 
1767.000000	92.520431 
1766.000000	92.460077 
1765.000000	92.395849 
1764.000000	92.328009 
1763.000000	92.256734 
1762.000000	92.182772 
1761.000000	92.110410 
1760.000000	92.044588 
1759.000000	91.984740 
1758.000000	91.923648 
1757.000000	91.852223 
1756.000000	91.768472 
1755.000000	91.679781 
1754.000000	91.594166 
1753.000000	91.515201 
1752.000000	91.444438 
1751.000000	91.382952 
1750.000000	91.328706 
1749.000000	91.276504 
1748.000000	91.223070 
1747.000000	91.168228 
1746.000000	91.113085 
1745.000000	91.060029 
1744.000000	91.012418 
1743.000000	90.971439 
1742.000000	90.934539 
1741.000000	90.899695 
1740.000000	90.869996 
1739.000000	90.851567 
1738.000000	90.847679 
1737.000000	90.864590 
1736.000000	90.918192 
1735.000000	91.027901 
1734.000000	91.178343 
1733.000000	91.306390 
1732.000000	91.375209 
1731.000000	91.401297 
1730.000000	91.408802 
1729.000000	91.411561 
1728.000000	91.416627 
1727.000000	91.427226 
1726.000000	91.446545 
1725.000000	91.478444 
1724.000000	91.523199 
1723.000000	91.573522 
1722.000000	91.621052 
1721.000000	91.666277 
1720.000000	91.717754 
1719.000000	91.782623 
1718.000000	91.859191 
1717.000000	91.940337 
1716.000000	92.021552 
1715.000000	92.103875 
1714.000000	92.190371 
1713.000000	92.278714 
1712.000000	92.362093 
1711.000000	92.437121 
1710.000000	92.506369 
1709.000000	92.575188 
1708.000000	92.647933 
1707.000000	92.725849 
1706.000000	92.804850 
1705.000000	92.874615 
1704.000000	92.926557 
1703.000000	92.965044 
1702.000000	93.003928 
1701.000000	93.055345 
1700.000000	93.111400 
1699.000000	93.149013 
1698.000000	93.167273 
1697.000000	93.185555 
1696.000000	93.212162 
1695.000000	93.235655 
1694.000000	93.246389 
1693.000000	93.250664 
1692.000000	93.257785 
1691.000000	93.269265 
1690.000000	93.280814 
1689.000000	93.289552 
1688.000000	93.296280 
1687.000000	93.301221 
1686.000000	93.302501 
1685.000000	93.298593 
1684.000000	93.292605 
1683.000000	93.287291 
1682.000000	93.280406 
1681.000000	93.274012 
1680.000000	93.274871 
1679.000000	93.283182 
1678.000000	93.292896 
1677.000000	93.297714 
1676.000000	93.296906 
1675.000000	93.294419 
1674.000000	93.292957 
1673.000000	93.291800 
1672.000000	93.291513 
1671.000000	93.293770 
1670.000000	93.298511 
1669.000000	93.303739 
1668.000000	93.306615 
1667.000000	93.305254 
1666.000000	93.299400 
1665.000000	93.290558 
1664.000000	93.280985 
1663.000000	93.272132 
1662.000000	93.264191 
1661.000000	93.256889 
1660.000000	93.251554 
1659.000000	93.250132 
1658.000000	93.252044 
1657.000000	93.253673 
1656.000000	93.253280 
1655.000000	93.251937 
1654.000000	93.250896 
1653.000000	93.252387 
1652.000000	93.254845 
1651.000000	93.250998 
1650.000000	93.242101 
1649.000000	93.234472 
1648.000000	93.226850 
1647.000000	93.217208 
1646.000000	93.207835 
1645.000000	93.203842 
1644.000000	93.205623 
1643.000000	93.210882 
1642.000000	93.215749 
1641.000000	93.217089 
1640.000000	93.214592 
1639.000000	93.211104 
1638.000000	93.210003 
1637.000000	93.212257 
1636.000000	93.216412 
1635.000000	93.220922 
1634.000000	93.223658 
1633.000000	93.223120 
1632.000000	93.221140 
1631.000000	93.220359 
1630.000000	93.222478 
1629.000000	93.227167 
1628.000000	93.232053 
1627.000000	93.235032 
1626.000000	93.236333 
1625.000000	93.237692 
1624.000000	93.240013 
1623.000000	93.242601 
1622.000000	93.244095 
1621.000000	93.243961 
1620.000000	93.243616 
1619.000000	93.245376 
1618.000000	93.250557 
1617.000000	93.258554 
1616.000000	93.266982 
1615.000000	93.273633 
1614.000000	93.277658 
1613.000000	93.279275 
1612.000000	93.279353 
1611.000000	93.279768 
1610.000000	93.282684 
1609.000000	93.288343 
1608.000000	93.295077 
1607.000000	93.301643 
1606.000000	93.307869 
1605.000000	93.313560 
1604.000000	93.318184 
1603.000000	93.321573 
1602.000000	93.324228 
1601.000000	93.327116 
1600.000000	93.331314 
1599.000000	93.337378 
1598.000000	93.344788 
1597.000000	93.352406 
1596.000000	93.359252 
1595.000000	93.364570 
1594.000000	93.367775 
1593.000000	93.369151 
1592.000000	93.370384 
1591.000000	93.373473 
1590.000000	93.378769 
1589.000000	93.384721 
1588.000000	93.389808 
1587.000000	93.394005 
1586.000000	93.397858 
1585.000000	93.401287 
1584.000000	93.404150 
1583.000000	93.407147 
1582.000000	93.411069 
1581.000000	93.415595 
1580.000000	93.420113 
1579.000000	93.424798 
1578.000000	93.429673 
1577.000000	93.433152 
1576.000000	93.434395 
1575.000000	93.436132 
1574.000000	93.440215 
1573.000000	93.445332 
1572.000000	93.450141 
1571.000000	93.454137 
1570.000000	93.457551 
1569.000000	93.460442 
1568.000000	93.462691 
1567.000000	93.465064 
1566.000000	93.468844 
1565.000000	93.474225 
1564.000000	93.480734 
1563.000000	93.488102 
1562.000000	93.496106 
1561.000000	93.503441 
1560.000000	93.506600 
1559.000000	93.506563 
1558.000000	93.508955 
1557.000000	93.509089 
1556.000000	93.503429 
1555.000000	93.497560 
1554.000000	93.494504 
1553.000000	93.494810 
1552.000000	93.496868 
1551.000000	93.500414 
1550.000000	93.505030 
1549.000000	93.509694 
1548.000000	93.513653 
1547.000000	93.516959 
1546.000000	93.519566 
1545.000000	93.520984 
1544.000000	93.521390 
1543.000000	93.521714 
1542.000000	93.521916 
1541.000000	93.520800 
1540.000000	93.518992 
1539.000000	93.519183 
1538.000000	93.520611 
1537.000000	93.520610 
1536.000000	93.519504 
1535.000000	93.518656 
1534.000000	93.519429 
1533.000000	93.522292 
1532.000000	93.525840 
1531.000000	93.528142 
1530.000000	93.529056 
1529.000000	93.529308 
1528.000000	93.529372 
1527.000000	93.529428 
1526.000000	93.529140 
1525.000000	93.527869 
1524.000000	93.525473 
1523.000000	93.522845 
1522.000000	93.521558 
1521.000000	93.522597 
1520.000000	93.525058 
1519.000000	93.528026 
1518.000000	93.532228 
1517.000000	93.537013 
1516.000000	93.539544 
1515.000000	93.538861 
1514.000000	93.537274 
1513.000000	93.537477 
1512.000000	93.539696 
1511.000000	93.542137 
1510.000000	93.543573 
1509.000000	93.544436 
1508.000000	93.544597 
1507.000000	93.543259 
1506.000000	93.544678 
1505.000000	93.551204 
1504.000000	93.557546 
1503.000000	93.560970 
1502.000000	93.560800 
1501.000000	93.556989 
1500.000000	93.551381 
1499.000000	93.547551 
1498.000000	93.548147 
1497.000000	93.553743 
1496.000000	93.561990 
1495.000000	93.567500 
1494.000000	93.567238 
1493.000000	93.563131 
1492.000000	93.558683 
1491.000000	93.556282 
1490.000000	93.556337 
1489.000000	93.558088 
1488.000000	93.559940 
1487.000000	93.560771 
1486.000000	93.561809 
1485.000000	93.563761 
1484.000000	93.565097 
1483.000000	93.564597 
1482.000000	93.562798 
1481.000000	93.560399 
1480.000000	93.556053 
1479.000000	93.547131 
1478.000000	93.533237 
1477.000000	93.518235 
1476.000000	93.507638 
1475.000000	93.503201 
1474.000000	93.501801 
1473.000000	93.499401 
1472.000000	93.495398 
1471.000000	93.491614 
1470.000000	93.488910 
1469.000000	93.486758 
1468.000000	93.483471 
1467.000000	93.477082 
1466.000000	93.467632 
1465.000000	93.458143 
1464.000000	93.450948 
1463.000000	93.444227 
1462.000000	93.435119 
1461.000000	93.423257 
1460.000000	93.409137 
1459.000000	93.391869 
1458.000000	93.368335 
1457.000000	93.340970 
1456.000000	93.321334 
1455.000000	93.313351 
1454.000000	93.311535 
1453.000000	93.311123 
1452.000000	93.307091 
1451.000000	93.296159 
1450.000000	93.279855 
1449.000000	93.264393 
1448.000000	93.255310 
1447.000000	93.251737 
1446.000000	93.247966 
1445.000000	93.240401 
1444.000000	93.229397 
1443.000000	93.217127 
1442.000000	93.205727 
1441.000000	93.196767 
1440.000000	93.191098 
1439.000000	93.187705 
1438.000000	93.182557 
1437.000000	93.172036 
1436.000000	93.159820 
1435.000000	93.152696 
1434.000000	93.152365 
1433.000000	93.157176 
1432.000000	93.163083 
1431.000000	93.164636 
1430.000000	93.159361 
1429.000000	93.150295 
1428.000000	93.142910 
1427.000000	93.140251 
1426.000000	93.142864 
1425.000000	93.150016 
1424.000000	93.159735 
1423.000000	93.169227 
1422.000000	93.177015 
1421.000000	93.184931 
1420.000000	93.196727 
1419.000000	93.213294 
1418.000000	93.230093 
1417.000000	93.244573 
1416.000000	93.259945 
1415.000000	93.278645 
1414.000000	93.298867 
1413.000000	93.317128 
1412.000000	93.331264 
1411.000000	93.341838 
1410.000000	93.351902 
1409.000000	93.365449 
1408.000000	93.383285 
1407.000000	93.401001 
1406.000000	93.413136 
1405.000000	93.418168 
1404.000000	93.419077 
1403.000000	93.419299 
1402.000000	93.419351 
1401.000000	93.417047 
1400.000000	93.408588 
1399.000000	93.393375 
1398.000000	93.378698 
1397.000000	93.374436 
1396.000000	93.381852 
1395.000000	93.388309 
1394.000000	93.376453 
1393.000000	93.342136 
1392.000000	93.297033 
1391.000000	93.253316 
1390.000000	93.212435 
1389.000000	93.165987 
1388.000000	93.104879 
1387.000000	93.030253 
1386.000000	92.952090 
1385.000000	92.875565 
1384.000000	92.797427 
1383.000000	92.715480 
1382.000000	92.633959 
1381.000000	92.559233 
1380.000000	92.494533 
1379.000000	92.440448 
1378.000000	92.395583 
1377.000000	92.355298 
1376.000000	92.314749 
1375.000000	92.274752 
1374.000000	92.240426 
1373.000000	92.212946 
1372.000000	92.189634 
1371.000000	92.172021 
1370.000000	92.163066 
1369.000000	92.154234 
1368.000000	92.127757 
1367.000000	92.081375 
1366.000000	92.041468 
1365.000000	92.041343 
1364.000000	92.090545 
1363.000000	92.166974 
1362.000000	92.240990 
1361.000000	92.303591 
1360.000000	92.358863 
1359.000000	92.401672 
1358.000000	92.420385 
1357.000000	92.415003 
1356.000000	92.401001 
1355.000000	92.394885 
1354.000000	92.402858 
1353.000000	92.423904 
1352.000000	92.455556 
1351.000000	92.494288 
1350.000000	92.536619 
1349.000000	92.582812 
1348.000000	92.636767 
1347.000000	92.700228 
1346.000000	92.769670 
1345.000000	92.840058 
1344.000000	92.908646 
1343.000000	92.974142 
1342.000000	93.035167 
1341.000000	93.090657 
1340.000000	93.139765 
1339.000000	93.181453 
1338.000000	93.216652 
1337.000000	93.250143 
1336.000000	93.286718 
1335.000000	93.325510 
1334.000000	93.361361 
1333.000000	93.391840 
1332.000000	93.419563 
1331.000000	93.447041 
1330.000000	93.472385 
1329.000000	93.491509 
1328.000000	93.502434 
1327.000000	93.506687 
1326.000000	93.508380 
1325.000000	93.512372 
1324.000000	93.521649 
1323.000000	93.534872 
1322.000000	93.547304 
1321.000000	93.555063 
1320.000000	93.557167 
1319.000000	93.554303 
1318.000000	93.548783 
1317.000000	93.544896 
1316.000000	93.546002 
1315.000000	93.551029 
1314.000000	93.556086 
1313.000000	93.559394 
1312.000000	93.562049 
1311.000000	93.564293 
1310.000000	93.564646 
1309.000000	93.563203 
1308.000000	93.562015 
1307.000000	93.561481 
1306.000000	93.560017 
1305.000000	93.558218 
1304.000000	93.559640 
1303.000000	93.565324 
1302.000000	93.570985 
1301.000000	93.572299 
1300.000000	93.570199 
1299.000000	93.568309 
1298.000000	93.567561 
1297.000000	93.566054 
1296.000000	93.562510 
1295.000000	93.557411 
1294.000000	93.552004 
1293.000000	93.548211 
1292.000000	93.548028 
1291.000000	93.550870 
1290.000000	93.552805 
1289.000000	93.550376 
1288.000000	93.544023 
1287.000000	93.536295 
1286.000000	93.528602 
1285.000000	93.521627 
1284.000000	93.516716 
1283.000000	93.513987 
1282.000000	93.510680 
1281.000000	93.504583 
1280.000000	93.498406 
1279.000000	93.498145 
1278.000000	93.506900 
1277.000000	93.521893 
1276.000000	93.537058 
1275.000000	93.547282 
1274.000000	93.551132 
1273.000000	93.551009 
1272.000000	93.550060 
1271.000000	93.548432 
1270.000000	93.544355 
1269.000000	93.539545 
1268.000000	93.540228 
1267.000000	93.550204 
1266.000000	93.565173 
1265.000000	93.576911 
1264.000000	93.581196 
1263.000000	93.579129 
1262.000000	93.572717 
1261.000000	93.563044 
1260.000000	93.552691 
1259.000000	93.545348 
1258.000000	93.541367 
1257.000000	93.537155 
1256.000000	93.529779 
1255.000000	93.519400 
1254.000000	93.506756 
1253.000000	93.490846 
1252.000000	93.470364 
1251.000000	93.445807 
1250.000000	93.418895 
1249.000000	93.390286 
1248.000000	93.358233 
1247.000000	93.319661 
1246.000000	93.273432 
1245.000000	93.222551 
1244.000000	93.170729 
1243.000000	93.115454 
1242.000000	93.047479 
1241.000000	92.960173 
1240.000000	92.857246 
1239.000000	92.747943 
1238.000000	92.636490 
1237.000000	92.520779 
1236.000000	92.400628 
1235.000000	92.281730 
1234.000000	92.170133 
1233.000000	92.067401 
1232.000000	91.973427 
1231.000000	91.890541 
1230.000000	91.822781 
1229.000000	91.773257 
1228.000000	91.742683 
1227.000000	91.727927 
1226.000000	91.722334 
1225.000000	91.719876 
1224.000000	91.716108 
1223.000000	91.699718 
1222.000000	91.646622 
1221.000000	91.533231 
1220.000000	91.361128 
1219.000000	91.167248 
1218.000000	91.003558 
1217.000000	90.903279 
1216.000000	90.867210 
1215.000000	90.871860 
1214.000000	90.884449 
1213.000000	90.878089 
1212.000000	90.841579 
1211.000000	90.778824 
1210.000000	90.700068 
1209.000000	90.613861 
1208.000000	90.525848 
1207.000000	90.440426 
1206.000000	90.360238 
1205.000000	90.286242 
1204.000000	90.220526 
1203.000000	90.166497 
1202.000000	90.124184 
1201.000000	90.088603 
1200.000000	90.055829 
1199.000000	90.028194 
1198.000000	90.010454 
1197.000000	90.002513 
1196.000000	89.998171 
1195.000000	89.989489 
1194.000000	89.971102 
1193.000000	89.942579 
1192.000000	89.908617 
1191.000000	89.875303 
1190.000000	89.844420 
1189.000000	89.812620 
1188.000000	89.776451 
1187.000000	89.735430 
1186.000000	89.689836 
1185.000000	89.639305 
1184.000000	89.584950 
1183.000000	89.528933 
1182.000000	89.469991 
1181.000000	89.402940 
1180.000000	89.324589 
1179.000000	89.236855 
1178.000000	89.142555 
1177.000000	89.041850 
1176.000000	88.934488 
1175.000000	88.822143 
1174.000000	88.706915 
1173.000000	88.590439 
1172.000000	88.475284 
1171.000000	88.362841 
1170.000000	88.248768 
1169.000000	88.126246 
1168.000000	87.996101 
1167.000000	87.869084 
1166.000000	87.757367 
1165.000000	87.670026 
1164.000000	87.617449 
1163.000000	87.610708 
1162.000000	87.651081 
1161.000000	87.724579 
1160.000000	87.809101 
1159.000000	87.882870 
1158.000000	87.926938 
1157.000000	87.928589 
1156.000000	87.886903 
1155.000000	87.811674 
1154.000000	87.715253 
1153.000000	87.608013 
1152.000000	87.499341 
1151.000000	87.394448 
1150.000000	87.288904 
1149.000000	87.174799 
1148.000000	87.054224 
1147.000000	86.938374 
1146.000000	86.831515 
1145.000000	86.725580 
1144.000000	86.613701 
1143.000000	86.498672 
1142.000000	86.383617 
1141.000000	86.264419 
1140.000000	86.137512 
1139.000000	86.006604 
1138.000000	85.875882 
1137.000000	85.744507 
1136.000000	85.612993 
1135.000000	85.486165 
1134.000000	85.363853 
1133.000000	85.237454 
1132.000000	85.102287 
1131.000000	84.965315 
1130.000000	84.834206 
1129.000000	84.706583 
1128.000000	84.576426 
1127.000000	84.443016 
1126.000000	84.307075 
1125.000000	84.166212 
1124.000000	84.021289 
1123.000000	83.879864 
1122.000000	83.746394 
1121.000000	83.616017 
1120.000000	83.484118 
1119.000000	83.354186 
1118.000000	83.229770 
1117.000000	83.106683 
1116.000000	82.979663 
1115.000000	82.849481 
1114.000000	82.718156 
1113.000000	82.585372 
1112.000000	82.454897 
1111.000000	82.335317 
1110.000000	82.228529 
1109.000000	82.125909 
1108.000000	82.020334 
1107.000000	81.912455 
1106.000000	81.801553 
1105.000000	81.682448 
1104.000000	81.557413 
1103.000000	81.439030 
1102.000000	81.333306 
1101.000000	81.230516 
1100.000000	81.119466 
1099.000000	81.000292 
1098.000000	80.877223 
1097.000000	80.749195 
1096.000000	80.616624 
1095.000000	80.488338 
1094.000000	80.373760 
1093.000000	80.274658 
1092.000000	80.188770 
1091.000000	80.112811 
1090.000000	80.038829 
1089.000000	79.958509 
1088.000000	79.874953 
1087.000000	79.799368 
1086.000000	79.733104 
1085.000000	79.665212 
1084.000000	79.591011 
1083.000000	79.519311 
1082.000000	79.456638 
1081.000000	79.398199 
1080.000000	79.339966 
1079.000000	79.285611 
1078.000000	79.234931 
1077.000000	79.178812 
1076.000000	79.112509 
1075.000000	79.040798 
1074.000000	78.963028 
1073.000000	78.866002 
1072.000000	78.739948 
1071.000000	78.590932 
1070.000000	78.430535 
1069.000000	78.261938 
1068.000000	78.081006 
1067.000000	77.881462 
1066.000000	77.655573 
1065.000000	77.401689 
1064.000000	77.135666 
1063.000000	76.883396 
1062.000000	76.657681 
1061.000000	76.453609 
1060.000000	76.266901 
1059.000000	76.099501 
1058.000000	75.943677 
1057.000000	75.779755 
1056.000000	75.597804 
1055.000000	75.406718 
1054.000000	75.215521 
1053.000000	75.020504 
1052.000000	74.817405 
1051.000000	74.610165 
1050.000000	74.398992 
1049.000000	74.175510 
1048.000000	73.937491 
1047.000000	73.692583 
1046.000000	73.443230 
1045.000000	73.184874 
1044.000000	72.921017 
1043.000000	72.661580 
1042.000000	72.404120 
1041.000000	72.136291 
1040.000000	71.860585 
1039.000000	71.596074 
1038.000000	71.350992 
1037.000000	71.115556 
1036.000000	70.887779 
1035.000000	70.682879 
1034.000000	70.507838 
1033.000000	70.348914 
1032.000000	70.195404 
1031.000000	70.056700 
1030.000000	69.944837 
1029.000000	69.857125 
1028.000000	69.785029 
1027.000000	69.724230 
1026.000000	69.668474 
1025.000000	69.609341 
1024.000000	69.548684 
1023.000000	69.496561 
1022.000000	69.453042 
1021.000000	69.407517 
1020.000000	69.357793 
1019.000000	69.312289 
1018.000000	69.271955 
1017.000000	69.228903 
1016.000000	69.183801 
1015.000000	69.144069 
1014.000000	69.103586 
1013.000000	69.046569 
1012.000000	68.974822 
1011.000000	68.909195 
1010.000000	68.860279 
1009.000000	68.819399 
1008.000000	68.781918 
1007.000000	68.756336 
1006.000000	68.744747 
1005.000000	68.736469 
1004.000000	68.727708 
1003.000000	68.727774 
1002.000000	68.740661 
1001.000000	68.759874 
1000.000000	68.784786 
999.000000	 68.821549 
998.000000	 68.864840 
997.000000	 68.900832 
996.000000	 68.932444 
995.000000	 68.979303 
994.000000	 69.047802 
993.000000	 69.122649 
992.000000	 69.192580 
991.000000	 69.263052 
990.000000	 69.338915 
989.000000	 69.416969 
988.000000	 69.501201 
987.000000	 69.603297 
986.000000	 69.721985 
985.000000	 69.843436 
984.000000	 69.968082 
983.000000	 70.114930 
982.000000	 70.292437 
981.000000	 70.487016 
980.000000	 70.688143 
979.000000	 70.903871 
978.000000	 71.142183 
977.000000	 71.396399 
976.000000	 71.658702 
975.000000	 71.931360 
974.000000	 72.215979 
973.000000	 72.507177 
972.000000	 72.804483 
971.000000	 73.115998 
970.000000	 73.443275 
969.000000	 73.775506 
968.000000	 74.103875 
967.000000	 74.429227 
966.000000	 74.752150 
965.000000	 75.068757 
964.000000	 75.379632 
963.000000	 75.689918 
962.000000	 75.997223 
961.000000	 76.291891 
960.000000	 76.572154 
959.000000	 76.847228 
958.000000	 77.123135 
957.000000	 77.396137 
956.000000	 77.660516 
955.000000	 77.910789 
954.000000	 78.136844 
953.000000	 78.331043 
952.000000	 78.501637 
951.000000	 78.666354 
950.000000	 78.831056 
949.000000	 78.987208 
948.000000	 79.130769 
947.000000	 79.268392 
946.000000	 79.402722 
945.000000	 79.526385 
944.000000	 79.634980 
943.000000	 79.733363 
942.000000	 79.825322 
941.000000	 79.909151 
940.000000	 79.986915 
939.000000	 80.066023 
938.000000	 80.147935 
937.000000	 80.226758 
936.000000	 80.301967 
935.000000	 80.380739 
934.000000	 80.465139 
933.000000	 80.549511 
932.000000	 80.633409 
931.000000	 80.724050 
930.000000	 80.822207 
929.000000	 80.918326 
928.000000	 81.006999 
927.000000	 81.093677 
926.000000	 81.183074 
925.000000	 81.271756 
924.000000	 81.355220 
923.000000	 81.431350 
922.000000	 81.495229 
921.000000	 81.543525 
920.000000	 81.586618 
919.000000	 81.642321 
918.000000	 81.713162 
917.000000	 81.783323 
916.000000	 81.843419 
915.000000	 81.905001 
914.000000	 81.983782 
913.000000	 82.081858 
912.000000	 82.194577 
911.000000	 82.323214 
910.000000	 82.471898 
909.000000	 82.641268 
908.000000	 82.832943 
907.000000	 83.051570 
906.000000	 83.295056 
905.000000	 83.550203 
904.000000	 83.804802 
903.000000	 84.058398 
902.000000	 84.316529 
901.000000	 84.580867 
900.000000	 84.849342 
899.000000	 85.119596 
898.000000	 85.387418 
897.000000	 85.646371 
896.000000	 85.893812 
895.000000	 86.134567 
894.000000	 86.375126 
893.000000	 86.614902 
892.000000	 86.844602 
891.000000	 87.053247 
890.000000	 87.238030 
889.000000	 87.407890 
888.000000	 87.574725 
887.000000	 87.740309 
886.000000	 87.896664 
885.000000	 88.041736 
884.000000	 88.188164 
883.000000	 88.350748 
882.000000	 88.530071 
881.000000	 88.714614 
880.000000	 88.893530 
879.000000	 89.059934 
878.000000	 89.208932 
877.000000	 89.344746 
876.000000	 89.486350 
875.000000	 89.652726 
874.000000	 89.841195 
873.000000	 90.030220 
872.000000	 90.204013 
871.000000	 90.365348 
870.000000	 90.524748 
869.000000	 90.686898 
868.000000	 90.849445 
867.000000	 91.007533 
866.000000	 91.157616 
865.000000	 91.302705 
864.000000	 91.454166 
863.000000	 91.620915 
862.000000	 91.794876 
861.000000	 91.954237 
860.000000	 92.084198 
859.000000	 92.189573 
858.000000	 92.284976 
857.000000	 92.377924 
856.000000	 92.465860 
855.000000	 92.545357 
854.000000	 92.617524 
853.000000	 92.685094 
852.000000	 92.749739 
851.000000	 92.813664 
850.000000	 92.879598 
849.000000	 92.945847 
848.000000	 93.003158 
847.000000	 93.040761 
846.000000	 93.057188 
845.000000	 93.062563 
844.000000	 93.067675 
843.000000	 93.072064 
842.000000	 93.065183 
841.000000	 93.037644 
840.000000	 92.987351 
839.000000	 92.915615 
838.000000	 92.823666 
837.000000	 92.716286 
836.000000	 92.604950 
835.000000	 92.502926 
834.000000	 92.418044 
833.000000	 92.351896 
832.000000	 92.302812 
831.000000	 92.266458 
830.000000	 92.238380 
829.000000	 92.222198 
828.000000	 92.230795 
827.000000	 92.269851 
826.000000	 92.322545 
825.000000	 92.362724 
824.000000	 92.384073 
823.000000	 92.403930 
822.000000	 92.435801 
821.000000	 92.470798 
820.000000	 92.490536 
819.000000	 92.486933 
818.000000	 92.463279 
817.000000	 92.422613 
816.000000	 92.360395 
815.000000	 92.265603 
814.000000	 92.125869 
813.000000	 91.932702 
812.000000	 91.682307 
811.000000	 91.369976 
810.000000	 90.985656 
809.000000	 90.521009 
808.000000	 89.982080 
807.000000	 89.388706 
806.000000	 88.758877 
805.000000	 88.102145 
804.000000	 87.434476 
803.000000	 86.789820 
802.000000	 86.206053 
801.000000	 85.705345 
800.000000	 85.297033 
799.000000	 84.991932 
798.000000	 84.802913 
797.000000	 84.735062 
796.000000	 84.780837 
795.000000	 84.919732 
794.000000	 85.120142 
793.000000	 85.348774 
792.000000	 85.580952 
791.000000	 85.797603 
790.000000	 85.976110 
789.000000	 86.094197 
788.000000	 86.141861 
787.000000	 86.119758 
786.000000	 86.026285 
785.000000	 85.857890 
784.000000	 85.625580 
783.000000	 85.360634 
782.000000	 85.097778 
781.000000	 84.860527 
780.000000	 84.667759 
779.000000	 84.543336 
778.000000	 84.508829 
777.000000	 84.571890 
776.000000	 84.726658 
775.000000	 84.958123 
774.000000	 85.241527 
773.000000	 85.545908 
772.000000	 85.845604 
771.000000	 86.126511 
770.000000	 86.381343 
769.000000	 86.605063 
768.000000	 86.796583 
767.000000	 86.958723 
766.000000	 87.092919 
765.000000	 87.197912 
764.000000	 87.276284 
763.000000	 87.338351 
762.000000	 87.396469 
761.000000	 87.458363 
760.000000	 87.528115 
759.000000	 87.609337 
758.000000	 87.703080 
757.000000	 87.804412 
756.000000	 87.904173 
755.000000	 87.994098 
754.000000	 88.071057 
753.000000	 88.139966 
752.000000	 88.213982 
751.000000	 88.307885 
750.000000	 88.426634 
749.000000	 88.560946 
748.000000	 88.696083 
747.000000	 88.824426 
746.000000	 88.949443 
745.000000	 89.079712 
744.000000	 89.221705 
743.000000	 89.377955 
742.000000	 89.547743 
741.000000	 89.725237 
740.000000	 89.898001 
739.000000	 90.052578 
738.000000	 90.185279 
737.000000	 90.306263 
736.000000	 90.430053 
735.000000	 90.562574 
734.000000	 90.697523 
733.000000	 90.821448 
732.000000	 90.920999 
731.000000	 90.990750 
730.000000	 91.037558 
729.000000	 91.072404 
728.000000	 91.102765 
727.000000	 91.135231 
726.000000	 91.177302 
725.000000	 91.234293 
724.000000	 91.303003 
723.000000	 91.371504 
722.000000	 91.430610 
721.000000	 91.486164 
720.000000	 91.555899 
719.000000	 91.649476 
718.000000	 91.753609 
717.000000	 91.843369 
716.000000	 91.905191 
715.000000	 91.946137 
714.000000	 91.983317 
713.000000	 92.026273 
712.000000	 92.071736 
711.000000	 92.108881 
710.000000	 92.127954 
709.000000	 92.125522 
708.000000	 92.102889 
707.000000	 92.071046 
706.000000	 92.040068 
705.000000	 92.002718 
704.000000	 91.937724 
703.000000	 91.825368 
702.000000	 91.661053 
701.000000	 91.450062 
700.000000	 91.189346 
699.000000	 90.873481 
698.000000	 90.516010 
697.000000	 90.163031 
696.000000	 89.881562 
695.000000	 89.722149 
694.000000	 89.700930 
693.000000	 89.803847 
692.000000	 89.993843 
691.000000	 90.228565 
690.000000	 90.473006 
689.000000	 90.703203 
688.000000	 90.901490 
687.000000	 91.054010 
686.000000	 91.168396 
685.000000	 91.274464 
684.000000	 91.393133 
683.000000	 91.522491 
682.000000	 91.654744 
681.000000	 91.788230 
680.000000	 91.913943 
679.000000	 92.015555 
678.000000	 92.092322 
677.000000	 92.150918 
676.000000	 92.194867 
675.000000	 92.235598 
674.000000	 92.297909 
673.000000	 92.407140 
672.000000	 92.579864 
671.000000	 92.829647 
670.000000	 93.168273 
669.000000	 93.540102 
668.000000	 93.713323 
667.000000	 93.581351 
666.000000	 93.377213 
665.000000	 93.249089 
664.000000	 93.194847 
663.000000	 93.206371 
662.000000	 93.264753 
661.000000	 93.331966 
660.000000	 93.374955 
659.000000	 93.396610 
658.000000	 93.416222 
657.000000	 93.431522 
656.000000	 93.439836 
655.000000	 93.462410 
654.000000	 93.501289 
653.000000	 93.522930 
652.000000	 93.520356 
651.000000	 93.532965 
650.000000	 93.579965 

