PE IR                   SPECTRUM    ASCII       PEDS        1.60        
  -1
~SP.SP
22/12/06
14:07:05.00
23/01/09
14:49:17.00
Administrator

650.000000
4









FRONTIER FT-IR,CPU32 MAIN 00.09.9951 07-SEPTEMBER-2011 11:49:41
MIR TGS
MIR
OPTKBR
90694
0.200000

4.000000
STRONG
RATIO
SPECTRUM
MAGNITUDE
MIRACLE ATR
DOUBLE

COMBINED


0


#HDR
-1
-1
#GR
CM-1
%T
0.00002384185791015625
0.0
4000.000000
-1.000000
3351
8
101.068854
99.127765
#DATA
4000.000000	101.026415 
3999.000000	101.024536 
3998.000000	101.020557 
3997.000000	101.015592 
3996.000000	101.011356 
3995.000000	101.008913 
3994.000000	101.008201 
3993.000000	101.008479 
3992.000000	101.009011 
3991.000000	101.009237 
3990.000000	101.008700 
3989.000000	101.007219 
3988.000000	101.005144 
3987.000000	101.003240 
3986.000000	101.002093 
3985.000000	101.001600 
3984.000000	101.001153 
3983.000000	101.000365 
3982.000000	100.999467 
3981.000000	100.998887 
3980.000000	100.998539 
3979.000000	100.997713 
3978.000000	100.995763 
3977.000000	100.992776 
3976.000000	100.989563 
3975.000000	100.986931 
3974.000000	100.985001 
3973.000000	100.983361 
3972.000000	100.981798 
3971.000000	100.980730 
3970.000000	100.980715 
3969.000000	100.981574 
3968.000000	100.982220 
3967.000000	100.981590 
3966.000000	100.979640 
3965.000000	100.977354 
3964.000000	100.975772 
3963.000000	100.975048 
3962.000000	100.974565 
3961.000000	100.973903 
3960.000000	100.973428 
3959.000000	100.973781 
3958.000000	100.974915 
3957.000000	100.975760 
3956.000000	100.975023 
3955.000000	100.972339 
3954.000000	100.968576 
3953.000000	100.965127 
3952.000000	100.962764 
3951.000000	100.961292 
3950.000000	100.960039 
3949.000000	100.958494 
3948.000000	100.956529 
3947.000000	100.954218 
3946.000000	100.951732 
3945.000000	100.949448 
3944.000000	100.947945 
3943.000000	100.947537 
3942.000000	100.947788 
3941.000000	100.947719 
3940.000000	100.946635 
3939.000000	100.944647 
3938.000000	100.942434 
3937.000000	100.940580 
3936.000000	100.939165 
3935.000000	100.938021 
3934.000000	100.937200 
3933.000000	100.936897 
3932.000000	100.936858 
3931.000000	100.936220 
3930.000000	100.934269 
3929.000000	100.931181 
3928.000000	100.927917 
3927.000000	100.925316 
3926.000000	100.923492 
3925.000000	100.922061 
3924.000000	100.920745 
3923.000000	100.919655 
3922.000000	100.919022 
3921.000000	100.918779 
3920.000000	100.918472 
3919.000000	100.917645 
3918.000000	100.916301 
3917.000000	100.914820 
3916.000000	100.913422 
3915.000000	100.911927 
3914.000000	100.910207 
3913.000000	100.908692 
3912.000000	100.908138 
3911.000000	100.908830 
3910.000000	100.910248 
3909.000000	100.911391 
3908.000000	100.911453 
3907.000000	100.910248 
3906.000000	100.908342 
3905.000000	100.906882 
3904.000000	100.906768 
3903.000000	100.907866 
3902.000000	100.909091 
3901.000000	100.909532 
3900.000000	100.909365 
3899.000000	100.909436 
3898.000000	100.910120 
3897.000000	100.910937 
3896.000000	100.911198 
3895.000000	100.910698 
3894.000000	100.909734 
3893.000000	100.908661 
3892.000000	100.907577 
3891.000000	100.906346 
3890.000000	100.904846 
3889.000000	100.903032 
3888.000000	100.901182 
3887.000000	100.900133 
3886.000000	100.900737 
3885.000000	100.902938 
3884.000000	100.905403 
3883.000000	100.906512 
3882.000000	100.905792 
3881.000000	100.903911 
3880.000000	100.901814 
3879.000000	100.899958 
3878.000000	100.898193 
3877.000000	100.896449 
3876.000000	100.895352 
3875.000000	100.895613 
3874.000000	100.896823 
3873.000000	100.897317 
3872.000000	100.895581 
3871.000000	100.891817 
3870.000000	100.888068 
3869.000000	100.886306 
3868.000000	100.886444 
3867.000000	100.886873 
3866.000000	100.886731 
3865.000000	100.886570 
3864.000000	100.886993 
3863.000000	100.887634 
3862.000000	100.887548 
3861.000000	100.886079 
3860.000000	100.883140 
3859.000000	100.879029 
3858.000000	100.874309 
3857.000000	100.869203 
3856.000000	100.863339 
3855.000000	100.856726 
3854.000000	100.851475 
3853.000000	100.850618 
3852.000000	100.853836 
3851.000000	100.857778 
3850.000000	100.860879 
3849.000000	100.863817 
3848.000000	100.866597 
3847.000000	100.867842 
3846.000000	100.866245 
3845.000000	100.861638 
3844.000000	100.855186 
3843.000000	100.849142 
3842.000000	100.845801 
3841.000000	100.846096 
3840.000000	100.849092 
3839.000000	100.852367 
3838.000000	100.853821 
3837.000000	100.853421 
3836.000000	100.852657 
3835.000000	100.852351 
3834.000000	100.851986 
3833.000000	100.851029 
3832.000000	100.850043 
3831.000000	100.850113 
3830.000000	100.851312 
3829.000000	100.852465 
3828.000000	100.852556 
3827.000000	100.851733 
3826.000000	100.850726 
3825.000000	100.849606 
3824.000000	100.847745 
3823.000000	100.845082 
3822.000000	100.842700 
3821.000000	100.841534 
3820.000000	100.840784 
3819.000000	100.838624 
3818.000000	100.834844 
3817.000000	100.831403 
3816.000000	100.829990 
3815.000000	100.830040 
3814.000000	100.829494 
3813.000000	100.827529 
3812.000000	100.825714 
3811.000000	100.825814 
3810.000000	100.827702 
3809.000000	100.829733 
3808.000000	100.830472 
3807.000000	100.829927 
3806.000000	100.829156 
3805.000000	100.828777 
3804.000000	100.828609 
3803.000000	100.828397 
3802.000000	100.827820 
3801.000000	100.826608 
3800.000000	100.824926 
3799.000000	100.823092 
3798.000000	100.821529 
3797.000000	100.820423 
3796.000000	100.819191 
3795.000000	100.817177 
3794.000000	100.814587 
3793.000000	100.812390 
3792.000000	100.811409 
3791.000000	100.811563 
3790.000000	100.811950 
3789.000000	100.811675 
3788.000000	100.810488 
3787.000000	100.808715 
3786.000000	100.806930 
3785.000000	100.805626 
3784.000000	100.804927 
3783.000000	100.804444 
3782.000000	100.803465 
3781.000000	100.801500 
3780.000000	100.798702 
3779.000000	100.795820 
3778.000000	100.793581 
3777.000000	100.792183 
3776.000000	100.791479 
3775.000000	100.791237 
3774.000000	100.791132 
3773.000000	100.790677 
3772.000000	100.789472 
3771.000000	100.787552 
3770.000000	100.785297 
3769.000000	100.782965 
3768.000000	100.780572 
3767.000000	100.778379 
3766.000000	100.777049 
3765.000000	100.776968 
3764.000000	100.777605 
3763.000000	100.777923 
3762.000000	100.777437 
3761.000000	100.776627 
3760.000000	100.776207 
3759.000000	100.776159 
3758.000000	100.775766 
3757.000000	100.774406 
3756.000000	100.771889 
3755.000000	100.768395 
3754.000000	100.764766 
3753.000000	100.762393 
3752.000000	100.761982 
3751.000000	100.762359 
3750.000000	100.761610 
3749.000000	100.759420 
3748.000000	100.756290 
3747.000000	100.751657 
3746.000000	100.745420 
3745.000000	100.739803 
3744.000000	100.737771 
3743.000000	100.738844 
3742.000000	100.738386 
3741.000000	100.735005 
3740.000000	100.732985 
3739.000000	100.734752 
3738.000000	100.737993 
3737.000000	100.739310 
3736.000000	100.737715 
3735.000000	100.734711 
3734.000000	100.732202 
3733.000000	100.731413 
3732.000000	100.732535 
3731.000000	100.734252 
3730.000000	100.734702 
3729.000000	100.733660 
3728.000000	100.733072 
3727.000000	100.734830 
3726.000000	100.738635 
3725.000000	100.742436 
3724.000000	100.744449 
3723.000000	100.744318 
3722.000000	100.742309 
3721.000000	100.738921 
3720.000000	100.735664 
3719.000000	100.734391 
3718.000000	100.735138 
3717.000000	100.735303 
3716.000000	100.731962 
3715.000000	100.725197 
3714.000000	100.719272 
3713.000000	100.719511 
3712.000000	100.726827 
3711.000000	100.735921 
3710.000000	100.740753 
3709.000000	100.741072 
3708.000000	100.740940 
3707.000000	100.743545 
3706.000000	100.749651 
3705.000000	100.758587 
3704.000000	100.769130 
3703.000000	100.779555 
3702.000000	100.787613 
3701.000000	100.791543 
3700.000000	100.791769 
3699.000000	100.791267 
3698.000000	100.793888 
3697.000000	100.801681 
3696.000000	100.812903 
3695.000000	100.823295 
3694.000000	100.830648 
3693.000000	100.837351 
3692.000000	100.846959 
3691.000000	100.858494 
3690.000000	100.865916 
3689.000000	100.864996 
3688.000000	100.859024 
3687.000000	100.853922 
3686.000000	100.850137 
3685.000000	100.844792 
3684.000000	100.838020 
3683.000000	100.833180 
3682.000000	100.833788 
3681.000000	100.840594 
3680.000000	100.850510 
3679.000000	100.858514 
3678.000000	100.861127 
3677.000000	100.859280 
3676.000000	100.857255 
3675.000000	100.857832 
3674.000000	100.859411 
3673.000000	100.859534 
3672.000000	100.859653 
3671.000000	100.863268 
3670.000000	100.869671 
3669.000000	100.874162 
3668.000000	100.874575 
3667.000000	100.873611 
3666.000000	100.874720 
3665.000000	100.877795 
3664.000000	100.879441 
3663.000000	100.876510 
3662.000000	100.869402 
3661.000000	100.861877 
3660.000000	100.857320 
3659.000000	100.855222 
3658.000000	100.851497 
3657.000000	100.842725 
3656.000000	100.830185 
3655.000000	100.818277 
3654.000000	100.808973 
3653.000000	100.800935 
3652.000000	100.791897 
3651.000000	100.779437 
3650.000000	100.762625 
3649.000000	100.743645 
3648.000000	100.726497 
3647.000000	100.715408 
3646.000000	100.711857 
3645.000000	100.712902 
3644.000000	100.714614 
3643.000000	100.714593 
3642.000000	100.711496 
3641.000000	100.704677 
3640.000000	100.695155 
3639.000000	100.685917 
3638.000000	100.679728 
3637.000000	100.675926 
3636.000000	100.670653 
3635.000000	100.661331 
3634.000000	100.650068 
3633.000000	100.641301 
3632.000000	100.636744 
3631.000000	100.634338 
3630.000000	100.630821 
3629.000000	100.625261 
3628.000000	100.619467 
3627.000000	100.613948 
3626.000000	100.607757 
3625.000000	100.601613 
3624.000000	100.597212 
3623.000000	100.594752 
3622.000000	100.593385 
3621.000000	100.593148 
3620.000000	100.594868 
3619.000000	100.598074 
3618.000000	100.600346 
3617.000000	100.599599 
3616.000000	100.596037 
3615.000000	100.591554 
3614.000000	100.587670 
3613.000000	100.583868 
3612.000000	100.578345 
3611.000000	100.570762 
3610.000000	100.563870 
3609.000000	100.561765 
3608.000000	100.566098 
3607.000000	100.574258 
3606.000000	100.581493 
3605.000000	100.584771 
3604.000000	100.583835 
3603.000000	100.580085 
3602.000000	100.575430 
3601.000000	100.571315 
3600.000000	100.568112 
3599.000000	100.565395 
3598.000000	100.562942 
3597.000000	100.561323 
3596.000000	100.561323 
3595.000000	100.563024 
3594.000000	100.565600 
3593.000000	100.568037 
3592.000000	100.569777 
3591.000000	100.570687 
3590.000000	100.570720 
3589.000000	100.569792 
3588.000000	100.567946 
3587.000000	100.565552 
3586.000000	100.563326 
3585.000000	100.561953 
3584.000000	100.561579 
3583.000000	100.561816 
3582.000000	100.562225 
3581.000000	100.562637 
3580.000000	100.563132 
3579.000000	100.563760 
3578.000000	100.564215 
3577.000000	100.563878 
3576.000000	100.562306 
3575.000000	100.559795 
3574.000000	100.557443 
3573.000000	100.556380 
3572.000000	100.556888 
3571.000000	100.558266 
3570.000000	100.559388 
3569.000000	100.559462 
3568.000000	100.558266 
3567.000000	100.555917 
3566.000000	100.552802 
3565.000000	100.549847 
3564.000000	100.548102 
3563.000000	100.547876 
3562.000000	100.548579 
3561.000000	100.549342 
3560.000000	100.549824 
3559.000000	100.550315 
3558.000000	100.550906 
3557.000000	100.550787 
3556.000000	100.548714 
3555.000000	100.544199 
3554.000000	100.538206 
3553.000000	100.532684 
3552.000000	100.529124 
3551.000000	100.527629 
3550.000000	100.527358 
3549.000000	100.527490 
3548.000000	100.527660 
3547.000000	100.527682 
3546.000000	100.527363 
3545.000000	100.526777 
3544.000000	100.526135 
3543.000000	100.525054 
3542.000000	100.522461 
3541.000000	100.517691 
3540.000000	100.511494 
3539.000000	100.505714 
3538.000000	100.501832 
3537.000000	100.500022 
3536.000000	100.499503 
3535.000000	100.499533 
3534.000000	100.499989 
3533.000000	100.501128 
3532.000000	100.502999 
3531.000000	100.505039 
3530.000000	100.506138 
3529.000000	100.505437 
3528.000000	100.503164 
3527.000000	100.500508 
3526.000000	100.498565 
3525.000000	100.497500 
3524.000000	100.496701 
3523.000000	100.495495 
3522.000000	100.493596 
3521.000000	100.491105 
3520.000000	100.488419 
3519.000000	100.486181 
3518.000000	100.485087 
3517.000000	100.485408 
3516.000000	100.486615 
3515.000000	100.487597 
3514.000000	100.487454 
3513.000000	100.486142 
3512.000000	100.484434 
3511.000000	100.483194 
3510.000000	100.482614 
3509.000000	100.482176 
3508.000000	100.481238 
3507.000000	100.479562 
3506.000000	100.477496 
3505.000000	100.475922 
3504.000000	100.475851 
3503.000000	100.477626 
3502.000000	100.480436 
3501.000000	100.482709 
3500.000000	100.483309 
3499.000000	100.482264 
3498.000000	100.480448 
3497.000000	100.478728 
3496.000000	100.477284 
3495.000000	100.475755 
3494.000000	100.473847 
3493.000000	100.471710 
3492.000000	100.469829 
3491.000000	100.468618 
3490.000000	100.468118 
3489.000000	100.468057 
3488.000000	100.468130 
3487.000000	100.468140 
3486.000000	100.467900 
3485.000000	100.467186 
3484.000000	100.465852 
3483.000000	100.463957 
3482.000000	100.461746 
3481.000000	100.459629 
3480.000000	100.458178 
3479.000000	100.457895 
3478.000000	100.458862 
3477.000000	100.460621 
3476.000000	100.462383 
3475.000000	100.463410 
3474.000000	100.463238 
3473.000000	100.461766 
3472.000000	100.459378 
3471.000000	100.456903 
3470.000000	100.455130 
3469.000000	100.454234 
3468.000000	100.453740 
3467.000000	100.453039 
3466.000000	100.451974 
3465.000000	100.450903 
3464.000000	100.450203 
3463.000000	100.449717 
3462.000000	100.448772 
3461.000000	100.446859 
3460.000000	100.444253 
3459.000000	100.441923 
3458.000000	100.440623 
3457.000000	100.440269 
3456.000000	100.440143 
3455.000000	100.439623 
3454.000000	100.438631 
3453.000000	100.437372 
3452.000000	100.435926 
3451.000000	100.434219 
3450.000000	100.432292 
3449.000000	100.430385 
3448.000000	100.428734 
3447.000000	100.427421 
3446.000000	100.426475 
3445.000000	100.425967 
3444.000000	100.425858 
3443.000000	100.425790 
3442.000000	100.425215 
3441.000000	100.423809 
3440.000000	100.421801 
3439.000000	100.419976 
3438.000000	100.419208 
3437.000000	100.419818 
3436.000000	100.421145 
3435.000000	100.421857 
3434.000000	100.421014 
3433.000000	100.418695 
3432.000000	100.415784 
3431.000000	100.413230 
3430.000000	100.411532 
3429.000000	100.410726 
3428.000000	100.410553 
3427.000000	100.410669 
3426.000000	100.410846 
3425.000000	100.410887 
3424.000000	100.410264 
3423.000000	100.408232 
3422.000000	100.404722 
3421.000000	100.400990 
3420.000000	100.398633 
3419.000000	100.397833 
3418.000000	100.397208 
3417.000000	100.395635 
3416.000000	100.393574 
3415.000000	100.392020 
3414.000000	100.390738 
3413.000000	100.388530 
3412.000000	100.385186 
3411.000000	100.382034 
3410.000000	100.380153 
3409.000000	100.378918 
3408.000000	100.376992 
3407.000000	100.374321 
3406.000000	100.372220 
3405.000000	100.371649 
3404.000000	100.372362 
3403.000000	100.373919 
3402.000000	100.376624 
3401.000000	100.380862 
3400.000000	100.386005 
3399.000000	100.390479 
3398.000000	100.392786 
3397.000000	100.392150 
3396.000000	100.388556 
3395.000000	100.383008 
3394.000000	100.377570 
3393.000000	100.374031 
3392.000000	100.372214 
3391.000000	100.370320 
3390.000000	100.367295 
3389.000000	100.364320 
3388.000000	100.363304 
3387.000000	100.364328 
3386.000000	100.365345 
3385.000000	100.364521 
3384.000000	100.362319 
3383.000000	100.360831 
3382.000000	100.361419 
3381.000000	100.363470 
3380.000000	100.365149 
3379.000000	100.365128 
3378.000000	100.363507 
3377.000000	100.361326 
3376.000000	100.359436 
3375.000000	100.357816 
3374.000000	100.355994 
3373.000000	100.353831 
3372.000000	100.351758 
3371.000000	100.350327 
3370.000000	100.349685 
3369.000000	100.349490 
3368.000000	100.349216 
3367.000000	100.348475 
3366.000000	100.347175 
3365.000000	100.345550 
3364.000000	100.344030 
3363.000000	100.342948 
3362.000000	100.342270 
3361.000000	100.341630 
3360.000000	100.340625 
3359.000000	100.339125 
3358.000000	100.337308 
3357.000000	100.335460 
3356.000000	100.333755 
3355.000000	100.332222 
3354.000000	100.330810 
3353.000000	100.329466 
3352.000000	100.328185 
3351.000000	100.327026 
3350.000000	100.326023 
3349.000000	100.325052 
3348.000000	100.323842 
3347.000000	100.322210 
3346.000000	100.320224 
3345.000000	100.318142 
3344.000000	100.316200 
3343.000000	100.314467 
3342.000000	100.312904 
3341.000000	100.311470 
3340.000000	100.310165 
3339.000000	100.308994 
3338.000000	100.307903 
3337.000000	100.306761 
3336.000000	100.305428 
3335.000000	100.303861 
3334.000000	100.302141 
3333.000000	100.300456 
3332.000000	100.298985 
3331.000000	100.297763 
3330.000000	100.296683 
3329.000000	100.295608 
3328.000000	100.294488 
3327.000000	100.293335 
3326.000000	100.292139 
3325.000000	100.290860 
3324.000000	100.289472 
3323.000000	100.288003 
3322.000000	100.286519 
3321.000000	100.285089 
3320.000000	100.283741 
3319.000000	100.282454 
3318.000000	100.281182 
3317.000000	100.279883 
3316.000000	100.278546 
3315.000000	100.277187 
3314.000000	100.275832 
3313.000000	100.274498 
3312.000000	100.273180 
3311.000000	100.271858 
3310.000000	100.270509 
3309.000000	100.269126 
3308.000000	100.267720 
3307.000000	100.266304 
3306.000000	100.264888 
3305.000000	100.263472 
3304.000000	100.262041 
3303.000000	100.260572 
3302.000000	100.259059 
3301.000000	100.257536 
3300.000000	100.256054 
3299.000000	100.254615 
3298.000000	100.253160 
3297.000000	100.251650 
3296.000000	100.250180 
3295.000000	100.248941 
3294.000000	100.248036 
3293.000000	100.247374 
3292.000000	100.246672 
3291.000000	100.245537 
3290.000000	100.243582 
3289.000000	100.240766 
3288.000000	100.237685 
3287.000000	100.235100 
3286.000000	100.233111 
3285.000000	100.231107 
3284.000000	100.228655 
3283.000000	100.226275 
3282.000000	100.224954 
3281.000000	100.224935 
3280.000000	100.225261 
3279.000000	100.224676 
3278.000000	100.222851 
3277.000000	100.220581 
3276.000000	100.218838 
3275.000000	100.217600 
3274.000000	100.215813 
3273.000000	100.212622 
3272.000000	100.208591 
3271.000000	100.205358 
3270.000000	100.203855 
3269.000000	100.203089 
3268.000000	100.201109 
3267.000000	100.197204 
3266.000000	100.192613 
3265.000000	100.188971 
3264.000000	100.186738 
3263.000000	100.185593 
3262.000000	100.185645 
3261.000000	100.187198 
3260.000000	100.189488 
3259.000000	100.190769 
3258.000000	100.190072 
3257.000000	100.188229 
3256.000000	100.186769 
3255.000000	100.186364 
3254.000000	100.186773 
3253.000000	100.187725 
3252.000000	100.189016 
3251.000000	100.189904 
3250.000000	100.189364 
3249.000000	100.187229 
3248.000000	100.184638 
3247.000000	100.183038 
3246.000000	100.182863 
3245.000000	100.183377 
3244.000000	100.183579 
3243.000000	100.183097 
3242.000000	100.182326 
3241.000000	100.181934 
3240.000000	100.182175 
3239.000000	100.182557 
3238.000000	100.182253 
3237.000000	100.180945 
3236.000000	100.179161 
3235.000000	100.177705 
3234.000000	100.176833 
3233.000000	100.176096 
3232.000000	100.174865 
3231.000000	100.172852 
3230.000000	100.170232 
3229.000000	100.167504 
3228.000000	100.165357 
3227.000000	100.164479 
3226.000000	100.165258 
3225.000000	100.167545 
3224.000000	100.170562 
3223.000000	100.173251 
3222.000000	100.174898 
3221.000000	100.175389 
3220.000000	100.174899 
3219.000000	100.173480 
3218.000000	100.171214 
3217.000000	100.168764 
3216.000000	100.167361 
3215.000000	100.167793 
3214.000000	100.169450 
3213.000000	100.170613 
3212.000000	100.170011 
3211.000000	100.167864 
3210.000000	100.165432 
3209.000000	100.163756 
3208.000000	100.163015 
3207.000000	100.162937 
3206.000000	100.163319 
3205.000000	100.164005 
3204.000000	100.164657 
3203.000000	100.164903 
3202.000000	100.164691 
3201.000000	100.164137 
3200.000000	100.163062 
3199.000000	100.160970 
3198.000000	100.157694 
3197.000000	100.153888 
3196.000000	100.150574 
3195.000000	100.148205 
3194.000000	100.146505 
3193.000000	100.145248 
3192.000000	100.144792 
3191.000000	100.145531 
3190.000000	100.146953 
3189.000000	100.147673 
3188.000000	100.146656 
3187.000000	100.144226 
3186.000000	100.141802 
3185.000000	100.140535 
3184.000000	100.140145 
3183.000000	100.139127 
3182.000000	100.136203 
3181.000000	100.131629 
3180.000000	100.127047 
3179.000000	100.123911 
3178.000000	100.122237 
3177.000000	100.121021 
3176.000000	100.119562 
3175.000000	100.118020 
3174.000000	100.116882 
3173.000000	100.116480 
3172.000000	100.117064 
3171.000000	100.118692 
3170.000000	100.120818 
3169.000000	100.122429 
3168.000000	100.122980 
3167.000000	100.122806 
3166.000000	100.122214 
3165.000000	100.120505 
3164.000000	100.116607 
3163.000000	100.110763 
3162.000000	100.105116 
3161.000000	100.101951 
3160.000000	100.101525 
3159.000000	100.101970 
3158.000000	100.101343 
3157.000000	100.099636 
3156.000000	100.098319 
3155.000000	100.098351 
3154.000000	100.099343 
3153.000000	100.100534 
3152.000000	100.101736 
3151.000000	100.102908 
3150.000000	100.103538 
3149.000000	100.103206 
3148.000000	100.102470 
3147.000000	100.102414 
3146.000000	100.103344 
3145.000000	100.104571 
3144.000000	100.105454 
3143.000000	100.105880 
3142.000000	100.105639 
3141.000000	100.104149 
3140.000000	100.101263 
3139.000000	100.097844 
3138.000000	100.094950 
3137.000000	100.092960 
3136.000000	100.091957 
3135.000000	100.092220 
3134.000000	100.093713 
3133.000000	100.095388 
3132.000000	100.095837 
3131.000000	100.094704 
3130.000000	100.092935 
3129.000000	100.091682 
3128.000000	100.091189 
3127.000000	100.090905 
3126.000000	100.090268 
3125.000000	100.089103 
3124.000000	100.087527 
3123.000000	100.085777 
3122.000000	100.084066 
3121.000000	100.082417 
3120.000000	100.080680 
3119.000000	100.078850 
3118.000000	100.077253 
3117.000000	100.076233 
3116.000000	100.075747 
3115.000000	100.075398 
3114.000000	100.074788 
3113.000000	100.073808 
3112.000000	100.072584 
3111.000000	100.071327 
3110.000000	100.070205 
3109.000000	100.069278 
3108.000000	100.068475 
3107.000000	100.067665 
3106.000000	100.066733 
3105.000000	100.065619 
3104.000000	100.064316 
3103.000000	100.062892 
3102.000000	100.061507 
3101.000000	100.060323 
3100.000000	100.059402 
3099.000000	100.058691 
3098.000000	100.057972 
3097.000000	100.056936 
3096.000000	100.055365 
3095.000000	100.053446 
3094.000000	100.051700 
3093.000000	100.050358 
3092.000000	100.048992 
3091.000000	100.046994 
3090.000000	100.044415 
3089.000000	100.042052 
3088.000000	100.040715 
3087.000000	100.040684 
3086.000000	100.041853 
3085.000000	100.043939 
3084.000000	100.046251 
3083.000000	100.047497 
3082.000000	100.046439 
3081.000000	100.043096 
3080.000000	100.039125 
3079.000000	100.036576 
3078.000000	100.036285 
3077.000000	100.037610 
3076.000000	100.039371 
3075.000000	100.040654 
3074.000000	100.040712 
3073.000000	100.038826 
3072.000000	100.035011 
3071.000000	100.030903 
3070.000000	100.029208 
3069.000000	100.031441 
3068.000000	100.036191 
3067.000000	100.040246 
3066.000000	100.041681 
3065.000000	100.041218 
3064.000000	100.040413 
3063.000000	100.039419 
3062.000000	100.037222 
3061.000000	100.033238 
3060.000000	100.027715 
3059.000000	100.021166 
3058.000000	100.014555 
3057.000000	100.009660 
3056.000000	100.008015 
3055.000000	100.009742 
3054.000000	100.014671 
3053.000000	100.024234 
3052.000000	100.040034 
3051.000000	100.059504 
3050.000000	100.075010 
3049.000000	100.079698 
3048.000000	100.073870 
3047.000000	100.064185 
3046.000000	100.056830 
3045.000000	100.053126 
3044.000000	100.051830 
3043.000000	100.053120 
3042.000000	100.058259 
3041.000000	100.066364 
3040.000000	100.074169 
3039.000000	100.079841 
3038.000000	100.085422 
3037.000000	100.094003 
3036.000000	100.105231 
3035.000000	100.115217 
3034.000000	100.121034 
3033.000000	100.124078 
3032.000000	100.128526 
3031.000000	100.137600 
3030.000000	100.151907 
3029.000000	100.170110 
3028.000000	100.189761 
3027.000000	100.207921 
3026.000000	100.222448 
3025.000000	100.233277 
3024.000000	100.242302 
3023.000000	100.252263 
3022.000000	100.265693 
3021.000000	100.283620 
3020.000000	100.304109 
3019.000000	100.322957 
3018.000000	100.337456 
3017.000000	100.349253 
3016.000000	100.362221 
3015.000000	100.378200 
3014.000000	100.396508 
3013.000000	100.416887 
3012.000000	100.440226 
3011.000000	100.465972 
3010.000000	100.491513 
3009.000000	100.515661 
3008.000000	100.540938 
3007.000000	100.570727 
3006.000000	100.605082 
3005.000000	100.640490 
3004.000000	100.672884 
3003.000000	100.699895 
3002.000000	100.721409 
3001.000000	100.739522 
3000.000000	100.757315 
2999.000000	100.776123 
2998.000000	100.794131 
2997.000000	100.808602 
2996.000000	100.819365 
2995.000000	100.829788 
2994.000000	100.845062 
2993.000000	100.869793 
2992.000000	100.905277 
2991.000000	100.947047 
2990.000000	100.985834 
2989.000000	101.013401 
2988.000000	101.028005 
2987.000000	101.033425 
2986.000000	101.033945 
2985.000000	101.032028 
2984.000000	101.029602 
2983.000000	101.028336 
2982.000000	101.027989 
2981.000000	101.026366 
2980.000000	101.021676 
2979.000000	101.014043 
2978.000000	101.005073 
2977.000000	100.997607 
2976.000000	100.995620 
2975.000000	101.001681 
2974.000000	101.013214 
2973.000000	101.023187 
2972.000000	101.026167 
2971.000000	101.022493 
2970.000000	101.015147 
2969.000000	101.004224 
2968.000000	100.987217 
2967.000000	100.964536 
2966.000000	100.941959 
2965.000000	100.925946 
2964.000000	100.917607 
2963.000000	100.912779 
2962.000000	100.907438 
2961.000000	100.901444 
2960.000000	100.896487 
2959.000000	100.891733 
2958.000000	100.883079 
2957.000000	100.867029 
2956.000000	100.844493 
2955.000000	100.820198 
2954.000000	100.798610 
2953.000000	100.780899 
2952.000000	100.765842 
2951.000000	100.752992 
2950.000000	100.744166 
2949.000000	100.741367 
2948.000000	100.743647 
2947.000000	100.746960 
2946.000000	100.747563 
2945.000000	100.745198 
2944.000000	100.742534 
2943.000000	100.741947 
2942.000000	100.743451 
2941.000000	100.745220 
2940.000000	100.744911 
2939.000000	100.741003 
2938.000000	100.734671 
2937.000000	100.730448 
2936.000000	100.733023 
2935.000000	100.742205 
2934.000000	100.752147 
2933.000000	100.756885 
2932.000000	100.756304 
2931.000000	100.755588 
2930.000000	100.759271 
2929.000000	100.766740 
2928.000000	100.773270 
2927.000000	100.774807 
2926.000000	100.771601 
2925.000000	100.767566 
2924.000000	100.766325 
2923.000000	100.768328 
2922.000000	100.772038 
2921.000000	100.776711 
2920.000000	100.782444 
2919.000000	100.788202 
2918.000000	100.792445 
2917.000000	100.796309 
2916.000000	100.803531 
2915.000000	100.815555 
2914.000000	100.828470 
2913.000000	100.836787 
2912.000000	100.839116 
2911.000000	100.838331 
2910.000000	100.837529 
2909.000000	100.838175 
2908.000000	100.841331 
2907.000000	100.847880 
2906.000000	100.857335 
2905.000000	100.868404 
2904.000000	100.880572 
2903.000000	100.892669 
2902.000000	100.899719 
2901.000000	100.894468 
2900.000000	100.873988 
2899.000000	100.843816 
2898.000000	100.814609 
2897.000000	100.794970 
2896.000000	100.787611 
2895.000000	100.789800 
2894.000000	100.795485 
2893.000000	100.798455 
2892.000000	100.795542 
2891.000000	100.787336 
2890.000000	100.776120 
2889.000000	100.764166 
2888.000000	100.753913 
2887.000000	100.747629 
2886.000000	100.745329 
2885.000000	100.743942 
2884.000000	100.739988 
2883.000000	100.732466 
2882.000000	100.722143 
2881.000000	100.709223 
2880.000000	100.693430 
2879.000000	100.675674 
2878.000000	100.657741 
2877.000000	100.640439 
2876.000000	100.623730 
2875.000000	100.608732 
2874.000000	100.597714 
2873.000000	100.591105 
2872.000000	100.585611 
2871.000000	100.576591 
2870.000000	100.562424 
2869.000000	100.546302 
2868.000000	100.533736 
2867.000000	100.527834 
2866.000000	100.526076 
2865.000000	100.521609 
2864.000000	100.508897 
2863.000000	100.488611 
2862.000000	100.466759 
2861.000000	100.448790 
2860.000000	100.435057 
2859.000000	100.422345 
2858.000000	100.408492 
2857.000000	100.394328 
2856.000000	100.381666 
2855.000000	100.370906 
2854.000000	100.360890 
2853.000000	100.350170 
2852.000000	100.338097 
2851.000000	100.325208 
2850.000000	100.312877 
2849.000000	100.302224 
2848.000000	100.293078 
2847.000000	100.284336 
2846.000000	100.275424 
2845.000000	100.266902 
2844.000000	100.259306 
2843.000000	100.251973 
2842.000000	100.243786 
2841.000000	100.234906 
2840.000000	100.226938 
2839.000000	100.221232 
2838.000000	100.217667 
2837.000000	100.215286 
2836.000000	100.213350 
2835.000000	100.211070 
2834.000000	100.206868 
2833.000000	100.199269 
2832.000000	100.189113 
2831.000000	100.180093 
2830.000000	100.176021 
2829.000000	100.177334 
2828.000000	100.180451 
2827.000000	100.180791 
2826.000000	100.176657 
2825.000000	100.170154 
2824.000000	100.164484 
2823.000000	100.160642 
2822.000000	100.157075 
2821.000000	100.152291 
2820.000000	100.147096 
2819.000000	100.143860 
2818.000000	100.144022 
2817.000000	100.146879 
2816.000000	100.150561 
2815.000000	100.153266 
2814.000000	100.153571 
2813.000000	100.150686 
2812.000000	100.145235 
2811.000000	100.139397 
2810.000000	100.135518 
2809.000000	100.134471 
2808.000000	100.135472 
2807.000000	100.137042 
2806.000000	100.137855 
2805.000000	100.137120 
2804.000000	100.134827 
2803.000000	100.131620 
2802.000000	100.128077 
2801.000000	100.124245 
2800.000000	100.120326 
2799.000000	100.117566 
2798.000000	100.117574 
2797.000000	100.120547 
2796.000000	100.124733 
2795.000000	100.128142 
2794.000000	100.130482 
2793.000000	100.132730 
2792.000000	100.135100 
2791.000000	100.136243 
2790.000000	100.134777 
2789.000000	100.131000 
2788.000000	100.126644 
2787.000000	100.123173 
2786.000000	100.120692 
2785.000000	100.118523 
2784.000000	100.116403 
2783.000000	100.114832 
2782.000000	100.114450 
2781.000000	100.115487 
2780.000000	100.117823 
2779.000000	100.121149 
2778.000000	100.124816 
2777.000000	100.127708 
2776.000000	100.128735 
2775.000000	100.127669 
2774.000000	100.125338 
2773.000000	100.122811 
2772.000000	100.120436 
2771.000000	100.118011 
2770.000000	100.115778 
2769.000000	100.114674 
2768.000000	100.115341 
2767.000000	100.117304 
2766.000000	100.119286 
2765.000000	100.120313 
2764.000000	100.120307 
2763.000000	100.119706 
2762.000000	100.118946 
2761.000000	100.118320 
2760.000000	100.118011 
2759.000000	100.118013 
2758.000000	100.118083 
2757.000000	100.117979 
2756.000000	100.117788 
2755.000000	100.117908 
2754.000000	100.118646 
2753.000000	100.119867 
2752.000000	100.120965 
2751.000000	100.121280 
2750.000000	100.120676 
2749.000000	100.119612 
2748.000000	100.118707 
2747.000000	100.118188 
2746.000000	100.117899 
2745.000000	100.117787 
2744.000000	100.118107 
2743.000000	100.119010 
2742.000000	100.120109 
2741.000000	100.120683 
2740.000000	100.120361 
2739.000000	100.119415 
2738.000000	100.118499 
2737.000000	100.118069 
2736.000000	100.118116 
2735.000000	100.118330 
2734.000000	100.118455 
2733.000000	100.118505 
2732.000000	100.118688 
2731.000000	100.119143 
2730.000000	100.119785 
2729.000000	100.120462 
2728.000000	100.121205 
2727.000000	100.122186 
2726.000000	100.123400 
2725.000000	100.124536 
2724.000000	100.125221 
2723.000000	100.125204 
2722.000000	100.124338 
2721.000000	100.122711 
2720.000000	100.120902 
2719.000000	100.119788 
2718.000000	100.119714 
2717.000000	100.119937 
2716.000000	100.119194 
2715.000000	100.117015 
2714.000000	100.114431 
2713.000000	100.113165 
2712.000000	100.114020 
2711.000000	100.116292 
2710.000000	100.118365 
2709.000000	100.119179 
2708.000000	100.118899 
2707.000000	100.118438 
2706.000000	100.118622 
2705.000000	100.119667 
2704.000000	100.121210 
2703.000000	100.122581 
2702.000000	100.123164 
2701.000000	100.122698 
2700.000000	100.121361 
2699.000000	100.119563 
2698.000000	100.117684 
2697.000000	100.116063 
2696.000000	100.115057 
2695.000000	100.114870 
2694.000000	100.115316 
2693.000000	100.115931 
2692.000000	100.116431 
2691.000000	100.116928 
2690.000000	100.117672 
2689.000000	100.118733 
2688.000000	100.119943 
2687.000000	100.121012 
2686.000000	100.121621 
2685.000000	100.121540 
2684.000000	100.120786 
2683.000000	100.119679 
2682.000000	100.118730 
2681.000000	100.118425 
2680.000000	100.118983 
2679.000000	100.120173 
2678.000000	100.121411 
2677.000000	100.122291 
2676.000000	100.122990 
2675.000000	100.123874 
2674.000000	100.124656 
2673.000000	100.124400 
2672.000000	100.122612 
2671.000000	100.119909 
2670.000000	100.117551 
2669.000000	100.116417 
2668.000000	100.116549 
2667.000000	100.117555 
2666.000000	100.118988 
2665.000000	100.120457 
2664.000000	100.121669 
2663.000000	100.122410 
2662.000000	100.122507 
2661.000000	100.121915 
2660.000000	100.120840 
2659.000000	100.119684 
2658.000000	100.118722 
2657.000000	100.117904 
2656.000000	100.117104 
2655.000000	100.116443 
2654.000000	100.116213 
2653.000000	100.116512 
2652.000000	100.117091 
2651.000000	100.117536 
2650.000000	100.117518 
2649.000000	100.116935 
2648.000000	100.115915 
2647.000000	100.114774 
2646.000000	100.113869 
2645.000000	100.113396 
2644.000000	100.113374 
2643.000000	100.113755 
2642.000000	100.114441 
2641.000000	100.115194 
2640.000000	100.115683 
2639.000000	100.115736 
2638.000000	100.115495 
2637.000000	100.115343 
2636.000000	100.115530 
2635.000000	100.115922 
2634.000000	100.116166 
2633.000000	100.116101 
2632.000000	100.115946 
2631.000000	100.116067 
2630.000000	100.116562 
2629.000000	100.117146 
2628.000000	100.117495 
2627.000000	100.117670 
2626.000000	100.117991 
2625.000000	100.118561 
2624.000000	100.119145 
2623.000000	100.119531 
2622.000000	100.119804 
2621.000000	100.120161 
2620.000000	100.120601 
2619.000000	100.120992 
2618.000000	100.121373 
2617.000000	100.121973 
2616.000000	100.122894 
2615.000000	100.123926 
2614.000000	100.124799 
2613.000000	100.125500 
2612.000000	100.126273 
2611.000000	100.127344 
2610.000000	100.128701 
2609.000000	100.130074 
2608.000000	100.131097 
2607.000000	100.131567 
2606.000000	100.131639 
2605.000000	100.131792 
2604.000000	100.132448 
2603.000000	100.133666 
2602.000000	100.135205 
2601.000000	100.136802 
2600.000000	100.138332 
2599.000000	100.139653 
2598.000000	100.140488 
2597.000000	100.140653 
2596.000000	100.140333 
2595.000000	100.140013 
2594.000000	100.140044 
2593.000000	100.140370 
2592.000000	100.140672 
2591.000000	100.140770 
2590.000000	100.140903 
2589.000000	100.141534 
2588.000000	100.142846 
2587.000000	100.144493 
2586.000000	100.145851 
2585.000000	100.146598 
2584.000000	100.146939 
2583.000000	100.147324 
2582.000000	100.147964 
2581.000000	100.148684 
2580.000000	100.149215 
2579.000000	100.149553 
2578.000000	100.149974 
2577.000000	100.150726 
2576.000000	100.151788 
2575.000000	100.152904 
2574.000000	100.153796 
2573.000000	100.154367 
2572.000000	100.154719 
2571.000000	100.155045 
2570.000000	100.155482 
2569.000000	100.156052 
2568.000000	100.156709 
2567.000000	100.157366 
2566.000000	100.157911 
2565.000000	100.158245 
2564.000000	100.158377 
2563.000000	100.158441 
2562.000000	100.158599 
2561.000000	100.158889 
2560.000000	100.159212 
2559.000000	100.159457 
2558.000000	100.159636 
2557.000000	100.159858 
2556.000000	100.160203 
2555.000000	100.160645 
2554.000000	100.161116 
2553.000000	100.161547 
2552.000000	100.161918 
2551.000000	100.162250 
2550.000000	100.162579 
2549.000000	100.162918 
2548.000000	100.163246 
2547.000000	100.163525 
2546.000000	100.163737 
2545.000000	100.163891 
2544.000000	100.164028 
2543.000000	100.164185 
2542.000000	100.164380 
2541.000000	100.164602 
2540.000000	100.164833 
2539.000000	100.165051 
2538.000000	100.165242 
2537.000000	100.165404 
2536.000000	100.165551 
2535.000000	100.165695 
2534.000000	100.165836 
2533.000000	100.165970 
2532.000000	100.166114 
2531.000000	100.166312 
2530.000000	100.166593 
2529.000000	100.166937 
2528.000000	100.167282 
2527.000000	100.167547 
2526.000000	100.167687 
2525.000000	100.167717 
2524.000000	100.167728 
2523.000000	100.167812 
2522.000000	100.167964 
2521.000000	100.168110 
2520.000000	100.168256 
2519.000000	100.168548 
2518.000000	100.169077 
2517.000000	100.169690 
2516.000000	100.170114 
2515.000000	100.170233 
2514.000000	100.170146 
2513.000000	100.169972 
2512.000000	100.169746 
2511.000000	100.169560 
2510.000000	100.169656 
2509.000000	100.170208 
2508.000000	100.171131 
2507.000000	100.172164 
2506.000000	100.173038 
2505.000000	100.173548 
2504.000000	100.173663 
2503.000000	100.173674 
2502.000000	100.174049 
2501.000000	100.174935 
2500.000000	100.175939 
2499.000000	100.176602 
2498.000000	100.176964 
2497.000000	100.177393 
2496.000000	100.177976 
2495.000000	100.178377 
2494.000000	100.178294 
2493.000000	100.177821 
2492.000000	100.177314 
2491.000000	100.177086 
2490.000000	100.177206 
2489.000000	100.177376 
2488.000000	100.177060 
2487.000000	100.176028 
2486.000000	100.174807 
2485.000000	100.174277 
2484.000000	100.174797 
2483.000000	100.176003 
2482.000000	100.177453 
2481.000000	100.179106 
2480.000000	100.180910 
2479.000000	100.182356 
2478.000000	100.182846 
2477.000000	100.182322 
2476.000000	100.181261 
2475.000000	100.180207 
2474.000000	100.179455 
2473.000000	100.179196 
2472.000000	100.179567 
2471.000000	100.180495 
2470.000000	100.181700 
2469.000000	100.182919 
2468.000000	100.184017 
2467.000000	100.184856 
2466.000000	100.185279 
2465.000000	100.185293 
2464.000000	100.185112 
2463.000000	100.184942 
2462.000000	100.184842 
2461.000000	100.184850 
2460.000000	100.185053 
2459.000000	100.185451 
2458.000000	100.185873 
2457.000000	100.186144 
2456.000000	100.186279 
2455.000000	100.186437 
2454.000000	100.186729 
2453.000000	100.187121 
2452.000000	100.187505 
2451.000000	100.187811 
2450.000000	100.188066 
2449.000000	100.188379 
2448.000000	100.188847 
2447.000000	100.189461 
2446.000000	100.190121 
2445.000000	100.190711 
2444.000000	100.191195 
2443.000000	100.191598 
2442.000000	100.191959 
2441.000000	100.192310 
2440.000000	100.192670 
2439.000000	100.193055 
2438.000000	100.193474 
2437.000000	100.193916 
2436.000000	100.194364 
2435.000000	100.194801 
2434.000000	100.195208 
2433.000000	100.195577 
2432.000000	100.195933 
2431.000000	100.196332 
2430.000000	100.196797 
2429.000000	100.197279 
2428.000000	100.197710 
2427.000000	100.198089 
2426.000000	100.198502 
2425.000000	100.199005 
2424.000000	100.199521 
2423.000000	100.199884 
2422.000000	100.199991 
2421.000000	100.199890 
2420.000000	100.199769 
2419.000000	100.199826 
2418.000000	100.200164 
2417.000000	100.200793 
2416.000000	100.201677 
2415.000000	100.202712 
2414.000000	100.203671 
2413.000000	100.204307 
2412.000000	100.204599 
2411.000000	100.204828 
2410.000000	100.205279 
2409.000000	100.205845 
2408.000000	100.206053 
2407.000000	100.205550 
2406.000000	100.204462 
2405.000000	100.203369 
2404.000000	100.202880 
2403.000000	100.203082 
2402.000000	100.203560 
2401.000000	100.203861 
2400.000000	100.203927 
2399.000000	100.203973 
2398.000000	100.204087 
2397.000000	100.204190 
2396.000000	100.204254 
2395.000000	100.204348 
2394.000000	100.204488 
2393.000000	100.204600 
2392.000000	100.204642 
2391.000000	100.204653 
2390.000000	100.204702 
2389.000000	100.204819 
2388.000000	100.204992 
2387.000000	100.205190 
2386.000000	100.205379 
2385.000000	100.205552 
2384.000000	100.205713 
2383.000000	100.205870 
2382.000000	100.206021 
2381.000000	100.206171 
2380.000000	100.206331 
2379.000000	100.206514 
2378.000000	100.206724 
2377.000000	100.206957 
2376.000000	100.207206 
2375.000000	100.207470 
2374.000000	100.207753 
2373.000000	100.208054 
2372.000000	100.208372 
2371.000000	100.208699 
2370.000000	100.209034 
2369.000000	100.209379 
2368.000000	100.209737 
2367.000000	100.210113 
2366.000000	100.210511 
2365.000000	100.210930 
2364.000000	100.211371 
2363.000000	100.211835 
2362.000000	100.212326 
2361.000000	100.212843 
2360.000000	100.213379 
2359.000000	100.213923 
2358.000000	100.214465 
2357.000000	100.215007 
2356.000000	100.215557 
2355.000000	100.216119 
2354.000000	100.216688 
2353.000000	100.217251 
2352.000000	100.217797 
2351.000000	100.218325 
2350.000000	100.218843 
2349.000000	100.219358 
2348.000000	100.219876 
2347.000000	100.220396 
2346.000000	100.220917 
2345.000000	100.221437 
2344.000000	100.221961 
2343.000000	100.222501 
2342.000000	100.223065 
2341.000000	100.223662 
2340.000000	100.224297 
2339.000000	100.224973 
2338.000000	100.225681 
2337.000000	100.226404 
2336.000000	100.227120 
2335.000000	100.227818 
2334.000000	100.228504 
2333.000000	100.229183 
2332.000000	100.229860 
2331.000000	100.230537 
2330.000000	100.231217 
2329.000000	100.231918 
2328.000000	100.232662 
2327.000000	100.233459 
2326.000000	100.234298 
2325.000000	100.235144 
2324.000000	100.235962 
2323.000000	100.236737 
2322.000000	100.237502 
2321.000000	100.238318 
2320.000000	100.239230 
2319.000000	100.240223 
2318.000000	100.241220 
2317.000000	100.242134 
2316.000000	100.242928 
2315.000000	100.243632 
2314.000000	100.244283 
2313.000000	100.244888 
2312.000000	100.245528 
2311.000000	100.246364 
2310.000000	100.247477 
2309.000000	100.248697 
2308.000000	100.249779 
2307.000000	100.250740 
2306.000000	100.251865 
2305.000000	100.253341 
2304.000000	100.255077 
2303.000000	100.256859 
2302.000000	100.258541 
2301.000000	100.260022 
2300.000000	100.261197 
2299.000000	100.262027 
2298.000000	100.262611 
2297.000000	100.263152 
2296.000000	100.263883 
2295.000000	100.264975 
2294.000000	100.266399 
2293.000000	100.267932 
2292.000000	100.269382 
2291.000000	100.270771 
2290.000000	100.272095 
2289.000000	100.273077 
2288.000000	100.273454 
2287.000000	100.273472 
2286.000000	100.273818 
2285.000000	100.274901 
2284.000000	100.276466 
2283.000000	100.277972 
2282.000000	100.279127 
2281.000000	100.279921 
2280.000000	100.280377 
2279.000000	100.280525 
2278.000000	100.280577 
2277.000000	100.280889 
2276.000000	100.281680 
2275.000000	100.282895 
2274.000000	100.284251 
2273.000000	100.285395 
2272.000000	100.286149 
2271.000000	100.286648 
2270.000000	100.287208 
2269.000000	100.287993 
2268.000000	100.288848 
2267.000000	100.289501 
2266.000000	100.289854 
2265.000000	100.290045 
2264.000000	100.290280 
2263.000000	100.290593 
2262.000000	100.290757 
2261.000000	100.290499 
2260.000000	100.289843 
2259.000000	100.289255 
2258.000000	100.289294 
2257.000000	100.290121 
2256.000000	100.291452 
2255.000000	100.292838 
2254.000000	100.293962 
2253.000000	100.294617 
2252.000000	100.294640 
2251.000000	100.294055 
2250.000000	100.293157 
2249.000000	100.292345 
2248.000000	100.291897 
2247.000000	100.291893 
2246.000000	100.292212 
2245.000000	100.292532 
2244.000000	100.292498 
2243.000000	100.292017 
2242.000000	100.291375 
2241.000000	100.290982 
2240.000000	100.290997 
2239.000000	100.291258 
2238.000000	100.291494 
2237.000000	100.291608 
2236.000000	100.291710 
2235.000000	100.291894 
2234.000000	100.292084 
2233.000000	100.292143 
2232.000000	100.292107 
2231.000000	100.292169 
2230.000000	100.292429 
2229.000000	100.292786 
2228.000000	100.293096 
2227.000000	100.293307 
2226.000000	100.293402 
2225.000000	100.293342 
2224.000000	100.293157 
2223.000000	100.293003 
2222.000000	100.293027 
2221.000000	100.293193 
2220.000000	100.293342 
2219.000000	100.293383 
2218.000000	100.293388 
2217.000000	100.293501 
2216.000000	100.293790 
2215.000000	100.294217 
2214.000000	100.294675 
2213.000000	100.295053 
2212.000000	100.295321 
2211.000000	100.295535 
2210.000000	100.295793 
2209.000000	100.296128 
2208.000000	100.296482 
2207.000000	100.296795 
2206.000000	100.297091 
2205.000000	100.297427 
2204.000000	100.297772 
2203.000000	100.298025 
2202.000000	100.298170 
2201.000000	100.298348 
2200.000000	100.298707 
2199.000000	100.299228 
2198.000000	100.299746 
2197.000000	100.300151 
2196.000000	100.300493 
2195.000000	100.300878 
2194.000000	100.301295 
2193.000000	100.301598 
2192.000000	100.301726 
2191.000000	100.301887 
2190.000000	100.302401 
2189.000000	100.303361 
2188.000000	100.304485 
2187.000000	100.305376 
2186.000000	100.305899 
2185.000000	100.306190 
2184.000000	100.306396 
2183.000000	100.306500 
2182.000000	100.306432 
2181.000000	100.306271 
2180.000000	100.306282 
2179.000000	100.306709 
2178.000000	100.307501 
2177.000000	100.308300 
2176.000000	100.308842 
2175.000000	100.309328 
2174.000000	100.310164 
2173.000000	100.311335 
2172.000000	100.312294 
2171.000000	100.312585 
2170.000000	100.312243 
2169.000000	100.311533 
2168.000000	100.310631 
2167.000000	100.309753 
2166.000000	100.309318 
2165.000000	100.309622 
2164.000000	100.310527 
2163.000000	100.311648 
2162.000000	100.312690 
2161.000000	100.313471 
2160.000000	100.313837 
2159.000000	100.313820 
2158.000000	100.313696 
2157.000000	100.313608 
2156.000000	100.313318 
2155.000000	100.312629 
2154.000000	100.311875 
2153.000000	100.311608 
2152.000000	100.311931 
2151.000000	100.312563 
2150.000000	100.313413 
2149.000000	100.314660 
2148.000000	100.316275 
2147.000000	100.317846 
2146.000000	100.319003 
2145.000000	100.319765 
2144.000000	100.320318 
2143.000000	100.320658 
2142.000000	100.320545 
2141.000000	100.319816 
2140.000000	100.318802 
2139.000000	100.318371 
2138.000000	100.319281 
2137.000000	100.321436 
2136.000000	100.323786 
2135.000000	100.325262 
2134.000000	100.325738 
2133.000000	100.325850 
2132.000000	100.326137 
2131.000000	100.326543 
2130.000000	100.326680 
2129.000000	100.326297 
2128.000000	100.325592 
2127.000000	100.325237 
2126.000000	100.325830 
2125.000000	100.327092 
2124.000000	100.327887 
2123.000000	100.327496 
2122.000000	100.326595 
2121.000000	100.326493 
2120.000000	100.327705 
2119.000000	100.329790 
2118.000000	100.332148 
2117.000000	100.334360 
2116.000000	100.336041 
2115.000000	100.337149 
2114.000000	100.338295 
2113.000000	100.339974 
2112.000000	100.341593 
2111.000000	100.342071 
2110.000000	100.341368 
2109.000000	100.340649 
2108.000000	100.340851 
2107.000000	100.341922 
2106.000000	100.343651 
2105.000000	100.346303 
2104.000000	100.349957 
2103.000000	100.353891 
2102.000000	100.357143 
2101.000000	100.359302 
2100.000000	100.360418 
2099.000000	100.360699 
2098.000000	100.360702 
2097.000000	100.361181 
2096.000000	100.362213 
2095.000000	100.363019 
2094.000000	100.363051 
2093.000000	100.362701 
2092.000000	100.362610 
2091.000000	100.362852 
2090.000000	100.363262 
2089.000000	100.364052 
2088.000000	100.365418 
2087.000000	100.366819 
2086.000000	100.367370 
2085.000000	100.366856 
2084.000000	100.365891 
2083.000000	100.365177 
2082.000000	100.364940 
2081.000000	100.365143 
2080.000000	100.365785 
2079.000000	100.366824 
2078.000000	100.368081 
2077.000000	100.369339 
2076.000000	100.370413 
2075.000000	100.371080 
2074.000000	100.371127 
2073.000000	100.370602 
2072.000000	100.369922 
2071.000000	100.369568 
2070.000000	100.369620 
2069.000000	100.369783 
2068.000000	100.369792 
2067.000000	100.369675 
2066.000000	100.369592 
2065.000000	100.369574 
2064.000000	100.369519 
2063.000000	100.369348 
2062.000000	100.369081 
2061.000000	100.368790 
2060.000000	100.368528 
2059.000000	100.368300 
2058.000000	100.368081 
2057.000000	100.367847 
2056.000000	100.367583 
2055.000000	100.367293 
2054.000000	100.366992 
2053.000000	100.366695 
2052.000000	100.366406 
2051.000000	100.366119 
2050.000000	100.365824 
2049.000000	100.365518 
2048.000000	100.365196 
2047.000000	100.364850 
2046.000000	100.364490 
2045.000000	100.364156 
2044.000000	100.363889 
2043.000000	100.363690 
2042.000000	100.363492 
2041.000000	100.363218 
2040.000000	100.362850 
2039.000000	100.362468 
2038.000000	100.362186 
2037.000000	100.362039 
2036.000000	100.361930 
2035.000000	100.361716 
2034.000000	100.361374 
2033.000000	100.361013 
2032.000000	100.360732 
2031.000000	100.360470 
2030.000000	100.360037 
2029.000000	100.359298 
2028.000000	100.358306 
2027.000000	100.357333 
2026.000000	100.356683 
2025.000000	100.356433 
2024.000000	100.356301 
2023.000000	100.355907 
2022.000000	100.355260 
2021.000000	100.354809 
2020.000000	100.354928 
2019.000000	100.355499 
2018.000000	100.356083 
2017.000000	100.356407 
2016.000000	100.356521 
2015.000000	100.356538 
2014.000000	100.356444 
2013.000000	100.356182 
2012.000000	100.355800 
2011.000000	100.355419 
2010.000000	100.355135 
2009.000000	100.355023 
2008.000000	100.355151 
2007.000000	100.355530 
2006.000000	100.356011 
2005.000000	100.356317 
2004.000000	100.356259 
2003.000000	100.355901 
2002.000000	100.355470 
2001.000000	100.355093 
2000.000000	100.354706 
1999.000000	100.354283 
1998.000000	100.354042 
1997.000000	100.354246 
1996.000000	100.354870 
1995.000000	100.355573 
1994.000000	100.355996 
1993.000000	100.356069 
1992.000000	100.355985 
1991.000000	100.356036 
1990.000000	100.356395 
1989.000000	100.357005 
1988.000000	100.357605 
1987.000000	100.357937 
1986.000000	100.357999 
1985.000000	100.358064 
1984.000000	100.358388 
1983.000000	100.358955 
1982.000000	100.359568 
1981.000000	100.360076 
1980.000000	100.360422 
1979.000000	100.360587 
1978.000000	100.360574 
1977.000000	100.360464 
1976.000000	100.360377 
1975.000000	100.360429 
1974.000000	100.360781 
1973.000000	100.361573 
1972.000000	100.362692 
1971.000000	100.363719 
1970.000000	100.364312 
1969.000000	100.364552 
1968.000000	100.364702 
1967.000000	100.364754 
1966.000000	100.364626 
1965.000000	100.364738 
1964.000000	100.365755 
1963.000000	100.367713 
1962.000000	100.369841 
1961.000000	100.371494 
1960.000000	100.372881 
1959.000000	100.374410 
1958.000000	100.375785 
1957.000000	100.376394 
1956.000000	100.376300 
1955.000000	100.376252 
1954.000000	100.376695 
1953.000000	100.377298 
1952.000000	100.377570 
1951.000000	100.377472 
1950.000000	100.377338 
1949.000000	100.377444 
1948.000000	100.377834 
1947.000000	100.378431 
1946.000000	100.379235 
1945.000000	100.380496 
1944.000000	100.382524 
1943.000000	100.385132 
1942.000000	100.387438 
1941.000000	100.388612 
1940.000000	100.388625 
1939.000000	100.387943 
1938.000000	100.386928 
1937.000000	100.385925 
1936.000000	100.385690 
1935.000000	100.387033 
1934.000000	100.389845 
1933.000000	100.392946 
1932.000000	100.395252 
1931.000000	100.396736 
1930.000000	100.397921 
1929.000000	100.398826 
1928.000000	100.398956 
1927.000000	100.398251 
1926.000000	100.397440 
1925.000000	100.397414 
1924.000000	100.398408 
1923.000000	100.399789 
1922.000000	100.400520 
1921.000000	100.400059 
1920.000000	100.398945 
1919.000000	100.398471 
1918.000000	100.399415 
1917.000000	100.400913 
1916.000000	100.401336 
1915.000000	100.400278 
1914.000000	100.398797 
1913.000000	100.397936 
1912.000000	100.397543 
1911.000000	100.396721 
1910.000000	100.395094 
1909.000000	100.393255 
1908.000000	100.392080 
1907.000000	100.392019 
1906.000000	100.393010 
1905.000000	100.394647 
1904.000000	100.396254 
1903.000000	100.397188 
1902.000000	100.397280 
1901.000000	100.396893 
1900.000000	100.396550 
1899.000000	100.396585 
1898.000000	100.397110 
1897.000000	100.398127 
1896.000000	100.399478 
1895.000000	100.400777 
1894.000000	100.401604 
1893.000000	100.401833 
1892.000000	100.401691 
1891.000000	100.401514 
1890.000000	100.401470 
1889.000000	100.401479 
1888.000000	100.401394 
1887.000000	100.401200 
1886.000000	100.401036 
1885.000000	100.401061 
1884.000000	100.401295 
1883.000000	100.401603 
1882.000000	100.401820 
1881.000000	100.401916 
1880.000000	100.401990 
1879.000000	100.402132 
1878.000000	100.402310 
1877.000000	100.402421 
1876.000000	100.402421 
1875.000000	100.402365 
1874.000000	100.402336 
1873.000000	100.402368 
1872.000000	100.402439 
1871.000000	100.402519 
1870.000000	100.402581 
1869.000000	100.402626 
1868.000000	100.402671 
1867.000000	100.402749 
1866.000000	100.402874 
1865.000000	100.403022 
1864.000000	100.403135 
1863.000000	100.403191 
1862.000000	100.403233 
1861.000000	100.403310 
1860.000000	100.403388 
1859.000000	100.403387 
1858.000000	100.403274 
1857.000000	100.403081 
1856.000000	100.402824 
1855.000000	100.402488 
1854.000000	100.402117 
1853.000000	100.401856 
1852.000000	100.401838 
1851.000000	100.402040 
1850.000000	100.402260 
1849.000000	100.402296 
1848.000000	100.402172 
1847.000000	100.402117 
1846.000000	100.402254 
1845.000000	100.402403 
1844.000000	100.402398 
1843.000000	100.402511 
1842.000000	100.403189 
1841.000000	100.404437 
1840.000000	100.405725 
1839.000000	100.406412 
1838.000000	100.406247 
1837.000000	100.405516 
1836.000000	100.404703 
1835.000000	100.404147 
1834.000000	100.404025 
1833.000000	100.404428 
1832.000000	100.405310 
1831.000000	100.406537 
1830.000000	100.408040 
1829.000000	100.409906 
1828.000000	100.412083 
1827.000000	100.413970 
1826.000000	100.414685 
1825.000000	100.413763 
1824.000000	100.411617 
1823.000000	100.409416 
1822.000000	100.408111 
1821.000000	100.407940 
1820.000000	100.408611 
1819.000000	100.409621 
1818.000000	100.410687 
1817.000000	100.411809 
1816.000000	100.412801 
1815.000000	100.413132 
1814.000000	100.412497 
1813.000000	100.411336 
1812.000000	100.410588 
1811.000000	100.410646 
1810.000000	100.410992 
1809.000000	100.411055 
1808.000000	100.411038 
1807.000000	100.411542 
1806.000000	100.412592 
1805.000000	100.413489 
1804.000000	100.413644 
1803.000000	100.413198 
1802.000000	100.412659 
1801.000000	100.412232 
1800.000000	100.411914 
1799.000000	100.411920 
1798.000000	100.412555 
1797.000000	100.413728 
1796.000000	100.414991 
1795.000000	100.416029 
1794.000000	100.416861 
1793.000000	100.417670 
1792.000000	100.418641 
1791.000000	100.419801 
1790.000000	100.420900 
1789.000000	100.421498 
1788.000000	100.421358 
1787.000000	100.420716 
1786.000000	100.420105 
1785.000000	100.419820 
1784.000000	100.419697 
1783.000000	100.419559 
1782.000000	100.419631 
1781.000000	100.420315 
1780.000000	100.421714 
1779.000000	100.423420 
1778.000000	100.424913 
1777.000000	100.426022 
1776.000000	100.426936 
1775.000000	100.427886 
1774.000000	100.428818 
1773.000000	100.429407 
1772.000000	100.429534 
1771.000000	100.429675 
1770.000000	100.430397 
1769.000000	100.431770 
1768.000000	100.433456 
1767.000000	100.435029 
1766.000000	100.436340 
1765.000000	100.437520 
1764.000000	100.438701 
1763.000000	100.439823 
1762.000000	100.440698 
1761.000000	100.441261 
1760.000000	100.441707 
1759.000000	100.442321 
1758.000000	100.443266 
1757.000000	100.444487 
1756.000000	100.445783 
1755.000000	100.447003 
1754.000000	100.448163 
1753.000000	100.449283 
1752.000000	100.450214 
1751.000000	100.450714 
1750.000000	100.450770 
1749.000000	100.450770 
1748.000000	100.451185 
1747.000000	100.452221 
1746.000000	100.453742 
1745.000000	100.455321 
1744.000000	100.456554 
1743.000000	100.457320 
1742.000000	100.457788 
1741.000000	100.458136 
1740.000000	100.458376 
1739.000000	100.458489 
1738.000000	100.458585 
1737.000000	100.458733 
1736.000000	100.458764 
1735.000000	100.458512 
1734.000000	100.458322 
1733.000000	100.458715 
1732.000000	100.459574 
1731.000000	100.460399 
1730.000000	100.460890 
1729.000000	100.461056 
1728.000000	100.461077 
1727.000000	100.461093 
1726.000000	100.461119 
1725.000000	100.461083 
1724.000000	100.460837 
1723.000000	100.460268 
1722.000000	100.459528 
1721.000000	100.459006 
1720.000000	100.458976 
1719.000000	100.459378 
1718.000000	100.459918 
1717.000000	100.460466 
1716.000000	100.461166 
1715.000000	100.461927 
1714.000000	100.462313 
1713.000000	100.462058 
1712.000000	100.461311 
1711.000000	100.460421 
1710.000000	100.459653 
1709.000000	100.459107 
1708.000000	100.458872 
1707.000000	100.459030 
1706.000000	100.459513 
1705.000000	100.460030 
1704.000000	100.460298 
1703.000000	100.460339 
1702.000000	100.460327 
1701.000000	100.460409 
1700.000000	100.460562 
1699.000000	100.460652 
1698.000000	100.460678 
1697.000000	100.460744 
1696.000000	100.460940 
1695.000000	100.461257 
1694.000000	100.461626 
1693.000000	100.461989 
1692.000000	100.462344 
1691.000000	100.462701 
1690.000000	100.463067 
1689.000000	100.463449 
1688.000000	100.463854 
1687.000000	100.464281 
1686.000000	100.464724 
1685.000000	100.465175 
1684.000000	100.465629 
1683.000000	100.466088 
1682.000000	100.466554 
1681.000000	100.467032 
1680.000000	100.467523 
1679.000000	100.468023 
1678.000000	100.468522 
1677.000000	100.469004 
1676.000000	100.469455 
1675.000000	100.469865 
1674.000000	100.470239 
1673.000000	100.470596 
1672.000000	100.470961 
1671.000000	100.471359 
1670.000000	100.471795 
1669.000000	100.472253 
1668.000000	100.472716 
1667.000000	100.473178 
1666.000000	100.473641 
1665.000000	100.474110 
1664.000000	100.474583 
1663.000000	100.475057 
1662.000000	100.475534 
1661.000000	100.476023 
1660.000000	100.476534 
1659.000000	100.477068 
1658.000000	100.477620 
1657.000000	100.478182 
1656.000000	100.478749 
1655.000000	100.479315 
1654.000000	100.479873 
1653.000000	100.480424 
1652.000000	100.480968 
1651.000000	100.481503 
1650.000000	100.482029 
1649.000000	100.482549 
1648.000000	100.483055 
1647.000000	100.483534 
1646.000000	100.483976 
1645.000000	100.484383 
1644.000000	100.484771 
1643.000000	100.485164 
1642.000000	100.485578 
1641.000000	100.486020 
1640.000000	100.486486 
1639.000000	100.486971 
1638.000000	100.487472 
1637.000000	100.487981 
1636.000000	100.488492 
1635.000000	100.488998 
1634.000000	100.489503 
1633.000000	100.490020 
1632.000000	100.490566 
1631.000000	100.491154 
1630.000000	100.491779 
1629.000000	100.492423 
1628.000000	100.493068 
1627.000000	100.493711 
1626.000000	100.494354 
1625.000000	100.495003 
1624.000000	100.495665 
1623.000000	100.496332 
1622.000000	100.497007 
1621.000000	100.497710 
1620.000000	100.498470 
1619.000000	100.499278 
1618.000000	100.500040 
1617.000000	100.500606 
1616.000000	100.500911 
1615.000000	100.501094 
1614.000000	100.501386 
1613.000000	100.501939 
1612.000000	100.502796 
1611.000000	100.503796 
1610.000000	100.504598 
1609.000000	100.504918 
1608.000000	100.504725 
1607.000000	100.504263 
1606.000000	100.503845 
1605.000000	100.503667 
1604.000000	100.503891 
1603.000000	100.504758 
1602.000000	100.506350 
1601.000000	100.508270 
1600.000000	100.509823 
1599.000000	100.510663 
1598.000000	100.511123 
1597.000000	100.511781 
1596.000000	100.512684 
1595.000000	100.513249 
1594.000000	100.513085 
1593.000000	100.512620 
1592.000000	100.512658 
1591.000000	100.513514 
1590.000000	100.514855 
1589.000000	100.516208 
1588.000000	100.517365 
1587.000000	100.518297 
1586.000000	100.519008 
1585.000000	100.519570 
1584.000000	100.520151 
1583.000000	100.520777 
1582.000000	100.521067 
1581.000000	100.520554 
1580.000000	100.519198 
1579.000000	100.517502 
1578.000000	100.516290 
1577.000000	100.516629 
1576.000000	100.519015 
1575.000000	100.522101 
1574.000000	100.524048 
1573.000000	100.524751 
1572.000000	100.525116 
1571.000000	100.525223 
1570.000000	100.523899 
1569.000000	100.520227 
1568.000000	100.515340 
1567.000000	100.511433 
1566.000000	100.509883 
1565.000000	100.510659 
1564.000000	100.512407 
1563.000000	100.513731 
1562.000000	100.514251 
1561.000000	100.514166 
1560.000000	100.513914 
1559.000000	100.514180 
1558.000000	100.515835 
1557.000000	100.518302 
1556.000000	100.519417 
1555.000000	100.519884 
1554.000000	100.520376 
1553.000000	100.520575 
1552.000000	100.520421 
1551.000000	100.519925 
1550.000000	100.518709 
1549.000000	100.516663 
1548.000000	100.514561 
1547.000000	100.513322 
1546.000000	100.513215 
1545.000000	100.513779 
1544.000000	100.514578 
1543.000000	100.515926 
1542.000000	100.518032 
1541.000000	100.520010 
1540.000000	100.520912 
1539.000000	100.521587 
1538.000000	100.522905 
1537.000000	100.524612 
1536.000000	100.526770 
1535.000000	100.528999 
1534.000000	100.530468 
1533.000000	100.530987 
1532.000000	100.531304 
1531.000000	100.531947 
1530.000000	100.532850 
1529.000000	100.533851 
1528.000000	100.534823 
1527.000000	100.535745 
1526.000000	100.536689 
1525.000000	100.537779 
1524.000000	100.539301 
1523.000000	100.541631 
1522.000000	100.544846 
1521.000000	100.548258 
1520.000000	100.550889 
1519.000000	100.552634 
1518.000000	100.553965 
1517.000000	100.555325 
1516.000000	100.556908 
1515.000000	100.558700 
1514.000000	100.560622 
1513.000000	100.562661 
1512.000000	100.564828 
1511.000000	100.567072 
1510.000000	100.569291 
1509.000000	100.571410 
1508.000000	100.573427 
1507.000000	100.575462 
1506.000000	100.577671 
1505.000000	100.579975 
1504.000000	100.582245 
1503.000000	100.584493 
1502.000000	100.586757 
1501.000000	100.589040 
1500.000000	100.591338 
1499.000000	100.593647 
1498.000000	100.595976 
1497.000000	100.598341 
1496.000000	100.600753 
1495.000000	100.603215 
1494.000000	100.605724 
1493.000000	100.608271 
1492.000000	100.610851 
1491.000000	100.613467 
1490.000000	100.616128 
1489.000000	100.618805 
1488.000000	100.621439 
1487.000000	100.623998 
1486.000000	100.626515 
1485.000000	100.629028 
1484.000000	100.631502 
1483.000000	100.633865 
1482.000000	100.636125 
1481.000000	100.638413 
1480.000000	100.640797 
1479.000000	100.643127 
1478.000000	100.645222 
1477.000000	100.647196 
1476.000000	100.649454 
1475.000000	100.652449 
1474.000000	100.656433 
1473.000000	100.660818 
1472.000000	100.664009 
1471.000000	100.665103 
1470.000000	100.665246 
1469.000000	100.666497 
1468.000000	100.669742 
1467.000000	100.673493 
1466.000000	100.674875 
1465.000000	100.672748 
1464.000000	100.669971 
1463.000000	100.670369 
1462.000000	100.674800 
1461.000000	100.681601 
1460.000000	100.687962 
1459.000000	100.691508 
1458.000000	100.693339 
1457.000000	100.698780 
1456.000000	100.709022 
1455.000000	100.717703 
1454.000000	100.721908 
1453.000000	100.724827 
1452.000000	100.728858 
1451.000000	100.732816 
1450.000000	100.732830 
1449.000000	100.726166 
1448.000000	100.715095 
1447.000000	100.706419 
1446.000000	100.704634 
1445.000000	100.707849 
1444.000000	100.711826 
1443.000000	100.714642 
1442.000000	100.717293 
1441.000000	100.720795 
1440.000000	100.724656 
1439.000000	100.728500 
1438.000000	100.733408 
1437.000000	100.740013 
1436.000000	100.745038 
1435.000000	100.744627 
1434.000000	100.740142 
1433.000000	100.735809 
1432.000000	100.734243 
1431.000000	100.736225 
1430.000000	100.742186 
1429.000000	100.751905 
1428.000000	100.762815 
1427.000000	100.771764 
1426.000000	100.778697 
1425.000000	100.786399 
1424.000000	100.796912 
1423.000000	100.809318 
1422.000000	100.821747 
1421.000000	100.833673 
1420.000000	100.845349 
1419.000000	100.856680 
1418.000000	100.868507 
1417.000000	100.882993 
1416.000000	100.900731 
1415.000000	100.920588 
1414.000000	100.941703 
1413.000000	100.963588 
1412.000000	100.984530 
1411.000000	101.001505 
1410.000000	101.012923 
1409.000000	101.019840 
1408.000000	101.023544 
1407.000000	101.024154 
1406.000000	101.021982 
1405.000000	101.017883 
1404.000000	101.011970 
1403.000000	101.004042 
1402.000000	100.995430 
1401.000000	100.988265 
1400.000000	100.983154 
1399.000000	100.980096 
1398.000000	100.982441 
1397.000000	100.996285 
1396.000000	101.023152 
1395.000000	101.052463 
1394.000000	101.065886 
1393.000000	101.055170 
1392.000000	101.028479 
1391.000000	101.000075 
1390.000000	100.980200 
1389.000000	100.972474 
1388.000000	100.975132 
1387.000000	100.983126 
1386.000000	100.991496 
1385.000000	100.997904 
1384.000000	101.001867 
1383.000000	101.003569 
1382.000000	101.004078 
1381.000000	101.004817 
1380.000000	101.005534 
1379.000000	101.003803 
1378.000000	100.997352 
1377.000000	100.985933 
1376.000000	100.970691 
1375.000000	100.953681 
1374.000000	100.938506 
1373.000000	100.928142 
1372.000000	100.920971 
1371.000000	100.911996 
1370.000000	100.898257 
1369.000000	100.881503 
1368.000000	100.866054 
1367.000000	100.854666 
1366.000000	100.847249 
1365.000000	100.842426 
1364.000000	100.838316 
1363.000000	100.832759 
1362.000000	100.825393 
1361.000000	100.818807 
1360.000000	100.815508 
1359.000000	100.814915 
1358.000000	100.814018 
1357.000000	100.809879 
1356.000000	100.801551 
1355.000000	100.790756 
1354.000000	100.781408 
1353.000000	100.776915 
1352.000000	100.776498 
1351.000000	100.775272 
1350.000000	100.769421 
1349.000000	100.761026 
1348.000000	100.755509 
1347.000000	100.754905 
1346.000000	100.756302 
1345.000000	100.756401 
1344.000000	100.754470 
1343.000000	100.750545 
1342.000000	100.744145 
1341.000000	100.735996 
1340.000000	100.728692 
1339.000000	100.723865 
1338.000000	100.720388 
1337.000000	100.717126 
1336.000000	100.715604 
1335.000000	100.718004 
1334.000000	100.723892 
1333.000000	100.730206 
1332.000000	100.733724 
1331.000000	100.732838 
1330.000000	100.728076 
1329.000000	100.722132 
1328.000000	100.718661 
1327.000000	100.719641 
1326.000000	100.723762 
1325.000000	100.727811 
1324.000000	100.729474 
1323.000000	100.728575 
1322.000000	100.726441 
1321.000000	100.724812 
1320.000000	100.724867 
1319.000000	100.726501 
1318.000000	100.728576 
1317.000000	100.730114 
1316.000000	100.730920 
1315.000000	100.731224 
1314.000000	100.731562 
1313.000000	100.732863 
1312.000000	100.735492 
1311.000000	100.738319 
1310.000000	100.740200 
1309.000000	100.742353 
1308.000000	100.747285 
1307.000000	100.754731 
1306.000000	100.760602 
1305.000000	100.761232 
1304.000000	100.757147 
1303.000000	100.751831 
1302.000000	100.748337 
1301.000000	100.747967 
1300.000000	100.750382 
1299.000000	100.753214 
1298.000000	100.753264 
1297.000000	100.750174 
1296.000000	100.747625 
1295.000000	100.748917 
1294.000000	100.752726 
1293.000000	100.755287 
1292.000000	100.755368 
1291.000000	100.754574 
1290.000000	100.754132 
1289.000000	100.754466 
1288.000000	100.756972 
1287.000000	100.762603 
1286.000000	100.768900 
1285.000000	100.772144 
1284.000000	100.772848 
1283.000000	100.775764 
1282.000000	100.784114 
1281.000000	100.796331 
1280.000000	100.808371 
1279.000000	100.817539 
1278.000000	100.823637 
1277.000000	100.828125 
1276.000000	100.832960 
1275.000000	100.839065 
1274.000000	100.845425 
1273.000000	100.850684 
1272.000000	100.855738 
1271.000000	100.863524 
1270.000000	100.875916 
1269.000000	100.891767 
1268.000000	100.908113 
1267.000000	100.922367 
1266.000000	100.933495 
1265.000000	100.942136 
1264.000000	100.949783 
1263.000000	100.957443 
1262.000000	100.965303 
1261.000000	100.973839 
1260.000000	100.984113 
1259.000000	100.996106 
1258.000000	101.007839 
1257.000000	101.017239 
1256.000000	101.023794 
1255.000000	101.027636 
1254.000000	101.028680 
1253.000000	101.027963 
1252.000000	101.028218 
1251.000000	101.030809 
1250.000000	101.032818 
1249.000000	101.029156 
1248.000000	101.017165 
1247.000000	100.998479 
1246.000000	100.978594 
1245.000000	100.966061 
1244.000000	100.968483 
1243.000000	100.984447 
1242.000000	101.000192 
1241.000000	101.000577 
1240.000000	100.984741 
1239.000000	100.966553 
1238.000000	100.958871 
1237.000000	100.961930 
1236.000000	100.968726 
1235.000000	100.975917 
1234.000000	100.984927 
1233.000000	100.995212 
1232.000000	101.002212 
1231.000000	101.002500 
1230.000000	100.997460 
1229.000000	100.990904 
1228.000000	100.985021 
1227.000000	100.979171 
1226.000000	100.971039 
1225.000000	100.958270 
1224.000000	100.940109 
1223.000000	100.918461 
1222.000000	100.897124 
1221.000000	100.879172 
1220.000000	100.864337 
1219.000000	100.848761 
1218.000000	100.828775 
1217.000000	100.806110 
1216.000000	100.787544 
1215.000000	100.776723 
1214.000000	100.767764 
1213.000000	100.751035 
1212.000000	100.725031 
1211.000000	100.698274 
1210.000000	100.678419 
1209.000000	100.663721 
1208.000000	100.647550 
1207.000000	100.627199 
1206.000000	100.605127 
1205.000000	100.584508 
1204.000000	100.567087 
1203.000000	100.553490 
1202.000000	100.542206 
1201.000000	100.529492 
1200.000000	100.513124 
1199.000000	100.495246 
1198.000000	100.479485 
1197.000000	100.466855 
1196.000000	100.456612 
1195.000000	100.448638 
1194.000000	100.442059 
1193.000000	100.433755 
1192.000000	100.421180 
1191.000000	100.405486 
1190.000000	100.389698 
1189.000000	100.375371 
1188.000000	100.363296 
1187.000000	100.355181 
1186.000000	100.350948 
1185.000000	100.345569 
1184.000000	100.332631 
1183.000000	100.311614 
1182.000000	100.289150 
1181.000000	100.272217 
1180.000000	100.261772 
1179.000000	100.253562 
1178.000000	100.243243 
1177.000000	100.230019 
1176.000000	100.216390 
1175.000000	100.205215 
1174.000000	100.196625 
1173.000000	100.187703 
1172.000000	100.175575 
1171.000000	100.160281 
1170.000000	100.143964 
1169.000000	100.128089 
1168.000000	100.112705 
1167.000000	100.097859 
1166.000000	100.084293 
1165.000000	100.073283 
1164.000000	100.066959 
1163.000000	100.067789 
1162.000000	100.076066 
1161.000000	100.088342 
1160.000000	100.099635 
1159.000000	100.106803 
1158.000000	100.108775 
1157.000000	100.104806 
1156.000000	100.094492 
1155.000000	100.079383 
1154.000000	100.062919 
1153.000000	100.048230 
1152.000000	100.036764 
1151.000000	100.028422 
1150.000000	100.021843 
1149.000000	100.015268 
1148.000000	100.008269 
1147.000000	100.001768 
1146.000000	99.995353  
1145.000000	99.986167  
1144.000000	99.972379  
1143.000000	99.956592  
1142.000000	99.943582  
1141.000000	99.935358  
1140.000000	99.930355  
1139.000000	99.926321  
1138.000000	99.921696  
1137.000000	99.915035  
1136.000000	99.905792  
1135.000000	99.895713  
1134.000000	99.887321  
1133.000000	99.880910  
1132.000000	99.874335  
1131.000000	99.865057  
1130.000000	99.851352  
1129.000000	99.833487  
1128.000000	99.816072  
1127.000000	99.807281  
1126.000000	99.811565  
1125.000000	99.823093  
1124.000000	99.829536  
1123.000000	99.823210  
1122.000000	99.806687  
1121.000000	99.788160  
1120.000000	99.774517  
1119.000000	99.768766  
1118.000000	99.769778  
1117.000000	99.772450  
1116.000000	99.771051  
1115.000000	99.765211  
1114.000000	99.761811  
1113.000000	99.769337  
1112.000000	99.790492  
1111.000000	99.819838  
1110.000000	99.847335  
1109.000000	99.864684  
1108.000000	99.870266  
1107.000000	99.869736  
1106.000000	99.871646  
1105.000000	99.881639  
1104.000000	99.899763  
1103.000000	99.921097  
1102.000000	99.937591  
1101.000000	99.941827  
1100.000000	99.932941  
1099.000000	99.919204  
1098.000000	99.911325  
1097.000000	99.912066  
1096.000000	99.915146  
1095.000000	99.915818  
1094.000000	99.920085  
1093.000000	99.940569  
1092.000000	99.983757  
1091.000000	100.042362 
1090.000000	100.100118 
1089.000000	100.145376 
1088.000000	100.180753 
1087.000000	100.218520 
1086.000000	100.266117 
1085.000000	100.317853 
1084.000000	100.362783 
1083.000000	100.398872 
1082.000000	100.434814 
1081.000000	100.477253 
1080.000000	100.521485 
1079.000000	100.557893 
1078.000000	100.582587 
1077.000000	100.596473 
1076.000000	100.598159 
1075.000000	100.585666 
1074.000000	100.563777 
1073.000000	100.541919 
1072.000000	100.524572 
1071.000000	100.511037 
1070.000000	100.505264 
1069.000000	100.516649 
1068.000000	100.545127 
1067.000000	100.569976 
1066.000000	100.562917 
1065.000000	100.514756 
1064.000000	100.443411 
1063.000000	100.377556 
1062.000000	100.338654 
1061.000000	100.334702 
1060.000000	100.358779 
1059.000000	100.388707 
1058.000000	100.396697 
1057.000000	100.369569 
1056.000000	100.319746 
1055.000000	100.273227 
1054.000000	100.247285 
1053.000000	100.240381 
1052.000000	100.238751 
1051.000000	100.228900 
1050.000000	100.206402 
1049.000000	100.176585 
1048.000000	100.146999 
1047.000000	100.118259 
1046.000000	100.083723 
1045.000000	100.038721 
1044.000000	99.986924  
1043.000000	99.936155  
1042.000000	99.891508  
1041.000000	99.855225  
1040.000000	99.828648  
1039.000000	99.807915  
1038.000000	99.780271  
1037.000000	99.733058  
1036.000000	99.667617  
1035.000000	99.598104  
1034.000000	99.536081  
1033.000000	99.483622  
1032.000000	99.442356  
1031.000000	99.420071  
1030.000000	99.422257  
1029.000000	99.440585  
1028.000000	99.454848  
1027.000000	99.448737  
1026.000000	99.423452  
1025.000000	99.394804  
1024.000000	99.378136  
1023.000000	99.375624  
1022.000000	99.375625  
1021.000000	99.365627  
1020.000000	99.345916  
1019.000000	99.327135  
1018.000000	99.315742  
1017.000000	99.308180  
1016.000000	99.300199  
1015.000000	99.293848  
1014.000000	99.290850  
1013.000000	99.285757  
1012.000000	99.271974  
1011.000000	99.250336  
1010.000000	99.225952  
1009.000000	99.200115  
1008.000000	99.171872  
1007.000000	99.145419  
1006.000000	99.129204  
1005.000000	99.127765  
1004.000000	99.138955  
1003.000000	99.158360  
1002.000000	99.181913  
1001.000000	99.204536  
1000.000000	99.220651  
999.000000	 99.226914  
998.000000	 99.222202  
997.000000	 99.206112  
996.000000	 99.181562  
995.000000	 99.158766  
994.000000	 99.151479  
993.000000	 99.166448  
992.000000	 99.198068  
991.000000	 99.233401  
990.000000	 99.261741  
989.000000	 99.280537  
988.000000	 99.294201  
987.000000	 99.308141  
986.000000	 99.323421  
985.000000	 99.337270  
984.000000	 99.348269  
983.000000	 99.358884  
982.000000	 99.372457  
981.000000	 99.390757  
980.000000	 99.416119  
979.000000	 99.452070  
978.000000	 99.497595  
977.000000	 99.543144  
976.000000	 99.577439  
975.000000	 99.597909  
974.000000	 99.610921  
973.000000	 99.622941  
972.000000	 99.635743  
971.000000	 99.649896  
970.000000	 99.667855  
969.000000	 99.691882  
968.000000	 99.721703  
967.000000	 99.755004  
966.000000	 99.788025  
965.000000	 99.816410  
964.000000	 99.838958  
963.000000	 99.860383  
962.000000	 99.886605  
961.000000	 99.917071  
960.000000	 99.945705  
959.000000	 99.969640  
958.000000	 99.991959  
957.000000	 100.014291 
956.000000	 100.032087 
955.000000	 100.040817 
954.000000	 100.043066 
953.000000	 100.045871 
952.000000	 100.053151 
951.000000	 100.063756 
950.000000	 100.075025 
949.000000	 100.085496 
948.000000	 100.095555 
947.000000	 100.107440 
946.000000	 100.122747 
945.000000	 100.138439 
944.000000	 100.148265 
943.000000	 100.150335 
942.000000	 100.150014 
941.000000	 100.152804 
940.000000	 100.158358 
939.000000	 100.164928 
938.000000	 100.175861 
937.000000	 100.196042 
936.000000	 100.223033 
935.000000	 100.247096 
934.000000	 100.261069 
933.000000	 100.266288 
932.000000	 100.267841 
931.000000	 100.268185 
930.000000	 100.268017 
929.000000	 100.270056 
928.000000	 100.278067 
927.000000	 100.292736 
926.000000	 100.310904 
925.000000	 100.328564 
924.000000	 100.342605 
923.000000	 100.350101 
922.000000	 100.349186 
921.000000	 100.342401 
920.000000	 100.337124 
919.000000	 100.339570 
918.000000	 100.348348 
917.000000	 100.356499 
916.000000	 100.360824 
915.000000	 100.366614 
914.000000	 100.381074 
913.000000	 100.404770 
912.000000	 100.432611 
911.000000	 100.461274 
910.000000	 100.491143 
909.000000	 100.520829 
908.000000	 100.544891 
907.000000	 100.559366 
906.000000	 100.565790 
905.000000	 100.567222 
904.000000	 100.564358 
903.000000	 100.560162 
902.000000	 100.565002 
901.000000	 100.590248 
900.000000	 100.636312 
899.000000	 100.689952 
898.000000	 100.735057 
897.000000	 100.764998 
896.000000	 100.783911 
895.000000	 100.800368 
894.000000	 100.820337 
893.000000	 100.842123 
892.000000	 100.856709 
891.000000	 100.856438 
890.000000	 100.844914 
889.000000	 100.835346 
888.000000	 100.837291 
887.000000	 100.848219 
886.000000	 100.859804 
885.000000	 100.868854 
884.000000	 100.878632 
883.000000	 100.891426 
882.000000	 100.904182 
881.000000	 100.911832 
880.000000	 100.912218 
879.000000	 100.907395 
878.000000	 100.901998 
877.000000	 100.900332 
876.000000	 100.903659 
875.000000	 100.910299 
874.000000	 100.919368 
873.000000	 100.933544 
872.000000	 100.955918 
871.000000	 100.984200 
870.000000	 101.010439 
869.000000	 101.028002 
868.000000	 101.037117 
867.000000	 101.042191 
866.000000	 101.044788 
865.000000	 101.041167 
864.000000	 101.027710 
863.000000	 101.007089 
862.000000	 100.987603 
861.000000	 100.976819 
860.000000	 100.976826 
859.000000	 100.985026 
858.000000	 100.997167 
857.000000	 101.009206 
856.000000	 101.017994 
855.000000	 101.021829 
854.000000	 101.020471 
853.000000	 101.013896 
852.000000	 101.001762 
851.000000	 100.985587 
850.000000	 100.970694 
849.000000	 100.963463 
848.000000	 100.965882 
847.000000	 100.974069 
846.000000	 100.982894 
845.000000	 100.990942 
844.000000	 100.999774 
843.000000	 101.009280 
842.000000	 101.015830 
841.000000	 101.015589 
840.000000	 101.008471 
839.000000	 100.997653 
838.000000	 100.985158 
837.000000	 100.969394 
836.000000	 100.949275 
835.000000	 100.931046 
834.000000	 100.927502 
833.000000	 100.946364 
832.000000	 100.979115 
831.000000	 101.004502 
830.000000	 101.007041 
829.000000	 100.991286 
828.000000	 100.975572 
827.000000	 100.971206 
826.000000	 100.970639 
825.000000	 100.958472 
824.000000	 100.931770 
823.000000	 100.905317 
822.000000	 100.895810 
821.000000	 100.904571 
820.000000	 100.918967 
819.000000	 100.927270 
818.000000	 100.927653 
817.000000	 100.923815 
816.000000	 100.916577 
815.000000	 100.902172 
814.000000	 100.876687 
813.000000	 100.839516 
812.000000	 100.793375 
811.000000	 100.743429 
810.000000	 100.696004 
809.000000	 100.655797 
808.000000	 100.624129 
807.000000	 100.600869 
806.000000	 100.586523 
805.000000	 100.579870 
804.000000	 100.573991 
803.000000	 100.558060 
802.000000	 100.525332 
801.000000	 100.478540 
800.000000	 100.426864 
799.000000	 100.379307 
798.000000	 100.342319 
797.000000	 100.322129 
796.000000	 100.325738 
795.000000	 100.356621 
794.000000	 100.409075 
793.000000	 100.469130 
792.000000	 100.523301 
791.000000	 100.566272 
790.000000	 100.598714 
789.000000	 100.618132 
788.000000	 100.614950 
787.000000	 100.580798 
786.000000	 100.520161 
785.000000	 100.450947 
784.000000	 100.392925 
783.000000	 100.357024 
782.000000	 100.344606 
781.000000	 100.352465 
780.000000	 100.376446 
779.000000	 100.412208 
778.000000	 100.454720 
777.000000	 100.497135 
776.000000	 100.529832 
775.000000	 100.543384 
774.000000	 100.535771 
773.000000	 100.515891 
772.000000	 100.497595 
771.000000	 100.489944 
770.000000	 100.493816 
769.000000	 100.506323 
768.000000	 100.525895 
767.000000	 100.553004 
766.000000	 100.588124 
765.000000	 100.629545 
764.000000	 100.671361 
763.000000	 100.703528 
762.000000	 100.716907 
761.000000	 100.710156 
760.000000	 100.691324 
759.000000	 100.672604 
758.000000	 100.664007 
757.000000	 100.671541 
756.000000	 100.697866 
755.000000	 100.740584 
754.000000	 100.789879 
753.000000	 100.831847 
752.000000	 100.857497 
751.000000	 100.868018 
750.000000	 100.870365 
749.000000	 100.868178 
748.000000	 100.858914 
747.000000	 100.840622 
746.000000	 100.819266 
745.000000	 100.806960 
744.000000	 100.812248 
743.000000	 100.833093 
742.000000	 100.859423 
741.000000	 100.882149 
740.000000	 100.899054 
739.000000	 100.911881 
738.000000	 100.919849 
737.000000	 100.918140 
736.000000	 100.903121 
735.000000	 100.878162 
734.000000	 100.853708 
733.000000	 100.840865 
732.000000	 100.844886 
731.000000	 100.864077 
730.000000	 100.893171 
729.000000	 100.926891 
728.000000	 100.960393 
727.000000	 100.987594 
726.000000	 101.001055 
725.000000	 100.995347 
724.000000	 100.971269 
723.000000	 100.936959 
722.000000	 100.904196 
721.000000	 100.882265 
720.000000	 100.874686 
719.000000	 100.880320 
718.000000	 100.896364 
717.000000	 100.920410 
716.000000	 100.949669 
715.000000	 100.978217 
714.000000	 100.996452 
713.000000	 100.996129 
712.000000	 100.977763 
711.000000	 100.951771 
710.000000	 100.930365 
709.000000	 100.918342 
708.000000	 100.912430 
707.000000	 100.909239 
706.000000	 100.910852 
705.000000	 100.921449 
704.000000	 100.940251 
703.000000	 100.959255 
702.000000	 100.968060 
701.000000	 100.960800 
700.000000	 100.938701 
699.000000	 100.906383 
698.000000	 100.865543 
697.000000	 100.813877 
696.000000	 100.752629 
695.000000	 100.693863 
694.000000	 100.656104 
693.000000	 100.650943 
692.000000	 100.676051 
691.000000	 100.721274 
690.000000	 100.776757 
689.000000	 100.833347 
688.000000	 100.881185 
687.000000	 100.914324 
686.000000	 100.934530 
685.000000	 100.944872 
684.000000	 100.942367 
683.000000	 100.923725 
682.000000	 100.896991 
681.000000	 100.880633 
680.000000	 100.888555 
679.000000	 100.919180 
678.000000	 100.959778 
677.000000	 100.996814 
676.000000	 101.022555 
675.000000	 101.038075 
674.000000	 101.049262 
673.000000	 101.057406 
672.000000	 101.055205 
671.000000	 101.031490 
670.000000	 100.979569 
669.000000	 100.905548 
668.000000	 100.840849 
667.000000	 100.822368 
666.000000	 100.847183 
665.000000	 100.885730 
664.000000	 100.919648 
663.000000	 100.945877 
662.000000	 100.966481 
661.000000	 100.979763 
660.000000	 100.978732 
659.000000	 100.958862 
658.000000	 100.927087 
657.000000	 100.899647 
656.000000	 100.889324 
655.000000	 100.897826 
654.000000	 100.917303 
653.000000	 100.939589 
652.000000	 100.966671 
651.000000	 101.008523 
650.000000	 101.068854 

