PE IR                   SPECTRUM    ASCII       PEDS        1.60        
  -1
~SP.SP
22/12/06
16:43:52.00
23/01/09
15:08:12.00
Administrator

650.000000
4









FRONTIER FT-IR,CPU32 MAIN 00.09.9951 07-SEPTEMBER-2011 11:49:41
MIR TGS
MIR
OPTKBR
90694
0.200000

4.000000
STRONG
RATIO
SPECTRUM
MAGNITUDE
MIRACLE ATR
DOUBLE

COMBINED


0


#HDR
-1
-1
#GR
CM-1
%T
0.00002384185791015625
0.0
4000.000000
-1.000000
3351
8
77.353724
62.908097
#DATA
4000.000000	77.342596 
3999.000000	77.341047 
3998.000000	77.337993 
3997.000000	77.334472 
3996.000000	77.331507 
3995.000000	77.329322 
3994.000000	77.327912 
3993.000000	77.327358 
3992.000000	77.327577 
3991.000000	77.328157 
3990.000000	77.328515 
3989.000000	77.328099 
3988.000000	77.326569 
3987.000000	77.324110 
3986.000000	77.321595 
3985.000000	77.320037 
3984.000000	77.319686 
3983.000000	77.319822 
3982.000000	77.319466 
3981.000000	77.318168 
3980.000000	77.316088 
3979.000000	77.313620 
3978.000000	77.311148 
3977.000000	77.309012 
3976.000000	77.307411 
3975.000000	77.306376 
3974.000000	77.305980 
3973.000000	77.306317 
3972.000000	77.307070 
3971.000000	77.307438 
3970.000000	77.306730 
3969.000000	77.304946 
3968.000000	77.302561 
3967.000000	77.299945 
3966.000000	77.297241 
3965.000000	77.294548 
3964.000000	77.291981 
3963.000000	77.289616 
3962.000000	77.287512 
3961.000000	77.285764 
3960.000000	77.284439 
3959.000000	77.283629 
3958.000000	77.283636 
3957.000000	77.284665 
3956.000000	77.286228 
3955.000000	77.287068 
3954.000000	77.286159 
3953.000000	77.283430 
3952.000000	77.279586 
3951.000000	77.275448 
3950.000000	77.271494 
3949.000000	77.267981 
3948.000000	77.265158 
3947.000000	77.263419 
3946.000000	77.263103 
3945.000000	77.264079 
3944.000000	77.265604 
3943.000000	77.266703 
3942.000000	77.266799 
3941.000000	77.265907 
3940.000000	77.264128 
3939.000000	77.261401 
3938.000000	77.257868 
3937.000000	77.253985 
3936.000000	77.250379 
3935.000000	77.247685 
3934.000000	77.246614 
3933.000000	77.247375 
3932.000000	77.248823 
3931.000000	77.248920 
3930.000000	77.246663 
3929.000000	77.243178 
3928.000000	77.240579 
3927.000000	77.239605 
3926.000000	77.238990 
3925.000000	77.237214 
3924.000000	77.234312 
3923.000000	77.231172 
3922.000000	77.228095 
3921.000000	77.225183 
3920.000000	77.223114 
3919.000000	77.222456 
3918.000000	77.222862 
3917.000000	77.223578 
3916.000000	77.224409 
3915.000000	77.225255 
3914.000000	77.225495 
3913.000000	77.224532 
3912.000000	77.222381 
3911.000000	77.219182 
3910.000000	77.215090 
3909.000000	77.210594 
3908.000000	77.206728 
3907.000000	77.204188 
3906.000000	77.202766 
3905.000000	77.201609 
3904.000000	77.200145 
3903.000000	77.198523 
3902.000000	77.196968 
3901.000000	77.195337 
3900.000000	77.193506 
3899.000000	77.191672 
3898.000000	77.190060 
3897.000000	77.188673 
3896.000000	77.187404 
3895.000000	77.186185 
3894.000000	77.184961 
3893.000000	77.183716 
3892.000000	77.182483 
3891.000000	77.181250 
3890.000000	77.180029 
3889.000000	77.178838 
3888.000000	77.177683 
3887.000000	77.176555 
3886.000000	77.175445 
3885.000000	77.174352 
3884.000000	77.173284 
3883.000000	77.172240 
3882.000000	77.171214 
3881.000000	77.170208 
3880.000000	77.169228 
3879.000000	77.168282 
3878.000000	77.167367 
3877.000000	77.166470 
3876.000000	77.165577 
3875.000000	77.164692 
3874.000000	77.163834 
3873.000000	77.163035 
3872.000000	77.162307 
3871.000000	77.161637 
3870.000000	77.161008 
3869.000000	77.160416 
3868.000000	77.159862 
3867.000000	77.159342 
3866.000000	77.158854 
3865.000000	77.158412 
3864.000000	77.158023 
3863.000000	77.157670 
3862.000000	77.157331 
3861.000000	77.157004 
3860.000000	77.156706 
3859.000000	77.156453 
3858.000000	77.156245 
3857.000000	77.156072 
3856.000000	77.155913 
3855.000000	77.155731 
3854.000000	77.155481 
3853.000000	77.155150 
3852.000000	77.154773 
3851.000000	77.154367 
3850.000000	77.153923 
3849.000000	77.153429 
3848.000000	77.152890 
3847.000000	77.152314 
3846.000000	77.151723 
3845.000000	77.151145 
3844.000000	77.150603 
3843.000000	77.150099 
3842.000000	77.149632 
3841.000000	77.149206 
3840.000000	77.148824 
3839.000000	77.148480 
3838.000000	77.148158 
3837.000000	77.147849 
3836.000000	77.147556 
3835.000000	77.147281 
3834.000000	77.147015 
3833.000000	77.146745 
3832.000000	77.146452 
3831.000000	77.146125 
3830.000000	77.145763 
3829.000000	77.145371 
3828.000000	77.144961 
3827.000000	77.144538 
3826.000000	77.144106 
3825.000000	77.143669 
3824.000000	77.143225 
3823.000000	77.142751 
3822.000000	77.142208 
3821.000000	77.141580 
3820.000000	77.140890 
3819.000000	77.140167 
3818.000000	77.139408 
3817.000000	77.138591 
3816.000000	77.137707 
3815.000000	77.136766 
3814.000000	77.135781 
3813.000000	77.134760 
3812.000000	77.133713 
3811.000000	77.132671 
3810.000000	77.131652 
3809.000000	77.130653 
3808.000000	77.129667 
3807.000000	77.128694 
3806.000000	77.127744 
3805.000000	77.126824 
3804.000000	77.125914 
3803.000000	77.124979 
3802.000000	77.123983 
3801.000000	77.122919 
3800.000000	77.121800 
3799.000000	77.120626 
3798.000000	77.119382 
3797.000000	77.118058 
3796.000000	77.116664 
3795.000000	77.115216 
3794.000000	77.113726 
3793.000000	77.112201 
3792.000000	77.110643 
3791.000000	77.109056 
3790.000000	77.107449 
3789.000000	77.105825 
3788.000000	77.104189 
3787.000000	77.102544 
3786.000000	77.100888 
3785.000000	77.099222 
3784.000000	77.097577 
3783.000000	77.096005 
3782.000000	77.094489 
3781.000000	77.092898 
3780.000000	77.091126 
3779.000000	77.089268 
3778.000000	77.087594 
3777.000000	77.086180 
3776.000000	77.084766 
3775.000000	77.083116 
3774.000000	77.081343 
3773.000000	77.079719 
3772.000000	77.078320 
3771.000000	77.076838 
3770.000000	77.074955 
3769.000000	77.072869 
3768.000000	77.070954 
3767.000000	77.068865 
3766.000000	77.066043 
3765.000000	77.062850 
3764.000000	77.060555 
3763.000000	77.059753 
3762.000000	77.059339 
3761.000000	77.057907 
3760.000000	77.055250 
3759.000000	77.051767 
3758.000000	77.047795 
3757.000000	77.043880 
3756.000000	77.041044 
3755.000000	77.039417 
3754.000000	77.038366 
3753.000000	77.038025 
3752.000000	77.038786 
3751.000000	77.038288 
3750.000000	77.033016 
3749.000000	77.024564 
3748.000000	77.018527 
3747.000000	77.017182 
3746.000000	77.017967 
3745.000000	77.015390 
3744.000000	77.007909 
3743.000000	77.002678 
3742.000000	76.999334 
3741.000000	76.989592 
3740.000000	76.975167 
3739.000000	76.963946 
3738.000000	76.958029 
3737.000000	76.952851 
3736.000000	76.946805 
3735.000000	76.944548 
3734.000000	76.948172 
3733.000000	76.951540 
3732.000000	76.948705 
3731.000000	76.941312 
3730.000000	76.932761 
3729.000000	76.922359 
3728.000000	76.908445 
3727.000000	76.893225 
3726.000000	76.881878 
3725.000000	76.877039 
3724.000000	76.874703 
3723.000000	76.868898 
3722.000000	76.858001 
3721.000000	76.845091 
3720.000000	76.833707 
3719.000000	76.823581 
3718.000000	76.811670 
3717.000000	76.796747 
3716.000000	76.781722 
3715.000000	76.769982 
3714.000000	76.762797 
3713.000000	76.758389 
3712.000000	76.751876 
3711.000000	76.739762 
3710.000000	76.723928 
3709.000000	76.707255 
3708.000000	76.689607 
3707.000000	76.670000 
3706.000000	76.649487 
3705.000000	76.630319 
3704.000000	76.613702 
3703.000000	76.598695 
3702.000000	76.583412 
3701.000000	76.568321 
3700.000000	76.556434 
3699.000000	76.548035 
3698.000000	76.538917 
3697.000000	76.525648 
3696.000000	76.509544 
3695.000000	76.493767 
3694.000000	76.479063 
3693.000000	76.465054 
3692.000000	76.452515 
3691.000000	76.441705 
3690.000000	76.430536 
3689.000000	76.417220 
3688.000000	76.404901 
3687.000000	76.397372 
3686.000000	76.391755 
3685.000000	76.382341 
3684.000000	76.368932 
3683.000000	76.355894 
3682.000000	76.345092 
3681.000000	76.332992 
3680.000000	76.316572 
3679.000000	76.299150 
3678.000000	76.285842 
3677.000000	76.275976 
3676.000000	76.262433 
3675.000000	76.244493 
3674.000000	76.232435 
3673.000000	76.227726 
3672.000000	76.221165 
3671.000000	76.208010 
3670.000000	76.188859 
3669.000000	76.169482 
3668.000000	76.156356 
3667.000000	76.147441 
3666.000000	76.137570 
3665.000000	76.125018 
3664.000000	76.110655 
3663.000000	76.095845 
3662.000000	76.081010 
3661.000000	76.065756 
3660.000000	76.050891 
3659.000000	76.038369 
3658.000000	76.028280 
3657.000000	76.017707 
3656.000000	76.004852 
3655.000000	75.994512 
3654.000000	75.988658 
3653.000000	75.982236 
3652.000000	75.973103 
3651.000000	75.964707 
3650.000000	75.958922 
3649.000000	75.955034 
3648.000000	75.952782 
3647.000000	75.951617 
3646.000000	75.950677 
3645.000000	75.949478 
3644.000000	75.948381 
3643.000000	75.948163 
3642.000000	75.949014 
3641.000000	75.948770 
3640.000000	75.943272 
3639.000000	75.929545 
3638.000000	75.911378 
3637.000000	75.897804 
3636.000000	75.893130 
3635.000000	75.892139 
3634.000000	75.887642 
3633.000000	75.880346 
3632.000000	75.875714 
3631.000000	75.875920 
3630.000000	75.875609 
3629.000000	75.866778 
3628.000000	75.857421 
3627.000000	75.861947 
3626.000000	75.871066 
3625.000000	75.868922 
3624.000000	75.855424 
3623.000000	75.839814 
3622.000000	75.831074 
3621.000000	75.833504 
3620.000000	75.844790 
3619.000000	75.857473 
3618.000000	75.867624 
3617.000000	75.877629 
3616.000000	75.889282 
3615.000000	75.900658 
3614.000000	75.908711 
3613.000000	75.913271 
3612.000000	75.918003 
3611.000000	75.926759 
3610.000000	75.940987 
3609.000000	75.960643 
3608.000000	75.983887 
3607.000000	76.006878 
3606.000000	76.025181 
3605.000000	76.036986 
3604.000000	76.044856 
3603.000000	76.051989 
3602.000000	76.057999 
3601.000000	76.060889 
3600.000000	76.062230 
3599.000000	76.066537 
3598.000000	76.075780 
3597.000000	76.088569 
3596.000000	76.101377 
3595.000000	76.110445 
3594.000000	76.113532 
3593.000000	76.111636 
3592.000000	76.107561 
3591.000000	76.105535 
3590.000000	76.109353 
3589.000000	76.119215 
3588.000000	76.130315 
3587.000000	76.138675 
3586.000000	76.145780 
3585.000000	76.153222 
3584.000000	76.158653 
3583.000000	76.159702 
3582.000000	76.156884 
3581.000000	76.153371 
3580.000000	76.152677 
3579.000000	76.156351 
3578.000000	76.163080 
3577.000000	76.170561 
3576.000000	76.177299 
3575.000000	76.182766 
3574.000000	76.186179 
3573.000000	76.185932 
3572.000000	76.180727 
3571.000000	76.171212 
3570.000000	76.160337 
3569.000000	76.151553 
3568.000000	76.147107 
3567.000000	76.147776 
3566.000000	76.153677 
3565.000000	76.163472 
3564.000000	76.173796 
3563.000000	76.181714 
3562.000000	76.186565 
3561.000000	76.189333 
3560.000000	76.191289 
3559.000000	76.193136 
3558.000000	76.194882 
3557.000000	76.196374 
3556.000000	76.198066 
3555.000000	76.200586 
3554.000000	76.203682 
3553.000000	76.205890 
3552.000000	76.205761 
3551.000000	76.202977 
3550.000000	76.198153 
3549.000000	76.192210 
3548.000000	76.186573 
3547.000000	76.183176 
3546.000000	76.183552 
3545.000000	76.187934 
3544.000000	76.195083 
3543.000000	76.202809 
3542.000000	76.209089 
3541.000000	76.212927 
3540.000000	76.214420 
3539.000000	76.214235 
3538.000000	76.213275 
3537.000000	76.212632 
3536.000000	76.213458 
3535.000000	76.216368 
3534.000000	76.220798 
3533.000000	76.225167 
3532.000000	76.227872 
3531.000000	76.228414 
3530.000000	76.227541 
3529.000000	76.226580 
3528.000000	76.226308 
3527.000000	76.226500 
3526.000000	76.226481 
3525.000000	76.226143 
3524.000000	76.226309 
3523.000000	76.227969 
3522.000000	76.231293 
3521.000000	76.235506 
3520.000000	76.239619 
3519.000000	76.243168 
3518.000000	76.246200 
3517.000000	76.248741 
3516.000000	76.250498 
3515.000000	76.251203 
3514.000000	76.251096 
3513.000000	76.250920 
3512.000000	76.251440 
3511.000000	76.253087 
3510.000000	76.255833 
3509.000000	76.259190 
3508.000000	76.262318 
3507.000000	76.264524 
3506.000000	76.265725 
3505.000000	76.266482 
3504.000000	76.267516 
3503.000000	76.269131 
3502.000000	76.271177 
3501.000000	76.273412 
3500.000000	76.275734 
3499.000000	76.278028 
3498.000000	76.279986 
3497.000000	76.281295 
3496.000000	76.282008 
3495.000000	76.282590 
3494.000000	76.283534 
3493.000000	76.284990 
3492.000000	76.286797 
3491.000000	76.288804 
3490.000000	76.290981 
3489.000000	76.293190 
3488.000000	76.295082 
3487.000000	76.296481 
3486.000000	76.297719 
3485.000000	76.299378 
3484.000000	76.301577 
3483.000000	76.303668 
3482.000000	76.304878 
3481.000000	76.305232 
3480.000000	76.305673 
3479.000000	76.307130 
3478.000000	76.309475 
3477.000000	76.311623 
3476.000000	76.312770 
3475.000000	76.313268 
3474.000000	76.314031 
3473.000000	76.315209 
3472.000000	76.315963 
3471.000000	76.315592 
3470.000000	76.314388 
3469.000000	76.313081 
3468.000000	76.311965 
3467.000000	76.311154 
3466.000000	76.311345 
3465.000000	76.313382 
3464.000000	76.316950 
3463.000000	76.320301 
3462.000000	76.321817 
3461.000000	76.321417 
3460.000000	76.320235 
3459.000000	76.319334 
3458.000000	76.318965 
3457.000000	76.318902 
3456.000000	76.319067 
3455.000000	76.319728 
3454.000000	76.321033 
3453.000000	76.322731 
3452.000000	76.324536 
3451.000000	76.326434 
3450.000000	76.328237 
3449.000000	76.329426 
3448.000000	76.329997 
3447.000000	76.331207 
3446.000000	76.334423 
3445.000000	76.339101 
3444.000000	76.342887 
3443.000000	76.344251 
3442.000000	76.344108 
3441.000000	76.344494 
3440.000000	76.346084 
3439.000000	76.347757 
3438.000000	76.348278 
3437.000000	76.347385 
3436.000000	76.345468 
3435.000000	76.343113 
3434.000000	76.340986 
3433.000000	76.339631 
3432.000000	76.339096 
3431.000000	76.338984 
3430.000000	76.338923 
3429.000000	76.339007 
3428.000000	76.339698 
3427.000000	76.341329 
3426.000000	76.343681 
3425.000000	76.345932 
3424.000000	76.347217 
3423.000000	76.347365 
3422.000000	76.347078 
3421.000000	76.347303 
3420.000000	76.348571 
3419.000000	76.350991 
3418.000000	76.354387 
3417.000000	76.357963 
3416.000000	76.360199 
3415.000000	76.359979 
3414.000000	76.357920 
3413.000000	76.356221 
3412.000000	76.356515 
3411.000000	76.358342 
3410.000000	76.360105 
3409.000000	76.361034 
3408.000000	76.361557 
3407.000000	76.361994 
3406.000000	76.361875 
3405.000000	76.360772 
3404.000000	76.359005 
3403.000000	76.357184 
3402.000000	76.355629 
3401.000000	76.354685 
3400.000000	76.355025 
3399.000000	76.357019 
3398.000000	76.360040 
3397.000000	76.362819 
3396.000000	76.364476 
3395.000000	76.364924 
3394.000000	76.364536 
3393.000000	76.363944 
3392.000000	76.364021 
3391.000000	76.365397 
3390.000000	76.367704 
3389.000000	76.369698 
3388.000000	76.370664 
3387.000000	76.371509 
3386.000000	76.373898 
3385.000000	76.378169 
3384.000000	76.382510 
3383.000000	76.384731 
3382.000000	76.384593 
3381.000000	76.383812 
3380.000000	76.383931 
3379.000000	76.384731 
3378.000000	76.385147 
3377.000000	76.384999 
3376.000000	76.385030 
3375.000000	76.385614 
3374.000000	76.386212 
3373.000000	76.386126 
3372.000000	76.385270 
3371.000000	76.384111 
3370.000000	76.383220 
3369.000000	76.383013 
3368.000000	76.383632 
3367.000000	76.384828 
3366.000000	76.386020 
3365.000000	76.386648 
3364.000000	76.386586 
3363.000000	76.386254 
3362.000000	76.386244 
3361.000000	76.386589 
3360.000000	76.386552 
3359.000000	76.385445 
3358.000000	76.383633 
3357.000000	76.382269 
3356.000000	76.381888 
3355.000000	76.381646 
3354.000000	76.380254 
3353.000000	76.377500 
3352.000000	76.374580 
3351.000000	76.372950 
3350.000000	76.373113 
3349.000000	76.374434 
3348.000000	76.375725 
3347.000000	76.376093 
3346.000000	76.375481 
3345.000000	76.374567 
3344.000000	76.374043 
3343.000000	76.373857 
3342.000000	76.373288 
3341.000000	76.371757 
3340.000000	76.369330 
3339.000000	76.366427 
3338.000000	76.363380 
3337.000000	76.360587 
3336.000000	76.358840 
3335.000000	76.358934 
3334.000000	76.360746 
3333.000000	76.362951 
3332.000000	76.363980 
3331.000000	76.363261 
3330.000000	76.361342 
3329.000000	76.358973 
3328.000000	76.356321 
3327.000000	76.353251 
3326.000000	76.350167 
3325.000000	76.348256 
3324.000000	76.348623 
3323.000000	76.351092 
3322.000000	76.353830 
3321.000000	76.354361 
3320.000000	76.351183 
3319.000000	76.344550 
3318.000000	76.336264 
3317.000000	76.328717 
3316.000000	76.323546 
3315.000000	76.320698 
3314.000000	76.318495 
3313.000000	76.315016 
3312.000000	76.310001 
3311.000000	76.305229 
3310.000000	76.302610 
3309.000000	76.302104 
3308.000000	76.301939 
3307.000000	76.300763 
3306.000000	76.299024 
3305.000000	76.298070 
3304.000000	76.298537 
3303.000000	76.299980 
3302.000000	76.301451 
3301.000000	76.301878 
3300.000000	76.300271 
3299.000000	76.296299 
3298.000000	76.290743 
3297.000000	76.284800 
3296.000000	76.278984 
3295.000000	76.273139 
3294.000000	76.267395 
3293.000000	76.262513 
3292.000000	76.259147 
3291.000000	76.257186 
3290.000000	76.255922 
3289.000000	76.254498 
3288.000000	76.252177 
3287.000000	76.248702 
3286.000000	76.244616 
3285.000000	76.240924 
3284.000000	76.238156 
3283.000000	76.236006 
3282.000000	76.233999 
3281.000000	76.231996 
3280.000000	76.229693 
3279.000000	76.226155 
3278.000000	76.220601 
3277.000000	76.213583 
3276.000000	76.206833 
3275.000000	76.201768 
3274.000000	76.198570 
3273.000000	76.196595 
3272.000000	76.195087 
3271.000000	76.193436 
3270.000000	76.191239 
3269.000000	76.188643 
3268.000000	76.186437 
3267.000000	76.185213 
3266.000000	76.184424 
3265.000000	76.182830 
3264.000000	76.180117 
3263.000000	76.177622 
3262.000000	76.176812 
3261.000000	76.177049 
3260.000000	76.175723 
3259.000000	76.171274 
3258.000000	76.165520 
3257.000000	76.162092 
3256.000000	76.162339 
3255.000000	76.163799 
3254.000000	76.163158 
3253.000000	76.160055 
3252.000000	76.156932 
3251.000000	76.155627 
3250.000000	76.155225 
3249.000000	76.153568 
3248.000000	76.149649 
3247.000000	76.143943 
3246.000000	76.137306 
3245.000000	76.130438 
3244.000000	76.124030 
3243.000000	76.118506 
3242.000000	76.113577 
3241.000000	76.108681 
3240.000000	76.104063 
3239.000000	76.100907 
3238.000000	76.099959 
3237.000000	76.100257 
3236.000000	76.099713 
3235.000000	76.097039 
3234.000000	76.092653 
3233.000000	76.087652 
3232.000000	76.082479 
3231.000000	76.077087 
3230.000000	76.072160 
3229.000000	76.069223 
3228.000000	76.069119 
3227.000000	76.070919 
3226.000000	76.072675 
3225.000000	76.073247 
3224.000000	76.073094 
3223.000000	76.073311 
3222.000000	76.074341 
3221.000000	76.075551 
3220.000000	76.075600 
3219.000000	76.073184 
3218.000000	76.067967 
3217.000000	76.061096 
3216.000000	76.054642 
3215.000000	76.050002 
3214.000000	76.046900 
3213.000000	76.044164 
3212.000000	76.041216 
3211.000000	76.038368 
3210.000000	76.035804 
3209.000000	76.033060 
3208.000000	76.029838 
3207.000000	76.026710 
3206.000000	76.024407 
3205.000000	76.022699 
3204.000000	76.020643 
3203.000000	76.017938 
3202.000000	76.015359 
3201.000000	76.013673 
3200.000000	76.012703 
3199.000000	76.011706 
3198.000000	76.010268 
3197.000000	76.008489 
3196.000000	76.006558 
3195.000000	76.004570 
3194.000000	76.002683 
3193.000000	76.001059 
3192.000000	75.999555 
3191.000000	75.997695 
3190.000000	75.995157 
3189.000000	75.992152 
3188.000000	75.989254 
3187.000000	75.986883 
3186.000000	75.984999 
3185.000000	75.983234 
3184.000000	75.981176 
3183.000000	75.978674 
3182.000000	75.975882 
3181.000000	75.973133 
3180.000000	75.970681 
3179.000000	75.968534 
3178.000000	75.966556 
3177.000000	75.964650 
3176.000000	75.962831 
3175.000000	75.961113 
3174.000000	75.959409 
3173.000000	75.957602 
3172.000000	75.955674 
3171.000000	75.953714 
3170.000000	75.951801 
3169.000000	75.949932 
3168.000000	75.948099 
3167.000000	75.946370 
3166.000000	75.944808 
3165.000000	75.943360 
3164.000000	75.941871 
3163.000000	75.940235 
3162.000000	75.938463 
3161.000000	75.936660 
3160.000000	75.934953 
3159.000000	75.933400 
3158.000000	75.931983 
3157.000000	75.930605 
3156.000000	75.929140 
3155.000000	75.927553 
3154.000000	75.925957 
3153.000000	75.924528 
3152.000000	75.923323 
3151.000000	75.922253 
3150.000000	75.921231 
3149.000000	75.920286 
3148.000000	75.919460 
3147.000000	75.918673 
3146.000000	75.917753 
3145.000000	75.916614 
3144.000000	75.915369 
3143.000000	75.914253 
3142.000000	75.913382 
3141.000000	75.912663 
3140.000000	75.911945 
3139.000000	75.911230 
3138.000000	75.910667 
3137.000000	75.910309 
3136.000000	75.909954 
3135.000000	75.909301 
3134.000000	75.908261 
3133.000000	75.907082 
3132.000000	75.906133 
3131.000000	75.905556 
3130.000000	75.905188 
3129.000000	75.904822 
3128.000000	75.904505 
3127.000000	75.904462 
3126.000000	75.904732 
3125.000000	75.904984 
3124.000000	75.904795 
3123.000000	75.904094 
3122.000000	75.903214 
3121.000000	75.902473 
3120.000000	75.901825 
3119.000000	75.901011 
3118.000000	75.900037 
3117.000000	75.899342 
3116.000000	75.899374 
3115.000000	75.900149 
3114.000000	75.901247 
3113.000000	75.902065 
3112.000000	75.902243 
3111.000000	75.901878 
3110.000000	75.901434 
3109.000000	75.901428 
3108.000000	75.902043 
3107.000000	75.903016 
3106.000000	75.903849 
3105.000000	75.904260 
3104.000000	75.904320 
3103.000000	75.904217 
3102.000000	75.904032 
3101.000000	75.903774 
3100.000000	75.903580 
3099.000000	75.903609 
3098.000000	75.903786 
3097.000000	75.903905 
3096.000000	75.903929 
3095.000000	75.904007 
3094.000000	75.904189 
3093.000000	75.904295 
3092.000000	75.904148 
3091.000000	75.903852 
3090.000000	75.903739 
3089.000000	75.904011 
3088.000000	75.904563 
3087.000000	75.905126 
3086.000000	75.905511 
3085.000000	75.905692 
3084.000000	75.905775 
3083.000000	75.905894 
3082.000000	75.905997 
3081.000000	75.905769 
3080.000000	75.904977 
3079.000000	75.904007 
3078.000000	75.903789 
3077.000000	75.904926 
3076.000000	75.906961 
3075.000000	75.908689 
3074.000000	75.909208 
3073.000000	75.908546 
3072.000000	75.907659 
3071.000000	75.907808 
3070.000000	75.909412 
3069.000000	75.911256 
3068.000000	75.911442 
3067.000000	75.909543 
3066.000000	75.907389 
3065.000000	75.907464 
3064.000000	75.910852 
3063.000000	75.916418 
3062.000000	75.920895 
3061.000000	75.920205 
3060.000000	75.912706 
3059.000000	75.902055 
3058.000000	75.895121 
3057.000000	75.895357 
3056.000000	75.899654 
3055.000000	75.902833 
3054.000000	75.903687 
3053.000000	75.904440 
3052.000000	75.905707 
3051.000000	75.905054 
3050.000000	75.900720 
3049.000000	75.894333 
3048.000000	75.889104 
3047.000000	75.886798 
3046.000000	75.887183 
3045.000000	75.888879 
3044.000000	75.889659 
3043.000000	75.887272 
3042.000000	75.881532 
3041.000000	75.875312 
3040.000000	75.872144 
3039.000000	75.872491 
3038.000000	75.873103 
3037.000000	75.870551 
3036.000000	75.865019 
3035.000000	75.859969 
3034.000000	75.858028 
3033.000000	75.857879 
3032.000000	75.855982 
3031.000000	75.850850 
3030.000000	75.844137 
3029.000000	75.837518 
3028.000000	75.830385 
3027.000000	75.821335 
3026.000000	75.810185 
3025.000000	75.797175 
3024.000000	75.781421 
3023.000000	75.762150 
3022.000000	75.741093 
3021.000000	75.721849 
3020.000000	75.706563 
3019.000000	75.694344 
3018.000000	75.683011 
3017.000000	75.671011 
3016.000000	75.657319 
3015.000000	75.641165 
3014.000000	75.623318 
3013.000000	75.606768 
3012.000000	75.594306 
3011.000000	75.585123 
3010.000000	75.575023 
3009.000000	75.560743 
3008.000000	75.543365 
3007.000000	75.526660 
3006.000000	75.512665 
3005.000000	75.500089 
3004.000000	75.486864 
3003.000000	75.472553 
3002.000000	75.457650 
3001.000000	75.442292 
3000.000000	75.427210 
2999.000000	75.414795 
2998.000000	75.407278 
2997.000000	75.404098 
2996.000000	75.402317 
2995.000000	75.399058 
2994.000000	75.391959 
2993.000000	75.378490 
2992.000000	75.358279 
2991.000000	75.336731 
2990.000000	75.323430 
2989.000000	75.325225 
2988.000000	75.342226 
2987.000000	75.370631 
2986.000000	75.406579 
2985.000000	75.445675 
2984.000000	75.481797 
2983.000000	75.510401 
2982.000000	75.532470 
2981.000000	75.552487 
2980.000000	75.572594 
2979.000000	75.590732 
2978.000000	75.604266 
2977.000000	75.613219 
2976.000000	75.619842 
2975.000000	75.626868 
2974.000000	75.636146 
2973.000000	75.646692 
2972.000000	75.653451 
2971.000000	75.650134 
2970.000000	75.634949 
2969.000000	75.613066 
2968.000000	75.592764 
2967.000000	75.579401 
2966.000000	75.573089 
2965.000000	75.570572 
2964.000000	75.567955 
2963.000000	75.562602 
2962.000000	75.554211 
2961.000000	75.544710 
2960.000000	75.536716 
2959.000000	75.531851 
2958.000000	75.530583 
2957.000000	75.533358 
2956.000000	75.541198 
2955.000000	75.554654 
2954.000000	75.571957 
2953.000000	75.588731 
2952.000000	75.600481 
2951.000000	75.605805 
2950.000000	75.606738 
2949.000000	75.605963 
2948.000000	75.604604 
2947.000000	75.603226 
2946.000000	75.603811 
2945.000000	75.609209 
2944.000000	75.620661 
2943.000000	75.636690 
2942.000000	75.654379 
2941.000000	75.671129 
2940.000000	75.685463 
2939.000000	75.697369 
2938.000000	75.708038 
2937.000000	75.718522 
2936.000000	75.728659 
2935.000000	75.738007 
2934.000000	75.747521 
2933.000000	75.758780 
2932.000000	75.770973 
2931.000000	75.779963 
2930.000000	75.781633 
2929.000000	75.775892 
2928.000000	75.766775 
2927.000000	75.758835 
2926.000000	75.754200 
2925.000000	75.752931 
2924.000000	75.754508 
2923.000000	75.757342 
2922.000000	75.757420 
2921.000000	75.749857 
2920.000000	75.733375 
2919.000000	75.712661 
2918.000000	75.694677 
2917.000000	75.682188 
2916.000000	75.671706 
2915.000000	75.657893 
2914.000000	75.639226 
2913.000000	75.619361 
2912.000000	75.603887 
2911.000000	75.595708 
2910.000000	75.592431 
2909.000000	75.587998 
2908.000000	75.578238 
2907.000000	75.565224 
2906.000000	75.554694 
2905.000000	75.548825 
2904.000000	75.544052 
2903.000000	75.537597 
2902.000000	75.533815 
2901.000000	75.540407 
2900.000000	75.558837 
2899.000000	75.581184 
2898.000000	75.597155 
2897.000000	75.602969 
2896.000000	75.602604 
2895.000000	75.602341 
2894.000000	75.605260 
2893.000000	75.609778 
2892.000000	75.612386 
2891.000000	75.612022 
2890.000000	75.611735 
2889.000000	75.615225 
2888.000000	75.621987 
2887.000000	75.627449 
2886.000000	75.628398 
2885.000000	75.626855 
2884.000000	75.627643 
2883.000000	75.633610 
2882.000000	75.644438 
2881.000000	75.658580 
2880.000000	75.674334 
2879.000000	75.689599 
2878.000000	75.702586 
2877.000000	75.713057 
2876.000000	75.721456 
2875.000000	75.726786 
2874.000000	75.727112 
2873.000000	75.722934 
2872.000000	75.718641 
2871.000000	75.719188 
2870.000000	75.725725 
2869.000000	75.735242 
2868.000000	75.744083 
2867.000000	75.751202 
2866.000000	75.758374 
2865.000000	75.768008 
2864.000000	75.780799 
2863.000000	75.795043 
2862.000000	75.808229 
2861.000000	75.819398 
2860.000000	75.829540 
2859.000000	75.839593 
2858.000000	75.848982 
2857.000000	75.856783 
2856.000000	75.863224 
2855.000000	75.868890 
2854.000000	75.873570 
2853.000000	75.877419 
2852.000000	75.882525 
2851.000000	75.891002 
2850.000000	75.901076 
2849.000000	75.907315 
2848.000000	75.906123 
2847.000000	75.899559 
2846.000000	75.892880 
2845.000000	75.889311 
2844.000000	75.888566 
2843.000000	75.889487 
2842.000000	75.891717 
2841.000000	75.894717 
2840.000000	75.897019 
2839.000000	75.897334 
2838.000000	75.895631 
2837.000000	75.892839 
2836.000000	75.890196 
2835.000000	75.888993 
2834.000000	75.889918 
2833.000000	75.892117 
2832.000000	75.893583 
2831.000000	75.893157 
2830.000000	75.891855 
2829.000000	75.891754 
2828.000000	75.893757 
2827.000000	75.896819 
2826.000000	75.899311 
2825.000000	75.900876 
2824.000000	75.902674 
2823.000000	75.905793 
2822.000000	75.909647 
2821.000000	75.912318 
2820.000000	75.912413 
2819.000000	75.909998 
2818.000000	75.905854 
2817.000000	75.900829 
2816.000000	75.896250 
2815.000000	75.893880 
2814.000000	75.894448 
2813.000000	75.896722 
2812.000000	75.898795 
2811.000000	75.899999 
2810.000000	75.900902 
2809.000000	75.901869 
2808.000000	75.902639 
2807.000000	75.903097 
2806.000000	75.903548 
2805.000000	75.904133 
2804.000000	75.904577 
2803.000000	75.904627 
2802.000000	75.904345 
2801.000000	75.903947 
2800.000000	75.903751 
2799.000000	75.904285 
2798.000000	75.905957 
2797.000000	75.908478 
2796.000000	75.910897 
2795.000000	75.912439 
2794.000000	75.913084 
2793.000000	75.913248 
2792.000000	75.913261 
2791.000000	75.913333 
2790.000000	75.913666 
2789.000000	75.914336 
2788.000000	75.915264 
2787.000000	75.916546 
2786.000000	75.918537 
2785.000000	75.921310 
2784.000000	75.924129 
2783.000000	75.925836 
2782.000000	75.925850 
2781.000000	75.924645 
2780.000000	75.923446 
2779.000000	75.923353 
2778.000000	75.924657 
2777.000000	75.926816 
2776.000000	75.928901 
2775.000000	75.930190 
2774.000000	75.930463 
2773.000000	75.929933 
2772.000000	75.929092 
2771.000000	75.928420 
2770.000000	75.927996 
2769.000000	75.927497 
2768.000000	75.926832 
2767.000000	75.926594 
2766.000000	75.927469 
2765.000000	75.929257 
2764.000000	75.930875 
2763.000000	75.931530 
2762.000000	75.931530 
2761.000000	75.931736 
2760.000000	75.932524 
2759.000000	75.933596 
2758.000000	75.934563 
2757.000000	75.935405 
2756.000000	75.936324 
2755.000000	75.937400 
2754.000000	75.938444 
2753.000000	75.939152 
2752.000000	75.939443 
2751.000000	75.939688 
2750.000000	75.940436 
2749.000000	75.941827 
2748.000000	75.943414 
2747.000000	75.944620 
2746.000000	75.945334 
2745.000000	75.945900 
2744.000000	75.946662 
2743.000000	75.947600 
2742.000000	75.948464 
2741.000000	75.949120 
2740.000000	75.949663 
2739.000000	75.950265 
2738.000000	75.950986 
2737.000000	75.951800 
2736.000000	75.952725 
2735.000000	75.953816 
2734.000000	75.954980 
2733.000000	75.955921 
2732.000000	75.956410 
2731.000000	75.956584 
2730.000000	75.956897 
2729.000000	75.957704 
2728.000000	75.958969 
2727.000000	75.960350 
2726.000000	75.961513 
2725.000000	75.962303 
2724.000000	75.962760 
2723.000000	75.963118 
2722.000000	75.963588 
2721.000000	75.963934 
2720.000000	75.963526 
2719.000000	75.962176 
2718.000000	75.960799 
2717.000000	75.960770 
2716.000000	75.962621 
2715.000000	75.965623 
2714.000000	75.968574 
2713.000000	75.970799 
2712.000000	75.972192 
2711.000000	75.972705 
2710.000000	75.972312 
2709.000000	75.971387 
2708.000000	75.970770 
2707.000000	75.971193 
2706.000000	75.972612 
2705.000000	75.974181 
2704.000000	75.974988 
2703.000000	75.974870 
2702.000000	75.974510 
2701.000000	75.974676 
2700.000000	75.975383 
2699.000000	75.975780 
2698.000000	75.974907 
2697.000000	75.972712 
2696.000000	75.970376 
2695.000000	75.969352 
2694.000000	75.969749 
2693.000000	75.969905 
2692.000000	75.968016 
2691.000000	75.964185 
2690.000000	75.960427 
2689.000000	75.958492 
2688.000000	75.958229 
2687.000000	75.958424 
2686.000000	75.958576 
2685.000000	75.959157 
2684.000000	75.960367 
2683.000000	75.961534 
2682.000000	75.962061 
2681.000000	75.962434 
2680.000000	75.963679 
2679.000000	75.965898 
2678.000000	75.967899 
2677.000000	75.968572 
2676.000000	75.968197 
2675.000000	75.967923 
2674.000000	75.968334 
2673.000000	75.969196 
2672.000000	75.970378 
2671.000000	75.972051 
2670.000000	75.973778 
2669.000000	75.974438 
2668.000000	75.973670 
2667.000000	75.972704 
2666.000000	75.973044 
2665.000000	75.974722 
2664.000000	75.976554 
2663.000000	75.977798 
2662.000000	75.978793 
2661.000000	75.979949 
2660.000000	75.981002 
2659.000000	75.981540 
2658.000000	75.981669 
2657.000000	75.981799 
2656.000000	75.982059 
2655.000000	75.982298 
2654.000000	75.982478 
2653.000000	75.982784 
2652.000000	75.983369 
2651.000000	75.984138 
2650.000000	75.984813 
2649.000000	75.985221 
2648.000000	75.985514 
2647.000000	75.986023 
2646.000000	75.986854 
2645.000000	75.987768 
2644.000000	75.988452 
2643.000000	75.988822 
2642.000000	75.989010 
2641.000000	75.989215 
2640.000000	75.989581 
2639.000000	75.990159 
2638.000000	75.990886 
2637.000000	75.991530 
2636.000000	75.991817 
2635.000000	75.991690 
2634.000000	75.991480 
2633.000000	75.991626 
2632.000000	75.992255 
2631.000000	75.993178 
2630.000000	75.994191 
2629.000000	75.995217 
2628.000000	75.996169 
2627.000000	75.996917 
2626.000000	75.997464 
2625.000000	75.997980 
2624.000000	75.998572 
2623.000000	75.999111 
2622.000000	75.999397 
2621.000000	75.999436 
2620.000000	75.999522 
2619.000000	76.000038 
2618.000000	76.001088 
2617.000000	76.002245 
2616.000000	76.002824 
2615.000000	76.002548 
2614.000000	76.001882 
2613.000000	76.001585 
2612.000000	76.001920 
2611.000000	76.002529 
2610.000000	76.003061 
2609.000000	76.003664 
2608.000000	76.004661 
2607.000000	76.005868 
2606.000000	76.006490 
2605.000000	76.005858 
2604.000000	76.004113 
2603.000000	76.002142 
2602.000000	76.000721 
2601.000000	75.999948 
2600.000000	75.999716 
2599.000000	76.000362 
2598.000000	76.002328 
2597.000000	76.005219 
2596.000000	76.007809 
2595.000000	76.009316 
2594.000000	76.010067 
2593.000000	76.010658 
2592.000000	76.011009 
2591.000000	76.010720 
2590.000000	76.009962 
2589.000000	76.009415 
2588.000000	76.009499 
2587.000000	76.010208 
2586.000000	76.011464 
2585.000000	76.013036 
2584.000000	76.014220 
2583.000000	76.014231 
2582.000000	76.012972 
2581.000000	76.011078 
2580.000000	76.009231 
2579.000000	76.007870 
2578.000000	76.007477 
2577.000000	76.008506 
2576.000000	76.010830 
2575.000000	76.013674 
2574.000000	76.016294 
2573.000000	76.018421 
2572.000000	76.020048 
2571.000000	76.021295 
2570.000000	76.022516 
2569.000000	76.024061 
2568.000000	76.025709 
2567.000000	76.026755 
2566.000000	76.026947 
2565.000000	76.027034 
2564.000000	76.027999 
2563.000000	76.029851 
2562.000000	76.031527 
2561.000000	76.032040 
2560.000000	76.031421 
2559.000000	76.030492 
2558.000000	76.030009 
2557.000000	76.030069 
2556.000000	76.030286 
2555.000000	76.030292 
2554.000000	76.030002 
2553.000000	76.029571 
2552.000000	76.029298 
2551.000000	76.029500 
2550.000000	76.030267 
2549.000000	76.031263 
2548.000000	76.031912 
2547.000000	76.031983 
2546.000000	76.031917 
2545.000000	76.032384 
2544.000000	76.033489 
2543.000000	76.034553 
2542.000000	76.034834 
2541.000000	76.034325 
2540.000000	76.033741 
2539.000000	76.033753 
2538.000000	76.034332 
2537.000000	76.034969 
2536.000000	76.035280 
2535.000000	76.035246 
2534.000000	76.034965 
2533.000000	76.034470 
2532.000000	76.033878 
2531.000000	76.033507 
2530.000000	76.033629 
2529.000000	76.034157 
2528.000000	76.034731 
2527.000000	76.035101 
2526.000000	76.035296 
2525.000000	76.035463 
2524.000000	76.035747 
2523.000000	76.036288 
2522.000000	76.037124 
2521.000000	76.038004 
2520.000000	76.038465 
2519.000000	76.038225 
2518.000000	76.037402 
2517.000000	76.036431 
2516.000000	76.035739 
2515.000000	76.035471 
2514.000000	76.035461 
2513.000000	76.035446 
2512.000000	76.035386 
2511.000000	76.035520 
2510.000000	76.036023 
2509.000000	76.036709 
2508.000000	76.037252 
2507.000000	76.037571 
2506.000000	76.037726 
2505.000000	76.037537 
2504.000000	76.036747 
2503.000000	76.035600 
2502.000000	76.034854 
2501.000000	76.034968 
2500.000000	76.035671 
2499.000000	76.036404 
2498.000000	76.036877 
2497.000000	76.036949 
2496.000000	76.036373 
2495.000000	76.035154 
2494.000000	76.033911 
2493.000000	76.033377 
2492.000000	76.033627 
2491.000000	76.034212 
2490.000000	76.034870 
2489.000000	76.035660 
2488.000000	76.036531 
2487.000000	76.037245 
2486.000000	76.037780 
2485.000000	76.038365 
2484.000000	76.038982 
2483.000000	76.039203 
2482.000000	76.038665 
2481.000000	76.037552 
2480.000000	76.036471 
2479.000000	76.035911 
2478.000000	76.035883 
2477.000000	76.036106 
2476.000000	76.036474 
2475.000000	76.037250 
2474.000000	76.038669 
2473.000000	76.040431 
2472.000000	76.041902 
2471.000000	76.042877 
2470.000000	76.043720 
2469.000000	76.044635 
2468.000000	76.045196 
2467.000000	76.044905 
2466.000000	76.043895 
2465.000000	76.042791 
2464.000000	76.042160 
2463.000000	76.042228 
2462.000000	76.042793 
2461.000000	76.043205 
2460.000000	76.042831 
2459.000000	76.041812 
2458.000000	76.041038 
2457.000000	76.041028 
2456.000000	76.041232 
2455.000000	76.040879 
2454.000000	76.040170 
2453.000000	76.039976 
2452.000000	76.040462 
2451.000000	76.040726 
2450.000000	76.040080 
2449.000000	76.039244 
2448.000000	76.039705 
2447.000000	76.042031 
2446.000000	76.045193 
2445.000000	76.047541 
2444.000000	76.048553 
2443.000000	76.049129 
2442.000000	76.050232 
2441.000000	76.051567 
2440.000000	76.052055 
2439.000000	76.051286 
2438.000000	76.049849 
2437.000000	76.048394 
2436.000000	76.047031 
2435.000000	76.045848 
2434.000000	76.045302 
2433.000000	76.045737 
2432.000000	76.046955 
2431.000000	76.048530 
2430.000000	76.050191 
2429.000000	76.051588 
2428.000000	76.052122 
2427.000000	76.051546 
2426.000000	76.050514 
2425.000000	76.050094 
2424.000000	76.050678 
2423.000000	76.051763 
2422.000000	76.052687 
2421.000000	76.053283 
2420.000000	76.053762 
2419.000000	76.054346 
2418.000000	76.055149 
2417.000000	76.056160 
2416.000000	76.057175 
2415.000000	76.057908 
2414.000000	76.058281 
2413.000000	76.058418 
2412.000000	76.058524 
2411.000000	76.058805 
2410.000000	76.059343 
2409.000000	76.059981 
2408.000000	76.060425 
2407.000000	76.060602 
2406.000000	76.060774 
2405.000000	76.061199 
2404.000000	76.061794 
2403.000000	76.062251 
2402.000000	76.062440 
2401.000000	76.062535 
2400.000000	76.062756 
2399.000000	76.063109 
2398.000000	76.063447 
2397.000000	76.063662 
2396.000000	76.063764 
2395.000000	76.063827 
2394.000000	76.063933 
2393.000000	76.064150 
2392.000000	76.064502 
2391.000000	76.064951 
2390.000000	76.065416 
2389.000000	76.065847 
2388.000000	76.066261 
2387.000000	76.066708 
2386.000000	76.067205 
2385.000000	76.067730 
2384.000000	76.068265 
2383.000000	76.068810 
2382.000000	76.069361 
2381.000000	76.069906 
2380.000000	76.070446 
2379.000000	76.070989 
2378.000000	76.071547 
2377.000000	76.072133 
2376.000000	76.072753 
2375.000000	76.073410 
2374.000000	76.074111 
2373.000000	76.074860 
2372.000000	76.075647 
2371.000000	76.076446 
2370.000000	76.077231 
2369.000000	76.077992 
2368.000000	76.078723 
2367.000000	76.079421 
2366.000000	76.080116 
2365.000000	76.080863 
2364.000000	76.081702 
2363.000000	76.082607 
2362.000000	76.083522 
2361.000000	76.084427 
2360.000000	76.085335 
2359.000000	76.086264 
2358.000000	76.087186 
2357.000000	76.088066 
2356.000000	76.088953 
2355.000000	76.089937 
2354.000000	76.090941 
2353.000000	76.091775 
2352.000000	76.092499 
2351.000000	76.093395 
2350.000000	76.094552 
2349.000000	76.095810 
2348.000000	76.097000 
2347.000000	76.098052 
2346.000000	76.098881 
2345.000000	76.099391 
2344.000000	76.099758 
2343.000000	76.100422 
2342.000000	76.101623 
2341.000000	76.102888 
2340.000000	76.103468 
2339.000000	76.103551 
2338.000000	76.104302 
2337.000000	76.106559 
2336.000000	76.109822 
2335.000000	76.112658 
2334.000000	76.114020 
2333.000000	76.113953 
2332.000000	76.113273 
2331.000000	76.112413 
2330.000000	76.111054 
2329.000000	76.109065 
2328.000000	76.106856 
2327.000000	76.105097 
2326.000000	76.104311 
2325.000000	76.104731 
2324.000000	76.106245 
2323.000000	76.108234 
2322.000000	76.110010 
2321.000000	76.111193 
2320.000000	76.111687 
2319.000000	76.111526 
2318.000000	76.111006 
2317.000000	76.110581 
2316.000000	76.110485 
2315.000000	76.110675 
2314.000000	76.111170 
2313.000000	76.112103 
2312.000000	76.113260 
2311.000000	76.113941 
2310.000000	76.113632 
2309.000000	76.112565 
2308.000000	76.111401 
2307.000000	76.110544 
2306.000000	76.110016 
2305.000000	76.109884 
2304.000000	76.110317 
2303.000000	76.111223 
2302.000000	76.112132 
2301.000000	76.112569 
2300.000000	76.112469 
2299.000000	76.112105 
2298.000000	76.111800 
2297.000000	76.111691 
2296.000000	76.111712 
2295.000000	76.111742 
2294.000000	76.111729 
2293.000000	76.111708 
2292.000000	76.111720 
2291.000000	76.111767 
2290.000000	76.111835 
2289.000000	76.111920 
2288.000000	76.112022 
2287.000000	76.112136 
2286.000000	76.112257 
2285.000000	76.112377 
2284.000000	76.112494 
2283.000000	76.112611 
2282.000000	76.112732 
2281.000000	76.112859 
2280.000000	76.112992 
2279.000000	76.113128 
2278.000000	76.113268 
2277.000000	76.113414 
2276.000000	76.113567 
2275.000000	76.113727 
2274.000000	76.113890 
2273.000000	76.114051 
2272.000000	76.114211 
2271.000000	76.114381 
2270.000000	76.114576 
2269.000000	76.114809 
2268.000000	76.115080 
2267.000000	76.115381 
2266.000000	76.115702 
2265.000000	76.116037 
2264.000000	76.116382 
2263.000000	76.116739 
2262.000000	76.117108 
2261.000000	76.117491 
2260.000000	76.117893 
2259.000000	76.118321 
2258.000000	76.118780 
2257.000000	76.119270 
2256.000000	76.119791 
2255.000000	76.120335 
2254.000000	76.120899 
2253.000000	76.121479 
2252.000000	76.122073 
2251.000000	76.122684 
2250.000000	76.123313 
2249.000000	76.123967 
2248.000000	76.124649 
2247.000000	76.125362 
2246.000000	76.126106 
2245.000000	76.126875 
2244.000000	76.127665 
2243.000000	76.128476 
2242.000000	76.129304 
2241.000000	76.130145 
2240.000000	76.130989 
2239.000000	76.131835 
2238.000000	76.132685 
2237.000000	76.133548 
2236.000000	76.134431 
2235.000000	76.135332 
2234.000000	76.136253 
2233.000000	76.137191 
2232.000000	76.138146 
2231.000000	76.139120 
2230.000000	76.140113 
2229.000000	76.141125 
2228.000000	76.142145 
2227.000000	76.143167 
2226.000000	76.144192 
2225.000000	76.145226 
2224.000000	76.146286 
2223.000000	76.147395 
2222.000000	76.148564 
2221.000000	76.149762 
2220.000000	76.150931 
2219.000000	76.152033 
2218.000000	76.153072 
2217.000000	76.154086 
2216.000000	76.155117 
2215.000000	76.156191 
2214.000000	76.157328 
2213.000000	76.158559 
2212.000000	76.159894 
2211.000000	76.161258 
2210.000000	76.162531 
2209.000000	76.163680 
2208.000000	76.164813 
2207.000000	76.166066 
2206.000000	76.167416 
2205.000000	76.168674 
2204.000000	76.169695 
2203.000000	76.170497 
2202.000000	76.171145 
2201.000000	76.171693 
2200.000000	76.172305 
2199.000000	76.173243 
2198.000000	76.174571 
2197.000000	76.176008 
2196.000000	76.177232 
2195.000000	76.178277 
2194.000000	76.179415 
2193.000000	76.180765 
2192.000000	76.182170 
2191.000000	76.183375 
2190.000000	76.184206 
2189.000000	76.184713 
2188.000000	76.185290 
2187.000000	76.186515 
2186.000000	76.188651 
2185.000000	76.191294 
2184.000000	76.193607 
2183.000000	76.195037 
2182.000000	76.195567 
2181.000000	76.195488 
2180.000000	76.195219 
2179.000000	76.195221 
2178.000000	76.195754 
2177.000000	76.196672 
2176.000000	76.197622 
2175.000000	76.198452 
2174.000000	76.199188 
2173.000000	76.199699 
2172.000000	76.199808 
2171.000000	76.199816 
2170.000000	76.200488 
2169.000000	76.202283 
2168.000000	76.204801 
2167.000000	76.207073 
2166.000000	76.208387 
2165.000000	76.208651 
2164.000000	76.208211 
2163.000000	76.207547 
2162.000000	76.206947 
2161.000000	76.206350 
2160.000000	76.205654 
2159.000000	76.205174 
2158.000000	76.205519 
2157.000000	76.206855 
2156.000000	76.208550 
2155.000000	76.209741 
2154.000000	76.210183 
2153.000000	76.210208 
2152.000000	76.210105 
2151.000000	76.209857 
2150.000000	76.209507 
2149.000000	76.209391 
2148.000000	76.209835 
2147.000000	76.210820 
2146.000000	76.212060 
2145.000000	76.213281 
2144.000000	76.214286 
2143.000000	76.214890 
2142.000000	76.214972 
2141.000000	76.214611 
2140.000000	76.214122 
2139.000000	76.213932 
2138.000000	76.214364 
2137.000000	76.215506 
2136.000000	76.217181 
2135.000000	76.219026 
2134.000000	76.220641 
2133.000000	76.221762 
2132.000000	76.222353 
2131.000000	76.222602 
2130.000000	76.222830 
2129.000000	76.223290 
2128.000000	76.224043 
2127.000000	76.224968 
2126.000000	76.225847 
2125.000000	76.226520 
2124.000000	76.227007 
2123.000000	76.227477 
2122.000000	76.228097 
2121.000000	76.228912 
2120.000000	76.229864 
2119.000000	76.230857 
2118.000000	76.231813 
2117.000000	76.232687 
2116.000000	76.233479 
2115.000000	76.234244 
2114.000000	76.235052 
2113.000000	76.235910 
2112.000000	76.236774 
2111.000000	76.237643 
2110.000000	76.238578 
2109.000000	76.239598 
2108.000000	76.240598 
2107.000000	76.241458 
2106.000000	76.242188 
2105.000000	76.242917 
2104.000000	76.243729 
2103.000000	76.244557 
2102.000000	76.245269 
2101.000000	76.245854 
2100.000000	76.246475 
2099.000000	76.247272 
2098.000000	76.248161 
2097.000000	76.248946 
2096.000000	76.249629 
2095.000000	76.250430 
2094.000000	76.251454 
2093.000000	76.252439 
2092.000000	76.253028 
2091.000000	76.253192 
2090.000000	76.253230 
2089.000000	76.253361 
2088.000000	76.253560 
2087.000000	76.253877 
2086.000000	76.254542 
2085.000000	76.255561 
2084.000000	76.256575 
2083.000000	76.257410 
2082.000000	76.258389 
2081.000000	76.259792 
2080.000000	76.261303 
2079.000000	76.262319 
2078.000000	76.262586 
2077.000000	76.262238 
2076.000000	76.261494 
2075.000000	76.260717 
2074.000000	76.260485 
2073.000000	76.261110 
2072.000000	76.262096 
2071.000000	76.262506 
2070.000000	76.261942 
2069.000000	76.260841 
2068.000000	76.259895 
2067.000000	76.259436 
2066.000000	76.259492 
2065.000000	76.260023 
2064.000000	76.260855 
2063.000000	76.261640 
2062.000000	76.262138 
2061.000000	76.262400 
2060.000000	76.262486 
2059.000000	76.262126 
2058.000000	76.260952 
2057.000000	76.259048 
2056.000000	76.257074 
2055.000000	76.255770 
2054.000000	76.255427 
2053.000000	76.255869 
2052.000000	76.256696 
2051.000000	76.257489 
2050.000000	76.257959 
2049.000000	76.258017 
2048.000000	76.257678 
2047.000000	76.256850 
2046.000000	76.255322 
2045.000000	76.253107 
2044.000000	76.250713 
2043.000000	76.248881 
2042.000000	76.247945 
2041.000000	76.247544 
2040.000000	76.246973 
2039.000000	76.245790 
2038.000000	76.244117 
2037.000000	76.242495 
2036.000000	76.241466 
2035.000000	76.241188 
2034.000000	76.241336 
2033.000000	76.241360 
2032.000000	76.240933 
2031.000000	76.240045 
2030.000000	76.238791 
2029.000000	76.237272 
2028.000000	76.235738 
2027.000000	76.234603 
2026.000000	76.234083 
2025.000000	76.233953 
2024.000000	76.233761 
2023.000000	76.233218 
2022.000000	76.232303 
2021.000000	76.231104 
2020.000000	76.229763 
2019.000000	76.228455 
2018.000000	76.227242 
2017.000000	76.226068 
2016.000000	76.225070 
2015.000000	76.224686 
2014.000000	76.225163 
2013.000000	76.226126 
2012.000000	76.226877 
2011.000000	76.227029 
2010.000000	76.226546 
2009.000000	76.225348 
2008.000000	76.223393 
2007.000000	76.221165 
2006.000000	76.219536 
2005.000000	76.219104 
2004.000000	76.219886 
2003.000000	76.221532 
2002.000000	76.223435 
2001.000000	76.224599 
2000.000000	76.224208 
1999.000000	76.222248 
1998.000000	76.219481 
1997.000000	76.216844 
1996.000000	76.215066 
1995.000000	76.214728 
1994.000000	76.215957 
1993.000000	76.217909 
1992.000000	76.219228 
1991.000000	76.219537 
1990.000000	76.219708 
1989.000000	76.220499 
1988.000000	76.221768 
1987.000000	76.223263 
1986.000000	76.225215 
1985.000000	76.227612 
1984.000000	76.229683 
1983.000000	76.230905 
1982.000000	76.231918 
1981.000000	76.233540 
1980.000000	76.235458 
1979.000000	76.236544 
1978.000000	76.236562 
1977.000000	76.236615 
1976.000000	76.237622 
1975.000000	76.239192 
1974.000000	76.240275 
1973.000000	76.240434 
1972.000000	76.240067 
1971.000000	76.239872 
1970.000000	76.240465 
1969.000000	76.242164 
1968.000000	76.244657 
1967.000000	76.247163 
1966.000000	76.249330 
1965.000000	76.251711 
1964.000000	76.254996 
1963.000000	76.259027 
1962.000000	76.262881 
1961.000000	76.265756 
1960.000000	76.267350 
1959.000000	76.267517 
1958.000000	76.266385 
1957.000000	76.264896 
1956.000000	76.264530 
1955.000000	76.265920 
1954.000000	76.268111 
1953.000000	76.269574 
1952.000000	76.269682 
1951.000000	76.269252 
1950.000000	76.269371 
1949.000000	76.270019 
1948.000000	76.270409 
1947.000000	76.270023 
1946.000000	76.269152 
1945.000000	76.268653 
1944.000000	76.269339 
1943.000000	76.271392 
1942.000000	76.274046 
1941.000000	76.276191 
1940.000000	76.277587 
1939.000000	76.279047 
1938.000000	76.281218 
1937.000000	76.283564 
1936.000000	76.284981 
1935.000000	76.285154 
1934.000000	76.285101 
1933.000000	76.286216 
1932.000000	76.288495 
1931.000000	76.290497 
1930.000000	76.290484 
1929.000000	76.288206 
1928.000000	76.285792 
1927.000000	76.285388 
1926.000000	76.286977 
1925.000000	76.288176 
1924.000000	76.287278 
1923.000000	76.285733 
1922.000000	76.286000 
1921.000000	76.288437 
1920.000000	76.291269 
1919.000000	76.292473 
1918.000000	76.290768 
1917.000000	76.286225 
1916.000000	76.280688 
1915.000000	76.276490 
1914.000000	76.274414 
1913.000000	76.273287 
1912.000000	76.271531 
1911.000000	76.269198 
1910.000000	76.267152 
1909.000000	76.265497 
1908.000000	76.263598 
1907.000000	76.260551 
1906.000000	76.256208 
1905.000000	76.251003 
1904.000000	76.246573 
1903.000000	76.245361 
1902.000000	76.247128 
1901.000000	76.248510 
1900.000000	76.246962 
1899.000000	76.243486 
1898.000000	76.240867 
1897.000000	76.239801 
1896.000000	76.238942 
1895.000000	76.238034 
1894.000000	76.238029 
1893.000000	76.239015 
1892.000000	76.240028 
1891.000000	76.240587 
1890.000000	76.240974 
1889.000000	76.241433 
1888.000000	76.241940 
1887.000000	76.242565 
1886.000000	76.243547 
1885.000000	76.245141 
1884.000000	76.247859 
1883.000000	76.252057 
1882.000000	76.256115 
1881.000000	76.257316 
1880.000000	76.255481 
1879.000000	76.253302 
1878.000000	76.253041 
1877.000000	76.253983 
1876.000000	76.254263 
1875.000000	76.254643 
1874.000000	76.257381 
1873.000000	76.262072 
1872.000000	76.265869 
1871.000000	76.267342 
1870.000000	76.267846 
1869.000000	76.269102 
1868.000000	76.271611 
1867.000000	76.275307 
1866.000000	76.280085 
1865.000000	76.285874 
1864.000000	76.292549 
1863.000000	76.299703 
1862.000000	76.306161 
1861.000000	76.310175 
1860.000000	76.311379 
1859.000000	76.312001 
1858.000000	76.314839 
1857.000000	76.320501 
1856.000000	76.327495 
1855.000000	76.334498 
1854.000000	76.340798 
1853.000000	76.345524 
1852.000000	76.348682 
1851.000000	76.350668 
1850.000000	76.352037 
1849.000000	76.353616 
1848.000000	76.355986 
1847.000000	76.359148 
1846.000000	76.362438 
1845.000000	76.365554 
1844.000000	76.369727 
1843.000000	76.376849 
1842.000000	76.385524 
1841.000000	76.391937 
1840.000000	76.394343 
1839.000000	76.393953 
1838.000000	76.393671 
1837.000000	76.395109 
1836.000000	76.397861 
1835.000000	76.401255 
1834.000000	76.404782 
1833.000000	76.408256 
1832.000000	76.411905 
1831.000000	76.415041 
1830.000000	76.416209 
1829.000000	76.415068 
1828.000000	76.412742 
1827.000000	76.410976 
1826.000000	76.411040 
1825.000000	76.412351 
1824.000000	76.413406 
1823.000000	76.414771 
1822.000000	76.418110 
1821.000000	76.422861 
1820.000000	76.426295 
1819.000000	76.427463 
1818.000000	76.428711 
1817.000000	76.430751 
1816.000000	76.431680 
1815.000000	76.431288 
1814.000000	76.431039 
1813.000000	76.430925 
1812.000000	76.429203 
1811.000000	76.427975 
1810.000000	76.432378 
1809.000000	76.441540 
1808.000000	76.449194 
1807.000000	76.452367 
1806.000000	76.453504 
1805.000000	76.454759 
1804.000000	76.455646 
1803.000000	76.456219 
1802.000000	76.457885 
1801.000000	76.461612 
1800.000000	76.465403 
1799.000000	76.468116 
1798.000000	76.471633 
1797.000000	76.476207 
1796.000000	76.479953 
1795.000000	76.482252 
1794.000000	76.485249 
1793.000000	76.491123 
1792.000000	76.499268 
1791.000000	76.508335 
1790.000000	76.515931 
1789.000000	76.519667 
1788.000000	76.521541 
1787.000000	76.526235 
1786.000000	76.535945 
1785.000000	76.547138 
1784.000000	76.555413 
1783.000000	76.561305 
1782.000000	76.567221 
1781.000000	76.574477 
1780.000000	76.580615 
1779.000000	76.583583 
1778.000000	76.585593 
1777.000000	76.589450 
1776.000000	76.596323 
1775.000000	76.605846 
1774.000000	76.619228 
1773.000000	76.637160 
1772.000000	76.655406 
1771.000000	76.671822 
1770.000000	76.691269 
1769.000000	76.717504 
1768.000000	76.747587 
1767.000000	76.773789 
1766.000000	76.791704 
1765.000000	76.804765 
1764.000000	76.818875 
1763.000000	76.838380 
1762.000000	76.864215 
1761.000000	76.892637 
1760.000000	76.916673 
1759.000000	76.935308 
1758.000000	76.954381 
1757.000000	76.977951 
1756.000000	77.002052 
1755.000000	77.019919 
1754.000000	77.033674 
1753.000000	77.050933 
1752.000000	77.072851 
1751.000000	77.091980 
1750.000000	77.105839 
1749.000000	77.119758 
1748.000000	77.136647 
1747.000000	77.153321 
1746.000000	77.168109 
1745.000000	77.185488 
1744.000000	77.206628 
1743.000000	77.226519 
1742.000000	77.240806 
1741.000000	77.248659 
1740.000000	77.249590 
1739.000000	77.244994 
1738.000000	77.238893 
1737.000000	77.231814 
1736.000000	77.219951 
1735.000000	77.196243 
1734.000000	77.158906 
1733.000000	77.126132 
1732.000000	77.111625 
1731.000000	77.109515 
1730.000000	77.112966 
1729.000000	77.117102 
1728.000000	77.117121 
1727.000000	77.109479 
1726.000000	77.095074 
1725.000000	77.078698 
1724.000000	77.062590 
1723.000000	77.047999 
1722.000000	77.035955 
1721.000000	77.024607 
1720.000000	77.009548 
1719.000000	76.986542 
1718.000000	76.956150 
1717.000000	76.926382 
1716.000000	76.906268 
1715.000000	76.896430 
1714.000000	76.889904 
1713.000000	76.878287 
1712.000000	76.858785 
1711.000000	76.835366 
1710.000000	76.811722 
1709.000000	76.788408 
1708.000000	76.765535 
1707.000000	76.744324 
1706.000000	76.726601 
1705.000000	76.710778 
1704.000000	76.694717 
1703.000000	76.678674 
1702.000000	76.666345 
1701.000000	76.656787 
1700.000000	76.640111 
1699.000000	76.621609 
1698.000000	76.612419 
1697.000000	76.612458 
1696.000000	76.617557 
1695.000000	76.621767 
1694.000000	76.620344 
1693.000000	76.611509 
1692.000000	76.598035 
1691.000000	76.586811 
1690.000000	76.582669 
1689.000000	76.583982 
1688.000000	76.585940 
1687.000000	76.585942 
1686.000000	76.589761 
1685.000000	76.598383 
1684.000000	76.600850 
1683.000000	76.597614 
1682.000000	76.593609 
1681.000000	76.589543 
1680.000000	76.588185 
1679.000000	76.589487 
1678.000000	76.593106 
1677.000000	76.601076 
1676.000000	76.612037 
1675.000000	76.618457 
1674.000000	76.617513 
1673.000000	76.615125 
1672.000000	76.613869 
1671.000000	76.612608 
1670.000000	76.611310 
1669.000000	76.614179 
1668.000000	76.623013 
1667.000000	76.630407 
1666.000000	76.631287 
1665.000000	76.628042 
1664.000000	76.624916 
1663.000000	76.624228 
1662.000000	76.625770 
1661.000000	76.629717 
1660.000000	76.634970 
1659.000000	76.638738 
1658.000000	76.639867 
1657.000000	76.640081 
1656.000000	76.640587 
1655.000000	76.640721 
1654.000000	76.638575 
1653.000000	76.632332 
1652.000000	76.630720 
1651.000000	76.635764 
1650.000000	76.640284 
1649.000000	76.642457 
1648.000000	76.642791 
1647.000000	76.641215 
1646.000000	76.639200 
1645.000000	76.638814 
1644.000000	76.639933 
1643.000000	76.641412 
1642.000000	76.641739 
1641.000000	76.640442 
1640.000000	76.638491 
1639.000000	76.637074 
1638.000000	76.636850 
1637.000000	76.637784 
1636.000000	76.638769 
1635.000000	76.638779 
1634.000000	76.638758 
1633.000000	76.638558 
1632.000000	76.637496 
1631.000000	76.636241 
1630.000000	76.635312 
1629.000000	76.635060 
1628.000000	76.635938 
1627.000000	76.637708 
1626.000000	76.638481 
1625.000000	76.637086 
1624.000000	76.634608 
1623.000000	76.633483 
1622.000000	76.635047 
1621.000000	76.638476 
1620.000000	76.642085 
1619.000000	76.644665 
1618.000000	76.645824 
1617.000000	76.644981 
1616.000000	76.644482 
1615.000000	76.646970 
1614.000000	76.650629 
1613.000000	76.653801 
1612.000000	76.657536 
1611.000000	76.661760 
1610.000000	76.664056 
1609.000000	76.664451 
1608.000000	76.666466 
1607.000000	76.671452 
1606.000000	76.676393 
1605.000000	76.679370 
1604.000000	76.681646 
1603.000000	76.684480 
1602.000000	76.688112 
1601.000000	76.692209 
1600.000000	76.696167 
1599.000000	76.699019 
1598.000000	76.700744 
1597.000000	76.703025 
1596.000000	76.707471 
1595.000000	76.713870 
1594.000000	76.720466 
1593.000000	76.725991 
1592.000000	76.730457 
1591.000000	76.734197 
1590.000000	76.737377 
1589.000000	76.740604 
1588.000000	76.744663 
1587.000000	76.749575 
1586.000000	76.754483 
1585.000000	76.758829 
1584.000000	76.763172 
1583.000000	76.767175 
1582.000000	76.770472 
1581.000000	76.774682 
1580.000000	76.781569 
1579.000000	76.790134 
1578.000000	76.798197 
1577.000000	76.804579 
1576.000000	76.809002 
1575.000000	76.812577 
1574.000000	76.815191 
1573.000000	76.815842 
1572.000000	76.815146 
1571.000000	76.815131 
1570.000000	76.817153 
1569.000000	76.822022 
1568.000000	76.829423 
1567.000000	76.836253 
1566.000000	76.840832 
1565.000000	76.844169 
1564.000000	76.847538 
1563.000000	76.849998 
1562.000000	76.851060 
1561.000000	76.852848 
1560.000000	76.858617 
1559.000000	76.862315 
1558.000000	76.865822 
1557.000000	76.873960 
1556.000000	76.880601 
1555.000000	76.882856 
1554.000000	76.881756 
1553.000000	76.881090 
1552.000000	76.883027 
1551.000000	76.886114 
1550.000000	76.888682 
1549.000000	76.889220 
1548.000000	76.887630 
1547.000000	76.885289 
1546.000000	76.884415 
1545.000000	76.886744 
1544.000000	76.891760 
1543.000000	76.896998 
1542.000000	76.900774 
1541.000000	76.900891 
1540.000000	76.894682 
1539.000000	76.887403 
1538.000000	76.885438 
1537.000000	76.886563 
1536.000000	76.886378 
1535.000000	76.882725 
1534.000000	76.876334 
1533.000000	76.872204 
1532.000000	76.872874 
1531.000000	76.874599 
1530.000000	76.874242 
1529.000000	76.872361 
1528.000000	76.871225 
1527.000000	76.872526 
1526.000000	76.875349 
1525.000000	76.877287 
1524.000000	76.876905 
1523.000000	76.875212 
1522.000000	76.874773 
1521.000000	76.877487 
1520.000000	76.882186 
1519.000000	76.885600 
1518.000000	76.887304 
1517.000000	76.889208 
1516.000000	76.892007 
1515.000000	76.894689 
1514.000000	76.896640 
1513.000000	76.898550 
1512.000000	76.900083 
1511.000000	76.900458 
1510.000000	76.900128 
1509.000000	76.900162 
1508.000000	76.901557 
1507.000000	76.903901 
1506.000000	76.905995 
1505.000000	76.906489 
1504.000000	76.905857 
1503.000000	76.905676 
1502.000000	76.907195 
1501.000000	76.911150 
1500.000000	76.917231 
1499.000000	76.924847 
1498.000000	76.933977 
1497.000000	76.942585 
1496.000000	76.945953 
1495.000000	76.943458 
1494.000000	76.939361 
1493.000000	76.937293 
1492.000000	76.938331 
1491.000000	76.942378 
1490.000000	76.948752 
1489.000000	76.955016 
1488.000000	76.958042 
1487.000000	76.959557 
1486.000000	76.963198 
1485.000000	76.968189 
1484.000000	76.971994 
1483.000000	76.973046 
1482.000000	76.972817 
1481.000000	76.973770 
1480.000000	76.976979 
1479.000000	76.982580 
1478.000000	76.990154 
1477.000000	76.997281 
1476.000000	77.001117 
1475.000000	77.003462 
1474.000000	77.009128 
1473.000000	77.020353 
1472.000000	77.033035 
1471.000000	77.042710 
1470.000000	77.050153 
1469.000000	77.057645 
1468.000000	77.064802 
1467.000000	77.070132 
1466.000000	77.073943 
1465.000000	77.078632 
1464.000000	77.084717 
1463.000000	77.089224 
1462.000000	77.091424 
1461.000000	77.093810 
1460.000000	77.099228 
1459.000000	77.108568 
1458.000000	77.120347 
1457.000000	77.128001 
1456.000000	77.124654 
1455.000000	77.111689 
1454.000000	77.097374 
1453.000000	77.088172 
1452.000000	77.083167 
1451.000000	77.078615 
1450.000000	77.074811 
1449.000000	77.074794 
1448.000000	77.077522 
1447.000000	77.078508 
1446.000000	77.075925 
1445.000000	77.074017 
1444.000000	77.075376 
1443.000000	77.076996 
1442.000000	77.075733 
1441.000000	77.071809 
1440.000000	77.067579 
1439.000000	77.065107 
1438.000000	77.066988 
1437.000000	77.071965 
1436.000000	77.073322 
1435.000000	77.067174 
1434.000000	77.058542 
1433.000000	77.054393 
1432.000000	77.056450 
1431.000000	77.061433 
1430.000000	77.065963 
1429.000000	77.067746 
1428.000000	77.063726 
1427.000000	77.053448 
1426.000000	77.040682 
1425.000000	77.031929 
1424.000000	77.029001 
1423.000000	77.026994 
1422.000000	77.022041 
1421.000000	77.014567 
1420.000000	77.003884 
1419.000000	76.986793 
1418.000000	76.967086 
1417.000000	76.951027 
1416.000000	76.938426 
1415.000000	76.925966 
1414.000000	76.911108 
1413.000000	76.894122 
1412.000000	76.877448 
1411.000000	76.863667 
1410.000000	76.854400 
1409.000000	76.849130 
1408.000000	76.846330 
1407.000000	76.846334 
1406.000000	76.850386 
1405.000000	76.859806 
1404.000000	76.873560 
1403.000000	76.887769 
1402.000000	76.900268 
1401.000000	76.911962 
1400.000000	76.923881 
1399.000000	76.934077 
1398.000000	76.937231 
1397.000000	76.926616 
1396.000000	76.900698 
1395.000000	76.872250 
1394.000000	76.864735 
1393.000000	76.890470 
1392.000000	76.938319 
1391.000000	76.986977 
1390.000000	77.023250 
1389.000000	77.047622 
1388.000000	77.067482 
1387.000000	77.087177 
1386.000000	77.104938 
1385.000000	77.119087 
1384.000000	77.131696 
1383.000000	77.145455 
1382.000000	77.162119 
1381.000000	77.182453 
1380.000000	77.205285 
1379.000000	77.226407 
1378.000000	77.241566 
1377.000000	77.251139 
1376.000000	77.259726 
1375.000000	77.271050 
1374.000000	77.284431 
1373.000000	77.295938 
1372.000000	77.301846 
1371.000000	77.302682 
1370.000000	77.303542 
1369.000000	77.310851 
1368.000000	77.326296 
1367.000000	77.343558 
1366.000000	77.353724 
1365.000000	77.352896 
1364.000000	77.344193 
1363.000000	77.335236 
1362.000000	77.331971 
1361.000000	77.332876 
1360.000000	77.332695 
1359.000000	77.330494 
1358.000000	77.330438 
1357.000000	77.335926 
1356.000000	77.344680 
1355.000000	77.350995 
1354.000000	77.352200 
1353.000000	77.349948 
1352.000000	77.345427 
1351.000000	77.337829 
1350.000000	77.327492 
1349.000000	77.317689 
1348.000000	77.310797 
1347.000000	77.306137 
1346.000000	77.302487 
1345.000000	77.299311 
1344.000000	77.294751 
1343.000000	77.285537 
1342.000000	77.270751 
1341.000000	77.254055 
1340.000000	77.240970 
1339.000000	77.233935 
1338.000000	77.230570 
1337.000000	77.226571 
1336.000000	77.219182 
1335.000000	77.208978 
1334.000000	77.199933 
1333.000000	77.196183 
1332.000000	77.197284 
1331.000000	77.198010 
1330.000000	77.193854 
1329.000000	77.185412 
1328.000000	77.176569 
1327.000000	77.170356 
1326.000000	77.167250 
1325.000000	77.165598 
1324.000000	77.162406 
1323.000000	77.155278 
1322.000000	77.144995 
1321.000000	77.135197 
1320.000000	77.128729 
1319.000000	77.125246 
1318.000000	77.122858 
1317.000000	77.120755 
1316.000000	77.118898 
1315.000000	77.116290 
1314.000000	77.111526 
1313.000000	77.104926 
1312.000000	77.098636 
1311.000000	77.094161 
1310.000000	77.090691 
1309.000000	77.086326 
1308.000000	77.080512 
1307.000000	77.074809 
1306.000000	77.070856 
1305.000000	77.068053 
1304.000000	77.064016 
1303.000000	77.057408 
1302.000000	77.049562 
1301.000000	77.042667 
1300.000000	77.036845 
1299.000000	77.030091 
1298.000000	77.020917 
1297.000000	77.010057 
1296.000000	76.999614 
1295.000000	76.991265 
1294.000000	76.985296 
1293.000000	76.980563 
1292.000000	76.975173 
1291.000000	76.967852 
1290.000000	76.958816 
1289.000000	76.948947 
1288.000000	76.938475 
1287.000000	76.927134 
1286.000000	76.915314 
1285.000000	76.904477 
1284.000000	76.896553 
1283.000000	76.892826 
1282.000000	76.892348 
1281.000000	76.891188 
1280.000000	76.884881 
1279.000000	76.872794 
1278.000000	76.859280 
1277.000000	76.849413 
1276.000000	76.844128 
1275.000000	76.840447 
1274.000000	76.835085 
1273.000000	76.826191 
1272.000000	76.812780 
1271.000000	76.795079 
1270.000000	76.775423 
1269.000000	76.756921 
1268.000000	76.741123 
1267.000000	76.728049 
1266.000000	76.717484 
1265.000000	76.708172 
1264.000000	76.696583 
1263.000000	76.679393 
1262.000000	76.657583 
1261.000000	76.635877 
1260.000000	76.617795 
1259.000000	76.602920 
1258.000000	76.589429 
1257.000000	76.577484 
1256.000000	76.568988 
1255.000000	76.564753 
1254.000000	76.562279 
1253.000000	76.556219 
1252.000000	76.542287 
1251.000000	76.522336 
1250.000000	76.504746 
1249.000000	76.497536 
1248.000000	76.501094 
1247.000000	76.508508 
1246.000000	76.511961 
1245.000000	76.507413 
1244.000000	76.495349 
1243.000000	76.481238 
1242.000000	76.474781 
1241.000000	76.483720 
1240.000000	76.506277 
1239.000000	76.532002 
1238.000000	76.551394 
1237.000000	76.562531 
1236.000000	76.567936 
1235.000000	76.569420 
1234.000000	76.568664 
1233.000000	76.569033 
1232.000000	76.572085 
1231.000000	76.573297 
1230.000000	76.565479 
1229.000000	76.546936 
1228.000000	76.523319 
1227.000000	76.500231 
1226.000000	76.475803 
1225.000000	76.442782 
1224.000000	76.398359 
1223.000000	76.351044 
1222.000000	76.316566 
1221.000000	76.305888 
1220.000000	76.316448 
1219.000000	76.333562 
1218.000000	76.339497 
1217.000000	76.322623 
1216.000000	76.281246 
1215.000000	76.222332 
1214.000000	76.156850 
1213.000000	76.093799 
1212.000000	76.036886 
1211.000000	75.985644 
1210.000000	75.937964 
1209.000000	75.891314 
1208.000000	75.843658 
1207.000000	75.794950 
1206.000000	75.746980 
1205.000000	75.700451 
1204.000000	75.652768 
1203.000000	75.599765 
1202.000000	75.539249 
1201.000000	75.472409 
1200.000000	75.402817 
1199.000000	75.334661 
1198.000000	75.270522 
1197.000000	75.209609 
1196.000000	75.148820 
1195.000000	75.086230 
1194.000000	75.023043 
1193.000000	74.962071 
1192.000000	74.905324 
1191.000000	74.853041 
1190.000000	74.803518 
1189.000000	74.753663 
1188.000000	74.701205 
1187.000000	74.646662 
1186.000000	74.591718 
1185.000000	74.535872 
1184.000000	74.477285 
1183.000000	74.417549 
1182.000000	74.362452 
1181.000000	74.315460 
1180.000000	74.272000 
1179.000000	74.222580 
1178.000000	74.161240 
1177.000000	74.089422 
1176.000000	74.012329 
1175.000000	73.933665 
1174.000000	73.853956 
1173.000000	73.772321 
1172.000000	73.688981 
1171.000000	73.606081 
1170.000000	73.526159 
1169.000000	73.450313 
1168.000000	73.378547 
1167.000000	73.311469 
1166.000000	73.250837 
1165.000000	73.199225 
1164.000000	73.160781 
1163.000000	73.141774 
1162.000000	73.147624 
1161.000000	73.177291 
1160.000000	73.220475 
1159.000000	73.261436 
1158.000000	73.286960 
1157.000000	73.291300 
1156.000000	73.274823 
1155.000000	73.240796 
1154.000000	73.194584 
1153.000000	73.143336 
1152.000000	73.092808 
1151.000000	73.043452 
1150.000000	72.991191 
1149.000000	72.933006 
1148.000000	72.870504 
1147.000000	72.807213 
1146.000000	72.744381 
1145.000000	72.681660 
1144.000000	72.620360 
1143.000000	72.562463 
1142.000000	72.506400 
1141.000000	72.447234 
1140.000000	72.381966 
1139.000000	72.311930 
1138.000000	72.239298 
1137.000000	72.164335 
1136.000000	72.087453 
1135.000000	72.010781 
1134.000000	71.935536 
1133.000000	71.860511 
1132.000000	71.785371 
1131.000000	71.712573 
1130.000000	71.643132 
1129.000000	71.572976 
1128.000000	71.496841 
1127.000000	71.414428 
1126.000000	71.330086 
1125.000000	71.247650 
1124.000000	71.167925 
1123.000000	71.089947 
1122.000000	71.012388 
1121.000000	70.934722 
1120.000000	70.858601 
1119.000000	70.786591 
1118.000000	70.718162 
1117.000000	70.648931 
1116.000000	70.575316 
1115.000000	70.497896 
1114.000000	70.419241 
1113.000000	70.341307 
1112.000000	70.266218 
1111.000000	70.195930 
1110.000000	70.128933 
1109.000000	70.060722 
1108.000000	69.989722 
1107.000000	69.919661 
1106.000000	69.853796 
1105.000000	69.790382 
1104.000000	69.726742 
1103.000000	69.664386 
1102.000000	69.606831 
1101.000000	69.555093 
1100.000000	69.508432 
1099.000000	69.466654 
1098.000000	69.428373 
1097.000000	69.389016 
1096.000000	69.343638 
1095.000000	69.289940 
1094.000000	69.225813 
1093.000000	69.146511 
1092.000000	69.048603 
1091.000000	68.936200 
1090.000000	68.819743 
1089.000000	68.707646 
1088.000000	68.600624 
1087.000000	68.493876 
1086.000000	68.383197 
1085.000000	68.269564 
1084.000000	68.158819 
1083.000000	68.056094 
1082.000000	67.960426 
1081.000000	67.866654 
1080.000000	67.772489 
1079.000000	67.680941 
1078.000000	67.595828 
1077.000000	67.518564 
1076.000000	67.449596 
1075.000000	67.388318 
1074.000000	67.330546 
1073.000000	67.270446 
1072.000000	67.205464 
1071.000000	67.134138 
1070.000000	67.048976 
1069.000000	66.939779 
1068.000000	66.808568 
1067.000000	66.675738 
1066.000000	66.565242 
1065.000000	66.485831 
1064.000000	66.429854 
1063.000000	66.384348 
1062.000000	66.337581 
1061.000000	66.280287 
1060.000000	66.209943 
1059.000000	66.135594 
1058.000000	66.073725 
1057.000000	66.035956 
1056.000000	66.019631 
1055.000000	66.008597 
1054.000000	65.982863 
1053.000000	65.930015 
1052.000000	65.848564 
1051.000000	65.740563 
1050.000000	65.604804 
1049.000000	65.442035 
1048.000000	65.263170 
1047.000000	65.083451 
1046.000000	64.908487 
1045.000000	64.733954 
1044.000000	64.559188 
1043.000000	64.392305 
1042.000000	64.239023 
1041.000000	64.093731 
1040.000000	63.946847 
1039.000000	63.797743 
1038.000000	63.657718 
1037.000000	63.542783 
1036.000000	63.463372 
1035.000000	63.415653 
1034.000000	63.381454 
1033.000000	63.341505 
1032.000000	63.289512 
1031.000000	63.230663 
1030.000000	63.171302 
1029.000000	63.117651 
1028.000000	63.080039 
1027.000000	63.065924 
1026.000000	63.067978 
1025.000000	63.069741 
1024.000000	63.064715 
1023.000000	63.059922 
1022.000000	63.059437 
1021.000000	63.055208 
1020.000000	63.037866 
1019.000000	63.008185 
1018.000000	62.974287 
1017.000000	62.944714 
1016.000000	62.927091 
1015.000000	62.925827 
1014.000000	62.936571 
1013.000000	62.947976 
1012.000000	62.951644 
1011.000000	62.946495 
1010.000000	62.934453 
1009.000000	62.919018 
1008.000000	62.908097 
1007.000000	62.909704 
1006.000000	62.922272 
1005.000000	62.935541 
1004.000000	62.942865 
1003.000000	62.947066 
1002.000000	62.953979 
1001.000000	62.967111 
1000.000000	62.989110 
999.000000	 63.020893 
998.000000	 63.057594 
997.000000	 63.091813 
996.000000	 63.122420 
995.000000	 63.154891 
994.000000	 63.192881 
993.000000	 63.235169 
992.000000	 63.280498 
991.000000	 63.328893 
990.000000	 63.378299 
989.000000	 63.426571 
988.000000	 63.476968 
987.000000	 63.535372 
986.000000	 63.602279 
985.000000	 63.673596 
984.000000	 63.748547 
983.000000	 63.830605 
982.000000	 63.921866 
981.000000	 64.022660 
980.000000	 64.134613 
979.000000	 64.256793 
978.000000	 64.380967 
977.000000	 64.499168 
976.000000	 64.614690 
975.000000	 64.737432 
974.000000	 64.869941 
973.000000	 65.006622 
972.000000	 65.145344 
971.000000	 65.290066 
970.000000	 65.441439 
969.000000	 65.593753 
968.000000	 65.742546 
967.000000	 65.887883 
966.000000	 66.029851 
965.000000	 66.168842 
964.000000	 66.310847 
963.000000	 66.463488 
962.000000	 66.623747 
961.000000	 66.777087 
960.000000	 66.912575 
959.000000	 67.033594 
958.000000	 67.150970 
957.000000	 67.270236 
956.000000	 67.388947 
955.000000	 67.502759 
954.000000	 67.609812 
953.000000	 67.710054 
952.000000	 67.802862 
951.000000	 67.886557 
950.000000	 67.961142 
949.000000	 68.031015 
948.000000	 68.101887 
947.000000	 68.173487 
946.000000	 68.239038 
945.000000	 68.294691 
944.000000	 68.345176 
943.000000	 68.396020 
942.000000	 68.444572 
941.000000	 68.485117 
940.000000	 68.519568 
939.000000	 68.555434 
938.000000	 68.594457 
937.000000	 68.631142 
936.000000	 68.662920 
935.000000	 68.694312 
934.000000	 68.729577 
933.000000	 68.767853 
932.000000	 68.807645 
931.000000	 68.849981 
930.000000	 68.894406 
929.000000	 68.937213 
928.000000	 68.976679 
927.000000	 69.015575 
926.000000	 69.055758 
925.000000	 69.094647 
924.000000	 69.130251 
923.000000	 69.165489 
922.000000	 69.203079 
921.000000	 69.238749 
920.000000	 69.264489 
919.000000	 69.278539 
918.000000	 69.289000 
917.000000	 69.306541 
916.000000	 69.335068 
915.000000	 69.370133 
914.000000	 69.405494 
913.000000	 69.440506 
912.000000	 69.480617 
911.000000	 69.530963 
910.000000	 69.591600 
909.000000	 69.660395 
908.000000	 69.738862 
907.000000	 69.832344 
906.000000	 69.944329 
905.000000	 70.072079 
904.000000	 70.207805 
903.000000	 70.343936 
902.000000	 70.478929 
901.000000	 70.618603 
900.000000	 70.769831 
899.000000	 70.932392 
898.000000	 71.098357 
897.000000	 71.259320 
896.000000	 71.411484 
895.000000	 71.554445 
894.000000	 71.689927 
893.000000	 71.822598 
892.000000	 71.957718 
891.000000	 72.096308 
890.000000	 72.235707 
889.000000	 72.374901 
888.000000	 72.514380 
887.000000	 72.650253 
886.000000	 72.774880 
885.000000	 72.885933 
884.000000	 72.989457 
883.000000	 73.090858 
882.000000	 73.187783 
881.000000	 73.275563 
880.000000	 73.354596 
879.000000	 73.427321 
878.000000	 73.492346 
877.000000	 73.548549 
876.000000	 73.602960 
875.000000	 73.667036 
874.000000	 73.743883 
873.000000	 73.824805 
872.000000	 73.901093 
871.000000	 73.975628 
870.000000	 74.059598 
869.000000	 74.159019 
868.000000	 74.267527 
867.000000	 74.373336 
866.000000	 74.471859 
865.000000	 74.569632 
864.000000	 74.675479 
863.000000	 74.789454 
862.000000	 74.901488 
861.000000	 75.000004 
860.000000	 75.081353 
859.000000	 75.152573 
858.000000	 75.225563 
857.000000	 75.306168 
856.000000	 75.388458 
855.000000	 75.462147 
854.000000	 75.525380 
853.000000	 75.585280 
852.000000	 75.644514 
851.000000	 75.694612 
850.000000	 75.728169 
849.000000	 75.752070 
848.000000	 75.780566 
847.000000	 75.817166 
846.000000	 75.850862 
845.000000	 75.870115 
844.000000	 75.873994 
843.000000	 75.869202 
842.000000	 75.862485 
841.000000	 75.857536 
840.000000	 75.853377 
839.000000	 75.842080 
838.000000	 75.812328 
837.000000	 75.760288 
836.000000	 75.696293 
835.000000	 75.638097 
834.000000	 75.597288 
833.000000	 75.573013 
832.000000	 75.556992 
831.000000	 75.541589 
830.000000	 75.524101 
829.000000	 75.507730 
828.000000	 75.500332 
827.000000	 75.509540 
826.000000	 75.535417 
825.000000	 75.567057 
824.000000	 75.588115 
823.000000	 75.587693 
822.000000	 75.567431 
821.000000	 75.538458 
820.000000	 75.510684 
819.000000	 75.483739 
818.000000	 75.447624 
817.000000	 75.392977 
816.000000	 75.320757 
815.000000	 75.239903 
814.000000	 75.154407 
813.000000	 75.055212 
812.000000	 74.927127 
811.000000	 74.760568 
810.000000	 74.552690 
809.000000	 74.300833 
808.000000	 74.003624 
807.000000	 73.669785 
806.000000	 73.318129 
805.000000	 72.965309 
804.000000	 72.618960 
803.000000	 72.284655 
802.000000	 71.973019 
801.000000	 71.696937 
800.000000	 71.467116 
799.000000	 71.293164 
798.000000	 71.184159 
797.000000	 71.143950 
796.000000	 71.166245 
795.000000	 71.234335 
794.000000	 71.325375 
793.000000	 71.418281 
792.000000	 71.502212 
791.000000	 71.578302 
790.000000	 71.650097 
789.000000	 71.710559 
788.000000	 71.741007 
787.000000	 71.725158 
786.000000	 71.662270 
785.000000	 71.564504 
784.000000	 71.445096 
783.000000	 71.313649 
782.000000	 71.180219 
781.000000	 71.057757 
780.000000	 70.959789 
779.000000	 70.898703 
778.000000	 70.885058 
777.000000	 70.923808 
776.000000	 71.009486 
775.000000	 71.127747 
774.000000	 71.264043 
773.000000	 71.409889 
772.000000	 71.560233 
771.000000	 71.708320 
770.000000	 71.846312 
769.000000	 71.969150 
768.000000	 72.075685 
767.000000	 72.168397 
766.000000	 72.253494 
765.000000	 72.337023 
764.000000	 72.417533 
763.000000	 72.485986 
762.000000	 72.536690 
761.000000	 72.575338 
760.000000	 72.612424 
759.000000	 72.652187 
758.000000	 72.692678 
757.000000	 72.733626 
756.000000	 72.778153 
755.000000	 72.827568 
754.000000	 72.879949 
753.000000	 72.934537 
752.000000	 72.994096 
751.000000	 73.062706 
750.000000	 73.143256 
749.000000	 73.235308 
748.000000	 73.332395 
747.000000	 73.423640 
746.000000	 73.502357 
745.000000	 73.572046 
744.000000	 73.641077 
743.000000	 73.714610 
742.000000	 73.795604 
741.000000	 73.888666 
740.000000	 73.994872 
739.000000	 74.104800 
738.000000	 74.204976 
737.000000	 74.291547 
736.000000	 74.371106 
735.000000	 74.447975 
734.000000	 74.518183 
733.000000	 74.578054 
732.000000	 74.632091 
731.000000	 74.688817 
730.000000	 74.752518 
729.000000	 74.821036 
728.000000	 74.887408 
727.000000	 74.943351 
726.000000	 74.986620 
725.000000	 75.025008 
724.000000	 75.068005 
723.000000	 75.114585 
722.000000	 75.155178 
721.000000	 75.186823 
720.000000	 75.219717 
719.000000	 75.264839 
718.000000	 75.320066 
717.000000	 75.373137 
716.000000	 75.413788 
715.000000	 75.438219 
714.000000	 75.445790 
713.000000	 75.437640 
712.000000	 75.417996 
711.000000	 75.392759 
710.000000	 75.366125 
709.000000	 75.340148 
708.000000	 75.316620 
707.000000	 75.296348 
706.000000	 75.276416 
705.000000	 75.249408 
704.000000	 75.205522 
703.000000	 75.135609 
702.000000	 75.032358 
701.000000	 74.891808 
700.000000	 74.716790 
699.000000	 74.516916 
698.000000	 74.305629 
697.000000	 74.100231 
696.000000	 73.926893 
695.000000	 73.821766 
694.000000	 73.815417 
693.000000	 73.910030 
692.000000	 74.072297 
691.000000	 74.252299 
690.000000	 74.415250 
689.000000	 74.553698 
688.000000	 74.673192 
687.000000	 74.777415 
686.000000	 74.867131 
685.000000	 74.944899 
684.000000	 75.015577 
683.000000	 75.084718 
682.000000	 75.159671 
681.000000	 75.247290 
680.000000	 75.345988 
679.000000	 75.442574 
678.000000	 75.522114 
677.000000	 75.583297 
676.000000	 75.640125 
675.000000	 75.708564 
674.000000	 75.793085 
673.000000	 75.881163 
672.000000	 75.947538 
671.000000	 75.971873 
670.000000	 75.957489 
669.000000	 75.945036 
668.000000	 76.005034 
667.000000	 76.144240 
666.000000	 76.291043 
665.000000	 76.418478 
664.000000	 76.539416 
663.000000	 76.655538 
662.000000	 76.758749 
661.000000	 76.850472 
660.000000	 76.939475 
659.000000	 77.025137 
658.000000	 77.102916 
657.000000	 77.178263 
656.000000	 77.252732 
655.000000	 77.308713 
654.000000	 77.331839 
653.000000	 77.334847 
652.000000	 77.338341 
651.000000	 77.344837 
650.000000	 77.350274 

