PE IR                   SPECTRUM    ASCII       PEDS        1.60        
  -1
~SP.SP
22/12/06
15:37:40.00
23/01/09
15:15:09.00
Administrator

650.000000
4









FRONTIER FT-IR,CPU32 MAIN 00.09.9951 07-SEPTEMBER-2011 11:49:41
MIR TGS
MIR
OPTKBR
90694
0.200000

4.000000
STRONG
RATIO
SPECTRUM
MAGNITUDE
MIRACLE ATR
DOUBLE

COMBINED


0


#HDR
-1
-1
#GR
CM-1
%T
0.00002384185791015625
0.0
4000.000000
-1.000000
3351
8
88.657561
77.871495
#DATA
4000.000000	88.644745 
3999.000000	88.644208 
3998.000000	88.640610 
3997.000000	88.634824 
3996.000000	88.629441 
3995.000000	88.626341 
3994.000000	88.625877 
3993.000000	88.627040 
3992.000000	88.628171 
3991.000000	88.628370 
3990.000000	88.627902 
3989.000000	88.627437 
3988.000000	88.627258 
3987.000000	88.627220 
3986.000000	88.627205 
3985.000000	88.627348 
3984.000000	88.627719 
3983.000000	88.627926 
3982.000000	88.627298 
3981.000000	88.625557 
3980.000000	88.623156 
3979.000000	88.620982 
3978.000000	88.619663 
3977.000000	88.619173 
3976.000000	88.619165 
3975.000000	88.619407 
3974.000000	88.619760 
3973.000000	88.619983 
3972.000000	88.619756 
3971.000000	88.618921 
3970.000000	88.617721 
3969.000000	88.616680 
3968.000000	88.616143 
3967.000000	88.615996 
3966.000000	88.615810 
3965.000000	88.615244 
3964.000000	88.614301 
3963.000000	88.613236 
3962.000000	88.612333 
3961.000000	88.611736 
3960.000000	88.611463 
3959.000000	88.611443 
3958.000000	88.611555 
3957.000000	88.611659 
3956.000000	88.611638 
3955.000000	88.611436 
3954.000000	88.611091 
3953.000000	88.610677 
3952.000000	88.610249 
3951.000000	88.609829 
3950.000000	88.609428 
3949.000000	88.609050 
3948.000000	88.608695 
3947.000000	88.608363 
3946.000000	88.608057 
3945.000000	88.607779 
3944.000000	88.607521 
3943.000000	88.607263 
3942.000000	88.606970 
3941.000000	88.606602 
3940.000000	88.606141 
3939.000000	88.605601 
3938.000000	88.605011 
3937.000000	88.604407 
3936.000000	88.603818 
3935.000000	88.603258 
3934.000000	88.602725 
3933.000000	88.602191 
3932.000000	88.601617 
3931.000000	88.600984 
3930.000000	88.600298 
3929.000000	88.599601 
3928.000000	88.598940 
3927.000000	88.598336 
3926.000000	88.597768 
3925.000000	88.597168 
3924.000000	88.596472 
3923.000000	88.595660 
3922.000000	88.594754 
3921.000000	88.593818 
3920.000000	88.592949 
3919.000000	88.592242 
3918.000000	88.591711 
3917.000000	88.591257 
3916.000000	88.590783 
3915.000000	88.590268 
3914.000000	88.589724 
3913.000000	88.589125 
3912.000000	88.588411 
3911.000000	88.587513 
3910.000000	88.586441 
3909.000000	88.585343 
3908.000000	88.584481 
3907.000000	88.584058 
3906.000000	88.584032 
3905.000000	88.583987 
3904.000000	88.583435 
3903.000000	88.582265 
3902.000000	88.580737 
3901.000000	88.579115 
3900.000000	88.577501 
3899.000000	88.576051 
3898.000000	88.575005 
3897.000000	88.574494 
3896.000000	88.574400 
3895.000000	88.574529 
3894.000000	88.574821 
3893.000000	88.575257 
3892.000000	88.575597 
3891.000000	88.575373 
3890.000000	88.574537 
3889.000000	88.573706 
3888.000000	88.573360 
3887.000000	88.573250 
3886.000000	88.572756 
3885.000000	88.571782 
3884.000000	88.571075 
3883.000000	88.571108 
3882.000000	88.571472 
3881.000000	88.571663 
3880.000000	88.571703 
3879.000000	88.572169 
3878.000000	88.573549 
3877.000000	88.575090 
3876.000000	88.574896 
3875.000000	88.571623 
3874.000000	88.566356 
3873.000000	88.562526 
3872.000000	88.562683 
3871.000000	88.566113 
3870.000000	88.569858 
3869.000000	88.572036 
3868.000000	88.573061 
3867.000000	88.573113 
3866.000000	88.571615 
3865.000000	88.569658 
3864.000000	88.569681 
3863.000000	88.571932 
3862.000000	88.573792 
3861.000000	88.573208 
3860.000000	88.571373 
3859.000000	88.571302 
3858.000000	88.575649 
3857.000000	88.585215 
3856.000000	88.597338 
3855.000000	88.605337 
3854.000000	88.603840 
3853.000000	88.596086 
3852.000000	88.590321 
3851.000000	88.587666 
3850.000000	88.583416 
3849.000000	88.575495 
3848.000000	88.565816 
3847.000000	88.556878 
3846.000000	88.549942 
3845.000000	88.545296 
3844.000000	88.542636 
3843.000000	88.541561 
3842.000000	88.543052 
3841.000000	88.548507 
3840.000000	88.557024 
3839.000000	88.564563 
3838.000000	88.566976 
3837.000000	88.563800 
3836.000000	88.558759 
3835.000000	88.556085 
3834.000000	88.556981 
3833.000000	88.559165 
3832.000000	88.559289 
3831.000000	88.556477 
3830.000000	88.552997 
3829.000000	88.551323 
3828.000000	88.551350 
3827.000000	88.550592 
3826.000000	88.547648 
3825.000000	88.544600 
3824.000000	88.544605 
3823.000000	88.548106 
3822.000000	88.552677 
3821.000000	88.555737 
3820.000000	88.557994 
3819.000000	88.561839 
3818.000000	88.566492 
3817.000000	88.568924 
3816.000000	88.567599 
3815.000000	88.564484 
3814.000000	88.562044 
3813.000000	88.558275 
3812.000000	88.550109 
3811.000000	88.539431 
3810.000000	88.530903 
3809.000000	88.526400 
3808.000000	88.523708 
3807.000000	88.520234 
3806.000000	88.517859 
3805.000000	88.520952 
3804.000000	88.529841 
3803.000000	88.539482 
3802.000000	88.544300 
3801.000000	88.544041 
3800.000000	88.544596 
3799.000000	88.549299 
3798.000000	88.554476 
3797.000000	88.556000 
3796.000000	88.553396 
3795.000000	88.548863 
3794.000000	88.544027 
3793.000000	88.538256 
3792.000000	88.531038 
3791.000000	88.523782 
3790.000000	88.517634 
3789.000000	88.511914 
3788.000000	88.505476 
3787.000000	88.498737 
3786.000000	88.493597 
3785.000000	88.491588 
3784.000000	88.492518 
3783.000000	88.494753 
3782.000000	88.496133 
3781.000000	88.495305 
3780.000000	88.493432 
3779.000000	88.493411 
3778.000000	88.496992 
3777.000000	88.502613 
3776.000000	88.506741 
3775.000000	88.507618 
3774.000000	88.507239 
3773.000000	88.508745 
3772.000000	88.512213 
3771.000000	88.514573 
3770.000000	88.514326 
3769.000000	88.514059 
3768.000000	88.516586 
3767.000000	88.520393 
3766.000000	88.521194 
3765.000000	88.517309 
3764.000000	88.511864 
3763.000000	88.508625 
3762.000000	88.507094 
3761.000000	88.503911 
3760.000000	88.498297 
3759.000000	88.493334 
3758.000000	88.492037 
3757.000000	88.494565 
3756.000000	88.499596 
3755.000000	88.505392 
3754.000000	88.510352 
3753.000000	88.514782 
3752.000000	88.520984 
3751.000000	88.528823 
3750.000000	88.532669 
3749.000000	88.528775 
3748.000000	88.522210 
3747.000000	88.519520 
3746.000000	88.519113 
3745.000000	88.514156 
3744.000000	88.502883 
3743.000000	88.492694 
3742.000000	88.488102 
3741.000000	88.484783 
3740.000000	88.480657 
3739.000000	88.477724 
3738.000000	88.475214 
3737.000000	88.469919 
3736.000000	88.463072 
3735.000000	88.461412 
3734.000000	88.467632 
3733.000000	88.475010 
3732.000000	88.475544 
3731.000000	88.468714 
3730.000000	88.459028 
3729.000000	88.449316 
3728.000000	88.438877 
3727.000000	88.427176 
3726.000000	88.416626 
3725.000000	88.410279 
3724.000000	88.407248 
3723.000000	88.403500 
3722.000000	88.397050 
3721.000000	88.389839 
3720.000000	88.384747 
3719.000000	88.381728 
3718.000000	88.377744 
3717.000000	88.370498 
3716.000000	88.361092 
3715.000000	88.352015 
3714.000000	88.344149 
3713.000000	88.336659 
3712.000000	88.329059 
3711.000000	88.322081 
3710.000000	88.315833 
3709.000000	88.308957 
3708.000000	88.300285 
3707.000000	88.289947 
3706.000000	88.279165 
3705.000000	88.269336 
3704.000000	88.261142 
3703.000000	88.254335 
3702.000000	88.248041 
3701.000000	88.241436 
3700.000000	88.234472 
3699.000000	88.227727 
3698.000000	88.221225 
3697.000000	88.214188 
3696.000000	88.206176 
3695.000000	88.197320 
3694.000000	88.187586 
3693.000000	88.177141 
3692.000000	88.167559 
3691.000000	88.161102 
3690.000000	88.158547 
3689.000000	88.157848 
3688.000000	88.155541 
3687.000000	88.150274 
3686.000000	88.142663 
3685.000000	88.133118 
3684.000000	88.122641 
3683.000000	88.113532 
3682.000000	88.106668 
3681.000000	88.099520 
3680.000000	88.088714 
3679.000000	88.075167 
3678.000000	88.063789 
3677.000000	88.057990 
3676.000000	88.056684 
3675.000000	88.056303 
3674.000000	88.055292 
3673.000000	88.053961 
3672.000000	88.050464 
3671.000000	88.041837 
3670.000000	88.027948 
3669.000000	88.012933 
3668.000000	88.000424 
3667.000000	87.989356 
3666.000000	87.977358 
3665.000000	87.963961 
3664.000000	87.950793 
3663.000000	87.939958 
3662.000000	87.931741 
3661.000000	87.924555 
3660.000000	87.917275 
3659.000000	87.910782 
3658.000000	87.906278 
3657.000000	87.903294 
3656.000000	87.900075 
3655.000000	87.896394 
3654.000000	87.893172 
3653.000000	87.889678 
3652.000000	87.884099 
3651.000000	87.876996 
3650.000000	87.873185 
3649.000000	87.877291 
3648.000000	87.885135 
3647.000000	87.887082 
3646.000000	87.880721 
3645.000000	87.871230 
3644.000000	87.863835 
3643.000000	87.859714 
3642.000000	87.856795 
3641.000000	87.852170 
3640.000000	87.843975 
3639.000000	87.832881 
3638.000000	87.823059 
3637.000000	87.820049 
3636.000000	87.825495 
3635.000000	87.834839 
3634.000000	87.842208 
3633.000000	87.847237 
3632.000000	87.853643 
3631.000000	87.861903 
3630.000000	87.867145 
3629.000000	87.865683 
3628.000000	87.861267 
3627.000000	87.859071 
3626.000000	87.857434 
3625.000000	87.852016 
3624.000000	87.843359 
3623.000000	87.836925 
3622.000000	87.837662 
3621.000000	87.845308 
3620.000000	87.854318 
3619.000000	87.858716 
3618.000000	87.857587 
3617.000000	87.855163 
3616.000000	87.855843 
3615.000000	87.860197 
3614.000000	87.865753 
3613.000000	87.870402 
3612.000000	87.874063 
3611.000000	87.877506 
3610.000000	87.881256 
3609.000000	87.886574 
3608.000000	87.895657 
3607.000000	87.908909 
3606.000000	87.923233 
3605.000000	87.934638 
3604.000000	87.941463 
3603.000000	87.944512 
3602.000000	87.945206 
3601.000000	87.944831 
3600.000000	87.945252 
3599.000000	87.948716 
3598.000000	87.955917 
3597.000000	87.965684 
3596.000000	87.976160 
3595.000000	87.985700 
3594.000000	87.992939 
3593.000000	87.997151 
3592.000000	87.999155 
3591.000000	88.001833 
3590.000000	88.008308 
3589.000000	88.018744 
3588.000000	88.029214 
3587.000000	88.035048 
3586.000000	88.035434 
3585.000000	88.033397 
3584.000000	88.031822 
3583.000000	88.031072 
3582.000000	88.030244 
3581.000000	88.029507 
3580.000000	88.030426 
3579.000000	88.034373 
3578.000000	88.041122 
3577.000000	88.049281 
3576.000000	88.057518 
3575.000000	88.064921 
3574.000000	88.070657 
3573.000000	88.073954 
3572.000000	88.074746 
3571.000000	88.073951 
3570.000000	88.072733 
3569.000000	88.071513 
3568.000000	88.070301 
3567.000000	88.069759 
3566.000000	88.071050 
3565.000000	88.074754 
3564.000000	88.080535 
3563.000000	88.087326 
3562.000000	88.093774 
3561.000000	88.098873 
3560.000000	88.102207 
3559.000000	88.103647 
3558.000000	88.103158 
3557.000000	88.101274 
3556.000000	88.099692 
3555.000000	88.100486 
3554.000000	88.104145 
3553.000000	88.108635 
3552.000000	88.111056 
3551.000000	88.110472 
3550.000000	88.108368 
3549.000000	88.106618 
3548.000000	88.105766 
3547.000000	88.105676 
3546.000000	88.106816 
3545.000000	88.109954 
3544.000000	88.114809 
3543.000000	88.119768 
3542.000000	88.123314 
3541.000000	88.125254 
3540.000000	88.126466 
3539.000000	88.127884 
3538.000000	88.129844 
3537.000000	88.132281 
3536.000000	88.135146 
3535.000000	88.138472 
3534.000000	88.142153 
3533.000000	88.145834 
3532.000000	88.149036 
3531.000000	88.151428 
3530.000000	88.153034 
3529.000000	88.154239 
3528.000000	88.155534 
3527.000000	88.157206 
3526.000000	88.159256 
3525.000000	88.161610 
3524.000000	88.164308 
3523.000000	88.167384 
3522.000000	88.170583 
3521.000000	88.173446 
3520.000000	88.175793 
3519.000000	88.177979 
3518.000000	88.180563 
3517.000000	88.183710 
3516.000000	88.186962 
3515.000000	88.189640 
3514.000000	88.191465 
3513.000000	88.192822 
3512.000000	88.194561 
3511.000000	88.197432 
3510.000000	88.201577 
3509.000000	88.206365 
3508.000000	88.210677 
3507.000000	88.213880 
3506.000000	88.216315 
3505.000000	88.218893 
3504.000000	88.222207 
3503.000000	88.226040 
3502.000000	88.229762 
3501.000000	88.233080 
3500.000000	88.236176 
3499.000000	88.239144 
3498.000000	88.241673 
3497.000000	88.243462 
3496.000000	88.244712 
3495.000000	88.246022 
3494.000000	88.247830 
3493.000000	88.250160 
3492.000000	88.252867 
3491.000000	88.255902 
3490.000000	88.259258 
3489.000000	88.262759 
3488.000000	88.266082 
3487.000000	88.269053 
3486.000000	88.271830 
3485.000000	88.274726 
3484.000000	88.277808 
3483.000000	88.280720 
3482.000000	88.283025 
3481.000000	88.284767 
3480.000000	88.286597 
3479.000000	88.289078 
3478.000000	88.291903 
3477.000000	88.294135 
3476.000000	88.295336 
3475.000000	88.296231 
3474.000000	88.298055 
3473.000000	88.301220 
3472.000000	88.304998 
3471.000000	88.308269 
3470.000000	88.310574 
3469.000000	88.312168 
3468.000000	88.313494 
3467.000000	88.314932 
3466.000000	88.316867 
3465.000000	88.319561 
3464.000000	88.322739 
3463.000000	88.325605 
3462.000000	88.327546 
3461.000000	88.328713 
3460.000000	88.329841 
3459.000000	88.331534 
3458.000000	88.333821 
3457.000000	88.336359 
3456.000000	88.338889 
3455.000000	88.341457 
3454.000000	88.344162 
3453.000000	88.346981 
3452.000000	88.350044 
3451.000000	88.353816 
3450.000000	88.358601 
3449.000000	88.363871 
3448.000000	88.368563 
3447.000000	88.372232 
3446.000000	88.375381 
3445.000000	88.378325 
3444.000000	88.380476 
3443.000000	88.381432 
3442.000000	88.382238 
3441.000000	88.384502 
3440.000000	88.388163 
3439.000000	88.391155 
3438.000000	88.391778 
3437.000000	88.390799 
3436.000000	88.390705 
3435.000000	88.393018 
3434.000000	88.396990 
3433.000000	88.400674 
3432.000000	88.402852 
3431.000000	88.403671 
3430.000000	88.403904 
3429.000000	88.404261 
3428.000000	88.405486 
3427.000000	88.408380 
3426.000000	88.413067 
3425.000000	88.418404 
3424.000000	88.422807 
3423.000000	88.425869 
3422.000000	88.428648 
3421.000000	88.432130 
3420.000000	88.436090 
3419.000000	88.439988 
3418.000000	88.444070 
3417.000000	88.448346 
3416.000000	88.451172 
3415.000000	88.450618 
3414.000000	88.447347 
3413.000000	88.444902 
3412.000000	88.446082 
3411.000000	88.449905 
3410.000000	88.453040 
3409.000000	88.453476 
3408.000000	88.451886 
3407.000000	88.449961 
3406.000000	88.448552 
3405.000000	88.447553 
3404.000000	88.446559 
3403.000000	88.445183 
3402.000000	88.443340 
3401.000000	88.441678 
3400.000000	88.441341 
3399.000000	88.442978 
3398.000000	88.446094 
3397.000000	88.449444 
3396.000000	88.451826 
3395.000000	88.452536 
3394.000000	88.451780 
3393.000000	88.451031 
3392.000000	88.452287 
3391.000000	88.456236 
3390.000000	88.461325 
3389.000000	88.465076 
3388.000000	88.466616 
3387.000000	88.467495 
3386.000000	88.469818 
3385.000000	88.473863 
3384.000000	88.477891 
3383.000000	88.480235 
3382.000000	88.480965 
3381.000000	88.481196 
3380.000000	88.481367 
3379.000000	88.480847 
3378.000000	88.479242 
3377.000000	88.477410 
3376.000000	88.476814 
3375.000000	88.478109 
3374.000000	88.480654 
3373.000000	88.483089 
3372.000000	88.484255 
3371.000000	88.483847 
3370.000000	88.482566 
3369.000000	88.481677 
3368.000000	88.481976 
3367.000000	88.483110 
3366.000000	88.484042 
3365.000000	88.484163 
3364.000000	88.483836 
3363.000000	88.483895 
3362.000000	88.484673 
3361.000000	88.485581 
3360.000000	88.485624 
3359.000000	88.484384 
3358.000000	88.482524 
3357.000000	88.481255 
3356.000000	88.481136 
3355.000000	88.481441 
3354.000000	88.480808 
3353.000000	88.478561 
3352.000000	88.475403 
3351.000000	88.472950 
3350.000000	88.472506 
3349.000000	88.474205 
3348.000000	88.476901 
3347.000000	88.478974 
3346.000000	88.479646 
3345.000000	88.479413 
3344.000000	88.479183 
3343.000000	88.478992 
3342.000000	88.477957 
3341.000000	88.475532 
3340.000000	88.472318 
3339.000000	88.469343 
3338.000000	88.466984 
3337.000000	88.465027 
3336.000000	88.463540 
3335.000000	88.463151 
3334.000000	88.464253 
3333.000000	88.466160 
3332.000000	88.467357 
3331.000000	88.466774 
3330.000000	88.464575 
3329.000000	88.461713 
3328.000000	88.458890 
3327.000000	88.456176 
3326.000000	88.453549 
3325.000000	88.451295 
3324.000000	88.449599 
3323.000000	88.448006 
3322.000000	88.445710 
3321.000000	88.442417 
3320.000000	88.438637 
3319.000000	88.435112 
3318.000000	88.432167 
3317.000000	88.429751 
3316.000000	88.427777 
3315.000000	88.426153 
3314.000000	88.424577 
3313.000000	88.422606 
3312.000000	88.420073 
3311.000000	88.417243 
3310.000000	88.414520 
3309.000000	88.412040 
3308.000000	88.409614 
3307.000000	88.406963 
3306.000000	88.403945 
3305.000000	88.400621 
3304.000000	88.397233 
3303.000000	88.394105 
3302.000000	88.391404 
3301.000000	88.389017 
3300.000000	88.386591 
3299.000000	88.383781 
3298.000000	88.380510 
3297.000000	88.376949 
3296.000000	88.373409 
3295.000000	88.370112 
3294.000000	88.367087 
3293.000000	88.364227 
3292.000000	88.361409 
3291.000000	88.358599 
3290.000000	88.355810 
3289.000000	88.352984 
3288.000000	88.350008 
3287.000000	88.346839 
3286.000000	88.343612 
3285.000000	88.340564 
3284.000000	88.337813 
3283.000000	88.335234 
3282.000000	88.332628 
3281.000000	88.329935 
3280.000000	88.327160 
3279.000000	88.324124 
3278.000000	88.320549 
3277.000000	88.316446 
3276.000000	88.312301 
3275.000000	88.308707 
3274.000000	88.305886 
3273.000000	88.303618 
3272.000000	88.301474 
3271.000000	88.299080 
3270.000000	88.296320 
3269.000000	88.293476 
3268.000000	88.291101 
3267.000000	88.289500 
3266.000000	88.288266 
3265.000000	88.286504 
3264.000000	88.283714 
3263.000000	88.280361 
3262.000000	88.277488 
3261.000000	88.275641 
3260.000000	88.274308 
3259.000000	88.272559 
3258.000000	88.270168 
3257.000000	88.267647 
3256.000000	88.265143 
3255.000000	88.261974 
3254.000000	88.257735 
3253.000000	88.253385 
3252.000000	88.250547 
3251.000000	88.249642 
3250.000000	88.249380 
3249.000000	88.248285 
3248.000000	88.246316 
3247.000000	88.244487 
3246.000000	88.243222 
3245.000000	88.241760 
3244.000000	88.239175 
3243.000000	88.235249 
3242.000000	88.230238 
3241.000000	88.224503 
3240.000000	88.218726 
3239.000000	88.214053 
3238.000000	88.211300 
3237.000000	88.209998 
3236.000000	88.208592 
3235.000000	88.205910 
3234.000000	88.202199 
3233.000000	88.198526 
3232.000000	88.195553 
3231.000000	88.193156 
3230.000000	88.191012 
3229.000000	88.189019 
3228.000000	88.187048 
3227.000000	88.184759 
3226.000000	88.181978 
3225.000000	88.179099 
3224.000000	88.176911 
3223.000000	88.176056 
3222.000000	88.176675 
3221.000000	88.178240 
3220.000000	88.179426 
3219.000000	88.178443 
3218.000000	88.174224 
3217.000000	88.167531 
3216.000000	88.160693 
3215.000000	88.155777 
3214.000000	88.152942 
3213.000000	88.150829 
3212.000000	88.148207 
3211.000000	88.144903 
3210.000000	88.141275 
3209.000000	88.137468 
3208.000000	88.133616 
3207.000000	88.130271 
3206.000000	88.127891 
3205.000000	88.125847 
3204.000000	88.122596 
3203.000000	88.117232 
3202.000000	88.110628 
3201.000000	88.104722 
3200.000000	88.100737 
3199.000000	88.098456 
3198.000000	88.097032 
3197.000000	88.095932 
3196.000000	88.094952 
3195.000000	88.093942 
3194.000000	88.093005 
3193.000000	88.092552 
3192.000000	88.092627 
3191.000000	88.092358 
3190.000000	88.090597 
3189.000000	88.087151 
3188.000000	88.083097 
3187.000000	88.079830 
3186.000000	88.077868 
3185.000000	88.076580 
3184.000000	88.074786 
3183.000000	88.071653 
3182.000000	88.067305 
3181.000000	88.062752 
3180.000000	88.059090 
3179.000000	88.056615 
3178.000000	88.054928 
3177.000000	88.053765 
3176.000000	88.053269 
3175.000000	88.053301 
3174.000000	88.052992 
3173.000000	88.051479 
3172.000000	88.048823 
3171.000000	88.045823 
3170.000000	88.042972 
3169.000000	88.040070 
3168.000000	88.037037 
3167.000000	88.034450 
3166.000000	88.032875 
3165.000000	88.032012 
3164.000000	88.030891 
3163.000000	88.028911 
3162.000000	88.026383 
3161.000000	88.024078 
3160.000000	88.022447 
3159.000000	88.021316 
3158.000000	88.020169 
3157.000000	88.018629 
3156.000000	88.016760 
3155.000000	88.015030 
3154.000000	88.013910 
3153.000000	88.013446 
3152.000000	88.013181 
3151.000000	88.012513 
3150.000000	88.011237 
3149.000000	88.009631 
3148.000000	88.008086 
3147.000000	88.006676 
3146.000000	88.005176 
3145.000000	88.003462 
3144.000000	88.001767 
3143.000000	88.000441 
3142.000000	87.999502 
3141.000000	87.998617 
3140.000000	87.997548 
3139.000000	87.996466 
3138.000000	87.995681 
3137.000000	87.995209 
3136.000000	87.994737 
3135.000000	87.993970 
3134.000000	87.992872 
3133.000000	87.991600 
3132.000000	87.990336 
3131.000000	87.989194 
3130.000000	87.988235 
3129.000000	87.987491 
3128.000000	87.987014 
3127.000000	87.986864 
3126.000000	87.986978 
3125.000000	87.987091 
3124.000000	87.986915 
3123.000000	87.986395 
3122.000000	87.985702 
3121.000000	87.984964 
3120.000000	87.984132 
3119.000000	87.983178 
3118.000000	87.982279 
3117.000000	87.981690 
3116.000000	87.981480 
3115.000000	87.981468 
3114.000000	87.981362 
3113.000000	87.980976 
3112.000000	87.980303 
3111.000000	87.979462 
3110.000000	87.978655 
3109.000000	87.978083 
3108.000000	87.977841 
3107.000000	87.977850 
3106.000000	87.977894 
3105.000000	87.977773 
3104.000000	87.977419 
3103.000000	87.976874 
3102.000000	87.976238 
3101.000000	87.975658 
3100.000000	87.975292 
3099.000000	87.975174 
3098.000000	87.975117 
3097.000000	87.974864 
3096.000000	87.974373 
3095.000000	87.973844 
3094.000000	87.973363 
3093.000000	87.972694 
3092.000000	87.971658 
3091.000000	87.970611 
3090.000000	87.970201 
3089.000000	87.970608 
3088.000000	87.971316 
3087.000000	87.971681 
3086.000000	87.971534 
3085.000000	87.971121 
3084.000000	87.970798 
3083.000000	87.970817 
3082.000000	87.971174 
3081.000000	87.971505 
3080.000000	87.971332 
3079.000000	87.970623 
3078.000000	87.969980 
3077.000000	87.970050 
3076.000000	87.970783 
3075.000000	87.971460 
3074.000000	87.971422 
3073.000000	87.970724 
3072.000000	87.970225 
3071.000000	87.971005 
3070.000000	87.973358 
3069.000000	87.976094 
3068.000000	87.977320 
3067.000000	87.976244 
3066.000000	87.973937 
3065.000000	87.972185 
3064.000000	87.972027 
3063.000000	87.973579 
3062.000000	87.976177 
3061.000000	87.978163 
3060.000000	87.977841 
3059.000000	87.975545 
3058.000000	87.973695 
3057.000000	87.973663 
3056.000000	87.973717 
3055.000000	87.971735 
3054.000000	87.968884 
3053.000000	87.968340 
3052.000000	87.970485 
3051.000000	87.971628 
3050.000000	87.968241 
3049.000000	87.961039 
3048.000000	87.954231 
3047.000000	87.951542 
3046.000000	87.953496 
3045.000000	87.957608 
3044.000000	87.960406 
3043.000000	87.959920 
3042.000000	87.956855 
3041.000000	87.953302 
3040.000000	87.950265 
3039.000000	87.946975 
3038.000000	87.942627 
3037.000000	87.938014 
3036.000000	87.934988 
3035.000000	87.934617 
3034.000000	87.936082 
3033.000000	87.937333 
3032.000000	87.937059 
3031.000000	87.936116 
3030.000000	87.936205 
3029.000000	87.936728 
3028.000000	87.934261 
3027.000000	87.926253 
3026.000000	87.914222 
3025.000000	87.901878 
3024.000000	87.890796 
3023.000000	87.879871 
3022.000000	87.868560 
3021.000000	87.858064 
3020.000000	87.848898 
3019.000000	87.839616 
3018.000000	87.829010 
3017.000000	87.817796 
3016.000000	87.806967 
3015.000000	87.796195 
3014.000000	87.785341 
3013.000000	87.776116 
3012.000000	87.770259 
3011.000000	87.766733 
3010.000000	87.762448 
3009.000000	87.755535 
3008.000000	87.746559 
3007.000000	87.736799 
3006.000000	87.726895 
3005.000000	87.717449 
3004.000000	87.709382 
3003.000000	87.702703 
3002.000000	87.695867 
3001.000000	87.687631 
3000.000000	87.679393 
2999.000000	87.674523 
2998.000000	87.674888 
2997.000000	87.678564 
2996.000000	87.681355 
2995.000000	87.680143 
2994.000000	87.674414 
2993.000000	87.665516 
2992.000000	87.656127 
2991.000000	87.650466 
2990.000000	87.653327 
2989.000000	87.667650 
2988.000000	87.693422 
2987.000000	87.729002 
2986.000000	87.772122 
2985.000000	87.818867 
2984.000000	87.863619 
2983.000000	87.902402 
2982.000000	87.935716 
2981.000000	87.966241 
2980.000000	87.994001 
2979.000000	88.015700 
2978.000000	88.028842 
2977.000000	88.034494 
2976.000000	88.035660 
2975.000000	88.034642 
2974.000000	88.032231 
2973.000000	88.027100 
2972.000000	88.014889 
2971.000000	87.990293 
2970.000000	87.952588 
2969.000000	87.908639 
2968.000000	87.868650 
2967.000000	87.838598 
2966.000000	87.817252 
2965.000000	87.799273 
2964.000000	87.779595 
2963.000000	87.756030 
2962.000000	87.730262 
2961.000000	87.706932 
2960.000000	87.690273 
2959.000000	87.680826 
2958.000000	87.676048 
2957.000000	87.674158 
2956.000000	87.676307 
2955.000000	87.684453 
2954.000000	87.697881 
2953.000000	87.712712 
2952.000000	87.724742 
2951.000000	87.732337 
2950.000000	87.736470 
2949.000000	87.738479 
2948.000000	87.738508 
2947.000000	87.736405 
2946.000000	87.733572 
2945.000000	87.732845 
2944.000000	87.736168 
2943.000000	87.742834 
2942.000000	87.750301 
2941.000000	87.756390 
2940.000000	87.760560 
2939.000000	87.763861 
2938.000000	87.767972 
2937.000000	87.773433 
2936.000000	87.778263 
2935.000000	87.779175 
2934.000000	87.775046 
2933.000000	87.768429 
2932.000000	87.762631 
2931.000000	87.757812 
2930.000000	87.751249 
2929.000000	87.741155 
2928.000000	87.728910 
2927.000000	87.717501 
2926.000000	87.709282 
2925.000000	87.705767 
2924.000000	87.707814 
2923.000000	87.714308 
2922.000000	87.721420 
2921.000000	87.725082 
2920.000000	87.724655 
2919.000000	87.723239 
2918.000000	87.724097 
2917.000000	87.727466 
2916.000000	87.730947 
2915.000000	87.732093 
2914.000000	87.730261 
2913.000000	87.726819 
2912.000000	87.724446 
2911.000000	87.725591 
2910.000000	87.730399 
2909.000000	87.736059 
2908.000000	87.739293 
2907.000000	87.739876 
2906.000000	87.740531 
2905.000000	87.742881 
2904.000000	87.745086 
2903.000000	87.745004 
2902.000000	87.744843 
2901.000000	87.750234 
2900.000000	87.764052 
2899.000000	87.782436 
2898.000000	87.797682 
2897.000000	87.805225 
2896.000000	87.806769 
2895.000000	87.807415 
2894.000000	87.810584 
2893.000000	87.815424 
2892.000000	87.818740 
2891.000000	87.818847 
2890.000000	87.817314 
2889.000000	87.816874 
2888.000000	87.818217 
2887.000000	87.819791 
2886.000000	87.820682 
2885.000000	87.822481 
2884.000000	87.827448 
2883.000000	87.835634 
2882.000000	87.844855 
2881.000000	87.853112 
2880.000000	87.859977 
2879.000000	87.865851 
2878.000000	87.871154 
2877.000000	87.876396 
2876.000000	87.881736 
2875.000000	87.885879 
2874.000000	87.886525 
2873.000000	87.882855 
2872.000000	87.877146 
2871.000000	87.873256 
2870.000000	87.873438 
2869.000000	87.876928 
2868.000000	87.881166 
2867.000000	87.883915 
2866.000000	87.884626 
2865.000000	87.884265 
2864.000000	87.883872 
2863.000000	87.883298 
2862.000000	87.881833 
2861.000000	87.879988 
2860.000000	87.879571 
2859.000000	87.881384 
2858.000000	87.883793 
2857.000000	87.884452 
2856.000000	87.882807 
2855.000000	87.880062 
2854.000000	87.877691 
2853.000000	87.877499 
2852.000000	87.882262 
2851.000000	87.893578 
2850.000000	87.908513 
2849.000000	87.920401 
2848.000000	87.924961 
2847.000000	87.924375 
2846.000000	87.924411 
2845.000000	87.928344 
2844.000000	87.934920 
2843.000000	87.941589 
2842.000000	87.947647 
2841.000000	87.953630 
2840.000000	87.959170 
2839.000000	87.962840 
2838.000000	87.963837 
2837.000000	87.963005 
2836.000000	87.962100 
2835.000000	87.962370 
2834.000000	87.963900 
2833.000000	87.966002 
2832.000000	87.967992 
2831.000000	87.969649 
2830.000000	87.971188 
2829.000000	87.973025 
2828.000000	87.975514 
2827.000000	87.978593 
2826.000000	87.981535 
2825.000000	87.983342 
2824.000000	87.983703 
2823.000000	87.983381 
2822.000000	87.983311 
2821.000000	87.983425 
2820.000000	87.982739 
2819.000000	87.980526 
2818.000000	87.977219 
2817.000000	87.974278 
2816.000000	87.973296 
2815.000000	87.974907 
2814.000000	87.978155 
2813.000000	87.980961 
2812.000000	87.981717 
2811.000000	87.980544 
2810.000000	87.978920 
2809.000000	87.978232 
2808.000000	87.978759 
2807.000000	87.979800 
2806.000000	87.980333 
2805.000000	87.979617 
2804.000000	87.977709 
2803.000000	87.975541 
2802.000000	87.974267 
2801.000000	87.974345 
2800.000000	87.975433 
2799.000000	87.977082 
2798.000000	87.979119 
2797.000000	87.981285 
2796.000000	87.982920 
2795.000000	87.983321 
2794.000000	87.982422 
2793.000000	87.980893 
2792.000000	87.979676 
2791.000000	87.979340 
2790.000000	87.979789 
2789.000000	87.980571 
2788.000000	87.981286 
2787.000000	87.981794 
2786.000000	87.982142 
2785.000000	87.982387 
2784.000000	87.982526 
2783.000000	87.982536 
2782.000000	87.982442 
2781.000000	87.982333 
2780.000000	87.982305 
2779.000000	87.982403 
2778.000000	87.982599 
2777.000000	87.982841 
2776.000000	87.983083 
2775.000000	87.983305 
2774.000000	87.983506 
2773.000000	87.983694 
2772.000000	87.983877 
2771.000000	87.984061 
2770.000000	87.984251 
2769.000000	87.984451 
2768.000000	87.984663 
2767.000000	87.984891 
2766.000000	87.985135 
2765.000000	87.985396 
2764.000000	87.985669 
2763.000000	87.985954 
2762.000000	87.986251 
2761.000000	87.986557 
2760.000000	87.986868 
2759.000000	87.987175 
2758.000000	87.987476 
2757.000000	87.987778 
2756.000000	87.988088 
2755.000000	87.988414 
2754.000000	87.988754 
2753.000000	87.989105 
2752.000000	87.989465 
2751.000000	87.989838 
2750.000000	87.990229 
2749.000000	87.990641 
2748.000000	87.991067 
2747.000000	87.991495 
2746.000000	87.991916 
2745.000000	87.992328 
2744.000000	87.992729 
2743.000000	87.993119 
2742.000000	87.993501 
2741.000000	87.993879 
2740.000000	87.994254 
2739.000000	87.994633 
2738.000000	87.995032 
2737.000000	87.995450 
2736.000000	87.995854 
2735.000000	87.996219 
2734.000000	87.996559 
2733.000000	87.996892 
2732.000000	87.997203 
2731.000000	87.997468 
2730.000000	87.997710 
2729.000000	87.997966 
2728.000000	87.998185 
2727.000000	87.998269 
2726.000000	87.998264 
2725.000000	87.998427 
2724.000000	87.998962 
2723.000000	87.999728 
2722.000000	88.000332 
2721.000000	88.000443 
2720.000000	87.999966 
2719.000000	87.999041 
2718.000000	87.998055 
2717.000000	87.997555 
2716.000000	87.998002 
2715.000000	87.999581 
2714.000000	88.002121 
2713.000000	88.004948 
2712.000000	88.006962 
2711.000000	88.007221 
2710.000000	88.005709 
2709.000000	88.003469 
2708.000000	88.001590 
2707.000000	88.000413 
2706.000000	87.999852 
2705.000000	87.999828 
2704.000000	88.000138 
2703.000000	88.000278 
2702.000000	87.999825 
2701.000000	87.998846 
2700.000000	87.997686 
2699.000000	87.996547 
2698.000000	87.995519 
2697.000000	87.994868 
2696.000000	87.994912 
2695.000000	87.995555 
2694.000000	87.996119 
2693.000000	87.995740 
2692.000000	87.993975 
2691.000000	87.991220 
2690.000000	87.988644 
2689.000000	87.987347 
2688.000000	87.987384 
2687.000000	87.987792 
2686.000000	87.987802 
2685.000000	87.987763 
2684.000000	87.988449 
2683.000000	87.989830 
2682.000000	87.991136 
2681.000000	87.991967 
2680.000000	87.992682 
2679.000000	87.993601 
2678.000000	87.994431 
2677.000000	87.994742 
2676.000000	87.994540 
2675.000000	87.994033 
2674.000000	87.993266 
2673.000000	87.992436 
2672.000000	87.992282 
2671.000000	87.993488 
2670.000000	87.995783 
2669.000000	87.997877 
2668.000000	87.998628 
2667.000000	87.998023 
2666.000000	87.996960 
2665.000000	87.996376 
2664.000000	87.996545 
2663.000000	87.997209 
2662.000000	87.998056 
2661.000000	87.998957 
2660.000000	87.999934 
2659.000000	88.001078 
2658.000000	88.002415 
2657.000000	88.003717 
2656.000000	88.004505 
2655.000000	88.004438 
2654.000000	88.003739 
2653.000000	88.003108 
2652.000000	88.003115 
2651.000000	88.003707 
2650.000000	88.004336 
2649.000000	88.004509 
2648.000000	88.004197 
2647.000000	88.003749 
2646.000000	88.003522 
2645.000000	88.003619 
2644.000000	88.003930 
2643.000000	88.004257 
2642.000000	88.004375 
2641.000000	88.004139 
2640.000000	88.003655 
2639.000000	88.003308 
2638.000000	88.003382 
2637.000000	88.003603 
2636.000000	88.003312 
2635.000000	88.002292 
2634.000000	88.001220 
2633.000000	88.000976 
2632.000000	88.001617 
2631.000000	88.002347 
2630.000000	88.002513 
2629.000000	88.002259 
2628.000000	88.002023 
2627.000000	88.001850 
2626.000000	88.001612 
2625.000000	88.001558 
2624.000000	88.002042 
2623.000000	88.002820 
2622.000000	88.003165 
2621.000000	88.002852 
2620.000000	88.002644 
2619.000000	88.003488 
2618.000000	88.005311 
2617.000000	88.006850 
2616.000000	88.006848 
2615.000000	88.005188 
2614.000000	88.002897 
2613.000000	88.001163 
2612.000000	88.000228 
2611.000000	87.999412 
2610.000000	87.998176 
2609.000000	87.996972 
2608.000000	87.996726 
2607.000000	87.997497 
2606.000000	87.998079 
2605.000000	87.997282 
2604.000000	87.995292 
2603.000000	87.993325 
2602.000000	87.992071 
2601.000000	87.991149 
2600.000000	87.990267 
2599.000000	87.990150 
2598.000000	87.991656 
2597.000000	87.994361 
2596.000000	87.996704 
2595.000000	87.997592 
2594.000000	87.997329 
2593.000000	87.996890 
2592.000000	87.996780 
2591.000000	87.996818 
2590.000000	87.996733 
2589.000000	87.996578 
2588.000000	87.996656 
2587.000000	87.997233 
2586.000000	87.998194 
2585.000000	87.998819 
2584.000000	87.998142 
2583.000000	87.995863 
2582.000000	87.992886 
2581.000000	87.990688 
2580.000000	87.990148 
2579.000000	87.991271 
2578.000000	87.993724 
2577.000000	87.997061 
2576.000000	88.000482 
2575.000000	88.002999 
2574.000000	88.004239 
2573.000000	88.004735 
2572.000000	88.005291 
2571.000000	88.006265 
2570.000000	88.007634 
2569.000000	88.009299 
2568.000000	88.010852 
2567.000000	88.011480 
2566.000000	88.010779 
2565.000000	88.009564 
2564.000000	88.009252 
2563.000000	88.010263 
2562.000000	88.011634 
2561.000000	88.012280 
2560.000000	88.012002 
2559.000000	88.011095 
2558.000000	88.009727 
2557.000000	88.008147 
2556.000000	88.006937 
2555.000000	88.006480 
2554.000000	88.006410 
2553.000000	88.006076 
2552.000000	88.005479 
2551.000000	88.005333 
2550.000000	88.006181 
2549.000000	88.007784 
2548.000000	88.009401 
2547.000000	88.010511 
2546.000000	88.011184 
2545.000000	88.011839 
2544.000000	88.012652 
2543.000000	88.013164 
2542.000000	88.012694 
2541.000000	88.011209 
2540.000000	88.009621 
2539.000000	88.008925 
2538.000000	88.009178 
2537.000000	88.009561 
2536.000000	88.009294 
2535.000000	88.008248 
2534.000000	88.006752 
2533.000000	88.005232 
2532.000000	88.004102 
2531.000000	88.003671 
2530.000000	88.003933 
2529.000000	88.004550 
2528.000000	88.005149 
2527.000000	88.005556 
2526.000000	88.005700 
2525.000000	88.005578 
2524.000000	88.005445 
2523.000000	88.005795 
2522.000000	88.006899 
2521.000000	88.008374 
2520.000000	88.009331 
2519.000000	88.009107 
2518.000000	88.007697 
2517.000000	88.005676 
2516.000000	88.003851 
2515.000000	88.002783 
2514.000000	88.002545 
2513.000000	88.002824 
2512.000000	88.003175 
2511.000000	88.003291 
2510.000000	88.003051 
2509.000000	88.002473 
2508.000000	88.001774 
2507.000000	88.001281 
2506.000000	88.001106 
2505.000000	88.000966 
2504.000000	88.000516 
2503.000000	87.999790 
2502.000000	87.999140 
2501.000000	87.998771 
2500.000000	87.998569 
2499.000000	87.998383 
2498.000000	87.998253 
2497.000000	87.998254 
2496.000000	87.998278 
2495.000000	87.998115 
2494.000000	87.997706 
2493.000000	87.997182 
2492.000000	87.996721 
2491.000000	87.996465 
2490.000000	87.996483 
2489.000000	87.996706 
2488.000000	87.996941 
2487.000000	87.997014 
2486.000000	87.996919 
2485.000000	87.996776 
2484.000000	87.996656 
2483.000000	87.996496 
2482.000000	87.996208 
2481.000000	87.995859 
2480.000000	87.995655 
2479.000000	87.995731 
2478.000000	87.996016 
2477.000000	87.996347 
2476.000000	87.996626 
2475.000000	87.996836 
2474.000000	87.996949 
2473.000000	87.996925 
2472.000000	87.996824 
2471.000000	87.996879 
2470.000000	87.997322 
2469.000000	87.998161 
2468.000000	87.999047 
2467.000000	87.999492 
2466.000000	87.999282 
2465.000000	87.998626 
2464.000000	87.998015 
2463.000000	87.997772 
2462.000000	87.997823 
2461.000000	87.997841 
2460.000000	87.997585 
2459.000000	87.997131 
2458.000000	87.996777 
2457.000000	87.996745 
2456.000000	87.997006 
2455.000000	87.997368 
2454.000000	87.997652 
2453.000000	87.997779 
2452.000000	87.997709 
2451.000000	87.997417 
2450.000000	87.996976 
2449.000000	87.996674 
2448.000000	87.996916 
2447.000000	87.997893 
2446.000000	87.999289 
2445.000000	88.000386 
2444.000000	88.000699 
2443.000000	88.000357 
2442.000000	87.999830 
2441.000000	87.999341 
2440.000000	87.998794 
2439.000000	87.998163 
2438.000000	87.997591 
2437.000000	87.997067 
2436.000000	87.996349 
2435.000000	87.995370 
2434.000000	87.994553 
2433.000000	87.994473 
2432.000000	87.995258 
2431.000000	87.996424 
2430.000000	87.997253 
2429.000000	87.997357 
2428.000000	87.996866 
2427.000000	87.996210 
2426.000000	87.995705 
2425.000000	87.995344 
2424.000000	87.994992 
2423.000000	87.994636 
2422.000000	87.994254 
2421.000000	87.993565 
2420.000000	87.992306 
2419.000000	87.990878 
2418.000000	87.990342 
2417.000000	87.991393 
2416.000000	87.993774 
2415.000000	87.996617 
2414.000000	87.998940 
2413.000000	87.999960 
2412.000000	87.999383 
2411.000000	87.997935 
2410.000000	87.997037 
2409.000000	87.997367 
2408.000000	87.998067 
2407.000000	87.997894 
2406.000000	87.996840 
2405.000000	87.995918 
2404.000000	87.995731 
2403.000000	87.995741 
2402.000000	87.995184 
2401.000000	87.994087 
2400.000000	87.993161 
2399.000000	87.992964 
2398.000000	87.993412 
2397.000000	87.993950 
2396.000000	87.994021 
2395.000000	87.993398 
2394.000000	87.992274 
2393.000000	87.991152 
2392.000000	87.990520 
2391.000000	87.990462 
2390.000000	87.990567 
2389.000000	87.990317 
2388.000000	87.989570 
2387.000000	87.988581 
2386.000000	87.987596 
2385.000000	87.986626 
2384.000000	87.985724 
2383.000000	87.985285 
2382.000000	87.985716 
2381.000000	87.986906 
2380.000000	87.988406 
2379.000000	87.990060 
2378.000000	87.992036 
2377.000000	87.994089 
2376.000000	87.995223 
2375.000000	87.994609 
2374.000000	87.992750 
2373.000000	87.991339 
2372.000000	87.991458 
2371.000000	87.992400 
2370.000000	87.992616 
2369.000000	87.991471 
2368.000000	87.989552 
2367.000000	87.987877 
2366.000000	87.987562 
2365.000000	87.989706 
2364.000000	87.994203 
2363.000000	87.998339 
2362.000000	87.998966 
2361.000000	87.996248 
2360.000000	87.992725 
2359.000000	87.990065 
2358.000000	87.988141 
2357.000000	87.987112 
2356.000000	87.988312 
2355.000000	87.991561 
2354.000000	87.996249 
2353.000000	88.001184 
2352.000000	88.004215 
2351.000000	88.003946 
2350.000000	87.999430 
2349.000000	87.991521 
2348.000000	87.981684 
2347.000000	87.973402 
2346.000000	87.969706 
2345.000000	87.968739 
2344.000000	87.968442 
2343.000000	87.969448 
2342.000000	87.975161 
2341.000000	87.984258 
2340.000000	87.991143 
2339.000000	87.993882 
2338.000000	87.996203 
2337.000000	88.002021 
2336.000000	88.008810 
2335.000000	88.011663 
2334.000000	88.010907 
2333.000000	88.010547 
2332.000000	88.010599 
2331.000000	88.008213 
2330.000000	88.001038 
2329.000000	87.991578 
2328.000000	87.980216 
2327.000000	87.966800 
2326.000000	87.954019 
2325.000000	87.945397 
2324.000000	87.944023 
2323.000000	87.947667 
2322.000000	87.954260 
2321.000000	87.961475 
2320.000000	87.967682 
2319.000000	87.971700 
2318.000000	87.973048 
2317.000000	87.973151 
2316.000000	87.972770 
2315.000000	87.973046 
2314.000000	87.974576 
2313.000000	87.977833 
2312.000000	87.980957 
2311.000000	87.981285 
2310.000000	87.977585 
2309.000000	87.970981 
2308.000000	87.963741 
2307.000000	87.957526 
2306.000000	87.953748 
2305.000000	87.953124 
2304.000000	87.955755 
2303.000000	87.960364 
2302.000000	87.965054 
2301.000000	87.968302 
2300.000000	87.969511 
2299.000000	87.969326 
2298.000000	87.969038 
2297.000000	87.969923 
2296.000000	87.971928 
2295.000000	87.973792 
2294.000000	87.974399 
2293.000000	87.973836 
2292.000000	87.973116 
2291.000000	87.972770 
2290.000000	87.972781 
2289.000000	87.972937 
2288.000000	87.973434 
2287.000000	87.974377 
2286.000000	87.975565 
2285.000000	87.976477 
2284.000000	87.976809 
2283.000000	87.976650 
2282.000000	87.976444 
2281.000000	87.976689 
2280.000000	87.977583 
2279.000000	87.978872 
2278.000000	87.980029 
2277.000000	87.980773 
2276.000000	87.981275 
2275.000000	87.981833 
2274.000000	87.982272 
2273.000000	87.982089 
2272.000000	87.981109 
2271.000000	87.979845 
2270.000000	87.979124 
2269.000000	87.979334 
2268.000000	87.980211 
2267.000000	87.981142 
2266.000000	87.981668 
2265.000000	87.981767 
2264.000000	87.981677 
2263.000000	87.981618 
2262.000000	87.981667 
2261.000000	87.981803 
2260.000000	87.981992 
2259.000000	87.982207 
2258.000000	87.982436 
2257.000000	87.982679 
2256.000000	87.982953 
2255.000000	87.983268 
2254.000000	87.983610 
2253.000000	87.983959 
2252.000000	87.984297 
2251.000000	87.984585 
2250.000000	87.984757 
2249.000000	87.984800 
2248.000000	87.984801 
2247.000000	87.984893 
2246.000000	87.985101 
2245.000000	87.985324 
2244.000000	87.985512 
2243.000000	87.985764 
2242.000000	87.986169 
2241.000000	87.986663 
2240.000000	87.987080 
2239.000000	87.987348 
2238.000000	87.987562 
2237.000000	87.987872 
2236.000000	87.988311 
2235.000000	87.988788 
2234.000000	87.989203 
2233.000000	87.989544 
2232.000000	87.989853 
2231.000000	87.990170 
2230.000000	87.990504 
2229.000000	87.990838 
2228.000000	87.991142 
2227.000000	87.991413 
2226.000000	87.991728 
2225.000000	87.992192 
2224.000000	87.992818 
2223.000000	87.993496 
2222.000000	87.994092 
2221.000000	87.994590 
2220.000000	87.995072 
2219.000000	87.995581 
2218.000000	87.996063 
2217.000000	87.996451 
2216.000000	87.996759 
2215.000000	87.997069 
2214.000000	87.997449 
2213.000000	87.997913 
2212.000000	87.998432 
2211.000000	87.998975 
2210.000000	87.999528 
2209.000000	88.000104 
2208.000000	88.000721 
2207.000000	88.001361 
2206.000000	88.001946 
2205.000000	88.002386 
2204.000000	88.002658 
2203.000000	88.002842 
2202.000000	88.003054 
2201.000000	88.003354 
2200.000000	88.003751 
2199.000000	88.004277 
2198.000000	88.004987 
2197.000000	88.005839 
2196.000000	88.006658 
2195.000000	88.007294 
2194.000000	88.007761 
2193.000000	88.008205 
2192.000000	88.008745 
2191.000000	88.009349 
2190.000000	88.009883 
2189.000000	88.010269 
2188.000000	88.010586 
2187.000000	88.011001 
2186.000000	88.011593 
2185.000000	88.012267 
2184.000000	88.012826 
2183.000000	88.013168 
2182.000000	88.013346 
2181.000000	88.013484 
2180.000000	88.013669 
2179.000000	88.013942 
2178.000000	88.014305 
2177.000000	88.014681 
2176.000000	88.014945 
2175.000000	88.015066 
2174.000000	88.015133 
2173.000000	88.015202 
2172.000000	88.015211 
2171.000000	88.015176 
2170.000000	88.015367 
2169.000000	88.016083 
2168.000000	88.017274 
2167.000000	88.018420 
2166.000000	88.019016 
2165.000000	88.019038 
2164.000000	88.018859 
2163.000000	88.018774 
2162.000000	88.018706 
2161.000000	88.018432 
2160.000000	88.017961 
2159.000000	88.017631 
2158.000000	88.017796 
2157.000000	88.018414 
2156.000000	88.018963 
2155.000000	88.018916 
2154.000000	88.018274 
2153.000000	88.017515 
2152.000000	88.017020 
2151.000000	88.016685 
2150.000000	88.016247 
2149.000000	88.015764 
2148.000000	88.015565 
2147.000000	88.015790 
2146.000000	88.016172 
2145.000000	88.016313 
2144.000000	88.016111 
2143.000000	88.015831 
2142.000000	88.015798 
2141.000000	88.016029 
2140.000000	88.016207 
2139.000000	88.016038 
2138.000000	88.015632 
2137.000000	88.015479 
2136.000000	88.016008 
2135.000000	88.017211 
2134.000000	88.018621 
2133.000000	88.019669 
2132.000000	88.020111 
2131.000000	88.020096 
2130.000000	88.019917 
2129.000000	88.019748 
2128.000000	88.019661 
2127.000000	88.019707 
2126.000000	88.019799 
2125.000000	88.019618 
2124.000000	88.018918 
2123.000000	88.017909 
2122.000000	88.017168 
2121.000000	88.017057 
2120.000000	88.017479 
2119.000000	88.018082 
2118.000000	88.018563 
2117.000000	88.018818 
2116.000000	88.018852 
2115.000000	88.018722 
2114.000000	88.018547 
2113.000000	88.018417 
2112.000000	88.018316 
2111.000000	88.018196 
2110.000000	88.018079 
2109.000000	88.018023 
2108.000000	88.018024 
2107.000000	88.018026 
2106.000000	88.018014 
2105.000000	88.018011 
2104.000000	88.018007 
2103.000000	88.017945 
2102.000000	88.017796 
2101.000000	88.017599 
2100.000000	88.017417 
2099.000000	88.017270 
2098.000000	88.017128 
2097.000000	88.016960 
2096.000000	88.016767 
2095.000000	88.016572 
2094.000000	88.016380 
2093.000000	88.016168 
2092.000000	88.015908 
2091.000000	88.015600 
2090.000000	88.015268 
2089.000000	88.014941 
2088.000000	88.014633 
2087.000000	88.014355 
2086.000000	88.014110 
2085.000000	88.013878 
2084.000000	88.013605 
2083.000000	88.013267 
2082.000000	88.012917 
2081.000000	88.012658 
2080.000000	88.012523 
2079.000000	88.012435 
2078.000000	88.012281 
2077.000000	88.011983 
2076.000000	88.011477 
2075.000000	88.010771 
2074.000000	88.010039 
2073.000000	88.009482 
2072.000000	88.009074 
2071.000000	88.008587 
2070.000000	88.007889 
2069.000000	88.007102 
2068.000000	88.006408 
2067.000000	88.005860 
2066.000000	88.005496 
2065.000000	88.005414 
2064.000000	88.005546 
2063.000000	88.005527 
2062.000000	88.005051 
2061.000000	88.004250 
2060.000000	88.003477 
2059.000000	88.002779 
2058.000000	88.001854 
2057.000000	88.000539 
2056.000000	87.999110 
2055.000000	87.998016 
2054.000000	87.997485 
2053.000000	87.997404 
2052.000000	87.997443 
2051.000000	87.997323 
2050.000000	87.997018 
2049.000000	87.996688 
2048.000000	87.996411 
2047.000000	87.995992 
2046.000000	87.995092 
2045.000000	87.993526 
2044.000000	87.991440 
2043.000000	87.989330 
2042.000000	87.987814 
2041.000000	87.987149 
2040.000000	87.986893 
2039.000000	87.986275 
2038.000000	87.985099 
2037.000000	87.984012 
2036.000000	87.983688 
2035.000000	87.984043 
2034.000000	87.984401 
2033.000000	87.984308 
2032.000000	87.983902 
2031.000000	87.983481 
2030.000000	87.983058 
2029.000000	87.982462 
2028.000000	87.981653 
2027.000000	87.980736 
2026.000000	87.979805 
2025.000000	87.978898 
2024.000000	87.978020 
2023.000000	87.977097 
2022.000000	87.976023 
2021.000000	87.974881 
2020.000000	87.973977 
2019.000000	87.973477 
2018.000000	87.973101 
2017.000000	87.972420 
2016.000000	87.971472 
2015.000000	87.970832 
2014.000000	87.970941 
2013.000000	87.971597 
2012.000000	87.972101 
2011.000000	87.971902 
2010.000000	87.970955 
2009.000000	87.969598 
2008.000000	87.968237 
2007.000000	87.967119 
2006.000000	87.966287 
2005.000000	87.965694 
2004.000000	87.965365 
2003.000000	87.965431 
2002.000000	87.965941 
2001.000000	87.966682 
2000.000000	87.967227 
1999.000000	87.967227 
1998.000000	87.966611 
1997.000000	87.965599 
1996.000000	87.964639 
1995.000000	87.964196 
1994.000000	87.964408 
1993.000000	87.964921 
1992.000000	87.965231 
1991.000000	87.965334 
1990.000000	87.965665 
1989.000000	87.966389 
1988.000000	87.967129 
1987.000000	87.967485 
1986.000000	87.967528 
1985.000000	87.967574 
1984.000000	87.967775 
1983.000000	87.968173 
1982.000000	87.968908 
1981.000000	87.970011 
1980.000000	87.971104 
1979.000000	87.971716 
1978.000000	87.971893 
1977.000000	87.972161 
1976.000000	87.972836 
1975.000000	87.973619 
1974.000000	87.973986 
1973.000000	87.973777 
1972.000000	87.973355 
1971.000000	87.973329 
1970.000000	87.974059 
1969.000000	87.975331 
1968.000000	87.976450 
1967.000000	87.976937 
1966.000000	87.977127 
1965.000000	87.977826 
1964.000000	87.979394 
1963.000000	87.981414 
1962.000000	87.983185 
1961.000000	87.984394 
1960.000000	87.985196 
1959.000000	87.985842 
1958.000000	87.986426 
1957.000000	87.986940 
1956.000000	87.987330 
1955.000000	87.987447 
1954.000000	87.987154 
1953.000000	87.986587 
1952.000000	87.986201 
1951.000000	87.986379 
1950.000000	87.987045 
1949.000000	87.987769 
1948.000000	87.988232 
1947.000000	87.988545 
1946.000000	87.989044 
1945.000000	87.989819 
1944.000000	87.990520 
1943.000000	87.990684 
1942.000000	87.990215 
1941.000000	87.989491 
1940.000000	87.989064 
1939.000000	87.989315 
1938.000000	87.990226 
1937.000000	87.991221 
1936.000000	87.991445 
1935.000000	87.990607 
1934.000000	87.989553 
1933.000000	87.989567 
1932.000000	87.990891 
1931.000000	87.992178 
1930.000000	87.991879 
1929.000000	87.989987 
1928.000000	87.988053 
1927.000000	87.987474 
1926.000000	87.988053 
1925.000000	87.988426 
1924.000000	87.987772 
1923.000000	87.986844 
1922.000000	87.987086 
1921.000000	87.988774 
1920.000000	87.990420 
1919.000000	87.990162 
1918.000000	87.987613 
1917.000000	87.984113 
1916.000000	87.980982 
1915.000000	87.978299 
1914.000000	87.975709 
1913.000000	87.973353 
1912.000000	87.971677 
1911.000000	87.970841 
1910.000000	87.970703 
1909.000000	87.970894 
1908.000000	87.970455 
1907.000000	87.968197 
1906.000000	87.963889 
1905.000000	87.958794 
1904.000000	87.954683 
1903.000000	87.952376 
1902.000000	87.951680 
1901.000000	87.952124 
1900.000000	87.953057 
1899.000000	87.953616 
1898.000000	87.953218 
1897.000000	87.951972 
1896.000000	87.950361 
1895.000000	87.948708 
1894.000000	87.947262 
1893.000000	87.946319 
1892.000000	87.945705 
1891.000000	87.944691 
1890.000000	87.942997 
1889.000000	87.941396 
1888.000000	87.940633 
1887.000000	87.940443 
1886.000000	87.940223 
1885.000000	87.940162 
1884.000000	87.941151 
1883.000000	87.943574 
1882.000000	87.946686 
1881.000000	87.949123 
1880.000000	87.949867 
1879.000000	87.949018 
1878.000000	87.947676 
1877.000000	87.946917 
1876.000000	87.947043 
1875.000000	87.947851 
1874.000000	87.949105 
1873.000000	87.950276 
1872.000000	87.950304 
1871.000000	87.948711 
1870.000000	87.947323 
1869.000000	87.949443 
1868.000000	87.955658 
1867.000000	87.962308 
1866.000000	87.965888 
1865.000000	87.966606 
1864.000000	87.966855 
1863.000000	87.968412 
1862.000000	87.971255 
1861.000000	87.974411 
1860.000000	87.977148 
1859.000000	87.979414 
1858.000000	87.981672 
1857.000000	87.984260 
1856.000000	87.986708 
1855.000000	87.988234 
1854.000000	87.989140 
1853.000000	87.990864 
1852.000000	87.993936 
1851.000000	87.996840 
1850.000000	87.997962 
1849.000000	87.997824 
1848.000000	87.998341 
1847.000000	88.000241 
1846.000000	88.002540 
1845.000000	88.004541 
1844.000000	88.007024 
1843.000000	88.010384 
1842.000000	88.013504 
1841.000000	88.015496 
1840.000000	88.016731 
1839.000000	88.018277 
1838.000000	88.020748 
1837.000000	88.023609 
1836.000000	88.025822 
1835.000000	88.026847 
1834.000000	88.027075 
1833.000000	88.027471 
1832.000000	88.028680 
1831.000000	88.030335 
1830.000000	88.031270 
1829.000000	88.030494 
1828.000000	88.028456 
1827.000000	88.026482 
1826.000000	88.024894 
1825.000000	88.023558 
1824.000000	88.023314 
1823.000000	88.025147 
1822.000000	88.028563 
1821.000000	88.031871 
1820.000000	88.033752 
1819.000000	88.033837 
1818.000000	88.032123 
1817.000000	88.029403 
1816.000000	88.027857 
1815.000000	88.029004 
1814.000000	88.031543 
1813.000000	88.032774 
1812.000000	88.032399 
1811.000000	88.033297 
1810.000000	88.037565 
1809.000000	88.043910 
1808.000000	88.049491 
1807.000000	88.052791 
1806.000000	88.054312 
1805.000000	88.054886 
1804.000000	88.054045 
1803.000000	88.050881 
1802.000000	88.046671 
1801.000000	88.045110 
1800.000000	88.048021 
1799.000000	88.052511 
1798.000000	88.054708 
1797.000000	88.054496 
1796.000000	88.054366 
1795.000000	88.055744 
1794.000000	88.058657 
1793.000000	88.064103 
1792.000000	88.073497 
1791.000000	88.084340 
1790.000000	88.092212 
1789.000000	88.096744 
1788.000000	88.100636 
1787.000000	88.105672 
1786.000000	88.111329 
1785.000000	88.116506 
1784.000000	88.121725 
1783.000000	88.128481 
1782.000000	88.136858 
1781.000000	88.144089 
1780.000000	88.146530 
1779.000000	88.144231 
1778.000000	88.141478 
1777.000000	88.142237 
1776.000000	88.146840 
1775.000000	88.153540 
1774.000000	88.162030 
1773.000000	88.174120 
1772.000000	88.190295 
1771.000000	88.207164 
1770.000000	88.222361 
1769.000000	88.237441 
1768.000000	88.253874 
1767.000000	88.270703 
1766.000000	88.285939 
1765.000000	88.299241 
1764.000000	88.312843 
1763.000000	88.330459 
1762.000000	88.354042 
1761.000000	88.379847 
1760.000000	88.402418 
1759.000000	88.421455 
1758.000000	88.440138 
1757.000000	88.459815 
1756.000000	88.478186 
1755.000000	88.493307 
1754.000000	88.506509 
1753.000000	88.519101 
1752.000000	88.530480 
1751.000000	88.541738 
1750.000000	88.556280 
1749.000000	88.574409 
1748.000000	88.591890 
1747.000000	88.605043 
1746.000000	88.614827 
1745.000000	88.624214 
1744.000000	88.633621 
1743.000000	88.641119 
1742.000000	88.645634 
1741.000000	88.648620 
1740.000000	88.652405 
1739.000000	88.656532 
1738.000000	88.657561 
1737.000000	88.651937 
1736.000000	88.636148 
1735.000000	88.606915 
1734.000000	88.573630 
1733.000000	88.552952 
1732.000000	88.546853 
1731.000000	88.547487 
1730.000000	88.548349 
1729.000000	88.545910 
1728.000000	88.539585 
1727.000000	88.529762 
1726.000000	88.517029 
1725.000000	88.502779 
1724.000000	88.489593 
1723.000000	88.478759 
1722.000000	88.467761 
1721.000000	88.452619 
1720.000000	88.431304 
1719.000000	88.404399 
1718.000000	88.376844 
1717.000000	88.357325 
1716.000000	88.349518 
1715.000000	88.348057 
1714.000000	88.345183 
1713.000000	88.336434 
1712.000000	88.321541 
1711.000000	88.301905 
1710.000000	88.278853 
1709.000000	88.254995 
1708.000000	88.233763 
1707.000000	88.216300 
1706.000000	88.200873 
1705.000000	88.186254 
1704.000000	88.172336 
1703.000000	88.157856 
1702.000000	88.139338 
1701.000000	88.116737 
1700.000000	88.101404 
1699.000000	88.097720 
1698.000000	88.097523 
1697.000000	88.098567 
1696.000000	88.102638 
1695.000000	88.106621 
1694.000000	88.104923 
1693.000000	88.097486 
1692.000000	88.088464 
1691.000000	88.080956 
1690.000000	88.076105 
1689.000000	88.072799 
1688.000000	88.069731 
1687.000000	88.067352 
1686.000000	88.065979 
1685.000000	88.063413 
1684.000000	88.058211 
1683.000000	88.049744 
1682.000000	88.041124 
1681.000000	88.036484 
1680.000000	88.034879 
1679.000000	88.034877 
1678.000000	88.036691 
1677.000000	88.039401 
1676.000000	88.039854 
1675.000000	88.036911 
1674.000000	88.033265 
1673.000000	88.030697 
1672.000000	88.028164 
1671.000000	88.024828 
1670.000000	88.023822 
1669.000000	88.028162 
1668.000000	88.033725 
1667.000000	88.034869 
1666.000000	88.030913 
1665.000000	88.024267 
1664.000000	88.018278 
1663.000000	88.016312 
1662.000000	88.019288 
1661.000000	88.024324 
1660.000000	88.027949 
1659.000000	88.029091 
1658.000000	88.028846 
1657.000000	88.028388 
1656.000000	88.026992 
1655.000000	88.022876 
1654.000000	88.015503 
1653.000000	88.010573 
1652.000000	88.010031 
1651.000000	88.010632 
1650.000000	88.012558 
1649.000000	88.015810 
1648.000000	88.019481 
1647.000000	88.023086 
1646.000000	88.025644 
1645.000000	88.026558 
1644.000000	88.026423 
1643.000000	88.025300 
1642.000000	88.022331 
1641.000000	88.017542 
1640.000000	88.012415 
1639.000000	88.008608 
1638.000000	88.006702 
1637.000000	88.006114 
1636.000000	88.006691 
1635.000000	88.008103 
1634.000000	88.008861 
1633.000000	88.008231 
1632.000000	88.006579 
1631.000000	88.004495 
1630.000000	88.003226 
1629.000000	88.004018 
1628.000000	88.006281 
1627.000000	88.007512 
1626.000000	88.005893 
1625.000000	88.002058 
1624.000000	87.998519 
1623.000000	87.997827 
1622.000000	87.999447 
1621.000000	88.000344 
1620.000000	87.998969 
1619.000000	87.996436 
1618.000000	87.994963 
1617.000000	87.995948 
1616.000000	87.997364 
1615.000000	87.997132 
1614.000000	87.997479 
1613.000000	88.000697 
1612.000000	88.005900 
1611.000000	88.011148 
1610.000000	88.015986 
1609.000000	88.020983 
1608.000000	88.026063 
1607.000000	88.030568 
1606.000000	88.033727 
1605.000000	88.034813 
1604.000000	88.034355 
1603.000000	88.035152 
1602.000000	88.039407 
1601.000000	88.045304 
1600.000000	88.049170 
1599.000000	88.050765 
1598.000000	88.052935 
1597.000000	88.057215 
1596.000000	88.062516 
1595.000000	88.067525 
1594.000000	88.072073 
1593.000000	88.076051 
1592.000000	88.078978 
1591.000000	88.081055 
1590.000000	88.083245 
1589.000000	88.085952 
1588.000000	88.088710 
1587.000000	88.091333 
1586.000000	88.094311 
1585.000000	88.097914 
1584.000000	88.101783 
1583.000000	88.105596 
1582.000000	88.109493 
1581.000000	88.113559 
1580.000000	88.117565 
1579.000000	88.121345 
1578.000000	88.124968 
1577.000000	88.128523 
1576.000000	88.131980 
1575.000000	88.135294 
1574.000000	88.138533 
1573.000000	88.141766 
1572.000000	88.145005 
1571.000000	88.148250 
1570.000000	88.151498 
1569.000000	88.154725 
1568.000000	88.157874 
1567.000000	88.160923 
1566.000000	88.163895 
1565.000000	88.166820 
1564.000000	88.169692 
1563.000000	88.172484 
1562.000000	88.175171 
1561.000000	88.177745 
1560.000000	88.180186 
1559.000000	88.182622 
1558.000000	88.185192 
1557.000000	88.187816 
1556.000000	88.190301 
1555.000000	88.192547 
1554.000000	88.194595 
1553.000000	88.196676 
1552.000000	88.198894 
1551.000000	88.201146 
1550.000000	88.203269 
1549.000000	88.205202 
1548.000000	88.206978 
1547.000000	88.208642 
1546.000000	88.210295 
1545.000000	88.212122 
1544.000000	88.214193 
1543.000000	88.216248 
1542.000000	88.217908 
1541.000000	88.219015 
1540.000000	88.219837 
1539.000000	88.220692 
1538.000000	88.221739 
1537.000000	88.223045 
1536.000000	88.224426 
1535.000000	88.225604 
1534.000000	88.226742 
1533.000000	88.228333 
1532.000000	88.230231 
1531.000000	88.231762 
1530.000000	88.232632 
1529.000000	88.233098 
1528.000000	88.233758 
1527.000000	88.235121 
1526.000000	88.237253 
1525.000000	88.239731 
1524.000000	88.241855 
1523.000000	88.243041 
1522.000000	88.243372 
1521.000000	88.243878 
1520.000000	88.245298 
1519.000000	88.247487 
1518.000000	88.250174 
1517.000000	88.253102 
1516.000000	88.255733 
1515.000000	88.257639 
1514.000000	88.259127 
1513.000000	88.260826 
1512.000000	88.263048 
1511.000000	88.265656 
1510.000000	88.268160 
1509.000000	88.270281 
1508.000000	88.272063 
1507.000000	88.273980 
1506.000000	88.275865 
1505.000000	88.277435 
1504.000000	88.279178 
1503.000000	88.281430 
1502.000000	88.284128 
1501.000000	88.287093 
1500.000000	88.290134 
1499.000000	88.293193 
1498.000000	88.296378 
1497.000000	88.299622 
1496.000000	88.302247 
1495.000000	88.303402 
1494.000000	88.303203 
1493.000000	88.302820 
1492.000000	88.303506 
1491.000000	88.306078 
1490.000000	88.310623 
1489.000000	88.316017 
1488.000000	88.320633 
1487.000000	88.323673 
1486.000000	88.325766 
1485.000000	88.328282 
1484.000000	88.331257 
1483.000000	88.332948 
1482.000000	88.332164 
1481.000000	88.330488 
1480.000000	88.330974 
1479.000000	88.334626 
1478.000000	88.339916 
1477.000000	88.344810 
1476.000000	88.348085 
1475.000000	88.349127 
1474.000000	88.348234 
1473.000000	88.347678 
1472.000000	88.349461 
1471.000000	88.352515 
1470.000000	88.355448 
1469.000000	88.358735 
1468.000000	88.362913 
1467.000000	88.367691 
1466.000000	88.372963 
1465.000000	88.379742 
1464.000000	88.387620 
1463.000000	88.394100 
1462.000000	88.398225 
1461.000000	88.401750 
1460.000000	88.407030 
1459.000000	88.415039 
1458.000000	88.423899 
1457.000000	88.429166 
1456.000000	88.427726 
1455.000000	88.422768 
1454.000000	88.418857 
1453.000000	88.416142 
1452.000000	88.413060 
1451.000000	88.409967 
1450.000000	88.409301 
1449.000000	88.412861 
1448.000000	88.419265 
1447.000000	88.424004 
1446.000000	88.424328 
1445.000000	88.422006 
1444.000000	88.419492 
1443.000000	88.416910 
1442.000000	88.412893 
1441.000000	88.407226 
1440.000000	88.401738 
1439.000000	88.398652 
1438.000000	88.398167 
1437.000000	88.399014 
1436.000000	88.399828 
1435.000000	88.399649 
1434.000000	88.399036 
1433.000000	88.399682 
1432.000000	88.402520 
1431.000000	88.406581 
1430.000000	88.408140 
1429.000000	88.403308 
1428.000000	88.393354 
1427.000000	88.383892 
1426.000000	88.379059 
1425.000000	88.378111 
1424.000000	88.377349 
1423.000000	88.374940 
1422.000000	88.371600 
1421.000000	88.367316 
1420.000000	88.360027 
1419.000000	88.349048 
1418.000000	88.335810 
1417.000000	88.322420 
1416.000000	88.311232 
1415.000000	88.302513 
1414.000000	88.293885 
1413.000000	88.282693 
1412.000000	88.269061 
1411.000000	88.256702 
1410.000000	88.248949 
1409.000000	88.245507 
1408.000000	88.244434 
1407.000000	88.244916 
1406.000000	88.248072 
1405.000000	88.255960 
1404.000000	88.269022 
1403.000000	88.284548 
1402.000000	88.298367 
1401.000000	88.308400 
1400.000000	88.316331 
1399.000000	88.324859 
1398.000000	88.331394 
1397.000000	88.328037 
1396.000000	88.310495 
1395.000000	88.287324 
1394.000000	88.277681 
1393.000000	88.293405 
1392.000000	88.329361 
1391.000000	88.371363 
1390.000000	88.406907 
1389.000000	88.431086 
1388.000000	88.446824 
1387.000000	88.459980 
1386.000000	88.473232 
1385.000000	88.485816 
1384.000000	88.497873 
1383.000000	88.512097 
1382.000000	88.530963 
1381.000000	88.553058 
1380.000000	88.573079 
1379.000000	88.586428 
1378.000000	88.593867 
1377.000000	88.600584 
1376.000000	88.610612 
1375.000000	88.623269 
1374.000000	88.634719 
1373.000000	88.641735 
1372.000000	88.643672 
1371.000000	88.641529 
1370.000000	88.637592 
1369.000000	88.635763 
1368.000000	88.639307 
1367.000000	88.647267 
1366.000000	88.654204 
1365.000000	88.654504 
1364.000000	88.647278 
1363.000000	88.637987 
1362.000000	88.633640 
1361.000000	88.635282 
1360.000000	88.638217 
1359.000000	88.638829 
1358.000000	88.637899 
1357.000000	88.637831 
1356.000000	88.639046 
1355.000000	88.640367 
1354.000000	88.641444 
1353.000000	88.642745 
1352.000000	88.643655 
1351.000000	88.642271 
1350.000000	88.637865 
1349.000000	88.631504 
1348.000000	88.624131 
1347.000000	88.616534 
1346.000000	88.610541 
1345.000000	88.607791 
1344.000000	88.606973 
1343.000000	88.604139 
1342.000000	88.596487 
1341.000000	88.585196 
1340.000000	88.574452 
1339.000000	88.567499 
1338.000000	88.563299 
1337.000000	88.557656 
1336.000000	88.547854 
1335.000000	88.535901 
1334.000000	88.526976 
1333.000000	88.524308 
1332.000000	88.525972 
1331.000000	88.526986 
1330.000000	88.524057 
1329.000000	88.517610 
1328.000000	88.510086 
1327.000000	88.503787 
1326.000000	88.499899 
1325.000000	88.497793 
1324.000000	88.495065 
1323.000000	88.489398 
1322.000000	88.480746 
1321.000000	88.471467 
1320.000000	88.464315 
1319.000000	88.460492 
1318.000000	88.459355 
1317.000000	88.459390 
1316.000000	88.459088 
1315.000000	88.457168 
1314.000000	88.452932 
1313.000000	88.446953 
1312.000000	88.440978 
1311.000000	88.436373 
1310.000000	88.432674 
1309.000000	88.428308 
1308.000000	88.422941 
1307.000000	88.418447 
1306.000000	88.416840 
1305.000000	88.417381 
1304.000000	88.416721 
1303.000000	88.412268 
1302.000000	88.404656 
1301.000000	88.396700 
1300.000000	88.390289 
1299.000000	88.384834 
1298.000000	88.378530 
1297.000000	88.370565 
1296.000000	88.362028 
1295.000000	88.354901 
1294.000000	88.350272 
1293.000000	88.347612 
1292.000000	88.345603 
1291.000000	88.343199 
1290.000000	88.339714 
1289.000000	88.334502 
1288.000000	88.327192 
1287.000000	88.318094 
1286.000000	88.308017 
1285.000000	88.298083 
1284.000000	88.290190 
1283.000000	88.286493 
1282.000000	88.287019 
1281.000000	88.288472 
1280.000000	88.286838 
1279.000000	88.281060 
1278.000000	88.273040 
1277.000000	88.264592 
1276.000000	88.255903 
1275.000000	88.246811 
1274.000000	88.237650 
1273.000000	88.228185 
1272.000000	88.217082 
1271.000000	88.203192 
1270.000000	88.186765 
1269.000000	88.169466 
1268.000000	88.154068 
1267.000000	88.143552 
1266.000000	88.138434 
1265.000000	88.134738 
1264.000000	88.126539 
1263.000000	88.111308 
1262.000000	88.091775 
1261.000000	88.072675 
1260.000000	88.057108 
1259.000000	88.045696 
1258.000000	88.037141 
1257.000000	88.029290 
1256.000000	88.021068 
1255.000000	88.013272 
1254.000000	88.006056 
1253.000000	87.996634 
1252.000000	87.982298 
1251.000000	87.965673 
1250.000000	87.953835 
1249.000000	87.951364 
1248.000000	87.956563 
1247.000000	87.964451 
1246.000000	87.970203 
1245.000000	87.969412 
1244.000000	87.959824 
1243.000000	87.945994 
1242.000000	87.938901 
1241.000000	87.946697 
1240.000000	87.966770 
1239.000000	87.989208 
1238.000000	88.006484 
1237.000000	88.016999 
1236.000000	88.021138 
1235.000000	88.019227 
1234.000000	88.014224 
1233.000000	88.011764 
1232.000000	88.014176 
1231.000000	88.016152 
1230.000000	88.009356 
1229.000000	87.991330 
1228.000000	87.967926 
1227.000000	87.946266 
1226.000000	87.926283 
1225.000000	87.900835 
1224.000000	87.864788 
1223.000000	87.823124 
1222.000000	87.789019 
1221.000000	87.773532 
1220.000000	87.776982 
1219.000000	87.788644 
1218.000000	87.793490 
1217.000000	87.780640 
1216.000000	87.748102 
1215.000000	87.701670 
1214.000000	87.649676 
1213.000000	87.598199 
1212.000000	87.550283 
1211.000000	87.506842 
1210.000000	87.465916 
1209.000000	87.422970 
1208.000000	87.375515 
1207.000000	87.327423 
1206.000000	87.285662 
1205.000000	87.251948 
1204.000000	87.219657 
1203.000000	87.179504 
1202.000000	87.127019 
1201.000000	87.065242 
1200.000000	87.002448 
1199.000000	86.946733 
1198.000000	86.899797 
1197.000000	86.855532 
1196.000000	86.806628 
1195.000000	86.752378 
1194.000000	86.698289 
1193.000000	86.649115 
1192.000000	86.605230 
1191.000000	86.565043 
1190.000000	86.527176 
1189.000000	86.489888 
1188.000000	86.451679 
1187.000000	86.413220 
1186.000000	86.375861 
1185.000000	86.337930 
1184.000000	86.296037 
1183.000000	86.251155 
1182.000000	86.209817 
1181.000000	86.176902 
1180.000000	86.149449 
1179.000000	86.119438 
1178.000000	86.080787 
1177.000000	86.032031 
1176.000000	85.974728 
1175.000000	85.912536 
1174.000000	85.850816 
1173.000000	85.793748 
1172.000000	85.740987 
1171.000000	85.688237 
1170.000000	85.631477 
1169.000000	85.570667 
1168.000000	85.509772 
1167.000000	85.453561 
1166.000000	85.404368 
1165.000000	85.362637 
1164.000000	85.330958 
1163.000000	85.315691 
1162.000000	85.322090 
1161.000000	85.347726 
1160.000000	85.382016 
1159.000000	85.412547 
1158.000000	85.431290 
1157.000000	85.435197 
1156.000000	85.423594 
1155.000000	85.397350 
1154.000000	85.359860 
1153.000000	85.316462 
1152.000000	85.271706 
1151.000000	85.227141 
1150.000000	85.181731 
1149.000000	85.134268 
1148.000000	85.085275 
1147.000000	85.036377 
1146.000000	84.987925 
1145.000000	84.938192 
1144.000000	84.885665 
1143.000000	84.831615 
1142.000000	84.779455 
1141.000000	84.731498 
1140.000000	84.686666 
1139.000000	84.641108 
1138.000000	84.590912 
1137.000000	84.534656 
1136.000000	84.473619 
1135.000000	84.409746 
1134.000000	84.344242 
1133.000000	84.278443 
1132.000000	84.214170 
1131.000000	84.151054 
1130.000000	84.084995 
1129.000000	84.012691 
1128.000000	83.937226 
1127.000000	83.865510 
1126.000000	83.800059 
1125.000000	83.737387 
1124.000000	83.674777 
1123.000000	83.613483 
1122.000000	83.553856 
1121.000000	83.493035 
1120.000000	83.430797 
1119.000000	83.372728 
1118.000000	83.323038 
1117.000000	83.277514 
1116.000000	83.227663 
1115.000000	83.169375 
1114.000000	83.104502 
1113.000000	83.037057 
1112.000000	82.971828 
1111.000000	82.914075 
1110.000000	82.865962 
1109.000000	82.823926 
1108.000000	82.782268 
1107.000000	82.738479 
1106.000000	82.693429 
1105.000000	82.649074 
1104.000000	82.608720 
1103.000000	82.576746 
1102.000000	82.554616 
1101.000000	82.538701 
1100.000000	82.524613 
1099.000000	82.510957 
1098.000000	82.496683 
1097.000000	82.477664 
1096.000000	82.449821 
1095.000000	82.413693 
1094.000000	82.371416 
1093.000000	82.320305 
1092.000000	82.254369 
1091.000000	82.172982 
1090.000000	82.084134 
1089.000000	81.997109 
1088.000000	81.914148 
1087.000000	81.831333 
1086.000000	81.746192 
1085.000000	81.662136 
1084.000000	81.584844 
1083.000000	81.515134 
1082.000000	81.447055 
1081.000000	81.374035 
1080.000000	81.295813 
1079.000000	81.218061 
1078.000000	81.147081 
1077.000000	81.087421 
1076.000000	81.042380 
1075.000000	81.011700 
1074.000000	80.988712 
1073.000000	80.963986 
1072.000000	80.931379 
1071.000000	80.886552 
1070.000000	80.822278 
1069.000000	80.733786 
1068.000000	80.630643 
1067.000000	80.535783 
1066.000000	80.467225 
1065.000000	80.424514 
1064.000000	80.396139 
1063.000000	80.374053 
1062.000000	80.355856 
1061.000000	80.338834 
1060.000000	80.320722 
1059.000000	80.306179 
1058.000000	80.305941 
1057.000000	80.325922 
1056.000000	80.358123 
1055.000000	80.383714 
1054.000000	80.385835 
1053.000000	80.359661 
1052.000000	80.309496 
1051.000000	80.237007 
1050.000000	80.136835 
1049.000000	80.006574 
1048.000000	79.855621 
1047.000000	79.697801 
1046.000000	79.538324 
1045.000000	79.374860 
1044.000000	79.209401 
1043.000000	79.050843 
1042.000000	78.904679 
1041.000000	78.767000 
1040.000000	78.631734 
1039.000000	78.499445 
1038.000000	78.377008 
1037.000000	78.272422 
1036.000000	78.190913 
1035.000000	78.131612 
1034.000000	78.086727 
1033.000000	78.047483 
1032.000000	78.010717 
1031.000000	77.976807 
1030.000000	77.944759 
1029.000000	77.915527 
1028.000000	77.896889 
1027.000000	77.896168 
1026.000000	77.908777 
1025.000000	77.922297 
1024.000000	77.931480 
1023.000000	77.940541 
1022.000000	77.950750 
1021.000000	77.955099 
1020.000000	77.947332 
1019.000000	77.929097 
1018.000000	77.906313 
1017.000000	77.884890 
1016.000000	77.871495 
1015.000000	77.871583 
1014.000000	77.883565 
1013.000000	77.899278 
1012.000000	77.911477 
1011.000000	77.917336 
1010.000000	77.916694 
1009.000000	77.913643 
1008.000000	77.918643 
1007.000000	77.940554 
1006.000000	77.974741 
1005.000000	78.005631 
1004.000000	78.023370 
1003.000000	78.033115 
1002.000000	78.047082 
1001.000000	78.072779 
1000.000000	78.109893 
999.000000	 78.153239 
998.000000	 78.196994 
997.000000	 78.239254 
996.000000	 78.282517 
995.000000	 78.327720 
994.000000	 78.370911 
993.000000	 78.409927 
992.000000	 78.450655 
991.000000	 78.500534 
990.000000	 78.558582 
989.000000	 78.618209 
988.000000	 78.677487 
987.000000	 78.739942 
986.000000	 78.807296 
985.000000	 78.878422 
984.000000	 78.953949 
983.000000	 79.035609 
982.000000	 79.122868 
981.000000	 79.215840 
980.000000	 79.318351 
979.000000	 79.431310 
978.000000	 79.546427 
977.000000	 79.654622 
976.000000	 79.758185 
975.000000	 79.866587 
974.000000	 79.983119 
973.000000	 80.104158 
972.000000	 80.228529 
971.000000	 80.357432 
970.000000	 80.486586 
969.000000	 80.609073 
968.000000	 80.726485 
967.000000	 80.847813 
966.000000	 80.976166 
965.000000	 81.105365 
964.000000	 81.231033 
963.000000	 81.355869 
962.000000	 81.480878 
961.000000	 81.599627 
960.000000	 81.706119 
959.000000	 81.802980 
958.000000	 81.897537 
957.000000	 81.992930 
956.000000	 82.086214 
955.000000	 82.172743 
954.000000	 82.249797 
953.000000	 82.317552 
952.000000	 82.378483 
951.000000	 82.435598 
950.000000	 82.491025 
949.000000	 82.546154 
948.000000	 82.601162 
947.000000	 82.653376 
946.000000	 82.699118 
945.000000	 82.739301 
944.000000	 82.779681 
943.000000	 82.822712 
942.000000	 82.863141 
941.000000	 82.895517 
940.000000	 82.921503 
939.000000	 82.944831 
938.000000	 82.964067 
937.000000	 82.977791 
936.000000	 82.993175 
935.000000	 83.019855 
934.000000	 83.055909 
933.000000	 83.088859 
932.000000	 83.111544 
931.000000	 83.129530 
930.000000	 83.151788 
929.000000	 83.181144 
928.000000	 83.215543 
927.000000	 83.251716 
926.000000	 83.285242 
925.000000	 83.313174 
924.000000	 83.339110 
923.000000	 83.370057 
922.000000	 83.405721 
921.000000	 83.436158 
920.000000	 83.453129 
919.000000	 83.459660 
918.000000	 83.465850 
917.000000	 83.479085 
916.000000	 83.500842 
915.000000	 83.529113 
914.000000	 83.560638 
913.000000	 83.593232 
912.000000	 83.628021 
911.000000	 83.667318 
910.000000	 83.710261 
909.000000	 83.754620 
908.000000	 83.803874 
907.000000	 83.867733 
906.000000	 83.952722 
905.000000	 84.054605 
904.000000	 84.161634 
903.000000	 84.263825 
902.000000	 84.359175 
901.000000	 84.453244 
900.000000	 84.553243 
899.000000	 84.661000 
898.000000	 84.771994 
897.000000	 84.882055 
896.000000	 84.992214 
895.000000	 85.104059 
894.000000	 85.213546 
893.000000	 85.314490 
892.000000	 85.406762 
891.000000	 85.496419 
890.000000	 85.588861 
889.000000	 85.686401 
888.000000	 85.790991 
887.000000	 85.902773 
886.000000	 86.015173 
885.000000	 86.117366 
884.000000	 86.203777 
883.000000	 86.277251 
882.000000	 86.341721 
881.000000	 86.396135 
880.000000	 86.437493 
879.000000	 86.465414 
878.000000	 86.481398 
877.000000	 86.488500 
876.000000	 86.495046 
875.000000	 86.513007 
874.000000	 86.546619 
873.000000	 86.586022 
872.000000	 86.618547 
871.000000	 86.644832 
870.000000	 86.678342 
869.000000	 86.729716 
868.000000	 86.796870 
867.000000	 86.870202 
866.000000	 86.942063 
865.000000	 87.009605 
864.000000	 87.072626 
863.000000	 87.131889 
862.000000	 87.187558 
861.000000	 87.236740 
860.000000	 87.274454 
859.000000	 87.299919 
858.000000	 87.320559 
857.000000	 87.346433 
856.000000	 87.381012 
855.000000	 87.420125 
854.000000	 87.459131 
853.000000	 87.496877 
852.000000	 87.531555 
851.000000	 87.557954 
850.000000	 87.573842 
849.000000	 87.587093 
848.000000	 87.610431 
847.000000	 87.646919 
846.000000	 87.683756 
845.000000	 87.703201 
844.000000	 87.698572 
843.000000	 87.678752 
842.000000	 87.659088 
841.000000	 87.649094 
840.000000	 87.646260 
839.000000	 87.638007 
838.000000	 87.610620 
837.000000	 87.561211 
836.000000	 87.502982 
835.000000	 87.455776 
834.000000	 87.428531 
833.000000	 87.412459 
832.000000	 87.392647 
831.000000	 87.363465 
830.000000	 87.331216 
829.000000	 87.306208 
828.000000	 87.296995 
827.000000	 87.308852 
826.000000	 87.339114 
825.000000	 87.372168 
824.000000	 87.386306 
823.000000	 87.371208 
822.000000	 87.337006 
821.000000	 87.303295 
820.000000	 87.280634 
819.000000	 87.263286 
818.000000	 87.236745 
817.000000	 87.191090 
816.000000	 87.129003 
815.000000	 87.062051 
814.000000	 86.998602 
813.000000	 86.935522 
812.000000	 86.861269 
811.000000	 86.763399 
810.000000	 86.630950 
809.000000	 86.454760 
808.000000	 86.233272 
807.000000	 85.978637 
806.000000	 85.711412 
805.000000	 85.447613 
804.000000	 85.193919 
803.000000	 84.953364 
802.000000	 84.729991 
801.000000	 84.529605 
800.000000	 84.362334 
799.000000	 84.243311 
798.000000	 84.183971 
797.000000	 84.182144 
796.000000	 84.224176 
795.000000	 84.294289 
794.000000	 84.377875 
793.000000	 84.460649 
792.000000	 84.533681 
791.000000	 84.598784 
790.000000	 84.660478 
789.000000	 84.711034 
788.000000	 84.731452 
787.000000	 84.710667 
786.000000	 84.656483 
785.000000	 84.582729 
784.000000	 84.493212 
783.000000	 84.386352 
782.000000	 84.270989 
781.000000	 84.168768 
780.000000	 84.101605 
779.000000	 84.081828 
778.000000	 84.111228 
777.000000	 84.181999 
776.000000	 84.278259 
775.000000	 84.383734 
774.000000	 84.492452 
773.000000	 84.609508 
772.000000	 84.739030 
771.000000	 84.873537 
770.000000	 84.996712 
769.000000	 85.094845 
768.000000	 85.165039 
767.000000	 85.215999 
766.000000	 85.262841 
765.000000	 85.317315 
764.000000	 85.379327 
763.000000	 85.438596 
762.000000	 85.485663 
761.000000	 85.519707 
760.000000	 85.545474 
759.000000	 85.566753 
758.000000	 85.585648 
757.000000	 85.605359 
756.000000	 85.629793 
755.000000	 85.660562 
754.000000	 85.696456 
753.000000	 85.736201 
752.000000	 85.781080 
751.000000	 85.834898 
750.000000	 85.900368 
749.000000	 85.973788 
748.000000	 86.044059 
747.000000	 86.100320 
746.000000	 86.142119 
745.000000	 86.179951 
744.000000	 86.224942 
743.000000	 86.280713 
742.000000	 86.345472 
741.000000	 86.417197 
740.000000	 86.494083 
739.000000	 86.572818 
738.000000	 86.648808 
737.000000	 86.716571 
736.000000	 86.770060 
735.000000	 86.806629 
734.000000	 86.831910 
733.000000	 86.856891 
732.000000	 86.887500 
731.000000	 86.920516 
730.000000	 86.951883 
729.000000	 86.983398 
728.000000	 87.019284 
727.000000	 87.059639 
726.000000	 87.099253 
725.000000	 87.132880 
724.000000	 87.159065 
723.000000	 87.179217 
722.000000	 87.195980 
721.000000	 87.213530 
720.000000	 87.237137 
719.000000	 87.268870 
718.000000	 87.302966 
717.000000	 87.328231 
716.000000	 87.337354 
715.000000	 87.335000 
714.000000	 87.334429 
713.000000	 87.342652 
712.000000	 87.351671 
711.000000	 87.347538 
710.000000	 87.325775 
709.000000	 87.296100 
708.000000	 87.271348 
707.000000	 87.258678 
706.000000	 87.257078 
705.000000	 87.257513 
704.000000	 87.246264 
703.000000	 87.210450 
702.000000	 87.144756 
701.000000	 87.052621 
700.000000	 86.939285 
699.000000	 86.808436 
698.000000	 86.664869 
697.000000	 86.521493 
696.000000	 86.404967 
695.000000	 86.347867 
694.000000	 86.371562 
693.000000	 86.469395 
692.000000	 86.604993 
691.000000	 86.738090 
690.000000	 86.852075 
689.000000	 86.953030 
688.000000	 87.046785 
687.000000	 87.127027 
686.000000	 87.189550 
685.000000	 87.242570 
684.000000	 87.295812 
683.000000	 87.352355 
682.000000	 87.413956 
681.000000	 87.483232 
680.000000	 87.555248 
679.000000	 87.618167 
678.000000	 87.666403 
677.000000	 87.702073 
676.000000	 87.733144 
675.000000	 87.767267 
674.000000	 87.809048 
673.000000	 87.858807 
672.000000	 87.915879 
671.000000	 87.988227 
670.000000	 88.096054 
669.000000	 88.252888 
668.000000	 88.386876 
667.000000	 88.383444 
666.000000	 88.301001 
665.000000	 88.245350 
664.000000	 88.242001 
663.000000	 88.283192 
662.000000	 88.347195 
661.000000	 88.407719 
660.000000	 88.450094 
659.000000	 88.477660 
658.000000	 88.505188 
657.000000	 88.541712 
656.000000	 88.585692 
655.000000	 88.626572 
654.000000	 88.651690 
653.000000	 88.657318 
652.000000	 88.651611 
651.000000	 88.645059 
650.000000	 88.642989 

