PE IR                   SPECTRUM    ASCII       PEDS        1.60        
  -1
~SP.SP
22/12/06
16:01:35.00
23/01/09
15:15:38.00
Administrator

650.000000
4









FRONTIER FT-IR,CPU32 MAIN 00.09.9951 07-SEPTEMBER-2011 11:49:41
MIR TGS
MIR
OPTKBR
90694
0.200000

4.000000
STRONG
RATIO
SPECTRUM
MAGNITUDE
MIRACLE ATR
DOUBLE

COMBINED


0


#HDR
-1
-1
#GR
CM-1
%T
0.00002384185791015625
0.0
4000.000000
-1.000000
3351
8
109.133466
91.505191
#DATA
4000.000000	109.083599 
3999.000000	109.085921 
3998.000000	109.085298 
3997.000000	109.082303 
3996.000000	109.078022 
3995.000000	109.073529 
3994.000000	109.069731 
3993.000000	109.067106 
3992.000000	109.065607 
3991.000000	109.065222 
3990.000000	109.066435 
3989.000000	109.069498 
3988.000000	109.073490 
3987.000000	109.076889 
3986.000000	109.079058 
3985.000000	109.080486 
3984.000000	109.081595 
3983.000000	109.081934 
3982.000000	109.080937 
3981.000000	109.079012 
3980.000000	109.077339 
3979.000000	109.076599 
3978.000000	109.076265 
3977.000000	109.075346 
3976.000000	109.073676 
3975.000000	109.072339 
3974.000000	109.072887 
3973.000000	109.075686 
3972.000000	109.079205 
3971.000000	109.081236 
3970.000000	109.080831 
3969.000000	109.078839 
3968.000000	109.076529 
3967.000000	109.074397 
3966.000000	109.072328 
3965.000000	109.070388 
3964.000000	109.068971 
3963.000000	109.068363 
3962.000000	109.068577 
3961.000000	109.069359 
3960.000000	109.070306 
3959.000000	109.071216 
3958.000000	109.072431 
3957.000000	109.074453 
3956.000000	109.077036 
3955.000000	109.079305 
3954.000000	109.080740 
3953.000000	109.081584 
3952.000000	109.082191 
3951.000000	109.082343 
3950.000000	109.081570 
3949.000000	109.079873 
3948.000000	109.077891 
3947.000000	109.076501 
3946.000000	109.076148 
3945.000000	109.076496 
3944.000000	109.076877 
3943.000000	109.076961 
3942.000000	109.076677 
3941.000000	109.075554 
3940.000000	109.072924 
3939.000000	109.068765 
3938.000000	109.064235 
3937.000000	109.061211 
3936.000000	109.060828 
3935.000000	109.062966 
3934.000000	109.066700 
3933.000000	109.070808 
3932.000000	109.073694 
3931.000000	109.073641 
3930.000000	109.070502 
3929.000000	109.066608 
3928.000000	109.064680 
3927.000000	109.064760 
3926.000000	109.064540 
3925.000000	109.062848 
3924.000000	109.060737 
3923.000000	109.058947 
3922.000000	109.056869 
3921.000000	109.054340 
3920.000000	109.052537 
3919.000000	109.052275 
3918.000000	109.052711 
3917.000000	109.052694 
3916.000000	109.052296 
3915.000000	109.051876 
3914.000000	109.051141 
3913.000000	109.049580 
3912.000000	109.047284 
3911.000000	109.044767 
3910.000000	109.042535 
3909.000000	109.041445 
3908.000000	109.042356 
3907.000000	109.045342 
3906.000000	109.048904 
3905.000000	109.051043 
3904.000000	109.051123 
3903.000000	109.049754 
3902.000000	109.047440 
3901.000000	109.044164 
3900.000000	109.040407 
3899.000000	109.037236 
3898.000000	109.035194 
3897.000000	109.033986 
3896.000000	109.033224 
3895.000000	109.032813 
3894.000000	109.032660 
3893.000000	109.032501 
3892.000000	109.032147 
3891.000000	109.031680 
3890.000000	109.031237 
3889.000000	109.030826 
3888.000000	109.030389 
3887.000000	109.029926 
3886.000000	109.029455 
3885.000000	109.028983 
3884.000000	109.028511 
3883.000000	109.028017 
3882.000000	109.027477 
3881.000000	109.026887 
3880.000000	109.026271 
3879.000000	109.025652 
3878.000000	109.025036 
3877.000000	109.024406 
3876.000000	109.023752 
3875.000000	109.023085 
3874.000000	109.022436 
3873.000000	109.021824 
3872.000000	109.021236 
3871.000000	109.020644 
3870.000000	109.020037 
3869.000000	109.019419 
3868.000000	109.018777 
3867.000000	109.018077 
3866.000000	109.017309 
3865.000000	109.016499 
3864.000000	109.015681 
3863.000000	109.014867 
3862.000000	109.014054 
3861.000000	109.013255 
3860.000000	109.012487 
3859.000000	109.011750 
3858.000000	109.011021 
3857.000000	109.010264 
3856.000000	109.009426 
3855.000000	109.008450 
3854.000000	109.007323 
3853.000000	109.006068 
3852.000000	109.004692 
3851.000000	109.003179 
3850.000000	109.001522 
3849.000000	108.999726 
3848.000000	108.997815 
3847.000000	108.995828 
3846.000000	108.993807 
3845.000000	108.991790 
3844.000000	108.989804 
3843.000000	108.987871 
3842.000000	108.986006 
3841.000000	108.984198 
3840.000000	108.982423 
3839.000000	108.980687 
3838.000000	108.979021 
3837.000000	108.977449 
3836.000000	108.975972 
3835.000000	108.974562 
3834.000000	108.973174 
3833.000000	108.971759 
3832.000000	108.970296 
3831.000000	108.968791 
3830.000000	108.967261 
3829.000000	108.965714 
3828.000000	108.964147 
3827.000000	108.962555 
3826.000000	108.960949 
3825.000000	108.959351 
3824.000000	108.957764 
3823.000000	108.956161 
3822.000000	108.954516 
3821.000000	108.952833 
3820.000000	108.951136 
3819.000000	108.949430 
3818.000000	108.947697 
3817.000000	108.945932 
3816.000000	108.944164 
3815.000000	108.942435 
3814.000000	108.940759 
3813.000000	108.939125 
3812.000000	108.937515 
3811.000000	108.935917 
3810.000000	108.934381 
3809.000000	108.932946 
3808.000000	108.931535 
3807.000000	108.930193 
3806.000000	108.929163 
3805.000000	108.928551 
3804.000000	108.928174 
3803.000000	108.927634 
3802.000000	108.926830 
3801.000000	108.926082 
3800.000000	108.925623 
3799.000000	108.925271 
3798.000000	108.924681 
3797.000000	108.923769 
3796.000000	108.922829 
3795.000000	108.922017 
3794.000000	108.921020 
3793.000000	108.919567 
3792.000000	108.917857 
3791.000000	108.916295 
3790.000000	108.914973 
3789.000000	108.913681 
3788.000000	108.912272 
3787.000000	108.910803 
3786.000000	108.909421 
3785.000000	108.908258 
3784.000000	108.907429 
3783.000000	108.906839 
3782.000000	108.906179 
3781.000000	108.905239 
3780.000000	108.904298 
3779.000000	108.903828 
3778.000000	108.903819 
3777.000000	108.903868 
3776.000000	108.903691 
3775.000000	108.903393 
3774.000000	108.903202 
3773.000000	108.903176 
3772.000000	108.903182 
3771.000000	108.903139 
3770.000000	108.903119 
3769.000000	108.903160 
3768.000000	108.903202 
3767.000000	108.903208 
3766.000000	108.903194 
3765.000000	108.903167 
3764.000000	108.903120 
3763.000000	108.903032 
3762.000000	108.902885 
3761.000000	108.902687 
3760.000000	108.902462 
3759.000000	108.902223 
3758.000000	108.901965 
3757.000000	108.901694 
3756.000000	108.901423 
3755.000000	108.901157 
3754.000000	108.900887 
3753.000000	108.900609 
3752.000000	108.900335 
3751.000000	108.900071 
3750.000000	108.899791 
3749.000000	108.899464 
3748.000000	108.899077 
3747.000000	108.898656 
3746.000000	108.898159 
3745.000000	108.897464 
3744.000000	108.896735 
3743.000000	108.896186 
3742.000000	108.895457 
3741.000000	108.894084 
3740.000000	108.892267 
3739.000000	108.891019 
3738.000000	108.890796 
3737.000000	108.890601 
3736.000000	108.889788 
3735.000000	108.889608 
3734.000000	108.890658 
3733.000000	108.890853 
3732.000000	108.888645 
3731.000000	108.885182 
3730.000000	108.882400 
3729.000000	108.880241 
3728.000000	108.877044 
3727.000000	108.872842 
3726.000000	108.870040 
3725.000000	108.869438 
3724.000000	108.868570 
3723.000000	108.865014 
3722.000000	108.859431 
3721.000000	108.854376 
3720.000000	108.851285 
3719.000000	108.849017 
3718.000000	108.845294 
3717.000000	108.840068 
3716.000000	108.835521 
3715.000000	108.832755 
3714.000000	108.830149 
3713.000000	108.826056 
3712.000000	108.822498 
3711.000000	108.821924 
3710.000000	108.822718 
3709.000000	108.821234 
3708.000000	108.815292 
3707.000000	108.805989 
3706.000000	108.796960 
3705.000000	108.791387 
3704.000000	108.789822 
3703.000000	108.790894 
3702.000000	108.793520 
3701.000000	108.797295 
3700.000000	108.801672 
3699.000000	108.804882 
3698.000000	108.804234 
3697.000000	108.800073 
3696.000000	108.796855 
3695.000000	108.796635 
3694.000000	108.796741 
3693.000000	108.794905 
3692.000000	108.792500 
3691.000000	108.791032 
3690.000000	108.789374 
3689.000000	108.787687 
3688.000000	108.787926 
3687.000000	108.789976 
3686.000000	108.790374 
3685.000000	108.785504 
3684.000000	108.776643 
3683.000000	108.769808 
3682.000000	108.766837 
3681.000000	108.762702 
3680.000000	108.755612 
3679.000000	108.751966 
3678.000000	108.754903 
3677.000000	108.754946 
3676.000000	108.749208 
3675.000000	108.747854 
3674.000000	108.752279 
3673.000000	108.753397 
3672.000000	108.741440 
3671.000000	108.715301 
3670.000000	108.690569 
3669.000000	108.679463 
3668.000000	108.675102 
3667.000000	108.667223 
3666.000000	108.653833 
3665.000000	108.638542 
3664.000000	108.625257 
3663.000000	108.615025 
3662.000000	108.605879 
3661.000000	108.596161 
3660.000000	108.586168 
3659.000000	108.576198 
3658.000000	108.564213 
3657.000000	108.549130 
3656.000000	108.535067 
3655.000000	108.526194 
3654.000000	108.521913 
3653.000000	108.517396 
3652.000000	108.506691 
3651.000000	108.490729 
3650.000000	108.480493 
3649.000000	108.481293 
3648.000000	108.483256 
3647.000000	108.475614 
3646.000000	108.458176 
3645.000000	108.436601 
3644.000000	108.415893 
3643.000000	108.398887 
3642.000000	108.386172 
3641.000000	108.375116 
3640.000000	108.360043 
3639.000000	108.338992 
3638.000000	108.318758 
3637.000000	108.308571 
3636.000000	108.309280 
3635.000000	108.312793 
3634.000000	108.314225 
3633.000000	108.317276 
3632.000000	108.324799 
3631.000000	108.326317 
3630.000000	108.309069 
3629.000000	108.285587 
3628.000000	108.275080 
3627.000000	108.272958 
3626.000000	108.266012 
3625.000000	108.250977 
3624.000000	108.235118 
3623.000000	108.228234 
3622.000000	108.232614 
3621.000000	108.242523 
3620.000000	108.252743 
3619.000000	108.262345 
3618.000000	108.269731 
3617.000000	108.273059 
3616.000000	108.272701 
3615.000000	108.269675 
3614.000000	108.267360 
3613.000000	108.271436 
3612.000000	108.283668 
3611.000000	108.298640 
3610.000000	108.309472 
3609.000000	108.315781 
3608.000000	108.322619 
3607.000000	108.331375 
3606.000000	108.337533 
3605.000000	108.338617 
3604.000000	108.337588 
3603.000000	108.338947 
3602.000000	108.343757 
3601.000000	108.350792 
3600.000000	108.359992 
3599.000000	108.371821 
3598.000000	108.385496 
3597.000000	108.399318 
3596.000000	108.411010 
3595.000000	108.418128 
3594.000000	108.420038 
3593.000000	108.418653 
3592.000000	108.419348 
3591.000000	108.428446 
3590.000000	108.447086 
3589.000000	108.468886 
3588.000000	108.485207 
3587.000000	108.490981 
3586.000000	108.485901 
3585.000000	108.473726 
3584.000000	108.459623 
3583.000000	108.446994 
3582.000000	108.437409 
3581.000000	108.431711 
3580.000000	108.430311 
3579.000000	108.432432 
3578.000000	108.436754 
3577.000000	108.442691 
3576.000000	108.450572 
3575.000000	108.459948 
3574.000000	108.468755 
3573.000000	108.474997 
3572.000000	108.479356 
3571.000000	108.485280 
3570.000000	108.494680 
3569.000000	108.504824 
3568.000000	108.511573 
3567.000000	108.513584 
3566.000000	108.511242 
3565.000000	108.505904 
3564.000000	108.500575 
3563.000000	108.498134 
3562.000000	108.499132 
3561.000000	108.501478 
3560.000000	108.502345 
3559.000000	108.500637 
3558.000000	108.497706 
3557.000000	108.496179 
3556.000000	108.498081 
3555.000000	108.503431 
3554.000000	108.510109 
3553.000000	108.515605 
3552.000000	108.519058 
3551.000000	108.521471 
3550.000000	108.524096 
3549.000000	108.526674 
3548.000000	108.527399 
3547.000000	108.524756 
3546.000000	108.519469 
3545.000000	108.514578 
3544.000000	108.513130 
3543.000000	108.515497 
3542.000000	108.519358 
3541.000000	108.522330 
3540.000000	108.524006 
3539.000000	108.525453 
3538.000000	108.527618 
3537.000000	108.531244 
3536.000000	108.537134 
3535.000000	108.545318 
3534.000000	108.554329 
3533.000000	108.562034 
3532.000000	108.567354 
3531.000000	108.570469 
3530.000000	108.572042 
3529.000000	108.573016 
3528.000000	108.574747 
3527.000000	108.577771 
3526.000000	108.580488 
3525.000000	108.580610 
3524.000000	108.578192 
3523.000000	108.575972 
3522.000000	108.576092 
3521.000000	108.577946 
3520.000000	108.579817 
3519.000000	108.581562 
3518.000000	108.584484 
3517.000000	108.588883 
3516.000000	108.592967 
3515.000000	108.594797 
3514.000000	108.594762 
3513.000000	108.595382 
3512.000000	108.599099 
3511.000000	108.606678 
3510.000000	108.616950 
3509.000000	108.627343 
3508.000000	108.635250 
3507.000000	108.639582 
3506.000000	108.641129 
3505.000000	108.641815 
3504.000000	108.643427 
3503.000000	108.646472 
3502.000000	108.650372 
3501.000000	108.654633 
3500.000000	108.659248 
3499.000000	108.663826 
3498.000000	108.667182 
3497.000000	108.668467 
3496.000000	108.668294 
3495.000000	108.668309 
3494.000000	108.669668 
3493.000000	108.672404 
3492.000000	108.676183 
3491.000000	108.681078 
3490.000000	108.687154 
3489.000000	108.693623 
3488.000000	108.699133 
3487.000000	108.703040 
3486.000000	108.706043 
3485.000000	108.709425 
3484.000000	108.713613 
3483.000000	108.717590 
3482.000000	108.719938 
3481.000000	108.720515 
3480.000000	108.720874 
3479.000000	108.722679 
3478.000000	108.725773 
3477.000000	108.728330 
3476.000000	108.729042 
3475.000000	108.728699 
3474.000000	108.729286 
3473.000000	108.731813 
3472.000000	108.735658 
3471.000000	108.739638 
3470.000000	108.743131 
3469.000000	108.745969 
3468.000000	108.748133 
3467.000000	108.750202 
3466.000000	108.753384 
3465.000000	108.758239 
3464.000000	108.763447 
3463.000000	108.766719 
3462.000000	108.767140 
3461.000000	108.766090 
3460.000000	108.765811 
3459.000000	108.767109 
3458.000000	108.769003 
3457.000000	108.770417 
3456.000000	108.771624 
3455.000000	108.773619 
3454.000000	108.776510 
3453.000000	108.779578 
3452.000000	108.782970 
3451.000000	108.787891 
3450.000000	108.794553 
3449.000000	108.800928 
3448.000000	108.804872 
3447.000000	108.806931 
3446.000000	108.809507 
3445.000000	108.813396 
3444.000000	108.816869 
3443.000000	108.818470 
3442.000000	108.819006 
3441.000000	108.819982 
3440.000000	108.821131 
3439.000000	108.821003 
3438.000000	108.819537 
3437.000000	108.818740 
3436.000000	108.820478 
3435.000000	108.824267 
3434.000000	108.827518 
3433.000000	108.827852 
3432.000000	108.825184 
3431.000000	108.821647 
3430.000000	108.819780 
3429.000000	108.820812 
3428.000000	108.824452 
3427.000000	108.829593 
3426.000000	108.834901 
3425.000000	108.839300 
3424.000000	108.842494 
3423.000000	108.845059 
3422.000000	108.847726 
3421.000000	108.850635 
3420.000000	108.853645 
3419.000000	108.857060 
3418.000000	108.861066 
3417.000000	108.864261 
3416.000000	108.864113 
3415.000000	108.859692 
3414.000000	108.853457 
3413.000000	108.849511 
3412.000000	108.849590 
3411.000000	108.851830 
3410.000000	108.853389 
3409.000000	108.853467 
3408.000000	108.853144 
3407.000000	108.853038 
3406.000000	108.852411 
3405.000000	108.850583 
3404.000000	108.847938 
3403.000000	108.845221 
3402.000000	108.842807 
3401.000000	108.841162 
3400.000000	108.841240 
3399.000000	108.843604 
3398.000000	108.847566 
3397.000000	108.851590 
3396.000000	108.854270 
3395.000000	108.854777 
3394.000000	108.852976 
3393.000000	108.849891 
3392.000000	108.847575 
3391.000000	108.847457 
3390.000000	108.848956 
3389.000000	108.850341 
3388.000000	108.851070 
3387.000000	108.852588 
3386.000000	108.856428 
3385.000000	108.862057 
3384.000000	108.867046 
3383.000000	108.869311 
3382.000000	108.868772 
3381.000000	108.866778 
3380.000000	108.864477 
3379.000000	108.862108 
3378.000000	108.859763 
3377.000000	108.858084 
3376.000000	108.857758 
3375.000000	108.858654 
3374.000000	108.859856 
3373.000000	108.860448 
3372.000000	108.859997 
3371.000000	108.858486 
3370.000000	108.856190 
3369.000000	108.853708 
3368.000000	108.851603 
3367.000000	108.849866 
3366.000000	108.848048 
3365.000000	108.846010 
3364.000000	108.844274 
3363.000000	108.843378 
3362.000000	108.843034 
3361.000000	108.842227 
3360.000000	108.840230 
3359.000000	108.837373 
3358.000000	108.834799 
3357.000000	108.833389 
3356.000000	108.832856 
3355.000000	108.831815 
3354.000000	108.828955 
3353.000000	108.824226 
3352.000000	108.819064 
3351.000000	108.815360 
3350.000000	108.813988 
3349.000000	108.814446 
3348.000000	108.815307 
3347.000000	108.815173 
3346.000000	108.813574 
3345.000000	108.811095 
3344.000000	108.808778 
3343.000000	108.807069 
3342.000000	108.805401 
3341.000000	108.802963 
3340.000000	108.799673 
3339.000000	108.796131 
3338.000000	108.792808 
3337.000000	108.789717 
3336.000000	108.786903 
3335.000000	108.784735 
3334.000000	108.783353 
3333.000000	108.782115 
3332.000000	108.780083 
3331.000000	108.777046 
3330.000000	108.773626 
3329.000000	108.770338 
3328.000000	108.766902 
3327.000000	108.762821 
3326.000000	108.758310 
3325.000000	108.754231 
3324.000000	108.751131 
3323.000000	108.748586 
3322.000000	108.745572 
3321.000000	108.741485 
3320.000000	108.736615 
3319.000000	108.731701 
3318.000000	108.727219 
3317.000000	108.723225 
3316.000000	108.719627 
3315.000000	108.716274 
3314.000000	108.712788 
3313.000000	108.708686 
3312.000000	108.703859 
3311.000000	108.698789 
3310.000000	108.694072 
3309.000000	108.689757 
3308.000000	108.685441 
3307.000000	108.680833 
3306.000000	108.676012 
3305.000000	108.671176 
3304.000000	108.666467 
3303.000000	108.662070 
3302.000000	108.658178 
3301.000000	108.654673 
3300.000000	108.650972 
3299.000000	108.646470 
3298.000000	108.641059 
3297.000000	108.635106 
3296.000000	108.629119 
3295.000000	108.623454 
3294.000000	108.618288 
3293.000000	108.613615 
3292.000000	108.609264 
3291.000000	108.605038 
3290.000000	108.600796 
3289.000000	108.596314 
3288.000000	108.591233 
3287.000000	108.585383 
3286.000000	108.579204 
3285.000000	108.573624 
3284.000000	108.569245 
3283.000000	108.565892 
3282.000000	108.562861 
3281.000000	108.559552 
3280.000000	108.555643 
3279.000000	108.550850 
3278.000000	108.544998 
3277.000000	108.538417 
3276.000000	108.531953 
3275.000000	108.526337 
3274.000000	108.521741 
3273.000000	108.517964 
3272.000000	108.514729 
3271.000000	108.511675 
3270.000000	108.508386 
3269.000000	108.504752 
3268.000000	108.501133 
3267.000000	108.497835 
3266.000000	108.494514 
3265.000000	108.490435 
3264.000000	108.485368 
3263.000000	108.479988 
3262.000000	108.475256 
3261.000000	108.471412 
3260.000000	108.467811 
3259.000000	108.463785 
3258.000000	108.459513 
3257.000000	108.455724 
3256.000000	108.452539 
3255.000000	108.449036 
3254.000000	108.444317 
3253.000000	108.438642 
3252.000000	108.433158 
3251.000000	108.428507 
3250.000000	108.424232 
3249.000000	108.419651 
3248.000000	108.414786 
3247.000000	108.410135 
3246.000000	108.405883 
3245.000000	108.401770 
3244.000000	108.397559 
3243.000000	108.393201 
3242.000000	108.388554 
3241.000000	108.383396 
3240.000000	108.377816 
3239.000000	108.372313 
3238.000000	108.367338 
3237.000000	108.362850 
3236.000000	108.358424 
3235.000000	108.353714 
3234.000000	108.348732 
3233.000000	108.343669 
3232.000000	108.338671 
3231.000000	108.333782 
3230.000000	108.328999 
3229.000000	108.324304 
3228.000000	108.319639 
3227.000000	108.314928 
3226.000000	108.310137 
3225.000000	108.305284 
3224.000000	108.300407 
3223.000000	108.295547 
3222.000000	108.290736 
3221.000000	108.285976 
3220.000000	108.281189 
3219.000000	108.276239 
3218.000000	108.271085 
3217.000000	108.265844 
3216.000000	108.260692 
3215.000000	108.255704 
3214.000000	108.250837 
3213.000000	108.245980 
3212.000000	108.241049 
3211.000000	108.236027 
3210.000000	108.230946 
3209.000000	108.225861 
3208.000000	108.220845 
3207.000000	108.215952 
3206.000000	108.211165 
3205.000000	108.206362 
3204.000000	108.201432 
3203.000000	108.196379 
3202.000000	108.191325 
3201.000000	108.186404 
3200.000000	108.181663 
3199.000000	108.177048 
3198.000000	108.172457 
3197.000000	108.167811 
3196.000000	108.163087 
3195.000000	108.158329 
3194.000000	108.153634 
3193.000000	108.149076 
3192.000000	108.144630 
3191.000000	108.140147 
3190.000000	108.135473 
3189.000000	108.130584 
3188.000000	108.125595 
3187.000000	108.120676 
3186.000000	108.115906 
3185.000000	108.111248 
3184.000000	108.106594 
3183.000000	108.101846 
3182.000000	108.096972 
3181.000000	108.092046 
3180.000000	108.087219 
3179.000000	108.082595 
3178.000000	108.078137 
3177.000000	108.073739 
3176.000000	108.069418 
3175.000000	108.065270 
3174.000000	108.061225 
3173.000000	108.056972 
3172.000000	108.052286 
3171.000000	108.047270 
3170.000000	108.042169 
3169.000000	108.037098 
3168.000000	108.032141 
3167.000000	108.027559 
3166.000000	108.023591 
3165.000000	108.020035 
3164.000000	108.016225 
3163.000000	108.011664 
3162.000000	108.006503 
3161.000000	108.001441 
3160.000000	107.997034 
3159.000000	107.993202 
3158.000000	107.989329 
3157.000000	107.984819 
3156.000000	107.979687 
3155.000000	107.974711 
3154.000000	107.970791 
3153.000000	107.968094 
3152.000000	107.965890 
3151.000000	107.963251 
3150.000000	107.959965 
3149.000000	107.956558 
3148.000000	107.953511 
3147.000000	107.950630 
3146.000000	107.947251 
3145.000000	107.942982 
3144.000000	107.938124 
3143.000000	107.933355 
3142.000000	107.929042 
3141.000000	107.925044 
3140.000000	107.921220 
3139.000000	107.917880 
3138.000000	107.915505 
3137.000000	107.914093 
3136.000000	107.912972 
3135.000000	107.911292 
3134.000000	107.908673 
3133.000000	107.905371 
3132.000000	107.902018 
3131.000000	107.899151 
3130.000000	107.896896 
3129.000000	107.895023 
3128.000000	107.893262 
3127.000000	107.891485 
3126.000000	107.889564 
3125.000000	107.887307 
3124.000000	107.884744 
3123.000000	107.882293 
3122.000000	107.880366 
3121.000000	107.878868 
3120.000000	107.877261 
3119.000000	107.875172 
3118.000000	107.872774 
3117.000000	107.870560 
3116.000000	107.868864 
3115.000000	107.867665 
3114.000000	107.866639 
3113.000000	107.865327 
3112.000000	107.863445 
3111.000000	107.861074 
3110.000000	107.858654 
3109.000000	107.856657 
3108.000000	107.855188 
3107.000000	107.853947 
3106.000000	107.852507 
3105.000000	107.850711 
3104.000000	107.848717 
3103.000000	107.846741 
3102.000000	107.844838 
3101.000000	107.842979 
3100.000000	107.841235 
3099.000000	107.839717 
3098.000000	107.838404 
3097.000000	107.837090 
3096.000000	107.835562 
3095.000000	107.833751 
3094.000000	107.831652 
3093.000000	107.829186 
3092.000000	107.826340 
3091.000000	107.823549 
3090.000000	107.821503 
3089.000000	107.820418 
3088.000000	107.819718 
3087.000000	107.818722 
3086.000000	107.817395 
3085.000000	107.816072 
3084.000000	107.814819 
3083.000000	107.813413 
3082.000000	107.811695 
3081.000000	107.809673 
3080.000000	107.807547 
3079.000000	107.805979 
3078.000000	107.805921 
3077.000000	107.807618 
3076.000000	107.809884 
3075.000000	107.810734 
3074.000000	107.808808 
3073.000000	107.804518 
3072.000000	107.800338 
3071.000000	107.799338 
3070.000000	107.802323 
3069.000000	107.806368 
3068.000000	107.807263 
3067.000000	107.803700 
3066.000000	107.798291 
3065.000000	107.794814 
3064.000000	107.795213 
3063.000000	107.798701 
3062.000000	107.801959 
3061.000000	107.800673 
3060.000000	107.793437 
3059.000000	107.784721 
3058.000000	107.781436 
3057.000000	107.785252 
3056.000000	107.790438 
3055.000000	107.790980 
3054.000000	107.787856 
3053.000000	107.786448 
3052.000000	107.788799 
3051.000000	107.791964 
3050.000000	107.793464 
3049.000000	107.794698 
3048.000000	107.797845 
3047.000000	107.802267 
3046.000000	107.805798 
3045.000000	107.807806 
3044.000000	107.809131 
3043.000000	107.810265 
3042.000000	107.811570 
3041.000000	107.814539 
3040.000000	107.820620 
3039.000000	107.828632 
3038.000000	107.835210 
3037.000000	107.839057 
3036.000000	107.843534 
3035.000000	107.853223 
3034.000000	107.868223 
3033.000000	107.883699 
3032.000000	107.895870 
3031.000000	107.906692 
3030.000000	107.920719 
3029.000000	107.938180 
3028.000000	107.953640 
3027.000000	107.962275 
3026.000000	107.965614 
3025.000000	107.969267 
3024.000000	107.976038 
3023.000000	107.983587 
3022.000000	107.988943 
3021.000000	107.993062 
3020.000000	107.999666 
3019.000000	108.010908 
3018.000000	108.025835 
3017.000000	108.042543 
3016.000000	108.060039 
3015.000000	108.077838 
3014.000000	108.095587 
3013.000000	108.114039 
3012.000000	108.135005 
3011.000000	108.158948 
3010.000000	108.183416 
3009.000000	108.205360 
3008.000000	108.224783 
3007.000000	108.244651 
3006.000000	108.267042 
3005.000000	108.290756 
3004.000000	108.313202 
3003.000000	108.333360 
3002.000000	108.352173 
3001.000000	108.371349 
3000.000000	108.392927 
2999.000000	108.418906 
2998.000000	108.449293 
2997.000000	108.480253 
2996.000000	108.505964 
2995.000000	108.524165 
2994.000000	108.540388 
2993.000000	108.565920 
2992.000000	108.609707 
2991.000000	108.670128 
2990.000000	108.734059 
2989.000000	108.785860 
2988.000000	108.819479 
2987.000000	108.842165 
2986.000000	108.866322 
2985.000000	108.898004 
2984.000000	108.933743 
2983.000000	108.967043 
2982.000000	108.995400 
2981.000000	109.020783 
2980.000000	109.045432 
2979.000000	109.068730 
2978.000000	109.087678 
2977.000000	109.099473 
2976.000000	109.104010 
2975.000000	109.104516 
2974.000000	109.104807 
2973.000000	109.104215 
2972.000000	109.094913 
2971.000000	109.065813 
2970.000000	109.010847 
2969.000000	108.934396 
2968.000000	108.848977 
2967.000000	108.767321 
2966.000000	108.695833 
2965.000000	108.634016 
2964.000000	108.578195 
2963.000000	108.525512 
2962.000000	108.475840 
2961.000000	108.431161 
2960.000000	108.393221 
2959.000000	108.361457 
2958.000000	108.333644 
2957.000000	108.309020 
2956.000000	108.290024 
2955.000000	108.279618 
2954.000000	108.276610 
2953.000000	108.274793 
2952.000000	108.267562 
2951.000000	108.253161 
2950.000000	108.234931 
2949.000000	108.216964 
2948.000000	108.200444 
2947.000000	108.184073 
2946.000000	108.166913 
2945.000000	108.149753 
2944.000000	108.133548 
2943.000000	108.117146 
2942.000000	108.097480 
2941.000000	108.072586 
2940.000000	108.044212 
2939.000000	108.016795 
2938.000000	107.993421 
2937.000000	107.972949 
2936.000000	107.951409 
2935.000000	107.926392 
2934.000000	107.899866 
2933.000000	107.876115 
2932.000000	107.856547 
2931.000000	107.837194 
2930.000000	107.812541 
2929.000000	107.782209 
2928.000000	107.752836 
2927.000000	107.732895 
2926.000000	107.727325 
2925.000000	107.737507 
2924.000000	107.763209 
2923.000000	107.801202 
2922.000000	107.843419 
2921.000000	107.881068 
2920.000000	107.911885 
2919.000000	107.940846 
2918.000000	107.973015 
2917.000000	108.008379 
2916.000000	108.044457 
2915.000000	108.080702 
2914.000000	108.117825 
2913.000000	108.154868 
2912.000000	108.189690 
2911.000000	108.221189 
2910.000000	108.248607 
2909.000000	108.269943 
2908.000000	108.284245 
2907.000000	108.295690 
2906.000000	108.312517 
2905.000000	108.340369 
2904.000000	108.377447 
2903.000000	108.416580 
2902.000000	108.450176 
2901.000000	108.472809 
2900.000000	108.481719 
2899.000000	108.476928 
2898.000000	108.461820 
2897.000000	108.442727 
2896.000000	108.427167 
2895.000000	108.420910 
2894.000000	108.424895 
2893.000000	108.434195 
2892.000000	108.441229 
2891.000000	108.441573 
2890.000000	108.436976 
2889.000000	108.432528 
2888.000000	108.431364 
2887.000000	108.432565 
2886.000000	108.433404 
2885.000000	108.431960 
2884.000000	108.427355 
2883.000000	108.419230 
2882.000000	108.408411 
2881.000000	108.397212 
2880.000000	108.387373 
2879.000000	108.377791 
2878.000000	108.365792 
2877.000000	108.350504 
2876.000000	108.332889 
2875.000000	108.312064 
2874.000000	108.284447 
2873.000000	108.248989 
2872.000000	108.211735 
2871.000000	108.182101 
2870.000000	108.164153 
2869.000000	108.153098 
2868.000000	108.140340 
2867.000000	108.120309 
2866.000000	108.092605 
2865.000000	108.059808 
2864.000000	108.024569 
2863.000000	107.988107 
2862.000000	107.950690 
2861.000000	107.913263 
2860.000000	107.877380 
2859.000000	107.842689 
2858.000000	107.806021 
2857.000000	107.765265 
2856.000000	107.723436 
2855.000000	107.686914 
2854.000000	107.660847 
2853.000000	107.648642 
2852.000000	107.653782 
2851.000000	107.676879 
2850.000000	107.710335 
2849.000000	107.741089 
2848.000000	107.762082 
2847.000000	107.777866 
2846.000000	107.796362 
2845.000000	107.818701 
2844.000000	107.840228 
2843.000000	107.858172 
2842.000000	107.873538 
2841.000000	107.886668 
2840.000000	107.895522 
2839.000000	107.898951 
2838.000000	107.898576 
2837.000000	107.896620 
2836.000000	107.893885 
2835.000000	107.890264 
2834.000000	107.885617 
2833.000000	107.879816 
2832.000000	107.873248 
2831.000000	107.867272 
2830.000000	107.863024 
2829.000000	107.860032 
2828.000000	107.857182 
2827.000000	107.854702 
2826.000000	107.853935 
2825.000000	107.855443 
2824.000000	107.858421 
2823.000000	107.861526 
2822.000000	107.863373 
2821.000000	107.862945 
2820.000000	107.860497 
2819.000000	107.857287 
2818.000000	107.853701 
2817.000000	107.849105 
2816.000000	107.844548 
2815.000000	107.843543 
2814.000000	107.848029 
2813.000000	107.855086 
2812.000000	107.859970 
2811.000000	107.861204 
2810.000000	107.860424 
2809.000000	107.858587 
2808.000000	107.855227 
2807.000000	107.850596 
2806.000000	107.845900 
2805.000000	107.841836 
2804.000000	107.838374 
2803.000000	107.835811 
2802.000000	107.834685 
2801.000000	107.834687 
2800.000000	107.834883 
2799.000000	107.835119 
2798.000000	107.835985 
2797.000000	107.837259 
2796.000000	107.837578 
2795.000000	107.835937 
2794.000000	107.832603 
2793.000000	107.828507 
2792.000000	107.824716 
2791.000000	107.822516 
2790.000000	107.822939 
2789.000000	107.825803 
2788.000000	107.829610 
2787.000000	107.832860 
2786.000000	107.835118 
2785.000000	107.836529 
2784.000000	107.837008 
2783.000000	107.836369 
2782.000000	107.834856 
2781.000000	107.833167 
2780.000000	107.832034 
2779.000000	107.831885 
2778.000000	107.832659 
2777.000000	107.833770 
2776.000000	107.834414 
2775.000000	107.834161 
2774.000000	107.833190 
2773.000000	107.832010 
2772.000000	107.831045 
2771.000000	107.830388 
2770.000000	107.829799 
2769.000000	107.829005 
2768.000000	107.828146 
2767.000000	107.827784 
2766.000000	107.828251 
2765.000000	107.829184 
2764.000000	107.829865 
2763.000000	107.829991 
2762.000000	107.829833 
2761.000000	107.829718 
2760.000000	107.829653 
2759.000000	107.829515 
2758.000000	107.829348 
2757.000000	107.829319 
2756.000000	107.829494 
2755.000000	107.829775 
2754.000000	107.829996 
2753.000000	107.830061 
2752.000000	107.829998 
2751.000000	107.829910 
2750.000000	107.829908 
2749.000000	107.830025 
2748.000000	107.830230 
2747.000000	107.830453 
2746.000000	107.830644 
2745.000000	107.830815 
2744.000000	107.830997 
2743.000000	107.831140 
2742.000000	107.831145 
2741.000000	107.830992 
2740.000000	107.830749 
2739.000000	107.830463 
2738.000000	107.830149 
2737.000000	107.829889 
2736.000000	107.829848 
2735.000000	107.830094 
2734.000000	107.830436 
2733.000000	107.830537 
2732.000000	107.830223 
2731.000000	107.829662 
2730.000000	107.829205 
2729.000000	107.829075 
2728.000000	107.829243 
2727.000000	107.829592 
2726.000000	107.830061 
2725.000000	107.830615 
2724.000000	107.831201 
2723.000000	107.831790 
2722.000000	107.832248 
2721.000000	107.832061 
2720.000000	107.830511 
2719.000000	107.827446 
2718.000000	107.823822 
2717.000000	107.821201 
2716.000000	107.820681 
2715.000000	107.822417 
2714.000000	107.825859 
2713.000000	107.830077 
2712.000000	107.833963 
2711.000000	107.836433 
2710.000000	107.836844 
2709.000000	107.835480 
2708.000000	107.833493 
2707.000000	107.832156 
2706.000000	107.831857 
2705.000000	107.831776 
2704.000000	107.830786 
2703.000000	107.828682 
2702.000000	107.826270 
2701.000000	107.824318 
2700.000000	107.822834 
2699.000000	107.821500 
2698.000000	107.820368 
2697.000000	107.819833 
2696.000000	107.820111 
2695.000000	107.820943 
2694.000000	107.821624 
2693.000000	107.821207 
2692.000000	107.819023 
2691.000000	107.815366 
2690.000000	107.811548 
2689.000000	107.808865 
2688.000000	107.807508 
2687.000000	107.806817 
2686.000000	107.806503 
2685.000000	107.807079 
2684.000000	107.808785 
2683.000000	107.810593 
2682.000000	107.811087 
2681.000000	107.810346 
2680.000000	107.810075 
2679.000000	107.811414 
2678.000000	107.813360 
2677.000000	107.814104 
2676.000000	107.813502 
2675.000000	107.813061 
2674.000000	107.813747 
2673.000000	107.815206 
2672.000000	107.817242 
2671.000000	107.820510 
2670.000000	107.824866 
2669.000000	107.828250 
2668.000000	107.828574 
2667.000000	107.826142 
2666.000000	107.823377 
2665.000000	107.822404 
2664.000000	107.823675 
2663.000000	107.826672 
2662.000000	107.830725 
2661.000000	107.834923 
2660.000000	107.838309 
2659.000000	107.840646 
2658.000000	107.842334 
2657.000000	107.843426 
2656.000000	107.843352 
2655.000000	107.841976 
2654.000000	107.840331 
2653.000000	107.839744 
2652.000000	107.840518 
2651.000000	107.841906 
2650.000000	107.843059 
2649.000000	107.843769 
2648.000000	107.844404 
2647.000000	107.845399 
2646.000000	107.846824 
2645.000000	107.848374 
2644.000000	107.849715 
2643.000000	107.850743 
2642.000000	107.851498 
2641.000000	107.851977 
2640.000000	107.852220 
2639.000000	107.852479 
2638.000000	107.853024 
2637.000000	107.853751 
2636.000000	107.854235 
2635.000000	107.854308 
2634.000000	107.854385 
2633.000000	107.854986 
2632.000000	107.856097 
2631.000000	107.857273 
2630.000000	107.858226 
2629.000000	107.859042 
2628.000000	107.859816 
2627.000000	107.860459 
2626.000000	107.861009 
2625.000000	107.861816 
2624.000000	107.863099 
2623.000000	107.864489 
2622.000000	107.865299 
2621.000000	107.865288 
2620.000000	107.864965 
2619.000000	107.865158 
2618.000000	107.866220 
2617.000000	107.867723 
2616.000000	107.868831 
2615.000000	107.869090 
2614.000000	107.868740 
2613.000000	107.868418 
2612.000000	107.868481 
2611.000000	107.868754 
2610.000000	107.868987 
2609.000000	107.869352 
2608.000000	107.870197 
2607.000000	107.871312 
2606.000000	107.871836 
2605.000000	107.871178 
2604.000000	107.869834 
2603.000000	107.868966 
2602.000000	107.869091 
2601.000000	107.869753 
2600.000000	107.870481 
2599.000000	107.871561 
2598.000000	107.873416 
2597.000000	107.875768 
2596.000000	107.877950 
2595.000000	107.879809 
2594.000000	107.881727 
2593.000000	107.883815 
2592.000000	107.885534 
2591.000000	107.886279 
2590.000000	107.886077 
2589.000000	107.885671 
2588.000000	107.885993 
2587.000000	107.887508 
2586.000000	107.889878 
2585.000000	107.892123 
2584.000000	107.893359 
2583.000000	107.893479 
2582.000000	107.893067 
2581.000000	107.892755 
2580.000000	107.892786 
2579.000000	107.893305 
2578.000000	107.894652 
2577.000000	107.897026 
2576.000000	107.900011 
2575.000000	107.902677 
2574.000000	107.904453 
2573.000000	107.905632 
2572.000000	107.906955 
2571.000000	107.908835 
2570.000000	107.911070 
2569.000000	107.913189 
2568.000000	107.914907 
2567.000000	107.916246 
2566.000000	107.917432 
2565.000000	107.918816 
2564.000000	107.920666 
2563.000000	107.922793 
2562.000000	107.924511 
2561.000000	107.925292 
2560.000000	107.925342 
2559.000000	107.925439 
2558.000000	107.926161 
2557.000000	107.927464 
2556.000000	107.928940 
2555.000000	107.930247 
2554.000000	107.931258 
2553.000000	107.932023 
2552.000000	107.932771 
2551.000000	107.933864 
2550.000000	107.935494 
2549.000000	107.937419 
2548.000000	107.939105 
2547.000000	107.940272 
2546.000000	107.941177 
2545.000000	107.942318 
2544.000000	107.943840 
2543.000000	107.945293 
2542.000000	107.946090 
2541.000000	107.946173 
2540.000000	107.946169 
2539.000000	107.946768 
2538.000000	107.948030 
2537.000000	107.949458 
2536.000000	107.950607 
2535.000000	107.951398 
2534.000000	107.951828 
2533.000000	107.951780 
2532.000000	107.951334 
2531.000000	107.951031 
2530.000000	107.951439 
2529.000000	107.952617 
2528.000000	107.954230 
2527.000000	107.955984 
2526.000000	107.957685 
2525.000000	107.959064 
2524.000000	107.959982 
2523.000000	107.960783 
2522.000000	107.962082 
2521.000000	107.964118 
2520.000000	107.966419 
2519.000000	107.968115 
2518.000000	107.968595 
2517.000000	107.967929 
2516.000000	107.966930 
2515.000000	107.966599 
2514.000000	107.967210 
2513.000000	107.968186 
2512.000000	107.968906 
2511.000000	107.969429 
2510.000000	107.970138 
2509.000000	107.970989 
2508.000000	107.971658 
2507.000000	107.972201 
2506.000000	107.972932 
2505.000000	107.973713 
2504.000000	107.974063 
2503.000000	107.974038 
2502.000000	107.974356 
2501.000000	107.975419 
2500.000000	107.976828 
2499.000000	107.978060 
2498.000000	107.979143 
2497.000000	107.980247 
2496.000000	107.981079 
2495.000000	107.981247 
2494.000000	107.980964 
2493.000000	107.980920 
2492.000000	107.981462 
2491.000000	107.982377 
2490.000000	107.983387 
2489.000000	107.984462 
2488.000000	107.985670 
2487.000000	107.986970 
2486.000000	107.988271 
2485.000000	107.989554 
2484.000000	107.990805 
2483.000000	107.991923 
2482.000000	107.992788 
2481.000000	107.993412 
2480.000000	107.993987 
2479.000000	107.994717 
2478.000000	107.995597 
2477.000000	107.996414 
2476.000000	107.997040 
2475.000000	107.997635 
2474.000000	107.998480 
2473.000000	107.999650 
2472.000000	108.000980 
2471.000000	108.002361 
2470.000000	108.003898 
2469.000000	108.005630 
2468.000000	108.007266 
2467.000000	108.008404 
2466.000000	108.008970 
2465.000000	108.009312 
2464.000000	108.009892 
2463.000000	108.010867 
2462.000000	108.012019 
2461.000000	108.012992 
2460.000000	108.013636 
2459.000000	108.014153 
2458.000000	108.014884 
2457.000000	108.015947 
2456.000000	108.017168 
2455.000000	108.018359 
2454.000000	108.019550 
2453.000000	108.020858 
2452.000000	108.022205 
2451.000000	108.023307 
2450.000000	108.024029 
2449.000000	108.024670 
2448.000000	108.025803 
2447.000000	108.027754 
2446.000000	108.030256 
2445.000000	108.032523 
2444.000000	108.034058 
2443.000000	108.035129 
2442.000000	108.036375 
2441.000000	108.037874 
2440.000000	108.039086 
2439.000000	108.039702 
2438.000000	108.040040 
2437.000000	108.040489 
2436.000000	108.040963 
2435.000000	108.041243 
2434.000000	108.041525 
2433.000000	108.042287 
2432.000000	108.043778 
2431.000000	108.045923 
2430.000000	108.048503 
2429.000000	108.051135 
2428.000000	108.053206 
2427.000000	108.054171 
2426.000000	108.053994 
2425.000000	108.053250 
2424.000000	108.052814 
2423.000000	108.053323 
2422.000000	108.054670 
2421.000000	108.055959 
2420.000000	108.056338 
2419.000000	108.056109 
2418.000000	108.056604 
2417.000000	108.058789 
2416.000000	108.062458 
2415.000000	108.066794 
2414.000000	108.070981 
2413.000000	108.074043 
2412.000000	108.075089 
2411.000000	108.074537 
2410.000000	108.074364 
2409.000000	108.076135 
2408.000000	108.079047 
2407.000000	108.080950 
2406.000000	108.081089 
2405.000000	108.080540 
2404.000000	108.080157 
2403.000000	108.079492 
2402.000000	108.078159 
2401.000000	108.077118 
2400.000000	108.077643 
2399.000000	108.079548 
2398.000000	108.081265 
2397.000000	108.081515 
2396.000000	108.080208 
2395.000000	108.077998 
2394.000000	108.075729 
2393.000000	108.074205 
2392.000000	108.073951 
2391.000000	108.074784 
2390.000000	108.075744 
2389.000000	108.075904 
2388.000000	108.075194 
2387.000000	108.074170 
2386.000000	108.073171 
2385.000000	108.072145 
2384.000000	108.071216 
2383.000000	108.070930 
2382.000000	108.071633 
2381.000000	108.072918 
2380.000000	108.074127 
2379.000000	108.075151 
2378.000000	108.076353 
2377.000000	108.077740 
2376.000000	108.078725 
2375.000000	108.078885 
2374.000000	108.078656 
2373.000000	108.078932 
2372.000000	108.079920 
2371.000000	108.080842 
2370.000000	108.080945 
2369.000000	108.080348 
2368.000000	108.079644 
2367.000000	108.079111 
2366.000000	108.078828 
2365.000000	108.079251 
2364.000000	108.080931 
2363.000000	108.083522 
2362.000000	108.085770 
2361.000000	108.086778 
2360.000000	108.086505 
2359.000000	108.085349 
2358.000000	108.084017 
2357.000000	108.083728 
2356.000000	108.085663 
2355.000000	108.089748 
2354.000000	108.094744 
2353.000000	108.098544 
2352.000000	108.099609 
2351.000000	108.097814 
2350.000000	108.094239 
2349.000000	108.090805 
2348.000000	108.089227 
2347.000000	108.090029 
2346.000000	108.091057 
2345.000000	108.089273 
2344.000000	108.085403 
2343.000000	108.083391 
2342.000000	108.085994 
2341.000000	108.091189 
2340.000000	108.095204 
2339.000000	108.097275 
2338.000000	108.100217 
2337.000000	108.105938 
2336.000000	108.112062 
2335.000000	108.115513 
2334.000000	108.116310 
2333.000000	108.116644 
2332.000000	108.116187 
2331.000000	108.113162 
2330.000000	108.106153 
2329.000000	108.096954 
2328.000000	108.087407 
2327.000000	108.080380 
2326.000000	108.077386 
2325.000000	108.078558 
2324.000000	108.082141 
2323.000000	108.086359 
2322.000000	108.090769 
2321.000000	108.095472 
2320.000000	108.100437 
2319.000000	108.105698 
2318.000000	108.110567 
2317.000000	108.114292 
2316.000000	108.116105 
2315.000000	108.117696 
2314.000000	108.120819 
2313.000000	108.126008 
2312.000000	108.130211 
2311.000000	108.131009 
2310.000000	108.127936 
2309.000000	108.123322 
2308.000000	108.118802 
2307.000000	108.115179 
2306.000000	108.112566 
2305.000000	108.112301 
2304.000000	108.115650 
2303.000000	108.122650 
2302.000000	108.130690 
2301.000000	108.136632 
2300.000000	108.139007 
2299.000000	108.139338 
2298.000000	108.139742 
2297.000000	108.141493 
2296.000000	108.144108 
2295.000000	108.146722 
2294.000000	108.148419 
2293.000000	108.149089 
2292.000000	108.149361 
2291.000000	108.150349 
2290.000000	108.152555 
2289.000000	108.155590 
2288.000000	108.158787 
2287.000000	108.161836 
2286.000000	108.164694 
2285.000000	108.167135 
2284.000000	108.168914 
2283.000000	108.170039 
2282.000000	108.170835 
2281.000000	108.171746 
2280.000000	108.173142 
2279.000000	108.175063 
2278.000000	108.177156 
2277.000000	108.179033 
2276.000000	108.180747 
2275.000000	108.182667 
2274.000000	108.184771 
2273.000000	108.186449 
2272.000000	108.187276 
2271.000000	108.187561 
2270.000000	108.188041 
2269.000000	108.189125 
2268.000000	108.190670 
2267.000000	108.192330 
2266.000000	108.193833 
2265.000000	108.195121 
2264.000000	108.196292 
2263.000000	108.197480 
2262.000000	108.198734 
2261.000000	108.200020 
2260.000000	108.201305 
2259.000000	108.202602 
2258.000000	108.203936 
2257.000000	108.205280 
2256.000000	108.206586 
2255.000000	108.207828 
2254.000000	108.209004 
2253.000000	108.210118 
2252.000000	108.211187 
2251.000000	108.212243 
2250.000000	108.213302 
2249.000000	108.214363 
2248.000000	108.215426 
2247.000000	108.216488 
2246.000000	108.217551 
2245.000000	108.218614 
2244.000000	108.219680 
2243.000000	108.220754 
2242.000000	108.221843 
2241.000000	108.222940 
2240.000000	108.224035 
2239.000000	108.225117 
2238.000000	108.226189 
2237.000000	108.227257 
2236.000000	108.228326 
2235.000000	108.229394 
2234.000000	108.230462 
2233.000000	108.231535 
2232.000000	108.232619 
2231.000000	108.233718 
2230.000000	108.234829 
2229.000000	108.235949 
2228.000000	108.237074 
2227.000000	108.238205 
2226.000000	108.239349 
2225.000000	108.240511 
2224.000000	108.241695 
2223.000000	108.242897 
2222.000000	108.244110 
2221.000000	108.245324 
2220.000000	108.246533 
2219.000000	108.247736 
2218.000000	108.248936 
2217.000000	108.250136 
2216.000000	108.251336 
2215.000000	108.252535 
2214.000000	108.253730 
2213.000000	108.254922 
2212.000000	108.256113 
2211.000000	108.257309 
2210.000000	108.258519 
2209.000000	108.259748 
2208.000000	108.260994 
2207.000000	108.262250 
2206.000000	108.263504 
2205.000000	108.264746 
2204.000000	108.265971 
2203.000000	108.267184 
2202.000000	108.268391 
2201.000000	108.269599 
2200.000000	108.270813 
2199.000000	108.272035 
2198.000000	108.273272 
2197.000000	108.274519 
2196.000000	108.275771 
2195.000000	108.277017 
2194.000000	108.278255 
2193.000000	108.279486 
2192.000000	108.280709 
2191.000000	108.281924 
2190.000000	108.283127 
2189.000000	108.284319 
2188.000000	108.285508 
2187.000000	108.286703 
2186.000000	108.287904 
2185.000000	108.289100 
2184.000000	108.290270 
2183.000000	108.291401 
2182.000000	108.292492 
2181.000000	108.293550 
2180.000000	108.294586 
2179.000000	108.295608 
2178.000000	108.296622 
2177.000000	108.297628 
2176.000000	108.298622 
2175.000000	108.299605 
2174.000000	108.300576 
2173.000000	108.301537 
2172.000000	108.302494 
2171.000000	108.303457 
2170.000000	108.304436 
2169.000000	108.305440 
2168.000000	108.306462 
2167.000000	108.307486 
2166.000000	108.308493 
2165.000000	108.309474 
2164.000000	108.310431 
2163.000000	108.311369 
2162.000000	108.312300 
2161.000000	108.313228 
2160.000000	108.314148 
2159.000000	108.315056 
2158.000000	108.315966 
2157.000000	108.316888 
2156.000000	108.317800 
2155.000000	108.318640 
2154.000000	108.319369 
2153.000000	108.320019 
2152.000000	108.320665 
2151.000000	108.321365 
2150.000000	108.322147 
2149.000000	108.323036 
2148.000000	108.324041 
2147.000000	108.325102 
2146.000000	108.326092 
2145.000000	108.326887 
2144.000000	108.327484 
2143.000000	108.328025 
2142.000000	108.328662 
2141.000000	108.329427 
2140.000000	108.330249 
2139.000000	108.331075 
2138.000000	108.331939 
2137.000000	108.332919 
2136.000000	108.334059 
2135.000000	108.335308 
2134.000000	108.336485 
2133.000000	108.337370 
2132.000000	108.337943 
2131.000000	108.338469 
2130.000000	108.339261 
2129.000000	108.340329 
2128.000000	108.341397 
2127.000000	108.342211 
2126.000000	108.342713 
2125.000000	108.342962 
2124.000000	108.343033 
2123.000000	108.343087 
2122.000000	108.343365 
2121.000000	108.343965 
2120.000000	108.344786 
2119.000000	108.345621 
2118.000000	108.346314 
2117.000000	108.346847 
2116.000000	108.347302 
2115.000000	108.347771 
2114.000000	108.348290 
2113.000000	108.348842 
2112.000000	108.349417 
2111.000000	108.350017 
2110.000000	108.350617 
2109.000000	108.351156 
2108.000000	108.351610 
2107.000000	108.352026 
2106.000000	108.352478 
2105.000000	108.352990 
2104.000000	108.353518 
2103.000000	108.353992 
2102.000000	108.354382 
2101.000000	108.354741 
2100.000000	108.355169 
2099.000000	108.355712 
2098.000000	108.356310 
2097.000000	108.356847 
2096.000000	108.357279 
2095.000000	108.357686 
2094.000000	108.358176 
2093.000000	108.358739 
2092.000000	108.359268 
2091.000000	108.359717 
2090.000000	108.360106 
2089.000000	108.360391 
2088.000000	108.360524 
2087.000000	108.360669 
2086.000000	108.361110 
2085.000000	108.361836 
2084.000000	108.362534 
2083.000000	108.363093 
2082.000000	108.363775 
2081.000000	108.364737 
2080.000000	108.365781 
2079.000000	108.366801 
2078.000000	108.367993 
2077.000000	108.369239 
2076.000000	108.369849 
2075.000000	108.369434 
2074.000000	108.368578 
2073.000000	108.368142 
2072.000000	108.368182 
2071.000000	108.368035 
2070.000000	108.367265 
2069.000000	108.366123 
2068.000000	108.365295 
2067.000000	108.365503 
2066.000000	108.367193 
2065.000000	108.370153 
2064.000000	108.373421 
2063.000000	108.375879 
2062.000000	108.376962 
2061.000000	108.376728 
2060.000000	108.375515 
2059.000000	108.373703 
2058.000000	108.371558 
2057.000000	108.369229 
2056.000000	108.367028 
2055.000000	108.365657 
2054.000000	108.365829 
2053.000000	108.367581 
2052.000000	108.370212 
2051.000000	108.372937 
2050.000000	108.375430 
2049.000000	108.377669 
2048.000000	108.379502 
2047.000000	108.380489 
2046.000000	108.380051 
2045.000000	108.377835 
2044.000000	108.374259 
2043.000000	108.370664 
2042.000000	108.368470 
2041.000000	108.367933 
2040.000000	108.368063 
2039.000000	108.367917 
2038.000000	108.367684 
2037.000000	108.368230 
2036.000000	108.369984 
2035.000000	108.372552 
2034.000000	108.375052 
2033.000000	108.376635 
2032.000000	108.376965 
2031.000000	108.376365 
2030.000000	108.375425 
2029.000000	108.374475 
2028.000000	108.373532 
2027.000000	108.372734 
2026.000000	108.372411 
2025.000000	108.372614 
2024.000000	108.372865 
2023.000000	108.372597 
2022.000000	108.371814 
2021.000000	108.371066 
2020.000000	108.370828 
2019.000000	108.371017 
2018.000000	108.371151 
2017.000000	108.370902 
2016.000000	108.370475 
2015.000000	108.370403 
2014.000000	108.370961 
2013.000000	108.371895 
2012.000000	108.372694 
2011.000000	108.373065 
2010.000000	108.373067 
2009.000000	108.372870 
2008.000000	108.372540 
2007.000000	108.372077 
2006.000000	108.371526 
2005.000000	108.371021 
2004.000000	108.370761 
2003.000000	108.370919 
2002.000000	108.371515 
2001.000000	108.372321 
2000.000000	108.372945 
1999.000000	108.373100 
1998.000000	108.372704 
1997.000000	108.371865 
1996.000000	108.370933 
1995.000000	108.370383 
1994.000000	108.370487 
1993.000000	108.371090 
1992.000000	108.371731 
1991.000000	108.372192 
1990.000000	108.372646 
1989.000000	108.373233 
1988.000000	108.373825 
1987.000000	108.374263 
1986.000000	108.374622 
1985.000000	108.375078 
1984.000000	108.375671 
1983.000000	108.376320 
1982.000000	108.376993 
1981.000000	108.377614 
1980.000000	108.377979 
1979.000000	108.377952 
1978.000000	108.377744 
1977.000000	108.377865 
1976.000000	108.378633 
1975.000000	108.379824 
1974.000000	108.380850 
1973.000000	108.381345 
1972.000000	108.381479 
1971.000000	108.381711 
1970.000000	108.382286 
1969.000000	108.383003 
1968.000000	108.383427 
1967.000000	108.383375 
1966.000000	108.383242 
1965.000000	108.383774 
1964.000000	108.385378 
1963.000000	108.387674 
1962.000000	108.389851 
1961.000000	108.391576 
1960.000000	108.393230 
1959.000000	108.395053 
1958.000000	108.396496 
1957.000000	108.396924 
1956.000000	108.396482 
1955.000000	108.395694 
1954.000000	108.394538 
1953.000000	108.392848 
1952.000000	108.391195 
1951.000000	108.390541 
1950.000000	108.391117 
1949.000000	108.392052 
1948.000000	108.392508 
1947.000000	108.392737 
1946.000000	108.393582 
1945.000000	108.395383 
1944.000000	108.397610 
1943.000000	108.399275 
1942.000000	108.399501 
1941.000000	108.398210 
1940.000000	108.396552 
1939.000000	108.396066 
1938.000000	108.397196 
1937.000000	108.398937 
1936.000000	108.399924 
1935.000000	108.399657 
1934.000000	108.398694 
1933.000000	108.398166 
1932.000000	108.398536 
1931.000000	108.398775 
1930.000000	108.397265 
1929.000000	108.393500 
1928.000000	108.389674 
1927.000000	108.388804 
1926.000000	108.391388 
1925.000000	108.394735 
1924.000000	108.395845 
1923.000000	108.395003 
1922.000000	108.394620 
1921.000000	108.395435 
1920.000000	108.395946 
1919.000000	108.394463 
1918.000000	108.390579 
1917.000000	108.384921 
1916.000000	108.378825 
1915.000000	108.374319 
1914.000000	108.372209 
1913.000000	108.370955 
1912.000000	108.368619 
1911.000000	108.365617 
1910.000000	108.363889 
1909.000000	108.363326 
1908.000000	108.361887 
1907.000000	108.358372 
1906.000000	108.353641 
1905.000000	108.348812 
1904.000000	108.343988 
1903.000000	108.340088 
1902.000000	108.338645 
1901.000000	108.339098 
1900.000000	108.338891 
1899.000000	108.336207 
1898.000000	108.331509 
1897.000000	108.326193 
1896.000000	108.320869 
1895.000000	108.316078 
1894.000000	108.312770 
1893.000000	108.311228 
1892.000000	108.310812 
1891.000000	108.310895 
1890.000000	108.311255 
1889.000000	108.311583 
1888.000000	108.311481 
1887.000000	108.311169 
1886.000000	108.310812 
1885.000000	108.310030 
1884.000000	108.309219 
1883.000000	108.310025 
1882.000000	108.312715 
1881.000000	108.314550 
1880.000000	108.313324 
1879.000000	108.310593 
1878.000000	108.309349 
1877.000000	108.310161 
1876.000000	108.311297 
1875.000000	108.311991 
1874.000000	108.312997 
1873.000000	108.313610 
1872.000000	108.311441 
1871.000000	108.306029 
1870.000000	108.300728 
1869.000000	108.299467 
1868.000000	108.302147 
1867.000000	108.305710 
1866.000000	108.308438 
1865.000000	108.310219 
1864.000000	108.311162 
1863.000000	108.312189 
1862.000000	108.314841 
1861.000000	108.319029 
1860.000000	108.322609 
1859.000000	108.324280 
1858.000000	108.325169 
1857.000000	108.326614 
1856.000000	108.328292 
1855.000000	108.329496 
1854.000000	108.330663 
1853.000000	108.332033 
1852.000000	108.333156 
1851.000000	108.333688 
1850.000000	108.333658 
1849.000000	108.333491 
1848.000000	108.333527 
1847.000000	108.334038 
1846.000000	108.335206 
1845.000000	108.337275 
1844.000000	108.340742 
1843.000000	108.344951 
1842.000000	108.348174 
1841.000000	108.349651 
1840.000000	108.350139 
1839.000000	108.350694 
1838.000000	108.351804 
1837.000000	108.352893 
1836.000000	108.353022 
1835.000000	108.352219 
1834.000000	108.351014 
1833.000000	108.349774 
1832.000000	108.349633 
1831.000000	108.351766 
1830.000000	108.355352 
1829.000000	108.357284 
1828.000000	108.355286 
1827.000000	108.350901 
1826.000000	108.347208 
1825.000000	108.345774 
1824.000000	108.345962 
1823.000000	108.346831 
1822.000000	108.348831 
1821.000000	108.352185 
1820.000000	108.355664 
1819.000000	108.357908 
1818.000000	108.359510 
1817.000000	108.361499 
1816.000000	108.362674 
1815.000000	108.361591 
1814.000000	108.358390 
1813.000000	108.354388 
1812.000000	108.351131 
1811.000000	108.350764 
1810.000000	108.355771 
1809.000000	108.364296 
1808.000000	108.370497 
1807.000000	108.372862 
1806.000000	108.376011 
1805.000000	108.382388 
1804.000000	108.387354 
1803.000000	108.386714 
1802.000000	108.383213 
1801.000000	108.382949 
1800.000000	108.386637 
1799.000000	108.389827 
1798.000000	108.391135 
1797.000000	108.392142 
1796.000000	108.393122 
1795.000000	108.394145 
1794.000000	108.397009 
1793.000000	108.404478 
1792.000000	108.415834 
1791.000000	108.425342 
1790.000000	108.430029 
1789.000000	108.432401 
1788.000000	108.435953 
1787.000000	108.442990 
1786.000000	108.453988 
1785.000000	108.466083 
1784.000000	108.475104 
1783.000000	108.482273 
1782.000000	108.490222 
1781.000000	108.497049 
1780.000000	108.498510 
1779.000000	108.494470 
1778.000000	108.491239 
1777.000000	108.493156 
1776.000000	108.499519 
1775.000000	108.508775 
1774.000000	108.521124 
1773.000000	108.538004 
1772.000000	108.558557 
1771.000000	108.576109 
1770.000000	108.589146 
1769.000000	108.605025 
1768.000000	108.627249 
1767.000000	108.651198 
1766.000000	108.671570 
1765.000000	108.689111 
1764.000000	108.706439 
1763.000000	108.723656 
1762.000000	108.739836 
1761.000000	108.755213 
1760.000000	108.768877 
1759.000000	108.780396 
1758.000000	108.790955 
1757.000000	108.800207 
1756.000000	108.807032 
1755.000000	108.809982 
1754.000000	108.810494 
1753.000000	108.811810 
1752.000000	108.815084 
1751.000000	108.818547 
1750.000000	108.822126 
1749.000000	108.829189 
1748.000000	108.841061 
1747.000000	108.855156 
1746.000000	108.868730 
1745.000000	108.884962 
1744.000000	108.907427 
1743.000000	108.931872 
1742.000000	108.951941 
1741.000000	108.968671 
1740.000000	108.986584 
1739.000000	109.004149 
1738.000000	109.014638 
1737.000000	109.015789 
1736.000000	109.007021 
1735.000000	108.984072 
1734.000000	108.953455 
1733.000000	108.929757 
1732.000000	108.918389 
1731.000000	108.918753 
1730.000000	108.926726 
1729.000000	108.934016 
1728.000000	108.934263 
1727.000000	108.926394 
1726.000000	108.911775 
1725.000000	108.893916 
1724.000000	108.876213 
1723.000000	108.859588 
1722.000000	108.843780 
1721.000000	108.827023 
1720.000000	108.805945 
1719.000000	108.776309 
1718.000000	108.741385 
1717.000000	108.711981 
1716.000000	108.690225 
1715.000000	108.674056 
1714.000000	108.663337 
1713.000000	108.652485 
1712.000000	108.633336 
1711.000000	108.605627 
1710.000000	108.575380 
1709.000000	108.545909 
1708.000000	108.516497 
1707.000000	108.486851 
1706.000000	108.460166 
1705.000000	108.438562 
1704.000000	108.418687 
1703.000000	108.400794 
1702.000000	108.387531 
1701.000000	108.375523 
1700.000000	108.360590 
1699.000000	108.339941 
1698.000000	108.325109 
1697.000000	108.328118 
1696.000000	108.343471 
1695.000000	108.353853 
1694.000000	108.349475 
1693.000000	108.337096 
1692.000000	108.325446 
1691.000000	108.317715 
1690.000000	108.313520 
1689.000000	108.309382 
1688.000000	108.303693 
1687.000000	108.298929 
1686.000000	108.297468 
1685.000000	108.297838 
1684.000000	108.297920 
1683.000000	108.292911 
1682.000000	108.282424 
1681.000000	108.272283 
1680.000000	108.266280 
1679.000000	108.264730 
1678.000000	108.267532 
1677.000000	108.274124 
1676.000000	108.281544 
1675.000000	108.285739 
1674.000000	108.283654 
1673.000000	108.278909 
1672.000000	108.276482 
1671.000000	108.275797 
1670.000000	108.275735 
1669.000000	108.277751 
1668.000000	108.281215 
1667.000000	108.281731 
1666.000000	108.276173 
1665.000000	108.266153 
1664.000000	108.255892 
1663.000000	108.250771 
1662.000000	108.252046 
1661.000000	108.254968 
1660.000000	108.256912 
1659.000000	108.257922 
1658.000000	108.257658 
1657.000000	108.256431 
1656.000000	108.255634 
1655.000000	108.253312 
1654.000000	108.244802 
1653.000000	108.237123 
1652.000000	108.235156 
1651.000000	108.234322 
1650.000000	108.234582 
1649.000000	108.236700 
1648.000000	108.237705 
1647.000000	108.236057 
1646.000000	108.234182 
1645.000000	108.234370 
1644.000000	108.235885 
1643.000000	108.236782 
1642.000000	108.235130 
1641.000000	108.230005 
1640.000000	108.223312 
1639.000000	108.217936 
1638.000000	108.215466 
1637.000000	108.214495 
1636.000000	108.213529 
1635.000000	108.212654 
1634.000000	108.210205 
1633.000000	108.206254 
1632.000000	108.201844 
1631.000000	108.197600 
1630.000000	108.194098 
1629.000000	108.191985 
1628.000000	108.191186 
1627.000000	108.190437 
1626.000000	108.187367 
1625.000000	108.181081 
1624.000000	108.174301 
1623.000000	108.171493 
1622.000000	108.171790 
1621.000000	108.169801 
1620.000000	108.165419 
1619.000000	108.161940 
1618.000000	108.159902 
1617.000000	108.157413 
1616.000000	108.154636 
1615.000000	108.153100 
1614.000000	108.153863 
1613.000000	108.157067 
1612.000000	108.162403 
1611.000000	108.170298 
1610.000000	108.179612 
1609.000000	108.187437 
1608.000000	108.192956 
1607.000000	108.197641 
1606.000000	108.200423 
1605.000000	108.199347 
1604.000000	108.197246 
1603.000000	108.198685 
1602.000000	108.203634 
1601.000000	108.208077 
1600.000000	108.210013 
1599.000000	108.211637 
1598.000000	108.215175 
1597.000000	108.220375 
1596.000000	108.225830 
1595.000000	108.230891 
1594.000000	108.235407 
1593.000000	108.238858 
1592.000000	108.240992 
1591.000000	108.242350 
1590.000000	108.243371 
1589.000000	108.243889 
1588.000000	108.244123 
1587.000000	108.244945 
1586.000000	108.246776 
1585.000000	108.248751 
1584.000000	108.250357 
1583.000000	108.251961 
1582.000000	108.253769 
1581.000000	108.255846 
1580.000000	108.258466 
1579.000000	108.261603 
1578.000000	108.264557 
1577.000000	108.266642 
1576.000000	108.267954 
1575.000000	108.268991 
1574.000000	108.270078 
1573.000000	108.271356 
1572.000000	108.272779 
1571.000000	108.274221 
1570.000000	108.275602 
1569.000000	108.276909 
1568.000000	108.278145 
1567.000000	108.279311 
1566.000000	108.280411 
1565.000000	108.281448 
1564.000000	108.282420 
1563.000000	108.283321 
1562.000000	108.284141 
1561.000000	108.284875 
1560.000000	108.285536 
1559.000000	108.286165 
1558.000000	108.286798 
1557.000000	108.287420 
1556.000000	108.288009 
1555.000000	108.288559 
1554.000000	108.289079 
1553.000000	108.289579 
1552.000000	108.290069 
1551.000000	108.290555 
1550.000000	108.291034 
1549.000000	108.291485 
1548.000000	108.291901 
1547.000000	108.292308 
1546.000000	108.292746 
1545.000000	108.293266 
1544.000000	108.293930 
1543.000000	108.294718 
1542.000000	108.295458 
1541.000000	108.295911 
1540.000000	108.296123 
1539.000000	108.296507 
1538.000000	108.297077 
1537.000000	108.297684 
1536.000000	108.298302 
1535.000000	108.298793 
1534.000000	108.299109 
1533.000000	108.299769 
1532.000000	108.300953 
1531.000000	108.302025 
1530.000000	108.302623 
1529.000000	108.302878 
1528.000000	108.303219 
1527.000000	108.304361 
1526.000000	108.306619 
1525.000000	108.309426 
1524.000000	108.311792 
1523.000000	108.312687 
1522.000000	108.311853 
1521.000000	108.311008 
1520.000000	108.311945 
1519.000000	108.315066 
1518.000000	108.319854 
1517.000000	108.324859 
1516.000000	108.328299 
1515.000000	108.330033 
1514.000000	108.331855 
1513.000000	108.335479 
1512.000000	108.340519 
1511.000000	108.345150 
1510.000000	108.348768 
1509.000000	108.352291 
1508.000000	108.356242 
1507.000000	108.360283 
1506.000000	108.364181 
1505.000000	108.366135 
1504.000000	108.366366 
1503.000000	108.366585 
1502.000000	108.367382 
1501.000000	108.368694 
1500.000000	108.370765 
1499.000000	108.374513 
1498.000000	108.381344 
1497.000000	108.391927 
1496.000000	108.402398 
1495.000000	108.407554 
1494.000000	108.407785 
1493.000000	108.407520 
1492.000000	108.409926 
1491.000000	108.415485 
1490.000000	108.423126 
1489.000000	108.430665 
1488.000000	108.435463 
1487.000000	108.437959 
1486.000000	108.441960 
1485.000000	108.448204 
1484.000000	108.454208 
1483.000000	108.457856 
1482.000000	108.459018 
1481.000000	108.459788 
1480.000000	108.462326 
1479.000000	108.467705 
1478.000000	108.474959 
1477.000000	108.480527 
1476.000000	108.479970 
1475.000000	108.473742 
1474.000000	108.466983 
1473.000000	108.462869 
1472.000000	108.458944 
1471.000000	108.452100 
1470.000000	108.446212 
1469.000000	108.446358 
1468.000000	108.451154 
1467.000000	108.455682 
1466.000000	108.458753 
1465.000000	108.464939 
1464.000000	108.477089 
1463.000000	108.489618 
1462.000000	108.497701 
1461.000000	108.503126 
1460.000000	108.509926 
1459.000000	108.519568 
1458.000000	108.531621 
1457.000000	108.547985 
1456.000000	108.565675 
1455.000000	108.577824 
1454.000000	108.584889 
1453.000000	108.590198 
1452.000000	108.593928 
1451.000000	108.594876 
1450.000000	108.593791 
1449.000000	108.592958 
1448.000000	108.591356 
1447.000000	108.586825 
1446.000000	108.580269 
1445.000000	108.575719 
1444.000000	108.575280 
1443.000000	108.575131 
1442.000000	108.571824 
1441.000000	108.567660 
1440.000000	108.567383 
1439.000000	108.571383 
1438.000000	108.576624 
1437.000000	108.582318 
1436.000000	108.588681 
1435.000000	108.592670 
1434.000000	108.594043 
1433.000000	108.596918 
1432.000000	108.603607 
1431.000000	108.612256 
1430.000000	108.619303 
1429.000000	108.623764 
1428.000000	108.626503 
1427.000000	108.628957 
1426.000000	108.631760 
1425.000000	108.634685 
1424.000000	108.637838 
1423.000000	108.640659 
1422.000000	108.643590 
1421.000000	108.648104 
1420.000000	108.653536 
1419.000000	108.656029 
1418.000000	108.655378 
1417.000000	108.659626 
1416.000000	108.674411 
1415.000000	108.694437 
1414.000000	108.709676 
1413.000000	108.717027 
1412.000000	108.722248 
1411.000000	108.730536 
1410.000000	108.741039 
1409.000000	108.750864 
1408.000000	108.757484 
1407.000000	108.759531 
1406.000000	108.757929 
1405.000000	108.756392 
1404.000000	108.758288 
1403.000000	108.760839 
1402.000000	108.759004 
1401.000000	108.752034 
1400.000000	108.743985 
1399.000000	108.740997 
1398.000000	108.748056 
1397.000000	108.767940 
1396.000000	108.798783 
1395.000000	108.830527 
1394.000000	108.848826 
1393.000000	108.849809 
1392.000000	108.843146 
1391.000000	108.838334 
1390.000000	108.838523 
1389.000000	108.845293 
1388.000000	108.862372 
1387.000000	108.892291 
1386.000000	108.931118 
1385.000000	108.971557 
1384.000000	109.009046 
1383.000000	109.041007 
1382.000000	109.066169 
1381.000000	109.085157 
1380.000000	109.098588 
1379.000000	109.105842 
1378.000000	109.106742 
1377.000000	109.103444 
1376.000000	109.098924 
1375.000000	109.095008 
1374.000000	109.091902 
1373.000000	109.088809 
1372.000000	109.083592 
1371.000000	109.073792 
1370.000000	109.059540 
1369.000000	109.046311 
1368.000000	109.042079 
1367.000000	109.047091 
1366.000000	109.050996 
1365.000000	109.042541 
1364.000000	109.019850 
1363.000000	108.992340 
1362.000000	108.971501 
1361.000000	108.959471 
1360.000000	108.951310 
1359.000000	108.944957 
1358.000000	108.942476 
1357.000000	108.944278 
1356.000000	108.946761 
1355.000000	108.946412 
1354.000000	108.943794 
1353.000000	108.941621 
1352.000000	108.939279 
1351.000000	108.933685 
1350.000000	108.923647 
1349.000000	108.911167 
1348.000000	108.899393 
1347.000000	108.889666 
1346.000000	108.881820 
1345.000000	108.875685 
1344.000000	108.870722 
1343.000000	108.864642 
1342.000000	108.854234 
1341.000000	108.838730 
1340.000000	108.822034 
1339.000000	108.809554 
1338.000000	108.802100 
1337.000000	108.795696 
1336.000000	108.787513 
1335.000000	108.779470 
1334.000000	108.775652 
1333.000000	108.777597 
1332.000000	108.782723 
1331.000000	108.786741 
1330.000000	108.786979 
1329.000000	108.784045 
1328.000000	108.781143 
1327.000000	108.781810 
1326.000000	108.786767 
1325.000000	108.792527 
1324.000000	108.794041 
1323.000000	108.789012 
1322.000000	108.779715 
1321.000000	108.770692 
1320.000000	108.764843 
1319.000000	108.762250 
1318.000000	108.762177 
1317.000000	108.764630 
1316.000000	108.769031 
1315.000000	108.772589 
1314.000000	108.772217 
1313.000000	108.768354 
1312.000000	108.764971 
1311.000000	108.764890 
1310.000000	108.766640 
1309.000000	108.767204 
1308.000000	108.766452 
1307.000000	108.767241 
1306.000000	108.771230 
1305.000000	108.776371 
1304.000000	108.779232 
1303.000000	108.778588 
1302.000000	108.776297 
1301.000000	108.775167 
1300.000000	108.776197 
1299.000000	108.777626 
1298.000000	108.776837 
1297.000000	108.773545 
1296.000000	108.770670 
1295.000000	108.771241 
1294.000000	108.774711 
1293.000000	108.777564 
1292.000000	108.777568 
1291.000000	108.776204 
1290.000000	108.776253 
1289.000000	108.778016 
1288.000000	108.779072 
1287.000000	108.777367 
1286.000000	108.773604 
1285.000000	108.770585 
1284.000000	108.771034 
1283.000000	108.776003 
1282.000000	108.784340 
1281.000000	108.793239 
1280.000000	108.799675 
1279.000000	108.802176 
1278.000000	108.801538 
1277.000000	108.800164 
1276.000000	108.800782 
1275.000000	108.804989 
1274.000000	108.812094 
1273.000000	108.819619 
1272.000000	108.825547 
1271.000000	108.829926 
1270.000000	108.834081 
1269.000000	108.839316 
1268.000000	108.847246 
1267.000000	108.859804 
1266.000000	108.876918 
1265.000000	108.894453 
1264.000000	108.906286 
1263.000000	108.909536 
1262.000000	108.907234 
1261.000000	108.904938 
1260.000000	108.905253 
1259.000000	108.906404 
1258.000000	108.906069 
1257.000000	108.905422 
1256.000000	108.907979 
1255.000000	108.914654 
1254.000000	108.921674 
1253.000000	108.924617 
1252.000000	108.923393 
1251.000000	108.921528 
1250.000000	108.921098 
1249.000000	108.920357 
1248.000000	108.916461 
1247.000000	108.908703 
1246.000000	108.899105 
1245.000000	108.891953 
1244.000000	108.892589 
1243.000000	108.903307 
1242.000000	108.918901 
1241.000000	108.929582 
1240.000000	108.931461 
1239.000000	108.932528 
1238.000000	108.944956 
1237.000000	108.971836 
1236.000000	109.004570 
1235.000000	109.033611 
1234.000000	109.058447 
1233.000000	109.084612 
1232.000000	109.112487 
1231.000000	109.132574 
1230.000000	109.133466 
1229.000000	109.113065 
1228.000000	109.079913 
1227.000000	109.043260 
1226.000000	109.002981 
1225.000000	108.950865 
1224.000000	108.882329 
1223.000000	108.806010 
1222.000000	108.741119 
1221.000000	108.704848 
1220.000000	108.700338 
1219.000000	108.712437 
1218.000000	108.713693 
1217.000000	108.679214 
1216.000000	108.601265 
1215.000000	108.492542 
1214.000000	108.375498 
1213.000000	108.267091 
1212.000000	108.172505 
1211.000000	108.089295 
1210.000000	108.012982 
1209.000000	107.939614 
1208.000000	107.867104 
1207.000000	107.795585 
1206.000000	107.725369 
1205.000000	107.654595 
1204.000000	107.579604 
1203.000000	107.496900 
1202.000000	107.404532 
1201.000000	107.303825 
1200.000000	107.200983 
1199.000000	107.104213 
1198.000000	107.016659 
1197.000000	106.934049 
1196.000000	106.851019 
1195.000000	106.766883 
1194.000000	106.683158 
1193.000000	106.599300 
1192.000000	106.514818 
1191.000000	106.432635 
1190.000000	106.355751 
1189.000000	106.282373 
1188.000000	106.208528 
1187.000000	106.133713 
1186.000000	106.059423 
1185.000000	105.983602 
1184.000000	105.902161 
1183.000000	105.816639 
1182.000000	105.735475 
1181.000000	105.665203 
1180.000000	105.602648 
1179.000000	105.537310 
1178.000000	105.460163 
1177.000000	105.369449 
1176.000000	105.269291 
1175.000000	105.164556 
1174.000000	105.057836 
1173.000000	104.950949 
1172.000000	104.847347 
1171.000000	104.750238 
1170.000000	104.658527 
1169.000000	104.567836 
1168.000000	104.476408 
1167.000000	104.387524 
1166.000000	104.306635 
1165.000000	104.240692 
1164.000000	104.200747 
1163.000000	104.198761 
1162.000000	104.237328 
1161.000000	104.304351 
1160.000000	104.379444 
1159.000000	104.443776 
1158.000000	104.484429 
1157.000000	104.494930 
1156.000000	104.475519 
1155.000000	104.431624 
1154.000000	104.369882 
1153.000000	104.295701 
1152.000000	104.214066 
1151.000000	104.129570 
1150.000000	104.044509 
1149.000000	103.959639 
1148.000000	103.877294 
1147.000000	103.800060 
1146.000000	103.725585 
1145.000000	103.647477 
1144.000000	103.563461 
1143.000000	103.478678 
1142.000000	103.398826 
1141.000000	103.323769 
1140.000000	103.249819 
1139.000000	103.174168 
1138.000000	103.094872 
1137.000000	103.010576 
1136.000000	102.922827 
1135.000000	102.835582 
1134.000000	102.750604 
1133.000000	102.666353 
1132.000000	102.581891 
1131.000000	102.497280 
1130.000000	102.409452 
1129.000000	102.313410 
1128.000000	102.209370 
1127.000000	102.103659 
1126.000000	102.001066 
1125.000000	101.901796 
1124.000000	101.807001 
1123.000000	101.720036 
1122.000000	101.639761 
1121.000000	101.560111 
1120.000000	101.479836 
1119.000000	101.405495 
1118.000000	101.340650 
1117.000000	101.278836 
1116.000000	101.211386 
1115.000000	101.136731 
1114.000000	101.058836 
1113.000000	100.982723 
1112.000000	100.914798 
1111.000000	100.860440 
1110.000000	100.816596 
1109.000000	100.772742 
1108.000000	100.722959 
1107.000000	100.671091 
1106.000000	100.621690 
1105.000000	100.573460 
1104.000000	100.525399 
1103.000000	100.482178 
1102.000000	100.447967 
1101.000000	100.421046 
1100.000000	100.398606 
1099.000000	100.381043 
1098.000000	100.367212 
1097.000000	100.350592 
1096.000000	100.325189 
1095.000000	100.291345 
1094.000000	100.252215 
1093.000000	100.208097 
1092.000000	100.157643 
1091.000000	100.101596 
1090.000000	100.042593 
1089.000000	99.983616  
1088.000000	99.927581  
1087.000000	99.875443  
1086.000000	99.824692  
1085.000000	99.773359  
1084.000000	99.724500  
1083.000000	99.681787  
1082.000000	99.642058  
1081.000000	99.598550  
1080.000000	99.550647  
1079.000000	99.503539  
1078.000000	99.458672  
1077.000000	99.411604  
1076.000000	99.359123  
1075.000000	99.300889  
1074.000000	99.233565  
1073.000000	99.150824  
1072.000000	99.050852  
1071.000000	98.938901  
1070.000000	98.822757  
1069.000000	98.709566  
1068.000000	98.602896  
1067.000000	98.494808  
1066.000000	98.364774  
1065.000000	98.198516  
1064.000000	98.008599  
1063.000000	97.828065  
1062.000000	97.684164  
1061.000000	97.585503  
1060.000000	97.529338  
1059.000000	97.505904  
1058.000000	97.495268  
1057.000000	97.475033  
1056.000000	97.435778  
1055.000000	97.380796  
1054.000000	97.311395  
1053.000000	97.221928  
1052.000000	97.107011  
1051.000000	96.961321  
1050.000000	96.774893  
1049.000000	96.544366  
1048.000000	96.287204  
1047.000000	96.027522  
1046.000000	95.769022  
1045.000000	95.499066  
1044.000000	95.216649  
1043.000000	94.936716  
1042.000000	94.666407  
1041.000000	94.397522  
1040.000000	94.127631  
1039.000000	93.869784  
1038.000000	93.634000  
1037.000000	93.415995  
1036.000000	93.211178  
1035.000000	93.023348  
1034.000000	92.853104  
1033.000000	92.695305  
1032.000000	92.556206  
1031.000000	92.456038  
1030.000000	92.403830  
1029.000000	92.381623  
1028.000000	92.360617  
1027.000000	92.322622  
1026.000000	92.262908  
1025.000000	92.187484  
1024.000000	92.114437  
1023.000000	92.063964  
1022.000000	92.037995  
1021.000000	92.018357  
1020.000000	91.989027  
1019.000000	91.949608  
1018.000000	91.905639  
1017.000000	91.860392  
1016.000000	91.820076  
1015.000000	91.792476  
1014.000000	91.774440  
1013.000000	91.752269  
1012.000000	91.718431  
1011.000000	91.676996  
1010.000000	91.631856  
1009.000000	91.583911  
1008.000000	91.541766  
1007.000000	91.519067  
1006.000000	91.516005  
1005.000000	91.517083  
1004.000000	91.511876  
1003.000000	91.505458  
1002.000000	91.505191  
1001.000000	91.511042  
1000.000000	91.523226  
999.000000	 91.546317  
998.000000	 91.580794  
997.000000	 91.621241  
996.000000	 91.665785  
995.000000	 91.716642  
994.000000	 91.770221  
993.000000	 91.818818  
992.000000	 91.863569  
991.000000	 91.913609  
990.000000	 91.971281  
989.000000	 92.030447  
988.000000	 92.090409  
987.000000	 92.159062  
986.000000	 92.241100  
985.000000	 92.334828  
984.000000	 92.440795  
983.000000	 92.562354  
982.000000	 92.698340  
981.000000	 92.845970  
980.000000	 93.008198  
979.000000	 93.185953  
978.000000	 93.367394  
977.000000	 93.539708  
976.000000	 93.708487  
975.000000	 93.890020  
974.000000	 94.087487  
973.000000	 94.290807  
972.000000	 94.497078  
971.000000	 94.713314  
970.000000	 94.939618  
969.000000	 95.167416  
968.000000	 95.395110  
967.000000	 95.628767  
966.000000	 95.866127  
965.000000	 96.096256  
964.000000	 96.317010  
963.000000	 96.537378  
962.000000	 96.759965  
961.000000	 96.975649  
960.000000	 97.178479  
959.000000	 97.372328  
958.000000	 97.559939  
957.000000	 97.738001  
956.000000	 97.906071  
955.000000	 98.068757  
954.000000	 98.226196  
953.000000	 98.372876  
952.000000	 98.507849  
951.000000	 98.636095  
950.000000	 98.758847  
949.000000	 98.872728  
948.000000	 98.978786  
947.000000	 99.081726  
946.000000	 99.180053  
945.000000	 99.267789  
944.000000	 99.345532  
943.000000	 99.418525  
942.000000	 99.484771  
941.000000	 99.538155  
940.000000	 99.583357  
939.000000	 99.633841  
938.000000	 99.693343  
937.000000	 99.752877  
936.000000	 99.808136  
935.000000	 99.865763  
934.000000	 99.929232  
933.000000	 99.992180  
932.000000	 100.050219 
931.000000	 100.107227 
930.000000	 100.165869 
929.000000	 100.223767 
928.000000	 100.282667 
927.000000	 100.348733 
926.000000	 100.419213 
925.000000	 100.481447 
924.000000	 100.531007 
923.000000	 100.579377 
922.000000	 100.637003 
921.000000	 100.698906 
920.000000	 100.753954 
919.000000	 100.799680 
918.000000	 100.841297 
917.000000	 100.883292 
916.000000	 100.928241 
915.000000	 100.978418 
914.000000	 101.034047 
913.000000	 101.095013 
912.000000	 101.166156 
911.000000	 101.254234 
910.000000	 101.358733 
909.000000	 101.473586 
908.000000	 101.598864 
907.000000	 101.742167 
906.000000	 101.907350 
905.000000	 102.090382 
904.000000	 102.286570 
903.000000	 102.492653 
902.000000	 102.701533 
901.000000	 102.905167 
900.000000	 103.103733 
899.000000	 103.302864 
898.000000	 103.502062 
897.000000	 103.696046 
896.000000	 103.887325 
895.000000	 104.084748 
894.000000	 104.286464 
893.000000	 104.475643 
892.000000	 104.638463 
891.000000	 104.778836 
890.000000	 104.912360 
889.000000	 105.053083 
888.000000	 105.208648 
887.000000	 105.379344 
886.000000	 105.556081 
885.000000	 105.725289 
884.000000	 105.880767 
883.000000	 106.026825 
882.000000	 106.167677 
881.000000	 106.298674 
880.000000	 106.409958 
879.000000	 106.494187 
878.000000	 106.550798 
877.000000	 106.590057 
876.000000	 106.634044 
875.000000	 106.703132 
874.000000	 106.795427 
873.000000	 106.887060 
872.000000	 106.958704 
871.000000	 107.016906 
870.000000	 107.085534 
869.000000	 107.181270 
868.000000	 107.301609 
867.000000	 107.431124 
866.000000	 107.553804 
865.000000	 107.662893 
864.000000	 107.763820 
863.000000	 107.866485 
862.000000	 107.971885 
861.000000	 108.068278 
860.000000	 108.143410 
859.000000	 108.198738 
858.000000	 108.248612 
857.000000	 108.306447 
856.000000	 108.374914 
855.000000	 108.449105 
854.000000	 108.524551 
853.000000	 108.598448 
852.000000	 108.664455 
851.000000	 108.712832 
850.000000	 108.741662 
849.000000	 108.766053 
848.000000	 108.807991 
847.000000	 108.872337 
846.000000	 108.937604 
845.000000	 108.975887 
844.000000	 108.978660 
843.000000	 108.958975 
842.000000	 108.933691 
841.000000	 108.910956 
840.000000	 108.891068 
839.000000	 108.867743 
838.000000	 108.827241 
837.000000	 108.757828 
836.000000	 108.666822 
835.000000	 108.582022 
834.000000	 108.528833 
833.000000	 108.507813 
832.000000	 108.498303 
831.000000	 108.480599 
830.000000	 108.451888 
829.000000	 108.425640 
828.000000	 108.420838 
827.000000	 108.448730 
826.000000	 108.502844 
825.000000	 108.560275 
824.000000	 108.596000 
823.000000	 108.599158 
822.000000	 108.578671 
821.000000	 108.554426 
820.000000	 108.539901 
819.000000	 108.529198 
818.000000	 108.501899 
817.000000	 108.444020 
816.000000	 108.362100 
815.000000	 108.272180 
814.000000	 108.177661 
813.000000	 108.064822 
812.000000	 107.916968 
811.000000	 107.721204 
810.000000	 107.460786 
809.000000	 107.116544 
808.000000	 106.687153 
807.000000	 106.201167 
806.000000	 105.698284 
805.000000	 105.201607 
804.000000	 104.715170 
803.000000	 104.241534 
802.000000	 103.792021 
801.000000	 103.385794 
800.000000	 103.049068 
799.000000	 102.809824 
798.000000	 102.682072 
797.000000	 102.656012 
796.000000	 102.707132 
795.000000	 102.809405 
794.000000	 102.938042 
793.000000	 103.071363 
792.000000	 103.199070 
791.000000	 103.322594 
790.000000	 103.439207 
789.000000	 103.528995 
788.000000	 103.563948 
787.000000	 103.529023 
786.000000	 103.430972 
785.000000	 103.288711 
784.000000	 103.119352 
783.000000	 102.932690 
782.000000	 102.735707 
781.000000	 102.542440 
780.000000	 102.379604 
779.000000	 102.278234 
778.000000	 102.256309 
777.000000	 102.310960 
776.000000	 102.426721 
775.000000	 102.586460 
774.000000	 102.775633 
773.000000	 102.983924 
772.000000	 103.205114 
771.000000	 103.430759 
770.000000	 103.644354 
769.000000	 103.828057 
768.000000	 103.976355 
767.000000	 104.098543 
766.000000	 104.207153 
765.000000	 104.307896 
764.000000	 104.400510 
763.000000	 104.483348 
762.000000	 104.554950 
761.000000	 104.615413 
760.000000	 104.668639 
759.000000	 104.720785 
758.000000	 104.775435 
757.000000	 104.832577 
756.000000	 104.891934 
755.000000	 104.953802 
754.000000	 105.017038 
753.000000	 105.081048 
752.000000	 105.150846 
751.000000	 105.235731 
750.000000	 105.339859 
749.000000	 105.455479 
748.000000	 105.567284 
747.000000	 105.664088 
746.000000	 105.747864 
745.000000	 105.831937 
744.000000	 105.928608 
743.000000	 106.038567 
742.000000	 106.154805 
741.000000	 106.275254 
740.000000	 106.405373 
739.000000	 106.546943 
738.000000	 106.690780 
737.000000	 106.823844 
736.000000	 106.938442 
735.000000	 107.031501 
734.000000	 107.102189 
733.000000	 107.156883 
732.000000	 107.210115 
731.000000	 107.272896 
730.000000	 107.343155 
729.000000	 107.412262 
728.000000	 107.477303 
727.000000	 107.539839 
726.000000	 107.596632 
725.000000	 107.642421 
724.000000	 107.679747 
723.000000	 107.716816 
722.000000	 107.757343 
721.000000	 107.801118 
720.000000	 107.852433 
719.000000	 107.916421 
718.000000	 107.986924 
717.000000	 108.049802 
716.000000	 108.099240 
715.000000	 108.141337 
714.000000	 108.179814 
713.000000	 108.207064 
712.000000	 108.214218 
711.000000	 108.202883 
710.000000	 108.182802 
709.000000	 108.162480 
708.000000	 108.145627 
707.000000	 108.132464 
706.000000	 108.117424 
705.000000	 108.089441 
704.000000	 108.037606 
703.000000	 107.952168 
702.000000	 107.822859 
701.000000	 107.642812 
700.000000	 107.413952 
699.000000	 107.144923 
698.000000	 106.845005 
697.000000	 106.534160 
696.000000	 106.261538 
695.000000	 106.094245 
694.000000	 106.076440 
693.000000	 106.198218 
692.000000	 106.403158 
691.000000	 106.626949 
690.000000	 106.829381 
689.000000	 106.998591 
688.000000	 107.137626 
687.000000	 107.252688 
686.000000	 107.352613 
685.000000	 107.448934 
684.000000	 107.549565 
683.000000	 107.655052 
682.000000	 107.762485 
681.000000	 107.871274 
680.000000	 107.979657 
679.000000	 108.078647 
678.000000	 108.154302 
677.000000	 108.199739 
676.000000	 108.230173 
675.000000	 108.273566 
674.000000	 108.343545 
673.000000	 108.429714 
672.000000	 108.518348 
671.000000	 108.615923 
670.000000	 108.740549 
669.000000	 108.880410 
668.000000	 108.952873 
667.000000	 108.922035 
666.000000	 108.872504 
665.000000	 108.863286 
664.000000	 108.900737 
663.000000	 108.973317 
662.000000	 109.054083 
661.000000	 109.111023 
660.000000	 109.132093 
659.000000	 109.131365 
658.000000	 109.128097 
657.000000	 109.123943 
656.000000	 109.113038 
655.000000	 109.099775 
654.000000	 109.092902 
653.000000	 109.090724 
652.000000	 109.082122 
651.000000	 109.057967 
650.000000	 109.022408 

