PE IR                   SPECTRUM    ASCII       PEDS        1.60        
  -1
~SP.SP
22/12/06
16:42:39.00
23/01/09
15:02:17.00
Administrator

650.000000
4









FRONTIER FT-IR,CPU32 MAIN 00.09.9951 07-SEPTEMBER-2011 11:49:41
MIR TGS
MIR
OPTKBR
90694
0.200000

4.000000
STRONG
RATIO
SPECTRUM
MAGNITUDE
MIRACLE ATR
DOUBLE

COMBINED


0


#HDR
-1
-1
#GR
CM-1
%T
0.00002384185791015625
0.0
4000.000000
-1.000000
3351
8
80.125509
74.332826
#DATA
4000.000000	79.270547 
3999.000000	79.269817 
3998.000000	79.266012 
3997.000000	79.259152 
3996.000000	79.251422 
3995.000000	79.245343 
3994.000000	79.242066 
3993.000000	79.241120 
3992.000000	79.240893 
3991.000000	79.240087 
3990.000000	79.238651 
3989.000000	79.237241 
3988.000000	79.236262 
3987.000000	79.235505 
3986.000000	79.234409 
3985.000000	79.232405 
3984.000000	79.229165 
3983.000000	79.224824 
3982.000000	79.220028 
3981.000000	79.215685 
3980.000000	79.212545 
3979.000000	79.210843 
3978.000000	79.210276 
3977.000000	79.210136 
3976.000000	79.209669 
3975.000000	79.208708 
3974.000000	79.207932 
3973.000000	79.208057 
3972.000000	79.208795 
3971.000000	79.209025 
3970.000000	79.207853 
3969.000000	79.205335 
3968.000000	79.202112 
3967.000000	79.198847 
3966.000000	79.195950 
3965.000000	79.193572 
3964.000000	79.191630 
3963.000000	79.189881 
3962.000000	79.188106 
3961.000000	79.186225 
3960.000000	79.184333 
3959.000000	79.182818 
3958.000000	79.182134 
3957.000000	79.182231 
3956.000000	79.182219 
3955.000000	79.181032 
3954.000000	79.178404 
3953.000000	79.174895 
3952.000000	79.171282 
3951.000000	79.167988 
3950.000000	79.165081 
3949.000000	79.162529 
3948.000000	79.160355 
3947.000000	79.158603 
3946.000000	79.157268 
3945.000000	79.156310 
3944.000000	79.155624 
3943.000000	79.154894 
3942.000000	79.153592 
3941.000000	79.151396 
3940.000000	79.148493 
3939.000000	79.145426 
3938.000000	79.142646 
3937.000000	79.140193 
3936.000000	79.137888 
3935.000000	79.135658 
3934.000000	79.133593 
3933.000000	79.131691 
3932.000000	79.129702 
3931.000000	79.127365 
3930.000000	79.124717 
3929.000000	79.122058 
3928.000000	79.119631 
3927.000000	79.117388 
3926.000000	79.115144 
3925.000000	79.112799 
3924.000000	79.110363 
3923.000000	79.107843 
3922.000000	79.105283 
3921.000000	79.102777 
3920.000000	79.100384 
3919.000000	79.098074 
3918.000000	79.095792 
3917.000000	79.093522 
3916.000000	79.091256 
3915.000000	79.088984 
3914.000000	79.086705 
3913.000000	79.084415 
3912.000000	79.082111 
3911.000000	79.079797 
3910.000000	79.077481 
3909.000000	79.075164 
3908.000000	79.072842 
3907.000000	79.070511 
3906.000000	79.068169 
3905.000000	79.065809 
3904.000000	79.063420 
3903.000000	79.060995 
3902.000000	79.058542 
3901.000000	79.056088 
3900.000000	79.053677 
3899.000000	79.051351 
3898.000000	79.049134 
3897.000000	79.047021 
3896.000000	79.044982 
3895.000000	79.042986 
3894.000000	79.041016 
3893.000000	79.039060 
3892.000000	79.037106 
3891.000000	79.035145 
3890.000000	79.033181 
3889.000000	79.031218 
3888.000000	79.029261 
3887.000000	79.027313 
3886.000000	79.025370 
3885.000000	79.023423 
3884.000000	79.021460 
3883.000000	79.019485 
3882.000000	79.017519 
3881.000000	79.015581 
3880.000000	79.013665 
3879.000000	79.011741 
3878.000000	79.009772 
3877.000000	79.007745 
3876.000000	79.005673 
3875.000000	79.003582 
3874.000000	79.001494 
3873.000000	78.999421 
3872.000000	78.997369 
3871.000000	78.995351 
3870.000000	78.993384 
3869.000000	78.991474 
3868.000000	78.989603 
3867.000000	78.987755 
3866.000000	78.985941 
3865.000000	78.984174 
3864.000000	78.982451 
3863.000000	78.980750 
3862.000000	78.979068 
3861.000000	78.977419 
3860.000000	78.975816 
3859.000000	78.974247 
3858.000000	78.972690 
3857.000000	78.971115 
3856.000000	78.969490 
3855.000000	78.967788 
3854.000000	78.966007 
3853.000000	78.964184 
3852.000000	78.962357 
3851.000000	78.960531 
3850.000000	78.958696 
3849.000000	78.956853 
3848.000000	78.955007 
3847.000000	78.953164 
3846.000000	78.951332 
3845.000000	78.949520 
3844.000000	78.947733 
3843.000000	78.945988 
3842.000000	78.944298 
3841.000000	78.942662 
3840.000000	78.941064 
3839.000000	78.939493 
3838.000000	78.937955 
3837.000000	78.936483 
3836.000000	78.935115 
3835.000000	78.933864 
3834.000000	78.932709 
3833.000000	78.931614 
3832.000000	78.930548 
3831.000000	78.929487 
3830.000000	78.928418 
3829.000000	78.927333 
3828.000000	78.926229 
3827.000000	78.925105 
3826.000000	78.923963 
3825.000000	78.922802 
3824.000000	78.921612 
3823.000000	78.920374 
3822.000000	78.919093 
3821.000000	78.917794 
3820.000000	78.916501 
3819.000000	78.915208 
3818.000000	78.913897 
3817.000000	78.912569 
3816.000000	78.911251 
3815.000000	78.909978 
3814.000000	78.908730 
3813.000000	78.907453 
3812.000000	78.906128 
3811.000000	78.904838 
3810.000000	78.903614 
3809.000000	78.902310 
3808.000000	78.900794 
3807.000000	78.899293 
3806.000000	78.898168 
3805.000000	78.897350 
3804.000000	78.896384 
3803.000000	78.895126 
3802.000000	78.893895 
3801.000000	78.893187 
3800.000000	78.892869 
3799.000000	78.892164 
3798.000000	78.890990 
3797.000000	78.890116 
3796.000000	78.890042 
3795.000000	78.890163 
3794.000000	78.889522 
3793.000000	78.888055 
3792.000000	78.886670 
3791.000000	78.885813 
3790.000000	78.884879 
3789.000000	78.883103 
3788.000000	78.880330 
3787.000000	78.876787 
3786.000000	78.872924 
3785.000000	78.869552 
3784.000000	78.867275 
3783.000000	78.865456 
3782.000000	78.862841 
3781.000000	78.859537 
3780.000000	78.857236 
3779.000000	78.857271 
3778.000000	78.858850 
3777.000000	78.859845 
3776.000000	78.859314 
3775.000000	78.858119 
3774.000000	78.857167 
3773.000000	78.856133 
3772.000000	78.854261 
3771.000000	78.851780 
3770.000000	78.849537 
3769.000000	78.847692 
3768.000000	78.845558 
3767.000000	78.842907 
3766.000000	78.840318 
3765.000000	78.838325 
3764.000000	78.836728 
3763.000000	78.834957 
3762.000000	78.832833 
3761.000000	78.830680 
3760.000000	78.828688 
3759.000000	78.826675 
3758.000000	78.824468 
3757.000000	78.822187 
3756.000000	78.819969 
3755.000000	78.817774 
3754.000000	78.815559 
3753.000000	78.813396 
3752.000000	78.811322 
3751.000000	78.809154 
3750.000000	78.806724 
3749.000000	78.804157 
3748.000000	78.801671 
3747.000000	78.799228 
3746.000000	78.796690 
3745.000000	78.794178 
3744.000000	78.792119 
3743.000000	78.790218 
3742.000000	78.787325 
3741.000000	78.783234 
3740.000000	78.779267 
3739.000000	78.776462 
3738.000000	78.774237 
3737.000000	78.771429 
3736.000000	78.768702 
3735.000000	78.767285 
3734.000000	78.766155 
3733.000000	78.763466 
3732.000000	78.760028 
3731.000000	78.757906 
3730.000000	78.756725 
3729.000000	78.754145 
3728.000000	78.749437 
3727.000000	78.744608 
3726.000000	78.741701 
3725.000000	78.739709 
3724.000000	78.736640 
3723.000000	78.732502 
3722.000000	78.727956 
3721.000000	78.723045 
3720.000000	78.717785 
3719.000000	78.712797 
3718.000000	78.708543 
3717.000000	78.704967 
3716.000000	78.700838 
3715.000000	78.695021 
3714.000000	78.688675 
3713.000000	78.683855 
3712.000000	78.680139 
3711.000000	78.675291 
3710.000000	78.668336 
3709.000000	78.660203 
3708.000000	78.651949 
3707.000000	78.644024 
3706.000000	78.636048 
3705.000000	78.627324 
3704.000000	78.617953 
3703.000000	78.608867 
3702.000000	78.600778 
3701.000000	78.593857 
3700.000000	78.587656 
3699.000000	78.581158 
3698.000000	78.574325 
3697.000000	78.568355 
3696.000000	78.562973 
3695.000000	78.555284 
3694.000000	78.543547 
3693.000000	78.530028 
3692.000000	78.517626 
3691.000000	78.505968 
3690.000000	78.493100 
3689.000000	78.481003 
3688.000000	78.474495 
3687.000000	78.473752 
3686.000000	78.473932 
3685.000000	78.472291 
3684.000000	78.470398 
3683.000000	78.469489 
3682.000000	78.467320 
3681.000000	78.460953 
3680.000000	78.451325 
3679.000000	78.440872 
3678.000000	78.429545 
3677.000000	78.416739 
3676.000000	78.406279 
3675.000000	78.403370 
3674.000000	78.405001 
3673.000000	78.402701 
3672.000000	78.395173 
3671.000000	78.387804 
3670.000000	78.384215 
3669.000000	78.382386 
3668.000000	78.378318 
3667.000000	78.372149 
3666.000000	78.366982 
3665.000000	78.364225 
3664.000000	78.362574 
3663.000000	78.360286 
3662.000000	78.357003 
3661.000000	78.353253 
3660.000000	78.349275 
3659.000000	78.344383 
3658.000000	78.338572 
3657.000000	78.333555 
3656.000000	78.331918 
3655.000000	78.332945 
3654.000000	78.332228 
3653.000000	78.327097 
3652.000000	78.319875 
3651.000000	78.314765 
3650.000000	78.313788 
3649.000000	78.316287 
3648.000000	78.320713 
3647.000000	78.325417 
3646.000000	78.328511 
3645.000000	78.329579 
3644.000000	78.330252 
3643.000000	78.332501 
3642.000000	78.335717 
3641.000000	78.336734 
3640.000000	78.333150 
3639.000000	78.326545 
3638.000000	78.321538 
3637.000000	78.320824 
3636.000000	78.323098 
3635.000000	78.325603 
3634.000000	78.327383 
3633.000000	78.328602 
3632.000000	78.328925 
3631.000000	78.328578 
3630.000000	78.329016 
3629.000000	78.331657 
3628.000000	78.334981 
3627.000000	78.334736 
3626.000000	78.329725 
3625.000000	78.323325 
3624.000000	78.318689 
3623.000000	78.315874 
3622.000000	78.313724 
3621.000000	78.312342 
3620.000000	78.312433 
3619.000000	78.313223 
3618.000000	78.313056 
3617.000000	78.311371 
3616.000000	78.309218 
3615.000000	78.308260 
3614.000000	78.309561 
3613.000000	78.312567 
3612.000000	78.315244 
3611.000000	78.315926 
3610.000000	78.315143 
3609.000000	78.314868 
3608.000000	78.315842 
3607.000000	78.316623 
3606.000000	78.315560 
3605.000000	78.312865 
3604.000000	78.310143 
3603.000000	78.308337 
3602.000000	78.307097 
3601.000000	78.305888 
3600.000000	78.304963 
3599.000000	78.304653 
3598.000000	78.305437 
3597.000000	78.307725 
3596.000000	78.311181 
3595.000000	78.314248 
3594.000000	78.315261 
3593.000000	78.313691 
3592.000000	78.310843 
3591.000000	78.309054 
3590.000000	78.310038 
3589.000000	78.313512 
3588.000000	78.316887 
3587.000000	78.317225 
3586.000000	78.313761 
3585.000000	78.308187 
3584.000000	78.302959 
3583.000000	78.299284 
3582.000000	78.296776 
3581.000000	78.294685 
3580.000000	78.292993 
3579.000000	78.292042 
3578.000000	78.291903 
3577.000000	78.292334 
3576.000000	78.293069 
3575.000000	78.293756 
3574.000000	78.293624 
3573.000000	78.291702 
3572.000000	78.287590 
3571.000000	78.282023 
3570.000000	78.276332 
3569.000000	78.271712 
3568.000000	78.268740 
3567.000000	78.267154 
3566.000000	78.266130 
3565.000000	78.265213 
3564.000000	78.264911 
3563.000000	78.266058 
3562.000000	78.268598 
3561.000000	78.271199 
3560.000000	78.272005 
3559.000000	78.269890 
3558.000000	78.265074 
3557.000000	78.259143 
3556.000000	78.254177 
3555.000000	78.251465 
3554.000000	78.250869 
3553.000000	78.251202 
3552.000000	78.251000 
3551.000000	78.249308 
3550.000000	78.245923 
3549.000000	78.241258 
3548.000000	78.235926 
3547.000000	78.230372 
3546.000000	78.225109 
3545.000000	78.221166 
3544.000000	78.219563 
3543.000000	78.220297 
3542.000000	78.222281 
3541.000000	78.224280 
3540.000000	78.225455 
3539.000000	78.225324 
3538.000000	78.223871 
3537.000000	78.221814 
3536.000000	78.220324 
3535.000000	78.219949 
3534.000000	78.220160 
3533.000000	78.219966 
3532.000000	78.218810 
3531.000000	78.216674 
3530.000000	78.213919 
3529.000000	78.211166 
3528.000000	78.208918 
3527.000000	78.206867 
3526.000000	78.204055 
3525.000000	78.200256 
3524.000000	78.196824 
3523.000000	78.195439 
3522.000000	78.196310 
3521.000000	78.198060 
3520.000000	78.199327 
3519.000000	78.199956 
3518.000000	78.200459 
3517.000000	78.200760 
3516.000000	78.200064 
3515.000000	78.197801 
3514.000000	78.194192 
3513.000000	78.189925 
3512.000000	78.185936 
3511.000000	78.183308 
3510.000000	78.182799 
3509.000000	78.184067 
3508.000000	78.185585 
3507.000000	78.185789 
3506.000000	78.184457 
3505.000000	78.182733 
3504.000000	78.181925 
3503.000000	78.182358 
3502.000000	78.183468 
3501.000000	78.184680 
3500.000000	78.185855 
3499.000000	78.186890 
3498.000000	78.187301 
3497.000000	78.186460 
3496.000000	78.184244 
3495.000000	78.181271 
3494.000000	78.178531 
3493.000000	78.176722 
3492.000000	78.175961 
3491.000000	78.175998 
3490.000000	78.176546 
3489.000000	78.177411 
3488.000000	78.178395 
3487.000000	78.179182 
3486.000000	78.179481 
3485.000000	78.179267 
3484.000000	78.178741 
3483.000000	78.177973 
3482.000000	78.176776 
3481.000000	78.175098 
3480.000000	78.173359 
3479.000000	78.172103 
3478.000000	78.171302 
3477.000000	78.170419 
3476.000000	78.169252 
3475.000000	78.168450 
3474.000000	78.168793 
3473.000000	78.170168 
3472.000000	78.171486 
3471.000000	78.171702 
3470.000000	78.170681 
3469.000000	78.169003 
3468.000000	78.167410 
3467.000000	78.166426 
3466.000000	78.166302 
3465.000000	78.167013 
3464.000000	78.168184 
3463.000000	78.169164 
3462.000000	78.169432 
3461.000000	78.168895 
3460.000000	78.167935 
3459.000000	78.167182 
3458.000000	78.167097 
3457.000000	78.167670 
3456.000000	78.168510 
3455.000000	78.169179 
3454.000000	78.169448 
3453.000000	78.169368 
3452.000000	78.169293 
3451.000000	78.169701 
3450.000000	78.170776 
3449.000000	78.172154 
3448.000000	78.173288 
3447.000000	78.174063 
3446.000000	78.174770 
3445.000000	78.175478 
3444.000000	78.175892 
3443.000000	78.175940 
3442.000000	78.176107 
3441.000000	78.176845 
3440.000000	78.177809 
3439.000000	78.178108 
3438.000000	78.177351 
3437.000000	78.176113 
3436.000000	78.175242 
3435.000000	78.174878 
3434.000000	78.174400 
3433.000000	78.173282 
3432.000000	78.171857 
3431.000000	78.170967 
3430.000000	78.170872 
3429.000000	78.170912 
3428.000000	78.170478 
3427.000000	78.170068 
3426.000000	78.170914 
3425.000000	78.173537 
3424.000000	78.177042 
3423.000000	78.179969 
3422.000000	78.181557 
3421.000000	78.181968 
3420.000000	78.181897 
3419.000000	78.182317 
3418.000000	78.183959 
3417.000000	78.186220 
3416.000000	78.187038 
3415.000000	78.184909 
3414.000000	78.181026 
3413.000000	78.178511 
3412.000000	78.178980 
3411.000000	78.180787 
3410.000000	78.181166 
3409.000000	78.179233 
3408.000000	78.176141 
3407.000000	78.173109 
3406.000000	78.170403 
3405.000000	78.167966 
3404.000000	78.165731 
3403.000000	78.163171 
3402.000000	78.159584 
3401.000000	78.155411 
3400.000000	78.152678 
3399.000000	78.153394 
3398.000000	78.157603 
3397.000000	78.163126 
3396.000000	78.167036 
3395.000000	78.167733 
3394.000000	78.165722 
3393.000000	78.162955 
3392.000000	78.161388 
3391.000000	78.161698 
3390.000000	78.163158 
3389.000000	78.164552 
3388.000000	78.165389 
3387.000000	78.166385 
3386.000000	78.168674 
3385.000000	78.172442 
3384.000000	78.176402 
3383.000000	78.178794 
3382.000000	78.178925 
3381.000000	78.177497 
3380.000000	78.175705 
3379.000000	78.174300 
3378.000000	78.173476 
3377.000000	78.173187 
3376.000000	78.173289 
3375.000000	78.173548 
3374.000000	78.173708 
3373.000000	78.173557 
3372.000000	78.172905 
3371.000000	78.171692 
3370.000000	78.170142 
3369.000000	78.168711 
3368.000000	78.167752 
3367.000000	78.167318 
3366.000000	78.167307 
3365.000000	78.167700 
3364.000000	78.168581 
3363.000000	78.169920 
3362.000000	78.171345 
3361.000000	78.172165 
3360.000000	78.171801 
3359.000000	78.170338 
3358.000000	78.168657 
3357.000000	78.167758 
3356.000000	78.167792 
3355.000000	78.167848 
3354.000000	78.166822 
3353.000000	78.164461 
3352.000000	78.161608 
3351.000000	78.159506 
3350.000000	78.158750 
3349.000000	78.159071 
3348.000000	78.159595 
3347.000000	78.159463 
3346.000000	78.158407 
3345.000000	78.156832 
3344.000000	78.155389 
3343.000000	78.154295 
3342.000000	78.153158 
3341.000000	78.151473 
3340.000000	78.149192 
3339.000000	78.146735 
3338.000000	78.144574 
3337.000000	78.142954 
3336.000000	78.141965 
3335.000000	78.141613 
3334.000000	78.141699 
3333.000000	78.141748 
3332.000000	78.141252 
3331.000000	78.140012 
3330.000000	78.138186 
3329.000000	78.135943 
3328.000000	78.133189 
3327.000000	78.129815 
3326.000000	78.126181 
3325.000000	78.123008 
3324.000000	78.120634 
3323.000000	78.118522 
3322.000000	78.115764 
3321.000000	78.112073 
3320.000000	78.108059 
3319.000000	78.104482 
3318.000000	78.101538 
3317.000000	78.099027 
3316.000000	78.096836 
3315.000000	78.094861 
3314.000000	78.092618 
3313.000000	78.089472 
3312.000000	78.085433 
3311.000000	78.081370 
3310.000000	78.078136 
3309.000000	78.075640 
3308.000000	78.073089 
3307.000000	78.069945 
3306.000000	78.066347 
3305.000000	78.062693 
3304.000000	78.059271 
3303.000000	78.056322 
3302.000000	78.054076 
3301.000000	78.052456 
3300.000000	78.050869 
3299.000000	78.048522 
3298.000000	78.044994 
3297.000000	78.040399 
3296.000000	78.035197 
3295.000000	78.029978 
3294.000000	78.025293 
3293.000000	78.021465 
3292.000000	78.018480 
3291.000000	78.016046 
3290.000000	78.013732 
3289.000000	78.011088 
3288.000000	78.007802 
3287.000000	78.003909 
3286.000000	77.999880 
3285.000000	77.996358 
3284.000000	77.993628 
3283.000000	77.991419 
3282.000000	77.989201 
3281.000000	77.986653 
3280.000000	77.983711 
3279.000000	77.980288 
3278.000000	77.976237 
3277.000000	77.971646 
3276.000000	77.966959 
3275.000000	77.962687 
3274.000000	77.959123 
3273.000000	77.956323 
3272.000000	77.954133 
3271.000000	77.952106 
3270.000000	77.949682 
3269.000000	77.946715 
3268.000000	77.943710 
3267.000000	77.941239 
3266.000000	77.939191 
3265.000000	77.936856 
3264.000000	77.933827 
3263.000000	77.930548 
3262.000000	77.927751 
3261.000000	77.925492 
3260.000000	77.923059 
3259.000000	77.919912 
3258.000000	77.916380 
3257.000000	77.913251 
3256.000000	77.910805 
3255.000000	77.908542 
3254.000000	77.905853 
3253.000000	77.902723 
3252.000000	77.899614 
3251.000000	77.896810 
3250.000000	77.894153 
3249.000000	77.891426 
3248.000000	77.888703 
3247.000000	77.886191 
3246.000000	77.883895 
3245.000000	77.881638 
3244.000000	77.879277 
3243.000000	77.876634 
3242.000000	77.873320 
3241.000000	77.869052 
3240.000000	77.864194 
3239.000000	77.859736 
3238.000000	77.856431 
3237.000000	77.854079 
3236.000000	77.851740 
3235.000000	77.848686 
3234.000000	77.845016 
3233.000000	77.841256 
3232.000000	77.837673 
3231.000000	77.834178 
3230.000000	77.830761 
3229.000000	77.827671 
3228.000000	77.825065 
3227.000000	77.822667 
3226.000000	77.819989 
3225.000000	77.816857 
3224.000000	77.813581 
3223.000000	77.810635 
3222.000000	77.808301 
3221.000000	77.806571 
3220.000000	77.805127 
3219.000000	77.803332 
3218.000000	77.800507 
3217.000000	77.796510 
3216.000000	77.792032 
3215.000000	77.788130 
3214.000000	77.785230 
3213.000000	77.782836 
3212.000000	77.780178 
3211.000000	77.776873 
3210.000000	77.772882 
3209.000000	77.768278 
3208.000000	77.763438 
3207.000000	77.759175 
3206.000000	77.756136 
3205.000000	77.754071 
3204.000000	77.752055 
3203.000000	77.749531 
3202.000000	77.746728 
3201.000000	77.743996 
3200.000000	77.741194 
3199.000000	77.738015 
3198.000000	77.734663 
3197.000000	77.731867 
3196.000000	77.730263 
3195.000000	77.729866 
3194.000000	77.730016 
3193.000000	77.729758 
3192.000000	77.728357 
3191.000000	77.725665 
3190.000000	77.722031 
3189.000000	77.717945 
3188.000000	77.713872 
3187.000000	77.710357 
3186.000000	77.707872 
3185.000000	77.706294 
3184.000000	77.704708 
3183.000000	77.702117 
3182.000000	77.698365 
3181.000000	77.694158 
3180.000000	77.690196 
3179.000000	77.686601 
3178.000000	77.683393 
3177.000000	77.681141 
3176.000000	77.680532 
3175.000000	77.681268 
3174.000000	77.681825 
3173.000000	77.680833 
3172.000000	77.678391 
3171.000000	77.675582 
3170.000000	77.672847 
3169.000000	77.669516 
3168.000000	77.665248 
3167.000000	77.661087 
3166.000000	77.658354 
3165.000000	77.656876 
3164.000000	77.655091 
3163.000000	77.651912 
3162.000000	77.647909 
3161.000000	77.644484 
3160.000000	77.642346 
3159.000000	77.641060 
3158.000000	77.639659 
3157.000000	77.637368 
3156.000000	77.633953 
3155.000000	77.629812 
3154.000000	77.625769 
3153.000000	77.622535 
3152.000000	77.620353 
3151.000000	77.619212 
3150.000000	77.619260 
3149.000000	77.620675 
3148.000000	77.623012 
3147.000000	77.624969 
3146.000000	77.625188 
3145.000000	77.623321 
3144.000000	77.620193 
3143.000000	77.616884 
3142.000000	77.613682 
3141.000000	77.610233 
3140.000000	77.606586 
3139.000000	77.603587 
3138.000000	77.602048 
3137.000000	77.601778 
3136.000000	77.601637 
3135.000000	77.600504 
3134.000000	77.598167 
3133.000000	77.595376 
3132.000000	77.593183 
3131.000000	77.592092 
3130.000000	77.591777 
3129.000000	77.591590 
3128.000000	77.591264 
3127.000000	77.590866 
3126.000000	77.590182 
3125.000000	77.588736 
3124.000000	77.586546 
3123.000000	77.584283 
3122.000000	77.582331 
3121.000000	77.580228 
3120.000000	77.577512 
3119.000000	77.574666 
3118.000000	77.572660 
3117.000000	77.571827 
3116.000000	77.571750 
3115.000000	77.571998 
3114.000000	77.572297 
3113.000000	77.572098 
3112.000000	77.570820 
3111.000000	77.568700 
3110.000000	77.566943 
3109.000000	77.566651 
3108.000000	77.567832 
3107.000000	77.569422 
3106.000000	77.570151 
3105.000000	77.569455 
3104.000000	77.567595 
3103.000000	77.565179 
3102.000000	77.562798 
3101.000000	77.560986 
3100.000000	77.560198 
3099.000000	77.560429 
3098.000000	77.560876 
3097.000000	77.560480 
3096.000000	77.558933 
3095.000000	77.556751 
3094.000000	77.554245 
3093.000000	77.551053 
3092.000000	77.547131 
3091.000000	77.543551 
3090.000000	77.541564 
3089.000000	77.541232 
3088.000000	77.541527 
3087.000000	77.541640 
3086.000000	77.541636 
3085.000000	77.541808 
3084.000000	77.542097 
3083.000000	77.542173 
3082.000000	77.541537 
3081.000000	77.539586 
3080.000000	77.536249 
3079.000000	77.532702 
3078.000000	77.530660 
3077.000000	77.530732 
3076.000000	77.532033 
3075.000000	77.533419 
3074.000000	77.534292 
3073.000000	77.534259 
3072.000000	77.533221 
3071.000000	77.532128 
3070.000000	77.532395 
3069.000000	77.533945 
3068.000000	77.534716 
3067.000000	77.532877 
3066.000000	77.528850 
3065.000000	77.524920 
3064.000000	77.523584 
3063.000000	77.526214 
3062.000000	77.531737 
3061.000000	77.536191 
3060.000000	77.535505 
3059.000000	77.529604 
3058.000000	77.522466 
3057.000000	77.517333 
3056.000000	77.513506 
3055.000000	77.509318 
3054.000000	77.506098 
3053.000000	77.506693 
3052.000000	77.510990 
3051.000000	77.515262 
3050.000000	77.516082 
3049.000000	77.513202 
3048.000000	77.508541 
3047.000000	77.503911 
3046.000000	77.500191 
3045.000000	77.497577 
3044.000000	77.495785 
3043.000000	77.494276 
3042.000000	77.492522 
3041.000000	77.490060 
3040.000000	77.486497 
3039.000000	77.481527 
3038.000000	77.474820 
3037.000000	77.466266 
3036.000000	77.456897 
3035.000000	77.449103 
3034.000000	77.444618 
3033.000000	77.442249 
3032.000000	77.439270 
3031.000000	77.435272 
3030.000000	77.432510 
3029.000000	77.431582 
3028.000000	77.429093 
3027.000000	77.421192 
3026.000000	77.407854 
3025.000000	77.392082 
3024.000000	77.375981 
3023.000000	77.359445 
3022.000000	77.342108 
3021.000000	77.324666 
3020.000000	77.308298 
3019.000000	77.294092 
3018.000000	77.282964 
3017.000000	77.274734 
3016.000000	77.267099 
3015.000000	77.256861 
3014.000000	77.242820 
3013.000000	77.226918 
3012.000000	77.212047 
3011.000000	77.199118 
3010.000000	77.186616 
3009.000000	77.172830 
3008.000000	77.158033 
3007.000000	77.144203 
3006.000000	77.132734 
3005.000000	77.123046 
3004.000000	77.113542 
3003.000000	77.103119 
3002.000000	77.091273 
3001.000000	77.078002 
3000.000000	77.064922 
2999.000000	77.055536 
2998.000000	77.052302 
2997.000000	77.053341 
2996.000000	77.053675 
2995.000000	77.049714 
2994.000000	77.040960 
2993.000000	77.027951 
2992.000000	77.011894 
2991.000000	76.997278 
2990.000000	76.991803 
2989.000000	77.001142 
2988.000000	77.024838 
2987.000000	77.058461 
2986.000000	77.097902 
2985.000000	77.139782 
2984.000000	77.179708 
2983.000000	77.213808 
2982.000000	77.242078 
2981.000000	77.267945 
2980.000000	77.293880 
2979.000000	77.318473 
2978.000000	77.337788 
2977.000000	77.348611 
2976.000000	77.350854 
2975.000000	77.348325 
2974.000000	77.346657 
2973.000000	77.348467 
2972.000000	77.349873 
2971.000000	77.343220 
2970.000000	77.323872 
2969.000000	77.294007 
2968.000000	77.260306 
2967.000000	77.229143 
2966.000000	77.203869 
2965.000000	77.184834 
2964.000000	77.170229 
2963.000000	77.157292 
2962.000000	77.144072 
2961.000000	77.130820 
2960.000000	77.119576 
2959.000000	77.112251 
2958.000000	77.109137 
2957.000000	77.109378 
2956.000000	77.112538 
2955.000000	77.118901 
2954.000000	77.127816 
2953.000000	77.136646 
2952.000000	77.142630 
2951.000000	77.145638 
2950.000000	77.147749 
2949.000000	77.149916 
2948.000000	77.150481 
2947.000000	77.147706 
2946.000000	77.142870 
2945.000000	77.139893 
2944.000000	77.142312 
2943.000000	77.151031 
2942.000000	77.164277 
2941.000000	77.179145 
2940.000000	77.193550 
2939.000000	77.207344 
2938.000000	77.221361 
2937.000000	77.235488 
2936.000000	77.248473 
2935.000000	77.259592 
2934.000000	77.269108 
2933.000000	77.276507 
2932.000000	77.279639 
2931.000000	77.276895 
2930.000000	77.269497 
2929.000000	77.260326 
2928.000000	77.250815 
2927.000000	77.240349 
2926.000000	77.228800 
2925.000000	77.218287 
2924.000000	77.211409 
2923.000000	77.207945 
2922.000000	77.204222 
2921.000000	77.196514 
2920.000000	77.184890 
2919.000000	77.172864 
2918.000000	77.162916 
2917.000000	77.153261 
2916.000000	77.139823 
2915.000000	77.120659 
2914.000000	77.097751 
2913.000000	77.075489 
2912.000000	77.058563 
2911.000000	77.049908 
2910.000000	77.048167 
2909.000000	77.047309 
2908.000000	77.041523 
2907.000000	77.031292 
2906.000000	77.022198 
2905.000000	77.016941 
2904.000000	77.011817 
2903.000000	77.003160 
2902.000000	76.994926 
2901.000000	76.995959 
2900.000000	77.009675 
2899.000000	77.029383 
2898.000000	77.044132 
2897.000000	77.048342 
2896.000000	77.045098 
2895.000000	77.041415 
2894.000000	77.041401 
2893.000000	77.043415 
2892.000000	77.043219 
2891.000000	77.039347 
2890.000000	77.034777 
2889.000000	77.033234 
2888.000000	77.035005 
2887.000000	77.037296 
2886.000000	77.038003 
2885.000000	77.037942 
2884.000000	77.039568 
2883.000000	77.044803 
2882.000000	77.054208 
2881.000000	77.066957 
2880.000000	77.080928 
2879.000000	77.093604 
2878.000000	77.103561 
2877.000000	77.110911 
2876.000000	77.115951 
2875.000000	77.117913 
2874.000000	77.115718 
2873.000000	77.110067 
2872.000000	77.104258 
2871.000000	77.102321 
2870.000000	77.106085 
2869.000000	77.113956 
2868.000000	77.122539 
2867.000000	77.129497 
2866.000000	77.134908 
2865.000000	77.140091 
2864.000000	77.145893 
2863.000000	77.152638 
2862.000000	77.161320 
2861.000000	77.173551 
2860.000000	77.189353 
2859.000000	77.205387 
2858.000000	77.216727 
2857.000000	77.221105 
2856.000000	77.220775 
2855.000000	77.219621 
2854.000000	77.219417 
2853.000000	77.219785 
2852.000000	77.220890 
2851.000000	77.223838 
2850.000000	77.227947 
2849.000000	77.229834 
2848.000000	77.227002 
2847.000000	77.221175 
2846.000000	77.216555 
2845.000000	77.215306 
2844.000000	77.216072 
2843.000000	77.216461 
2842.000000	77.215354 
2841.000000	77.213015 
2840.000000	77.210496 
2839.000000	77.209173 
2838.000000	77.209679 
2837.000000	77.210934 
2836.000000	77.211105 
2835.000000	77.209686 
2834.000000	77.207852 
2833.000000	77.206782 
2832.000000	77.206409 
2831.000000	77.205851 
2830.000000	77.204347 
2829.000000	77.201849 
2828.000000	77.199387 
2827.000000	77.198508 
2826.000000	77.199615 
2825.000000	77.201313 
2824.000000	77.202211 
2823.000000	77.202696 
2822.000000	77.203687 
2821.000000	77.204418 
2820.000000	77.203193 
2819.000000	77.200022 
2818.000000	77.196825 
2817.000000	77.195012 
2816.000000	77.194415 
2815.000000	77.194556 
2814.000000	77.195328 
2813.000000	77.196274 
2812.000000	77.196627 
2811.000000	77.196303 
2810.000000	77.195818 
2809.000000	77.195109 
2808.000000	77.193506 
2807.000000	77.191051 
2806.000000	77.188840 
2805.000000	77.187673 
2804.000000	77.186991 
2803.000000	77.185643 
2802.000000	77.183270 
2801.000000	77.180544 
2800.000000	77.178405 
2799.000000	77.177493 
2798.000000	77.177926 
2797.000000	77.179086 
2796.000000	77.179869 
2795.000000	77.179546 
2794.000000	77.178173 
2793.000000	77.176091 
2792.000000	77.173616 
2791.000000	77.171489 
2790.000000	77.170858 
2789.000000	77.172219 
2788.000000	77.174739 
2787.000000	77.177136 
2786.000000	77.179001 
2785.000000	77.180610 
2784.000000	77.181799 
2783.000000	77.181800 
2782.000000	77.180201 
2781.000000	77.177623 
2780.000000	77.175401 
2779.000000	77.174670 
2778.000000	77.175591 
2777.000000	77.177167 
2776.000000	77.177946 
2775.000000	77.177246 
2774.000000	77.175511 
2773.000000	77.173499 
2772.000000	77.171473 
2771.000000	77.169431 
2770.000000	77.167637 
2769.000000	77.166451 
2768.000000	77.165870 
2767.000000	77.165651 
2766.000000	77.165663 
2765.000000	77.165779 
2764.000000	77.165657 
2763.000000	77.165061 
2762.000000	77.164263 
2761.000000	77.163710 
2760.000000	77.163347 
2759.000000	77.162633 
2758.000000	77.161257 
2757.000000	77.159580 
2756.000000	77.158354 
2755.000000	77.158056 
2754.000000	77.158447 
2753.000000	77.158628 
2752.000000	77.157793 
2751.000000	77.156159 
2750.000000	77.154959 
2749.000000	77.155211 
2748.000000	77.156749 
2747.000000	77.158498 
2746.000000	77.159598 
2745.000000	77.159994 
2744.000000	77.159924 
2743.000000	77.159377 
2742.000000	77.158233 
2741.000000	77.156654 
2740.000000	77.155059 
2739.000000	77.153788 
2738.000000	77.152948 
2737.000000	77.152534 
2736.000000	77.152536 
2735.000000	77.152869 
2734.000000	77.153294 
2733.000000	77.153500 
2732.000000	77.153309 
2731.000000	77.152878 
2730.000000	77.152601 
2729.000000	77.152724 
2728.000000	77.153127 
2727.000000	77.153563 
2726.000000	77.153952 
2725.000000	77.154262 
2724.000000	77.154247 
2723.000000	77.153610 
2722.000000	77.152374 
2721.000000	77.150861 
2720.000000	77.149349 
2719.000000	77.147965 
2718.000000	77.146883 
2717.000000	77.146353 
2716.000000	77.146471 
2715.000000	77.147053 
2714.000000	77.147804 
2713.000000	77.148557 
2712.000000	77.149334 
2711.000000	77.150134 
2710.000000	77.150597 
2709.000000	77.150106 
2708.000000	77.148487 
2707.000000	77.146554 
2706.000000	77.145627 
2705.000000	77.146162 
2704.000000	77.147153 
2703.000000	77.147157 
2702.000000	77.145649 
2701.000000	77.143131 
2700.000000	77.140314 
2699.000000	77.137625 
2698.000000	77.135411 
2697.000000	77.134085 
2696.000000	77.133792 
2695.000000	77.134045 
2694.000000	77.133873 
2693.000000	77.132429 
2692.000000	77.129567 
2691.000000	77.126020 
2690.000000	77.123023 
2689.000000	77.121458 
2688.000000	77.121268 
2687.000000	77.121698 
2686.000000	77.122085 
2685.000000	77.122394 
2684.000000	77.122879 
2683.000000	77.123412 
2682.000000	77.123452 
2681.000000	77.122722 
2680.000000	77.121642 
2679.000000	77.120853 
2678.000000	77.120424 
2677.000000	77.119823 
2676.000000	77.118653 
2675.000000	77.117087 
2674.000000	77.115548 
2673.000000	77.114314 
2672.000000	77.113594 
2671.000000	77.113616 
2670.000000	77.114295 
2669.000000	77.114982 
2668.000000	77.114915 
2667.000000	77.113929 
2666.000000	77.112446 
2665.000000	77.111016 
2664.000000	77.109946 
2663.000000	77.109359 
2662.000000	77.109291 
2661.000000	77.109549 
2660.000000	77.109739 
2659.000000	77.109617 
2658.000000	77.109256 
2657.000000	77.108795 
2656.000000	77.108148 
2655.000000	77.107168 
2654.000000	77.105983 
2653.000000	77.104931 
2652.000000	77.104206 
2651.000000	77.103727 
2650.000000	77.103321 
2649.000000	77.102905 
2648.000000	77.102512 
2647.000000	77.102175 
2646.000000	77.101851 
2645.000000	77.101443 
2644.000000	77.100884 
2643.000000	77.100186 
2642.000000	77.099410 
2641.000000	77.098633 
2640.000000	77.097916 
2639.000000	77.097308 
2638.000000	77.096819 
2637.000000	77.096377 
2636.000000	77.095868 
2635.000000	77.095263 
2634.000000	77.094669 
2633.000000	77.094202 
2632.000000	77.093822 
2631.000000	77.093378 
2630.000000	77.092785 
2629.000000	77.092108 
2628.000000	77.091470 
2627.000000	77.090937 
2626.000000	77.090527 
2625.000000	77.090253 
2624.000000	77.090070 
2623.000000	77.089825 
2622.000000	77.089343 
2621.000000	77.088589 
2620.000000	77.087768 
2619.000000	77.087212 
2618.000000	77.087086 
2617.000000	77.087196 
2616.000000	77.087089 
2615.000000	77.086463 
2614.000000	77.085399 
2613.000000	77.084274 
2612.000000	77.083431 
2611.000000	77.082971 
2610.000000	77.082863 
2609.000000	77.083064 
2608.000000	77.083417 
2607.000000	77.083514 
2606.000000	77.082880 
2605.000000	77.081397 
2604.000000	77.079500 
2603.000000	77.077814 
2602.000000	77.076544 
2601.000000	77.075430 
2600.000000	77.074346 
2599.000000	77.073680 
2598.000000	77.073837 
2597.000000	77.074548 
2596.000000	77.075084 
2595.000000	77.075202 
2594.000000	77.075439 
2593.000000	77.076350 
2592.000000	77.077742 
2591.000000	77.078832 
2590.000000	77.078998 
2589.000000	77.078265 
2588.000000	77.077241 
2587.000000	77.076619 
2586.000000	77.076517 
2585.000000	77.076258 
2584.000000	77.075045 
2583.000000	77.072921 
2582.000000	77.070890 
2581.000000	77.069873 
2580.000000	77.069862 
2579.000000	77.070344 
2578.000000	77.071123 
2577.000000	77.072360 
2576.000000	77.073943 
2575.000000	77.075289 
2574.000000	77.075876 
2573.000000	77.075688 
2572.000000	77.075170 
2571.000000	77.074882 
2570.000000	77.075106 
2569.000000	77.075646 
2568.000000	77.075968 
2567.000000	77.075684 
2566.000000	77.074913 
2565.000000	77.074170 
2564.000000	77.073884 
2563.000000	77.074035 
2562.000000	77.074259 
2561.000000	77.074221 
2560.000000	77.073913 
2559.000000	77.073593 
2558.000000	77.073481 
2557.000000	77.073559 
2556.000000	77.073620 
2555.000000	77.073471 
2554.000000	77.073071 
2553.000000	77.072505 
2552.000000	77.071929 
2551.000000	77.071482 
2550.000000	77.071230 
2549.000000	77.071112 
2548.000000	77.070969 
2547.000000	77.070677 
2546.000000	77.070268 
2545.000000	77.069868 
2544.000000	77.069525 
2543.000000	77.069120 
2542.000000	77.068515 
2541.000000	77.067748 
2540.000000	77.067053 
2539.000000	77.066622 
2538.000000	77.066429 
2537.000000	77.066245 
2536.000000	77.065826 
2535.000000	77.065070 
2534.000000	77.063997 
2533.000000	77.062686 
2532.000000	77.061304 
2531.000000	77.060126 
2530.000000	77.059340 
2529.000000	77.058845 
2528.000000	77.058388 
2527.000000	77.057909 
2526.000000	77.057526 
2525.000000	77.057244 
2524.000000	77.056911 
2523.000000	77.056489 
2522.000000	77.056121 
2521.000000	77.055856 
2520.000000	77.055495 
2519.000000	77.054809 
2518.000000	77.053776 
2517.000000	77.052586 
2516.000000	77.051504 
2515.000000	77.050732 
2514.000000	77.050289 
2513.000000	77.049969 
2512.000000	77.049532 
2511.000000	77.048924 
2510.000000	77.048202 
2509.000000	77.047347 
2508.000000	77.046363 
2507.000000	77.045436 
2506.000000	77.044737 
2505.000000	77.044098 
2504.000000	77.043173 
2503.000000	77.041944 
2502.000000	77.040838 
2501.000000	77.040198 
2500.000000	77.039911 
2499.000000	77.039626 
2498.000000	77.039174 
2497.000000	77.038591 
2496.000000	77.037862 
2495.000000	77.036942 
2494.000000	77.035965 
2493.000000	77.035168 
2492.000000	77.034590 
2491.000000	77.034080 
2490.000000	77.033579 
2489.000000	77.033138 
2488.000000	77.032696 
2487.000000	77.032092 
2486.000000	77.031316 
2485.000000	77.030551 
2484.000000	77.029892 
2483.000000	77.029167 
2482.000000	77.028150 
2481.000000	77.026903 
2480.000000	77.025817 
2479.000000	77.025259 
2478.000000	77.025257 
2477.000000	77.025488 
2476.000000	77.025550 
2475.000000	77.025264 
2474.000000	77.024667 
2473.000000	77.023819 
2472.000000	77.022831 
2471.000000	77.022099 
2470.000000	77.022184 
2469.000000	77.023184 
2468.000000	77.024331 
2467.000000	77.024580 
2466.000000	77.023586 
2465.000000	77.021937 
2464.000000	77.020551 
2463.000000	77.019846 
2462.000000	77.019454 
2461.000000	77.018545 
2460.000000	77.016568 
2459.000000	77.013866 
2458.000000	77.011481 
2457.000000	77.010071 
2456.000000	77.009305 
2455.000000	77.008578 
2454.000000	77.008019 
2453.000000	77.008191 
2452.000000	77.008890 
2451.000000	77.008993 
2450.000000	77.007821 
2449.000000	77.006223 
2448.000000	77.005848 
2447.000000	77.007412 
2446.000000	77.009992 
2445.000000	77.011953 
2444.000000	77.012597 
2443.000000	77.012509 
2442.000000	77.012356 
2441.000000	77.011767 
2440.000000	77.009924 
2439.000000	77.006968 
2438.000000	77.004172 
2437.000000	77.002531 
2436.000000	77.001775 
2435.000000	77.001108 
2434.000000	77.000471 
2433.000000	77.000490 
2432.000000	77.001343 
2431.000000	77.002307 
2430.000000	77.002545 
2429.000000	77.001964 
2428.000000	77.001128 
2427.000000	77.000566 
2426.000000	77.000310 
2425.000000	77.000044 
2424.000000	76.999475 
2423.000000	76.998471 
2422.000000	76.996943 
2421.000000	76.994912 
2420.000000	76.992868 
2419.000000	76.991740 
2418.000000	76.992145 
2417.000000	76.993728 
2416.000000	76.995696 
2415.000000	76.997567 
2414.000000	76.999014 
2413.000000	76.999458 
2412.000000	76.998709 
2411.000000	76.997858 
2410.000000	76.998383 
2409.000000	77.000243 
2408.000000	77.001747 
2407.000000	77.001744 
2406.000000	77.001102 
2405.000000	77.001383 
2404.000000	77.002687 
2403.000000	77.003581 
2402.000000	77.002899 
2401.000000	77.000901 
2400.000000	76.998807 
2399.000000	76.997605 
2398.000000	76.997403 
2397.000000	76.997638 
2396.000000	76.997659 
2395.000000	76.997140 
2394.000000	76.996053 
2393.000000	76.994525 
2392.000000	76.992813 
2391.000000	76.991250 
2390.000000	76.990021 
2389.000000	76.989073 
2388.000000	76.988334 
2387.000000	76.987870 
2386.000000	76.987689 
2385.000000	76.987589 
2384.000000	76.987394 
2383.000000	76.987179 
2382.000000	76.987058 
2381.000000	76.986963 
2380.000000	76.986807 
2379.000000	76.986683 
2378.000000	76.986681 
2377.000000	76.986691 
2376.000000	76.986579 
2375.000000	76.986377 
2374.000000	76.986209 
2373.000000	76.986150 
2372.000000	76.986171 
2371.000000	76.986174 
2370.000000	76.986097 
2369.000000	76.985948 
2368.000000	76.985770 
2367.000000	76.985598 
2366.000000	76.985467 
2365.000000	76.985419 
2364.000000	76.985475 
2363.000000	76.985585 
2362.000000	76.985659 
2361.000000	76.985659 
2360.000000	76.985618 
2359.000000	76.985614 
2358.000000	76.985703 
2357.000000	76.985901 
2356.000000	76.986214 
2355.000000	76.986600 
2354.000000	76.986918 
2353.000000	76.987028 
2352.000000	76.986994 
2351.000000	76.987048 
2350.000000	76.987304 
2349.000000	76.987664 
2348.000000	76.987943 
2347.000000	76.988072 
2346.000000	76.988061 
2345.000000	76.987880 
2344.000000	76.987646 
2343.000000	76.987713 
2342.000000	76.988306 
2341.000000	76.988957 
2340.000000	76.989050 
2339.000000	76.988922 
2338.000000	76.989694 
2337.000000	76.991873 
2336.000000	76.994426 
2335.000000	76.995828 
2334.000000	76.995737 
2333.000000	76.995179 
2332.000000	76.994997 
2331.000000	76.994527 
2330.000000	76.992497 
2329.000000	76.989056 
2328.000000	76.985679 
2327.000000	76.983818 
2326.000000	76.983645 
2325.000000	76.984501 
2324.000000	76.985687 
2323.000000	76.986726 
2322.000000	76.987435 
2321.000000	76.987757 
2320.000000	76.987889 
2319.000000	76.988070 
2318.000000	76.988313 
2317.000000	76.988349 
2316.000000	76.987996 
2315.000000	76.987633 
2314.000000	76.987829 
2313.000000	76.988636 
2312.000000	76.989250 
2311.000000	76.988922 
2310.000000	76.987677 
2309.000000	76.986215 
2308.000000	76.984956 
2307.000000	76.983833 
2306.000000	76.982775 
2305.000000	76.982234 
2304.000000	76.982745 
2303.000000	76.984283 
2302.000000	76.986102 
2301.000000	76.987279 
2300.000000	76.987375 
2299.000000	76.986650 
2298.000000	76.985745 
2297.000000	76.985212 
2296.000000	76.985134 
2295.000000	76.985208 
2294.000000	76.985053 
2293.000000	76.984546 
2292.000000	76.983853 
2291.000000	76.983260 
2290.000000	76.982940 
2289.000000	76.982886 
2288.000000	76.982982 
2287.000000	76.983102 
2286.000000	76.983156 
2285.000000	76.983099 
2284.000000	76.982934 
2283.000000	76.982727 
2282.000000	76.982581 
2281.000000	76.982575 
2280.000000	76.982714 
2279.000000	76.982913 
2278.000000	76.983040 
2277.000000	76.983027 
2276.000000	76.982962 
2275.000000	76.983001 
2274.000000	76.983125 
2273.000000	76.983056 
2272.000000	76.982559 
2271.000000	76.981753 
2270.000000	76.981087 
2269.000000	76.980895 
2268.000000	76.981134 
2267.000000	76.981487 
2266.000000	76.981668 
2265.000000	76.981594 
2264.000000	76.981299 
2263.000000	76.980887 
2262.000000	76.980539 
2261.000000	76.980448 
2260.000000	76.980667 
2259.000000	76.981093 
2258.000000	76.981603 
2257.000000	76.982122 
2256.000000	76.982605 
2255.000000	76.982995 
2254.000000	76.983241 
2253.000000	76.983357 
2252.000000	76.983429 
2251.000000	76.983516 
2250.000000	76.983564 
2249.000000	76.983511 
2248.000000	76.983422 
2247.000000	76.983465 
2246.000000	76.983659 
2245.000000	76.983837 
2244.000000	76.983925 
2243.000000	76.984096 
2242.000000	76.984500 
2241.000000	76.984983 
2240.000000	76.985223 
2239.000000	76.985143 
2238.000000	76.984980 
2237.000000	76.984992 
2236.000000	76.985157 
2235.000000	76.985297 
2234.000000	76.985344 
2233.000000	76.985387 
2232.000000	76.985499 
2231.000000	76.985645 
2230.000000	76.985748 
2229.000000	76.985780 
2228.000000	76.985769 
2227.000000	76.985774 
2226.000000	76.985865 
2225.000000	76.986075 
2224.000000	76.986369 
2223.000000	76.986674 
2222.000000	76.986935 
2221.000000	76.987147 
2220.000000	76.987336 
2219.000000	76.987521 
2218.000000	76.987700 
2217.000000	76.987865 
2216.000000	76.988015 
2215.000000	76.988157 
2214.000000	76.988301 
2213.000000	76.988447 
2212.000000	76.988597 
2211.000000	76.988752 
2210.000000	76.988918 
2209.000000	76.989101 
2208.000000	76.989304 
2207.000000	76.989520 
2206.000000	76.989740 
2205.000000	76.989953 
2204.000000	76.990153 
2203.000000	76.990342 
2202.000000	76.990528 
2201.000000	76.990722 
2200.000000	76.990927 
2199.000000	76.991151 
2198.000000	76.991395 
2197.000000	76.991662 
2196.000000	76.991949 
2195.000000	76.992250 
2194.000000	76.992566 
2193.000000	76.992897 
2192.000000	76.993243 
2191.000000	76.993596 
2190.000000	76.993948 
2189.000000	76.994292 
2188.000000	76.994630 
2187.000000	76.994969 
2186.000000	76.995312 
2185.000000	76.995655 
2184.000000	76.995985 
2183.000000	76.996287 
2182.000000	76.996556 
2181.000000	76.996796 
2180.000000	76.997016 
2179.000000	76.997225 
2178.000000	76.997428 
2177.000000	76.997624 
2176.000000	76.997816 
2175.000000	76.998007 
2174.000000	76.998201 
2173.000000	76.998400 
2172.000000	76.998599 
2171.000000	76.998800 
2170.000000	76.999003 
2169.000000	76.999213 
2168.000000	76.999425 
2167.000000	76.999630 
2166.000000	76.999818 
2165.000000	76.999986 
2164.000000	77.000135 
2163.000000	77.000270 
2162.000000	77.000401 
2161.000000	77.000531 
2160.000000	77.000654 
2159.000000	77.000774 
2158.000000	77.000924 
2157.000000	77.001125 
2156.000000	77.001335 
2155.000000	77.001459 
2154.000000	77.001458 
2153.000000	77.001410 
2152.000000	77.001396 
2151.000000	77.001371 
2150.000000	77.001232 
2149.000000	77.000981 
2148.000000	77.000770 
2147.000000	77.000757 
2146.000000	77.000912 
2145.000000	77.001008 
2144.000000	77.000858 
2143.000000	77.000548 
2142.000000	77.000345 
2141.000000	77.000339 
2140.000000	77.000344 
2139.000000	77.000181 
2138.000000	76.999946 
2137.000000	76.999905 
2136.000000	77.000220 
2135.000000	77.000873 
2134.000000	77.001721 
2133.000000	77.002494 
2132.000000	77.002927 
2131.000000	77.003008 
2130.000000	77.002994 
2129.000000	77.003094 
2128.000000	77.003236 
2127.000000	77.003256 
2126.000000	77.003132 
2125.000000	77.002920 
2124.000000	77.002628 
2123.000000	77.002334 
2122.000000	77.002252 
2121.000000	77.002504 
2120.000000	77.002962 
2119.000000	77.003377 
2118.000000	77.003635 
2117.000000	77.003791 
2116.000000	77.003914 
2115.000000	77.004029 
2114.000000	77.004173 
2113.000000	77.004417 
2112.000000	77.004796 
2111.000000	77.005260 
2110.000000	77.005702 
2109.000000	77.006032 
2108.000000	77.006222 
2107.000000	77.006344 
2106.000000	77.006560 
2105.000000	77.007002 
2104.000000	77.007633 
2103.000000	77.008224 
2102.000000	77.008540 
2101.000000	77.008572 
2100.000000	77.008609 
2099.000000	77.008982 
2098.000000	77.009735 
2097.000000	77.010543 
2096.000000	77.011059 
2095.000000	77.011298 
2094.000000	77.011548 
2093.000000	77.011890 
2092.000000	77.012086 
2091.000000	77.012065 
2090.000000	77.012180 
2089.000000	77.012712 
2088.000000	77.013471 
2087.000000	77.014142 
2086.000000	77.014696 
2085.000000	77.015117 
2084.000000	77.015170 
2083.000000	77.014927 
2082.000000	77.015122 
2081.000000	77.016397 
2080.000000	77.018452 
2079.000000	77.020430 
2078.000000	77.021982 
2077.000000	77.023249 
2076.000000	77.024095 
2075.000000	77.024236 
2074.000000	77.024059 
2073.000000	77.024393 
2072.000000	77.025289 
2071.000000	77.025922 
2070.000000	77.025816 
2069.000000	77.025396 
2068.000000	77.025106 
2067.000000	77.024777 
2066.000000	77.024254 
2065.000000	77.023974 
2064.000000	77.024379 
2063.000000	77.025219 
2062.000000	77.025910 
2061.000000	77.026244 
2060.000000	77.026321 
2059.000000	77.026092 
2058.000000	77.025377 
2057.000000	77.024194 
2056.000000	77.022761 
2055.000000	77.021308 
2054.000000	77.020226 
2053.000000	77.020213 
2052.000000	77.021746 
2051.000000	77.024416 
2050.000000	77.027039 
2049.000000	77.028721 
2048.000000	77.029565 
2047.000000	77.030098 
2046.000000	77.030284 
2045.000000	77.029524 
2044.000000	77.027621 
2043.000000	77.025369 
2042.000000	77.023977 
2041.000000	77.023996 
2040.000000	77.025010 
2039.000000	77.026215 
2038.000000	77.027148 
2037.000000	77.027875 
2036.000000	77.028713 
2035.000000	77.029849 
2034.000000	77.031128 
2033.000000	77.032265 
2032.000000	77.033249 
2031.000000	77.034312 
2030.000000	77.035406 
2029.000000	77.035970 
2028.000000	77.035534 
2027.000000	77.034457 
2026.000000	77.033714 
2025.000000	77.033948 
2024.000000	77.034817 
2023.000000	77.035432 
2022.000000	77.035208 
2021.000000	77.034281 
2020.000000	77.033241 
2019.000000	77.032548 
2018.000000	77.032189 
2017.000000	77.031912 
2016.000000	77.031794 
2015.000000	77.032355 
2014.000000	77.033914 
2013.000000	77.036042 
2012.000000	77.037885 
2011.000000	77.039010 
2010.000000	77.039624 
2009.000000	77.039999 
2008.000000	77.040017 
2007.000000	77.039443 
2006.000000	77.038361 
2005.000000	77.037205 
2004.000000	77.036444 
2003.000000	77.036351 
2002.000000	77.036898 
2001.000000	77.037732 
2000.000000	77.038380 
1999.000000	77.038452 
1998.000000	77.037828 
1997.000000	77.036745 
1996.000000	77.035848 
1995.000000	77.035823 
1994.000000	77.036792 
1993.000000	77.038088 
1992.000000	77.038893 
1991.000000	77.039191 
1990.000000	77.039593 
1989.000000	77.040387 
1988.000000	77.041230 
1987.000000	77.041746 
1986.000000	77.041996 
1985.000000	77.042227 
1984.000000	77.042524 
1983.000000	77.042901 
1982.000000	77.043458 
1981.000000	77.044146 
1980.000000	77.044656 
1979.000000	77.044735 
1978.000000	77.044592 
1977.000000	77.044700 
1976.000000	77.045300 
1975.000000	77.046271 
1974.000000	77.047340 
1973.000000	77.048248 
1972.000000	77.048803 
1971.000000	77.049015 
1970.000000	77.049132 
1969.000000	77.049350 
1968.000000	77.049572 
1967.000000	77.049655 
1966.000000	77.049800 
1965.000000	77.050405 
1964.000000	77.051546 
1963.000000	77.052874 
1962.000000	77.054068 
1961.000000	77.055106 
1960.000000	77.056018 
1959.000000	77.056735 
1958.000000	77.057278 
1957.000000	77.057869 
1956.000000	77.058566 
1955.000000	77.059005 
1954.000000	77.058870 
1953.000000	77.058360 
1952.000000	77.058006 
1951.000000	77.058163 
1950.000000	77.058712 
1949.000000	77.059284 
1948.000000	77.059661 
1947.000000	77.059938 
1946.000000	77.060331 
1945.000000	77.060900 
1944.000000	77.061482 
1943.000000	77.061878 
1942.000000	77.062071 
1941.000000	77.062220 
1940.000000	77.062494 
1939.000000	77.062941 
1938.000000	77.063503 
1937.000000	77.064054 
1936.000000	77.064452 
1935.000000	77.064628 
1934.000000	77.064694 
1933.000000	77.064895 
1932.000000	77.065352 
1931.000000	77.065948 
1930.000000	77.066437 
1929.000000	77.066752 
1928.000000	77.067082 
1927.000000	77.067586 
1926.000000	77.068200 
1925.000000	77.068626 
1924.000000	77.068729 
1923.000000	77.068732 
1922.000000	77.069052 
1921.000000	77.069892 
1920.000000	77.071035 
1919.000000	77.071878 
1918.000000	77.071886 
1917.000000	77.071052 
1916.000000	77.070037 
1915.000000	77.069586 
1914.000000	77.069879 
1913.000000	77.070547 
1912.000000	77.071059 
1911.000000	77.071226 
1910.000000	77.071222 
1909.000000	77.071291 
1908.000000	77.071504 
1907.000000	77.071726 
1906.000000	77.071825 
1905.000000	77.071646 
1904.000000	77.071302 
1903.000000	77.071175 
1902.000000	77.071490 
1901.000000	77.072058 
1900.000000	77.072577 
1899.000000	77.072968 
1898.000000	77.073369 
1897.000000	77.073724 
1896.000000	77.073934 
1895.000000	77.074237 
1894.000000	77.075044 
1893.000000	77.076414 
1892.000000	77.077946 
1891.000000	77.079171 
1890.000000	77.079916 
1889.000000	77.080357 
1888.000000	77.080826 
1887.000000	77.081521 
1886.000000	77.082408 
1885.000000	77.083396 
1884.000000	77.084584 
1883.000000	77.086138 
1882.000000	77.087812 
1881.000000	77.089009 
1880.000000	77.089450 
1879.000000	77.089496 
1878.000000	77.089808 
1877.000000	77.090597 
1876.000000	77.091614 
1875.000000	77.092764 
1874.000000	77.094149 
1873.000000	77.095575 
1872.000000	77.096543 
1871.000000	77.096830 
1870.000000	77.096835 
1869.000000	77.097288 
1868.000000	77.098528 
1867.000000	77.100293 
1866.000000	77.102125 
1865.000000	77.103750 
1864.000000	77.105171 
1863.000000	77.106612 
1862.000000	77.108247 
1861.000000	77.109910 
1860.000000	77.111211 
1859.000000	77.111985 
1858.000000	77.112475 
1857.000000	77.113040 
1856.000000	77.113810 
1855.000000	77.114705 
1854.000000	77.115641 
1853.000000	77.116648 
1852.000000	77.117871 
1851.000000	77.119204 
1850.000000	77.120450 
1849.000000	77.121537 
1848.000000	77.122590 
1847.000000	77.123720 
1846.000000	77.124902 
1845.000000	77.126158 
1844.000000	77.127714 
1843.000000	77.129716 
1842.000000	77.131776 
1841.000000	77.133356 
1840.000000	77.134278 
1839.000000	77.134823 
1838.000000	77.135646 
1837.000000	77.136969 
1836.000000	77.138440 
1835.000000	77.139581 
1834.000000	77.140255 
1833.000000	77.140884 
1832.000000	77.142049 
1831.000000	77.143571 
1830.000000	77.144974 
1829.000000	77.146104 
1828.000000	77.147374 
1827.000000	77.148838 
1826.000000	77.149456 
1825.000000	77.148159 
1824.000000	77.146000 
1823.000000	77.145935 
1822.000000	77.149435 
1821.000000	77.154842 
1820.000000	77.159289 
1819.000000	77.162005 
1818.000000	77.164283 
1817.000000	77.166182 
1816.000000	77.166903 
1815.000000	77.166878 
1814.000000	77.166848 
1813.000000	77.166176 
1812.000000	77.164055 
1811.000000	77.163239 
1810.000000	77.167310 
1809.000000	77.175313 
1808.000000	77.183612 
1807.000000	77.191001 
1806.000000	77.198590 
1805.000000	77.205642 
1804.000000	77.209201 
1803.000000	77.207890 
1802.000000	77.203718 
1801.000000	77.200764 
1800.000000	77.200209 
1799.000000	77.201580 
1798.000000	77.204588 
1797.000000	77.208496 
1796.000000	77.212063 
1795.000000	77.215377 
1794.000000	77.220043 
1793.000000	77.226977 
1792.000000	77.233816 
1791.000000	77.237917 
1790.000000	77.238972 
1789.000000	77.239580 
1788.000000	77.243688 
1787.000000	77.253577 
1786.000000	77.267128 
1785.000000	77.278572 
1784.000000	77.284479 
1783.000000	77.287393 
1782.000000	77.291372 
1781.000000	77.298041 
1780.000000	77.303382 
1779.000000	77.305084 
1778.000000	77.305683 
1777.000000	77.308365 
1776.000000	77.313206 
1775.000000	77.319427 
1774.000000	77.329580 
1773.000000	77.345942 
1772.000000	77.362528 
1771.000000	77.371959 
1770.000000	77.378498 
1769.000000	77.389897 
1768.000000	77.407538 
1767.000000	77.426979 
1766.000000	77.444536 
1765.000000	77.461284 
1764.000000	77.479249 
1763.000000	77.499488 
1762.000000	77.521920 
1761.000000	77.545180 
1760.000000	77.566423 
1759.000000	77.587133 
1758.000000	77.610566 
1757.000000	77.636929 
1756.000000	77.660809 
1755.000000	77.679203 
1754.000000	77.697707 
1753.000000	77.721352 
1752.000000	77.745846 
1751.000000	77.763366 
1750.000000	77.775984 
1749.000000	77.790593 
1748.000000	77.807769 
1747.000000	77.822310 
1746.000000	77.834206 
1745.000000	77.848451 
1744.000000	77.864136 
1743.000000	77.875828 
1742.000000	77.882499 
1741.000000	77.889062 
1740.000000	77.897549 
1739.000000	77.903766 
1738.000000	77.903518 
1737.000000	77.897547 
1736.000000	77.885044 
1735.000000	77.860418 
1734.000000	77.823861 
1733.000000	77.791430 
1732.000000	77.774828 
1731.000000	77.772039 
1730.000000	77.777054 
1729.000000	77.782991 
1728.000000	77.783891 
1727.000000	77.777139 
1726.000000	77.764914 
1725.000000	77.751148 
1724.000000	77.736999 
1723.000000	77.723325 
1722.000000	77.710340 
1721.000000	77.697370 
1720.000000	77.682818 
1719.000000	77.664484 
1718.000000	77.640969 
1717.000000	77.613624 
1716.000000	77.589073 
1715.000000	77.572912 
1714.000000	77.563207 
1713.000000	77.552797 
1712.000000	77.537361 
1711.000000	77.518078 
1710.000000	77.497405 
1709.000000	77.476589 
1708.000000	77.456393 
1707.000000	77.437983 
1706.000000	77.422760 
1705.000000	77.408887 
1704.000000	77.394471 
1703.000000	77.380088 
1702.000000	77.366481 
1701.000000	77.353073 
1700.000000	77.338508 
1699.000000	77.326682 
1698.000000	77.323613 
1697.000000	77.331754 
1696.000000	77.346499 
1695.000000	77.356849 
1694.000000	77.356310 
1693.000000	77.348858 
1692.000000	77.341405 
1691.000000	77.338042 
1690.000000	77.338738 
1689.000000	77.340881 
1688.000000	77.341604 
1687.000000	77.339973 
1686.000000	77.339411 
1685.000000	77.341393 
1684.000000	77.341401 
1683.000000	77.336786 
1682.000000	77.333021 
1681.000000	77.335481 
1680.000000	77.342983 
1679.000000	77.350539 
1678.000000	77.357089 
1677.000000	77.365586 
1676.000000	77.374450 
1675.000000	77.377071 
1674.000000	77.373262 
1673.000000	77.371197 
1672.000000	77.373293 
1671.000000	77.376735 
1670.000000	77.379462 
1669.000000	77.385122 
1668.000000	77.394810 
1667.000000	77.402087 
1666.000000	77.402939 
1665.000000	77.399964 
1664.000000	77.398040 
1663.000000	77.399891 
1662.000000	77.403540 
1661.000000	77.407909 
1660.000000	77.412784 
1659.000000	77.417199 
1658.000000	77.421083 
1657.000000	77.425578 
1656.000000	77.429918 
1655.000000	77.430691 
1654.000000	77.427222 
1653.000000	77.422660 
1652.000000	77.421702 
1651.000000	77.423108 
1650.000000	77.423990 
1649.000000	77.425031 
1648.000000	77.426514 
1647.000000	77.426758 
1646.000000	77.425687 
1645.000000	77.425104 
1644.000000	77.425633 
1643.000000	77.426687 
1642.000000	77.427062 
1641.000000	77.426462 
1640.000000	77.425129 
1639.000000	77.423524 
1638.000000	77.422374 
1637.000000	77.422204 
1636.000000	77.423163 
1635.000000	77.424140 
1634.000000	77.425186 
1633.000000	77.425913 
1632.000000	77.425950 
1631.000000	77.425253 
1630.000000	77.424360 
1629.000000	77.424459 
1628.000000	77.426060 
1627.000000	77.427787 
1626.000000	77.427835 
1625.000000	77.426351 
1624.000000	77.425025 
1623.000000	77.425301 
1622.000000	77.426823 
1621.000000	77.428540 
1620.000000	77.429778 
1619.000000	77.430388 
1618.000000	77.430514 
1617.000000	77.430522 
1616.000000	77.430903 
1615.000000	77.431631 
1614.000000	77.432406 
1613.000000	77.433165 
1612.000000	77.433946 
1611.000000	77.434626 
1610.000000	77.435100 
1609.000000	77.435631 
1608.000000	77.436463 
1607.000000	77.437366 
1606.000000	77.437914 
1605.000000	77.438214 
1604.000000	77.438608 
1603.000000	77.439264 
1602.000000	77.440211 
1601.000000	77.441367 
1600.000000	77.442511 
1599.000000	77.443430 
1598.000000	77.444343 
1597.000000	77.445622 
1596.000000	77.447248 
1595.000000	77.448937 
1594.000000	77.450511 
1593.000000	77.451968 
1592.000000	77.453234 
1591.000000	77.454226 
1590.000000	77.455083 
1589.000000	77.456113 
1588.000000	77.457379 
1587.000000	77.458629 
1586.000000	77.459640 
1585.000000	77.460478 
1584.000000	77.461362 
1583.000000	77.462292 
1582.000000	77.463334 
1581.000000	77.464685 
1580.000000	77.466353 
1579.000000	77.467984 
1578.000000	77.469366 
1577.000000	77.470640 
1576.000000	77.471924 
1575.000000	77.472944 
1574.000000	77.473517 
1573.000000	77.473868 
1572.000000	77.474240 
1571.000000	77.474770 
1570.000000	77.475538 
1569.000000	77.476568 
1568.000000	77.477711 
1567.000000	77.478661 
1566.000000	77.479401 
1565.000000	77.480117 
1564.000000	77.480929 
1563.000000	77.481681 
1562.000000	77.482256 
1561.000000	77.482551 
1560.000000	77.482442 
1559.000000	77.481864 
1558.000000	77.481714 
1557.000000	77.482950 
1556.000000	77.484823 
1555.000000	77.486071 
1554.000000	77.486327 
1553.000000	77.486646 
1552.000000	77.487905 
1551.000000	77.489591 
1550.000000	77.490639 
1549.000000	77.490596 
1548.000000	77.490162 
1547.000000	77.489848 
1546.000000	77.489649 
1545.000000	77.489602 
1544.000000	77.489932 
1543.000000	77.490434 
1542.000000	77.491056 
1541.000000	77.491458 
1540.000000	77.490718 
1539.000000	77.488954 
1538.000000	77.487959 
1537.000000	77.487943 
1536.000000	77.488122 
1535.000000	77.487467 
1534.000000	77.485713 
1533.000000	77.484205 
1532.000000	77.483400 
1531.000000	77.482454 
1530.000000	77.481228 
1529.000000	77.480538 
1528.000000	77.481121 
1527.000000	77.482510 
1526.000000	77.483450 
1525.000000	77.483515 
1524.000000	77.482985 
1523.000000	77.482202 
1522.000000	77.481628 
1521.000000	77.481794 
1520.000000	77.482775 
1519.000000	77.484274 
1518.000000	77.486816 
1517.000000	77.490058 
1516.000000	77.491859 
1515.000000	77.491566 
1514.000000	77.491228 
1513.000000	77.492575 
1512.000000	77.494505 
1511.000000	77.495715 
1510.000000	77.496468 
1509.000000	77.498051 
1508.000000	77.500881 
1507.000000	77.504387 
1506.000000	77.505828 
1505.000000	77.505024 
1504.000000	77.504262 
1503.000000	77.505044 
1502.000000	77.507944 
1501.000000	77.512595 
1500.000000	77.518159 
1499.000000	77.524609 
1498.000000	77.532670 
1497.000000	77.540624 
1496.000000	77.543915 
1495.000000	77.541163 
1494.000000	77.535633 
1493.000000	77.531394 
1492.000000	77.530009 
1491.000000	77.531430 
1490.000000	77.535218 
1489.000000	77.540302 
1488.000000	77.544950 
1487.000000	77.549367 
1486.000000	77.554150 
1485.000000	77.558670 
1484.000000	77.562222 
1483.000000	77.563605 
1482.000000	77.562748 
1481.000000	77.560713 
1480.000000	77.559969 
1479.000000	77.562584 
1478.000000	77.568507 
1477.000000	77.574864 
1476.000000	77.579075 
1475.000000	77.582362 
1474.000000	77.587732 
1473.000000	77.596426 
1472.000000	77.604570 
1471.000000	77.609734 
1470.000000	77.614954 
1469.000000	77.623200 
1468.000000	77.632958 
1467.000000	77.640990 
1466.000000	77.646767 
1465.000000	77.653662 
1464.000000	77.662683 
1463.000000	77.670385 
1462.000000	77.675446 
1461.000000	77.680051 
1460.000000	77.687016 
1459.000000	77.696555 
1458.000000	77.706204 
1457.000000	77.710359 
1456.000000	77.705128 
1455.000000	77.694179 
1454.000000	77.685762 
1453.000000	77.684713 
1452.000000	77.687999 
1451.000000	77.690381 
1450.000000	77.691852 
1449.000000	77.695999 
1448.000000	77.702111 
1447.000000	77.704900 
1446.000000	77.701901 
1445.000000	77.697573 
1444.000000	77.694876 
1443.000000	77.692774 
1442.000000	77.690024 
1441.000000	77.687839 
1440.000000	77.688303 
1439.000000	77.692184 
1438.000000	77.698661 
1437.000000	77.703626 
1436.000000	77.702556 
1435.000000	77.696105 
1434.000000	77.690941 
1433.000000	77.692061 
1432.000000	77.698458 
1431.000000	77.705250 
1430.000000	77.708871 
1429.000000	77.707997 
1428.000000	77.702758 
1427.000000	77.695397 
1426.000000	77.688726 
1425.000000	77.684312 
1424.000000	77.679766 
1423.000000	77.673335 
1422.000000	77.667691 
1421.000000	77.665026 
1420.000000	77.660876 
1419.000000	77.647836 
1418.000000	77.627838 
1417.000000	77.609429 
1416.000000	77.596723 
1415.000000	77.587412 
1414.000000	77.576974 
1413.000000	77.562971 
1412.000000	77.546554 
1411.000000	77.531634 
1410.000000	77.521509 
1409.000000	77.515555 
1408.000000	77.511162 
1407.000000	77.508125 
1406.000000	77.508763 
1405.000000	77.515990 
1404.000000	77.528539 
1403.000000	77.541705 
1402.000000	77.553199 
1401.000000	77.564413 
1400.000000	77.576172 
1399.000000	77.585402 
1398.000000	77.586502 
1397.000000	77.574665 
1396.000000	77.550224 
1395.000000	77.524236 
1394.000000	77.516036 
1393.000000	77.535828 
1392.000000	77.574770 
1391.000000	77.616034 
1390.000000	77.648958 
1389.000000	77.673463 
1388.000000	77.694438 
1387.000000	77.714199 
1386.000000	77.730739 
1385.000000	77.743490 
1384.000000	77.754565 
1383.000000	77.765707 
1382.000000	77.778272 
1381.000000	77.793948 
1380.000000	77.812721 
1379.000000	77.831104 
1378.000000	77.845877 
1377.000000	77.857985 
1376.000000	77.870242 
1375.000000	77.882635 
1374.000000	77.892962 
1373.000000	77.900653 
1372.000000	77.906153 
1371.000000	77.909182 
1370.000000	77.910089 
1369.000000	77.912299 
1368.000000	77.919821 
1367.000000	77.931757 
1366.000000	77.941915 
1365.000000	77.944777 
1364.000000	77.940082 
1363.000000	77.933206 
1362.000000	77.930197 
1361.000000	77.931068 
1360.000000	77.931299 
1359.000000	77.929154 
1358.000000	77.927921 
1357.000000	77.931289 
1356.000000	77.938154 
1355.000000	77.943793 
1354.000000	77.945408 
1353.000000	77.943691 
1352.000000	77.939171 
1351.000000	77.931453 
1350.000000	77.922239 
1349.000000	77.915279 
1348.000000	77.911504 
1347.000000	77.908425 
1346.000000	77.904512 
1345.000000	77.900761 
1344.000000	77.896981 
1343.000000	77.890066 
1342.000000	77.877867 
1341.000000	77.862989 
1340.000000	77.851138 
1339.000000	77.845538 
1338.000000	77.843614 
1337.000000	77.839880 
1336.000000	77.831172 
1335.000000	77.819100 
1334.000000	77.808615 
1333.000000	77.803546 
1332.000000	77.802957 
1331.000000	77.802589 
1330.000000	77.799681 
1329.000000	77.795236 
1328.000000	77.791971 
1327.000000	77.791816 
1326.000000	77.794886 
1325.000000	77.798742 
1324.000000	77.799050 
1323.000000	77.792895 
1322.000000	77.781958 
1321.000000	77.771417 
1320.000000	77.765307 
1319.000000	77.763803 
1318.000000	77.764672 
1317.000000	77.766076 
1316.000000	77.767228 
1315.000000	77.767418 
1314.000000	77.765982 
1313.000000	77.763236 
1312.000000	77.760483 
1311.000000	77.758705 
1310.000000	77.757604 
1309.000000	77.756120 
1308.000000	77.753917 
1307.000000	77.752154 
1306.000000	77.752349 
1305.000000	77.754383 
1304.000000	77.756362 
1303.000000	77.756569 
1302.000000	77.754968 
1301.000000	77.752383 
1300.000000	77.748910 
1299.000000	77.744006 
1298.000000	77.737740 
1297.000000	77.731209 
1296.000000	77.725949 
1295.000000	77.723438 
1294.000000	77.724412 
1293.000000	77.727820 
1292.000000	77.731042 
1291.000000	77.732064 
1290.000000	77.730930 
1289.000000	77.728272 
1288.000000	77.723549 
1287.000000	77.716266 
1286.000000	77.708141 
1285.000000	77.702387 
1284.000000	77.701136 
1283.000000	77.704283 
1282.000000	77.709777 
1281.000000	77.713956 
1280.000000	77.713032 
1279.000000	77.706138 
1278.000000	77.696501 
1277.000000	77.688387 
1276.000000	77.683313 
1275.000000	77.679986 
1274.000000	77.676312 
1273.000000	77.670127 
1272.000000	77.659828 
1271.000000	77.646362 
1270.000000	77.633263 
1269.000000	77.623074 
1268.000000	77.615423 
1267.000000	77.609851 
1266.000000	77.607427 
1265.000000	77.606837 
1264.000000	77.601824 
1263.000000	77.586953 
1262.000000	77.564944 
1261.000000	77.544497 
1260.000000	77.531572 
1259.000000	77.525617 
1258.000000	77.523039 
1257.000000	77.521050 
1256.000000	77.518214 
1255.000000	77.514390 
1254.000000	77.510459 
1253.000000	77.506231 
1252.000000	77.499789 
1251.000000	77.491616 
1250.000000	77.487540 
1249.000000	77.493413 
1248.000000	77.507517 
1247.000000	77.521732 
1246.000000	77.529894 
1245.000000	77.531713 
1244.000000	77.529735 
1243.000000	77.527859 
1242.000000	77.532844 
1241.000000	77.551051 
1240.000000	77.581030 
1239.000000	77.612972 
1238.000000	77.638054 
1237.000000	77.655525 
1236.000000	77.669242 
1235.000000	77.681854 
1234.000000	77.695080 
1233.000000	77.711274 
1232.000000	77.730142 
1231.000000	77.746156 
1230.000000	77.753513 
1229.000000	77.752712 
1228.000000	77.749062 
1227.000000	77.745576 
1226.000000	77.740085 
1225.000000	77.728999 
1224.000000	77.712046 
1223.000000	77.694221 
1222.000000	77.685010 
1221.000000	77.694339 
1220.000000	77.725631 
1219.000000	77.770594 
1218.000000	77.811960 
1217.000000	77.834044 
1216.000000	77.831737 
1215.000000	77.811238 
1214.000000	77.784207 
1213.000000	77.760093 
1212.000000	77.742289 
1211.000000	77.729716 
1210.000000	77.720068 
1209.000000	77.711249 
1208.000000	77.701746 
1207.000000	77.691631 
1206.000000	77.682567 
1205.000000	77.675038 
1204.000000	77.665973 
1203.000000	77.651075 
1202.000000	77.629477 
1201.000000	77.604391 
1200.000000	77.579310 
1199.000000	77.555420 
1198.000000	77.532498 
1197.000000	77.510154 
1196.000000	77.487514 
1195.000000	77.463406 
1194.000000	77.437970 
1193.000000	77.413395 
1192.000000	77.392557 
1191.000000	77.377072 
1190.000000	77.366227 
1189.000000	77.357276 
1188.000000	77.347281 
1187.000000	77.335185 
1186.000000	77.321463 
1185.000000	77.305669 
1184.000000	77.286481 
1183.000000	77.265655 
1182.000000	77.249563 
1181.000000	77.243412 
1180.000000	77.244402 
1179.000000	77.243082 
1178.000000	77.231723 
1177.000000	77.209536 
1176.000000	77.180493 
1175.000000	77.149494 
1174.000000	77.120798 
1173.000000	77.096419 
1172.000000	77.074806 
1171.000000	77.053248 
1170.000000	77.031901 
1169.000000	77.013403 
1168.000000	76.998302 
1167.000000	76.983342 
1166.000000	76.965442 
1165.000000	76.945846 
1164.000000	76.929297 
1163.000000	76.920102 
1162.000000	76.919134 
1161.000000	76.923253 
1160.000000	76.927454 
1159.000000	76.929049 
1158.000000	76.929753 
1157.000000	76.932162 
1156.000000	76.934781 
1155.000000	76.933100 
1154.000000	76.925824 
1153.000000	76.917215 
1152.000000	76.912103 
1151.000000	76.910793 
1150.000000	76.910303 
1149.000000	76.908853 
1148.000000	76.907238 
1147.000000	76.906530 
1146.000000	76.905890 
1145.000000	76.902615 
1144.000000	76.893974 
1143.000000	76.879547 
1142.000000	76.862098 
1141.000000	76.845489 
1140.000000	76.831264 
1139.000000	76.817346 
1138.000000	76.799966 
1137.000000	76.776688 
1136.000000	76.747903 
1135.000000	76.716206 
1134.000000	76.684472 
1133.000000	76.654481 
1132.000000	76.627445 
1131.000000	76.604259 
1130.000000	76.583270 
1129.000000	76.559230 
1128.000000	76.527796 
1127.000000	76.491190 
1126.000000	76.456300 
1125.000000	76.426341 
1124.000000	76.397690 
1123.000000	76.366146 
1122.000000	76.332824 
1121.000000	76.301896 
1120.000000	76.275552 
1119.000000	76.253448 
1118.000000	76.234161 
1117.000000	76.214431 
1116.000000	76.189476 
1115.000000	76.157239 
1114.000000	76.121054 
1113.000000	76.085913 
1112.000000	76.053964 
1111.000000	76.025535 
1110.000000	76.001770 
1109.000000	75.983213 
1108.000000	75.967696 
1107.000000	75.952480 
1106.000000	75.936906 
1105.000000	75.920942 
1104.000000	75.903940 
1103.000000	75.887719 
1102.000000	75.878108 
1101.000000	75.879652 
1100.000000	75.890772 
1099.000000	75.906315 
1098.000000	75.923297 
1097.000000	75.940042 
1096.000000	75.952109 
1095.000000	75.953053 
1094.000000	75.937854 
1093.000000	75.902824 
1092.000000	75.845650 
1091.000000	75.770673 
1090.000000	75.691130 
1089.000000	75.618935 
1088.000000	75.552898 
1087.000000	75.482978 
1086.000000	75.405186 
1085.000000	75.325976 
1084.000000	75.251830 
1083.000000	75.181135 
1082.000000	75.108622 
1081.000000	75.033217 
1080.000000	74.958892 
1079.000000	74.890689 
1078.000000	74.832021 
1077.000000	74.783901 
1076.000000	74.745055 
1075.000000	74.713898 
1074.000000	74.691207 
1073.000000	74.679015 
1072.000000	74.675083 
1071.000000	74.669216 
1070.000000	74.647728 
1069.000000	74.604638 
1068.000000	74.550390 
1067.000000	74.508741 
1066.000000	74.501064 
1065.000000	74.530817 
1064.000000	74.583293 
1063.000000	74.639438 
1062.000000	74.687518 
1061.000000	74.723104 
1060.000000	74.746288 
1059.000000	74.765295 
1058.000000	74.797433 
1057.000000	74.856032 
1056.000000	74.934794 
1055.000000	75.011220 
1054.000000	75.067231 
1053.000000	75.100967 
1052.000000	75.117089 
1051.000000	75.113673 
1050.000000	75.085056 
1049.000000	75.032719 
1048.000000	74.966019 
1047.000000	74.893877 
1046.000000	74.820345 
1045.000000	74.747197 
1044.000000	74.677438 
1043.000000	74.615413 
1042.000000	74.563151 
1041.000000	74.516226 
1040.000000	74.465954 
1039.000000	74.409934 
1038.000000	74.359791 
1037.000000	74.332826 
1036.000000	74.334155 
1035.000000	74.350982 
1034.000000	74.366161 
1033.000000	74.373179 
1032.000000	74.374411 
1031.000000	74.370541 
1030.000000	74.360075 
1029.000000	74.348209 
1028.000000	74.347765 
1027.000000	74.367168 
1026.000000	74.401019 
1025.000000	74.436340 
1024.000000	74.466446 
1023.000000	74.495060 
1022.000000	74.527366 
1021.000000	74.560722 
1020.000000	74.586467 
1019.000000	74.600401 
1018.000000	74.609661 
1017.000000	74.627722 
1016.000000	74.663066 
1015.000000	74.713235 
1014.000000	74.767981 
1013.000000	74.816182 
1012.000000	74.850822 
1011.000000	74.871460 
1010.000000	74.884738 
1009.000000	74.901064 
1008.000000	74.928376 
1007.000000	74.968010 
1006.000000	75.014995 
1005.000000	75.060922 
1004.000000	75.098097 
1003.000000	75.124565 
1002.000000	75.145937 
1001.000000	75.169862 
1000.000000	75.198561 
999.000000	 75.229244 
998.000000	 75.260896 
997.000000	 75.296096 
996.000000	 75.335436 
995.000000	 75.375077 
994.000000	 75.411927 
993.000000	 75.447168 
992.000000	 75.482636 
991.000000	 75.517970 
990.000000	 75.553734 
989.000000	 75.593011 
988.000000	 75.636723 
987.000000	 75.681443 
986.000000	 75.725331 
985.000000	 75.771912 
984.000000	 75.823574 
983.000000	 75.875924 
982.000000	 75.924604 
981.000000	 75.974020 
980.000000	 76.031893 
979.000000	 76.096677 
978.000000	 76.157669 
977.000000	 76.208023 
976.000000	 76.251069 
975.000000	 76.292778 
974.000000	 76.333885 
973.000000	 76.371811 
972.000000	 76.405818 
971.000000	 76.437423 
970.000000	 76.468769 
969.000000	 76.502549 
968.000000	 76.540956 
967.000000	 76.582959 
966.000000	 76.624727 
965.000000	 76.664226 
964.000000	 76.703584 
963.000000	 76.745505 
962.000000	 76.788782 
961.000000	 76.829002 
960.000000	 76.863202 
959.000000	 76.892675 
958.000000	 76.920912 
957.000000	 76.948836 
956.000000	 76.973076 
955.000000	 76.990295 
954.000000	 77.002435 
953.000000	 77.015205 
952.000000	 77.031380 
951.000000	 77.048997 
950.000000	 77.067008 
949.000000	 77.088427 
948.000000	 77.115100 
947.000000	 77.142813 
946.000000	 77.165473 
945.000000	 77.181810 
944.000000	 77.194132 
943.000000	 77.202747 
942.000000	 77.206639 
941.000000	 77.208866 
940.000000	 77.215683 
939.000000	 77.228550 
938.000000	 77.241135 
937.000000	 77.247094 
936.000000	 77.248318 
935.000000	 77.252534 
934.000000	 77.263824 
933.000000	 77.278525 
932.000000	 77.290747 
931.000000	 77.299139 
930.000000	 77.306635 
929.000000	 77.315450 
928.000000	 77.325116 
927.000000	 77.334798 
926.000000	 77.344443 
925.000000	 77.353147 
924.000000	 77.359581 
923.000000	 77.365488 
922.000000	 77.375532 
921.000000	 77.390998 
920.000000	 77.406447 
919.000000	 77.416263 
918.000000	 77.422560 
917.000000	 77.432217 
916.000000	 77.447205 
915.000000	 77.462656 
914.000000	 77.474332 
913.000000	 77.483007 
912.000000	 77.490228 
911.000000	 77.494243 
910.000000	 77.492753 
909.000000	 77.487155 
908.000000	 77.482200 
907.000000	 77.483325 
906.000000	 77.494743 
905.000000	 77.517152 
904.000000	 77.546029 
903.000000	 77.574401 
902.000000	 77.598767 
901.000000	 77.621112 
900.000000	 77.645287 
899.000000	 77.673814 
898.000000	 77.707324 
897.000000	 77.743739 
896.000000	 77.777924 
895.000000	 77.805992 
894.000000	 77.830416 
893.000000	 77.857250 
892.000000	 77.888461 
891.000000	 77.921945 
890.000000	 77.959704 
889.000000	 78.009600 
888.000000	 78.074981 
887.000000	 78.146335 
886.000000	 78.207866 
885.000000	 78.251054 
884.000000	 78.278931 
883.000000	 78.299519 
882.000000	 78.317822 
881.000000	 78.332890 
880.000000	 78.340164 
879.000000	 78.336110 
878.000000	 78.321122 
877.000000	 78.298544 
876.000000	 78.272708 
875.000000	 78.248576 
874.000000	 78.229601 
873.000000	 78.213333 
872.000000	 78.193294 
871.000000	 78.169536 
870.000000	 78.153515 
869.000000	 78.156523 
868.000000	 78.176017 
867.000000	 78.199060 
866.000000	 78.217569 
865.000000	 78.234123 
864.000000	 78.253303 
863.000000	 78.274289 
862.000000	 78.293175 
861.000000	 78.307081 
860.000000	 78.314666 
859.000000	 78.317238 
858.000000	 78.319897 
857.000000	 78.326886 
856.000000	 78.336098 
855.000000	 78.343516 
854.000000	 78.352117 
853.000000	 78.368769 
852.000000	 78.391311 
851.000000	 78.407190 
850.000000	 78.408829 
849.000000	 78.403538 
848.000000	 78.403610 
847.000000	 78.411689 
846.000000	 78.420805 
845.000000	 78.424864 
844.000000	 78.424052 
843.000000	 78.422628 
842.000000	 78.425618 
841.000000	 78.435476 
840.000000	 78.448383 
839.000000	 78.455342 
838.000000	 78.450188 
837.000000	 78.435958 
836.000000	 78.421857 
835.000000	 78.414988 
834.000000	 78.416132 
833.000000	 78.421480 
832.000000	 78.425817 
831.000000	 78.425115 
830.000000	 78.418926 
829.000000	 78.410979 
828.000000	 78.406529 
827.000000	 78.408469 
826.000000	 78.414905 
825.000000	 78.419356 
824.000000	 78.414966 
823.000000	 78.401184 
822.000000	 78.385521 
821.000000	 78.375909 
820.000000	 78.372263 
819.000000	 78.367695 
818.000000	 78.356552 
817.000000	 78.339603 
816.000000	 78.322852 
815.000000	 78.312804 
814.000000	 78.311121 
813.000000	 78.312551 
812.000000	 78.309626 
811.000000	 78.299390 
810.000000	 78.282304 
809.000000	 78.255157 
808.000000	 78.212201 
807.000000	 78.156283 
806.000000	 78.101453 
805.000000	 78.058380 
804.000000	 78.023215 
803.000000	 77.987139 
802.000000	 77.951013 
801.000000	 77.922619 
800.000000	 77.904344 
799.000000	 77.892985 
798.000000	 77.888852 
797.000000	 77.895874 
796.000000	 77.913336 
795.000000	 77.934797 
794.000000	 77.954675 
793.000000	 77.970391 
792.000000	 77.980454 
791.000000	 77.987440 
790.000000	 77.999872 
789.000000	 78.022458 
788.000000	 78.046416 
787.000000	 78.058266 
786.000000	 78.057284 
785.000000	 78.054987 
784.000000	 78.057567 
783.000000	 78.058461 
782.000000	 78.049903 
781.000000	 78.033967 
780.000000	 78.020056 
779.000000	 78.017703 
778.000000	 78.032281 
777.000000	 78.061089 
776.000000	 78.093071 
775.000000	 78.119053 
774.000000	 78.142953 
773.000000	 78.176116 
772.000000	 78.220697 
771.000000	 78.265844 
770.000000	 78.300942 
769.000000	 78.325548 
768.000000	 78.345210 
767.000000	 78.364676 
766.000000	 78.386551 
765.000000	 78.410115 
764.000000	 78.429843 
763.000000	 78.440368 
762.000000	 78.443462 
761.000000	 78.445028 
760.000000	 78.446180 
759.000000	 78.444017 
758.000000	 78.440073 
757.000000	 78.440093 
756.000000	 78.445166 
755.000000	 78.450388 
754.000000	 78.453257 
753.000000	 78.457328 
752.000000	 78.467082 
751.000000	 78.484719 
750.000000	 78.511506 
749.000000	 78.545707 
748.000000	 78.578854 
747.000000	 78.600955 
746.000000	 78.610793 
745.000000	 78.615793 
744.000000	 78.621903 
743.000000	 78.629941 
742.000000	 78.641752 
741.000000	 78.661181 
740.000000	 78.686495 
739.000000	 78.709233 
738.000000	 78.723932 
737.000000	 78.732875 
736.000000	 78.739159 
735.000000	 78.741387 
734.000000	 78.738410 
733.000000	 78.734372 
732.000000	 78.735435 
731.000000	 78.744979 
730.000000	 78.764184 
729.000000	 78.792042 
728.000000	 78.822039 
727.000000	 78.844650 
726.000000	 78.856522 
725.000000	 78.862037 
724.000000	 78.864241 
723.000000	 78.861034 
722.000000	 78.853167 
721.000000	 78.848816 
720.000000	 78.854898 
719.000000	 78.868712 
718.000000	 78.882955 
717.000000	 78.893939 
716.000000	 78.900780 
715.000000	 78.901972 
714.000000	 78.897216 
713.000000	 78.888847 
712.000000	 78.878080 
711.000000	 78.864156 
710.000000	 78.849544 
709.000000	 78.840470 
708.000000	 78.839766 
707.000000	 78.844154 
706.000000	 78.851354 
705.000000	 78.863552 
704.000000	 78.879507 
703.000000	 78.890171 
702.000000	 78.887812 
701.000000	 78.875356 
700.000000	 78.861938 
699.000000	 78.851338 
698.000000	 78.839043 
697.000000	 78.819049 
696.000000	 78.792452 
695.000000	 78.772494 
694.000000	 78.778712 
693.000000	 78.820679 
692.000000	 78.886042 
691.000000	 78.948483 
690.000000	 78.991912 
689.000000	 79.019906 
688.000000	 79.041131 
687.000000	 79.056925 
686.000000	 79.066455 
685.000000	 79.074288 
684.000000	 79.085657 
683.000000	 79.100016 
682.000000	 79.115329 
681.000000	 79.133563 
680.000000	 79.157012 
679.000000	 79.182656 
678.000000	 79.204250 
677.000000	 79.219301 
676.000000	 79.231443 
675.000000	 79.246416 
674.000000	 79.267368 
673.000000	 79.290201 
672.000000	 79.302520 
671.000000	 79.293880 
670.000000	 79.268564 
669.000000	 79.251834 
668.000000	 79.273888 
667.000000	 79.328884 
666.000000	 79.393734 
665.000000	 79.467231 
664.000000	 79.549153 
663.000000	 79.628194 
662.000000	 79.694664 
661.000000	 79.752127 
660.000000	 79.804350 
659.000000	 79.846416 
658.000000	 79.881256 
657.000000	 79.924777 
656.000000	 79.979773 
655.000000	 80.026608 
654.000000	 80.055311 
653.000000	 80.080792 
652.000000	 80.110098 
651.000000	 80.125509 
650.000000	 80.120079 

