PE IR                   SPECTRUM    ASCII       PEDS        1.60        
  -1
~SP.SP
22/12/06
16:50:13.00
23/01/09
14:57:02.00
Administrator

650.000000
4









FRONTIER FT-IR,CPU32 MAIN 00.09.9951 07-SEPTEMBER-2011 11:49:41
MIR TGS
MIR
OPTKBR
90694
0.200000

4.000000
STRONG
RATIO
SPECTRUM
MAGNITUDE
MIRACLE ATR
DOUBLE

COMBINED


0


#HDR
-1
-1
#GR
CM-1
%T
0.00002384185791015625
0.0
4000.000000
-1.000000
3351
8
78.977290
69.293376
#DATA
4000.000000	78.933852 
3999.000000	78.932214 
3998.000000	78.928729 
3997.000000	78.923650 
3996.000000	78.918280 
3995.000000	78.914151 
3994.000000	78.912160 
3993.000000	78.912138 
3992.000000	78.913061 
3991.000000	78.914068 
3990.000000	78.915101 
3989.000000	78.916312 
3988.000000	78.917245 
3987.000000	78.916960 
3986.000000	78.915031 
3985.000000	78.912160 
3984.000000	78.909432 
3983.000000	78.907158 
3982.000000	78.904718 
3981.000000	78.901465 
3980.000000	78.897612 
3979.000000	78.894181 
3978.000000	78.892023 
3977.000000	78.890915 
3976.000000	78.889741 
3975.000000	78.887700 
3974.000000	78.885076 
3973.000000	78.882694 
3972.000000	78.880830 
3971.000000	78.879100 
3970.000000	78.877147 
3969.000000	78.875059 
3968.000000	78.873049 
3967.000000	78.871084 
3966.000000	78.868939 
3965.000000	78.866495 
3964.000000	78.863858 
3963.000000	78.861285 
3962.000000	78.859048 
3961.000000	78.857315 
3960.000000	78.856120 
3959.000000	78.855407 
3958.000000	78.855006 
3957.000000	78.854575 
3956.000000	78.853657 
3955.000000	78.851983 
3954.000000	78.849666 
3953.000000	78.847057 
3952.000000	78.844503 
3951.000000	78.842191 
3950.000000	78.840154 
3949.000000	78.838292 
3948.000000	78.836411 
3947.000000	78.834363 
3946.000000	78.832191 
3945.000000	78.830119 
3944.000000	78.828348 
3943.000000	78.826863 
3942.000000	78.825447 
3941.000000	78.823835 
3940.000000	78.821906 
3939.000000	78.819690 
3938.000000	78.817297 
3937.000000	78.814864 
3936.000000	78.812546 
3935.000000	78.810527 
3934.000000	78.808934 
3933.000000	78.807697 
3932.000000	78.806495 
3931.000000	78.804988 
3930.000000	78.803124 
3929.000000	78.801180 
3928.000000	78.799434 
3927.000000	78.797841 
3926.000000	78.796160 
3925.000000	78.794264 
3924.000000	78.792185 
3923.000000	78.789982 
3922.000000	78.787777 
3921.000000	78.785835 
3920.000000	78.784372 
3919.000000	78.783314 
3918.000000	78.782346 
3917.000000	78.781195 
3916.000000	78.779760 
3915.000000	78.778080 
3914.000000	78.776321 
3913.000000	78.774714 
3912.000000	78.773247 
3911.000000	78.771626 
3910.000000	78.769556 
3909.000000	78.767163 
3908.000000	78.764896 
3907.000000	78.763095 
3906.000000	78.761723 
3905.000000	78.760479 
3904.000000	78.759068 
3903.000000	78.757355 
3902.000000	78.755306 
3901.000000	78.752989 
3900.000000	78.750649 
3899.000000	78.748573 
3898.000000	78.746878 
3897.000000	78.745518 
3896.000000	78.744460 
3895.000000	78.743741 
3894.000000	78.743258 
3893.000000	78.742698 
3892.000000	78.741682 
3891.000000	78.740143 
3890.000000	78.738263 
3889.000000	78.736248 
3888.000000	78.734311 
3887.000000	78.732611 
3886.000000	78.731135 
3885.000000	78.729709 
3884.000000	78.728159 
3883.000000	78.726510 
3882.000000	78.724901 
3881.000000	78.723416 
3880.000000	78.722003 
3879.000000	78.720580 
3878.000000	78.719103 
3877.000000	78.717570 
3876.000000	78.715993 
3875.000000	78.714390 
3874.000000	78.712784 
3873.000000	78.711189 
3872.000000	78.709610 
3871.000000	78.708051 
3870.000000	78.706519 
3869.000000	78.705018 
3868.000000	78.703537 
3867.000000	78.702073 
3866.000000	78.700629 
3865.000000	78.699218 
3864.000000	78.697841 
3863.000000	78.696498 
3862.000000	78.695199 
3861.000000	78.693953 
3860.000000	78.692757 
3859.000000	78.691592 
3858.000000	78.690441 
3857.000000	78.689294 
3856.000000	78.688141 
3855.000000	78.686967 
3854.000000	78.685757 
3853.000000	78.684508 
3852.000000	78.683223 
3851.000000	78.681912 
3850.000000	78.680591 
3849.000000	78.679278 
3848.000000	78.677983 
3847.000000	78.676699 
3846.000000	78.675414 
3845.000000	78.674117 
3844.000000	78.672828 
3843.000000	78.671597 
3842.000000	78.670459 
3841.000000	78.669414 
3840.000000	78.668397 
3839.000000	78.667313 
3838.000000	78.666068 
3837.000000	78.664636 
3836.000000	78.663161 
3835.000000	78.661844 
3834.000000	78.660782 
3833.000000	78.659892 
3832.000000	78.659018 
3831.000000	78.658091 
3830.000000	78.657125 
3829.000000	78.656153 
3828.000000	78.655195 
3827.000000	78.654302 
3826.000000	78.653510 
3825.000000	78.652747 
3824.000000	78.651816 
3823.000000	78.650607 
3822.000000	78.649239 
3821.000000	78.648128 
3820.000000	78.647348 
3819.000000	78.646104 
3818.000000	78.643855 
3817.000000	78.641141 
3816.000000	78.639078 
3815.000000	78.637777 
3814.000000	78.635987 
3813.000000	78.633053 
3812.000000	78.630069 
3811.000000	78.628280 
3810.000000	78.627443 
3809.000000	78.626153 
3808.000000	78.623853 
3807.000000	78.621883 
3806.000000	78.621492 
3805.000000	78.621616 
3804.000000	78.620526 
3803.000000	78.618095 
3802.000000	78.615401 
3801.000000	78.613731 
3800.000000	78.612307 
3799.000000	78.609486 
3798.000000	78.606480 
3797.000000	78.605834 
3796.000000	78.607691 
3795.000000	78.608883 
3794.000000	78.606638 
3793.000000	78.601346 
3792.000000	78.595573 
3791.000000	78.590992 
3790.000000	78.587685 
3789.000000	78.585333 
3788.000000	78.583426 
3787.000000	78.580530 
3786.000000	78.575357 
3785.000000	78.568759 
3784.000000	78.563106 
3783.000000	78.559309 
3782.000000	78.556217 
3781.000000	78.553332 
3780.000000	78.552065 
3779.000000	78.554066 
3778.000000	78.558359 
3777.000000	78.562075 
3776.000000	78.563793 
3775.000000	78.564755 
3774.000000	78.566356 
3773.000000	78.568068 
3772.000000	78.568554 
3771.000000	78.568112 
3770.000000	78.568155 
3769.000000	78.568643 
3768.000000	78.567169 
3767.000000	78.562333 
3766.000000	78.556273 
3765.000000	78.552905 
3764.000000	78.553698 
3763.000000	78.556372 
3762.000000	78.558017 
3761.000000	78.557774 
3760.000000	78.555372 
3759.000000	78.550781 
3758.000000	78.545781 
3757.000000	78.543658 
3756.000000	78.545394 
3755.000000	78.548540 
3754.000000	78.550478 
3753.000000	78.550881 
3752.000000	78.549623 
3751.000000	78.545107 
3750.000000	78.538191 
3749.000000	78.533348 
3748.000000	78.531909 
3747.000000	78.530192 
3746.000000	78.524827 
3745.000000	78.517260 
3744.000000	78.512982 
3743.000000	78.511711 
3742.000000	78.507978 
3741.000000	78.502337 
3740.000000	78.498707 
3739.000000	78.497168 
3738.000000	78.494122 
3737.000000	78.488788 
3736.000000	78.485196 
3735.000000	78.484664 
3734.000000	78.482470 
3733.000000	78.475443 
3732.000000	78.467080 
3731.000000	78.461674 
3730.000000	78.458063 
3729.000000	78.452410 
3728.000000	78.443590 
3727.000000	78.434037 
3726.000000	78.426620 
3725.000000	78.421330 
3724.000000	78.416297 
3723.000000	78.409619 
3722.000000	78.400280 
3721.000000	78.389409 
3720.000000	78.379917 
3719.000000	78.374473 
3718.000000	78.373185 
3717.000000	78.373769 
3716.000000	78.373284 
3715.000000	78.370737 
3714.000000	78.367953 
3713.000000	78.366346 
3712.000000	78.363405 
3711.000000	78.355167 
3710.000000	78.341217 
3709.000000	78.324972 
3708.000000	78.309625 
3707.000000	78.296251 
3706.000000	78.284387 
3705.000000	78.273330 
3704.000000	78.262851 
3703.000000	78.252976 
3702.000000	78.243807 
3701.000000	78.235935 
3700.000000	78.229704 
3699.000000	78.224517 
3698.000000	78.220193 
3697.000000	78.217425 
3696.000000	78.215755 
3695.000000	78.212799 
3694.000000	78.207383 
3693.000000	78.201367 
3692.000000	78.196367 
3691.000000	78.190641 
3690.000000	78.181492 
3689.000000	78.170981 
3688.000000	78.164119 
3687.000000	78.160548 
3686.000000	78.155254 
3685.000000	78.147043 
3684.000000	78.139807 
3683.000000	78.136570 
3682.000000	78.135397 
3681.000000	78.132546 
3680.000000	78.127846 
3679.000000	78.122451 
3678.000000	78.115883 
3677.000000	78.107862 
3676.000000	78.101562 
3675.000000	78.100086 
3674.000000	78.098380 
3673.000000	78.089268 
3672.000000	78.074377 
3671.000000	78.059376 
3670.000000	78.045983 
3669.000000	78.032199 
3668.000000	78.017679 
3667.000000	78.005487 
3666.000000	77.997451 
3665.000000	77.991648 
3664.000000	77.984948 
3663.000000	77.976879 
3662.000000	77.969592 
3661.000000	77.964695 
3660.000000	77.961470 
3659.000000	77.957670 
3658.000000	77.952468 
3657.000000	77.947340 
3656.000000	77.944457 
3655.000000	77.942666 
3654.000000	77.938344 
3653.000000	77.930671 
3652.000000	77.923278 
3651.000000	77.919389 
3650.000000	77.917488 
3649.000000	77.913319 
3648.000000	77.906097 
3647.000000	77.898745 
3646.000000	77.893110 
3645.000000	77.889614 
3644.000000	77.888643 
3643.000000	77.890390 
3642.000000	77.892642 
3641.000000	77.891252 
3640.000000	77.883381 
3639.000000	77.870626 
3638.000000	77.858401 
3637.000000	77.851489 
3636.000000	77.851286 
3635.000000	77.856074 
3634.000000	77.862468 
3633.000000	77.866454 
3632.000000	77.865545 
3631.000000	77.860746 
3630.000000	77.855179 
3629.000000	77.851009 
3628.000000	77.847353 
3627.000000	77.842011 
3626.000000	77.835534 
3625.000000	77.830702 
3624.000000	77.828089 
3623.000000	77.825608 
3622.000000	77.822557 
3621.000000	77.821796 
3620.000000	77.825853 
3619.000000	77.832459 
3618.000000	77.836885 
3617.000000	77.837363 
3616.000000	77.836387 
3615.000000	77.837537 
3614.000000	77.842402 
3613.000000	77.849395 
3612.000000	77.855419 
3611.000000	77.859161 
3610.000000	77.862697 
3609.000000	77.868645 
3608.000000	77.876112 
3607.000000	77.881242 
3606.000000	77.881565 
3605.000000	77.878698 
3604.000000	77.876450 
3603.000000	77.877128 
3602.000000	77.880395 
3601.000000	77.884469 
3600.000000	77.888024 
3599.000000	77.890673 
3598.000000	77.893405 
3597.000000	77.897143 
3596.000000	77.901694 
3595.000000	77.905722 
3594.000000	77.908278 
3593.000000	77.909238 
3592.000000	77.909616 
3591.000000	77.911310 
3590.000000	77.916173 
3589.000000	77.923972 
3588.000000	77.931204 
3587.000000	77.933844 
3586.000000	77.931168 
3585.000000	77.925801 
3584.000000	77.920646 
3583.000000	77.916889 
3582.000000	77.914512 
3581.000000	77.913556 
3580.000000	77.914389 
3579.000000	77.916866 
3578.000000	77.920390 
3577.000000	77.924622 
3576.000000	77.929762 
3575.000000	77.935732 
3574.000000	77.941296 
3573.000000	77.944581 
3572.000000	77.944486 
3571.000000	77.941519 
3570.000000	77.937073 
3569.000000	77.932307 
3568.000000	77.927565 
3567.000000	77.923076 
3566.000000	77.919947 
3565.000000	77.919740 
3564.000000	77.923167 
3563.000000	77.929467 
3562.000000	77.936632 
3561.000000	77.942299 
3560.000000	77.944825 
3559.000000	77.944118 
3558.000000	77.941609 
3557.000000	77.939474 
3556.000000	77.939098 
3555.000000	77.940171 
3554.000000	77.941115 
3553.000000	77.940575 
3552.000000	77.938235 
3551.000000	77.934650 
3550.000000	77.930643 
3549.000000	77.927003 
3548.000000	77.924087 
3547.000000	77.921702 
3546.000000	77.919888 
3545.000000	77.919747 
3544.000000	77.922433 
3543.000000	77.927440 
3542.000000	77.932639 
3541.000000	77.936118 
3540.000000	77.937407 
3539.000000	77.937348 
3538.000000	77.937333 
3537.000000	77.938639 
3536.000000	77.941998 
3535.000000	77.947251 
3534.000000	77.953597 
3533.000000	77.959982 
3532.000000	77.965469 
3531.000000	77.969390 
3530.000000	77.971757 
3529.000000	77.973259 
3528.000000	77.974361 
3527.000000	77.974405 
3526.000000	77.972389 
3525.000000	77.968619 
3524.000000	77.964936 
3523.000000	77.963029 
3522.000000	77.963071 
3521.000000	77.964275 
3520.000000	77.966205 
3519.000000	77.968979 
3518.000000	77.972391 
3517.000000	77.975349 
3516.000000	77.976577 
3515.000000	77.975652 
3514.000000	77.973412 
3513.000000	77.971544 
3512.000000	77.971870 
3511.000000	77.975377 
3510.000000	77.981449 
3509.000000	77.987897 
3508.000000	77.992415 
3507.000000	77.994276 
3506.000000	77.994483 
3505.000000	77.994702 
3504.000000	77.996031 
3503.000000	77.998598 
3502.000000	78.001955 
3501.000000	78.005516 
3500.000000	78.008690 
3499.000000	78.010918 
3498.000000	78.011833 
3497.000000	78.011390 
3496.000000	78.009874 
3495.000000	78.007849 
3494.000000	78.006102 
3493.000000	78.005438 
3492.000000	78.006391 
3491.000000	78.009027 
3490.000000	78.012837 
3489.000000	78.016779 
3488.000000	78.019736 
3487.000000	78.021229 
3486.000000	78.021752 
3485.000000	78.022371 
3484.000000	78.023830 
3483.000000	78.025974 
3482.000000	78.028065 
3481.000000	78.029651 
3480.000000	78.030987 
3479.000000	78.032506 
3478.000000	78.033912 
3477.000000	78.034180 
3476.000000	78.032682 
3475.000000	78.030278 
3474.000000	78.028956 
3473.000000	78.029972 
3472.000000	78.032709 
3471.000000	78.035392 
3470.000000	78.036883 
3469.000000	78.037358 
3468.000000	78.037486 
3467.000000	78.037710 
3466.000000	78.038401 
3465.000000	78.039998 
3464.000000	78.042421 
3463.000000	78.044682 
3462.000000	78.045728 
3461.000000	78.045632 
3460.000000	78.045620 
3459.000000	78.046804 
3458.000000	78.049142 
3457.000000	78.051697 
3456.000000	78.053721 
3455.000000	78.055185 
3454.000000	78.056426 
3453.000000	78.057696 
3452.000000	78.059310 
3451.000000	78.061717 
3450.000000	78.065006 
3449.000000	78.068487 
3448.000000	78.071421 
3447.000000	78.074130 
3446.000000	78.077624 
3445.000000	78.081890 
3444.000000	78.085419 
3443.000000	78.086915 
3442.000000	78.086711 
3441.000000	78.086030 
3440.000000	78.085216 
3439.000000	78.083506 
3438.000000	78.080555 
3437.000000	78.077349 
3436.000000	78.075389 
3435.000000	78.075293 
3434.000000	78.076518 
3433.000000	78.077946 
3432.000000	78.078727 
3431.000000	78.078791 
3430.000000	78.078869 
3429.000000	78.079941 
3428.000000	78.082507 
3427.000000	78.086262 
3426.000000	78.090329 
3425.000000	78.093663 
3424.000000	78.095438 
3423.000000	78.095486 
3422.000000	78.094525 
3421.000000	78.093764 
3420.000000	78.094199 
3419.000000	78.096287 
3418.000000	78.099851 
3417.000000	78.103732 
3416.000000	78.106018 
3415.000000	78.105567 
3414.000000	78.103348 
3413.000000	78.101592 
3412.000000	78.101185 
3411.000000	78.100804 
3410.000000	78.099072 
3409.000000	78.096581 
3408.000000	78.095076 
3407.000000	78.095254 
3406.000000	78.096254 
3405.000000	78.096891 
3404.000000	78.096479 
3403.000000	78.094621 
3402.000000	78.091235 
3401.000000	78.087172 
3400.000000	78.084204 
3399.000000	78.083835 
3398.000000	78.086233 
3397.000000	78.090197 
3396.000000	78.093872 
3395.000000	78.095760 
3394.000000	78.095445 
3393.000000	78.093784 
3392.000000	78.092365 
3391.000000	78.092243 
3390.000000	78.093092 
3389.000000	78.093741 
3388.000000	78.093642 
3387.000000	78.093634 
3386.000000	78.095022 
3385.000000	78.097860 
3384.000000	78.100529 
3383.000000	78.101382 
3382.000000	78.100505 
3381.000000	78.099335 
3380.000000	78.098734 
3379.000000	78.098110 
3378.000000	78.096723 
3377.000000	78.095084 
3376.000000	78.094432 
3375.000000	78.095207 
3374.000000	78.096620 
3373.000000	78.097550 
3372.000000	78.097353 
3371.000000	78.095924 
3370.000000	78.093496 
3369.000000	78.090588 
3368.000000	78.087753 
3367.000000	78.085224 
3366.000000	78.082970 
3365.000000	78.081167 
3364.000000	78.080389 
3363.000000	78.081111 
3362.000000	78.083016 
3361.000000	78.084824 
3360.000000	78.085049 
3359.000000	78.083203 
3358.000000	78.080322 
3357.000000	78.077991 
3356.000000	78.076554 
3355.000000	78.074639 
3354.000000	78.070824 
3353.000000	78.065425 
3352.000000	78.060280 
3351.000000	78.056914 
3350.000000	78.055568 
3349.000000	78.055896 
3348.000000	78.057529 
3347.000000	78.059581 
3346.000000	78.060526 
3345.000000	78.059425 
3344.000000	78.057025 
3343.000000	78.054947 
3342.000000	78.053830 
3341.000000	78.052886 
3340.000000	78.051197 
3339.000000	78.048683 
3338.000000	78.045593 
3337.000000	78.041921 
3336.000000	78.037881 
3335.000000	78.034489 
3334.000000	78.032831 
3333.000000	78.032733 
3332.000000	78.032671 
3331.000000	78.031271 
3330.000000	78.028561 
3329.000000	78.025487 
3328.000000	78.022496 
3327.000000	78.019176 
3326.000000	78.015230 
3325.000000	78.011143 
3324.000000	78.007630 
3323.000000	78.004723 
3322.000000	78.001701 
3321.000000	77.997859 
3320.000000	77.993083 
3319.000000	77.987716 
3318.000000	77.982269 
3317.000000	77.977351 
3316.000000	77.973470 
3315.000000	77.970576 
3314.000000	77.967908 
3313.000000	77.964591 
3312.000000	77.960472 
3311.000000	77.956120 
3310.000000	77.952021 
3309.000000	77.948030 
3308.000000	77.943732 
3307.000000	77.939004 
3306.000000	77.934046 
3305.000000	77.929078 
3304.000000	77.924307 
3303.000000	77.919979 
3302.000000	77.916192 
3301.000000	77.912679 
3300.000000	77.908950 
3299.000000	77.904713 
3298.000000	77.900072 
3297.000000	77.895304 
3296.000000	77.890591 
3295.000000	77.885961 
3294.000000	77.881398 
3293.000000	77.876900 
3292.000000	77.872457 
3291.000000	77.868033 
3290.000000	77.863583 
3289.000000	77.859080 
3288.000000	77.854532 
3287.000000	77.849972 
3286.000000	77.845445 
3285.000000	77.840987 
3284.000000	77.836596 
3283.000000	77.832245 
3282.000000	77.827900 
3281.000000	77.823541 
3280.000000	77.819160 
3279.000000	77.814748 
3278.000000	77.810295 
3277.000000	77.805812 
3276.000000	77.801333 
3275.000000	77.796895 
3274.000000	77.792511 
3273.000000	77.788166 
3272.000000	77.783835 
3271.000000	77.779483 
3270.000000	77.775080 
3269.000000	77.770647 
3268.000000	77.766287 
3267.000000	77.762099 
3266.000000	77.758039 
3265.000000	77.753916 
3264.000000	77.749590 
3263.000000	77.745178 
3262.000000	77.740992 
3261.000000	77.737186 
3260.000000	77.733495 
3259.000000	77.729505 
3258.000000	77.725155 
3257.000000	77.720757 
3256.000000	77.716447 
3255.000000	77.711968 
3254.000000	77.707168 
3253.000000	77.702419 
3252.000000	77.698260 
3251.000000	77.694755 
3250.000000	77.691415 
3249.000000	77.687794 
3248.000000	77.683926 
3247.000000	77.680037 
3246.000000	77.676039 
3245.000000	77.671545 
3244.000000	77.666358 
3243.000000	77.660688 
3242.000000	77.654913 
3241.000000	77.649314 
3240.000000	77.644070 
3239.000000	77.639440 
3238.000000	77.635647 
3237.000000	77.632469 
3236.000000	77.629151 
3235.000000	77.624992 
3234.000000	77.619996 
3233.000000	77.614760 
3232.000000	77.609761 
3231.000000	77.604996 
3230.000000	77.600434 
3229.000000	77.596450 
3228.000000	77.593476 
3227.000000	77.591348 
3226.000000	77.589237 
3225.000000	77.586294 
3224.000000	77.582292 
3223.000000	77.577709 
3222.000000	77.573308 
3221.000000	77.569542 
3220.000000	77.566070 
3219.000000	77.561927 
3218.000000	77.556445 
3217.000000	77.550035 
3216.000000	77.544035 
3215.000000	77.539570 
3214.000000	77.536607 
3213.000000	77.534054 
3212.000000	77.530685 
3211.000000	77.526142 
3210.000000	77.520972 
3209.000000	77.515984 
3208.000000	77.511549 
3207.000000	77.507414 
3206.000000	77.503004 
3205.000000	77.497885 
3204.000000	77.492172 
3203.000000	77.486585 
3202.000000	77.481894 
3201.000000	77.478203 
3200.000000	77.474874 
3199.000000	77.471248 
3198.000000	77.467323 
3197.000000	77.463516 
3196.000000	77.460029 
3195.000000	77.456730 
3194.000000	77.453522 
3193.000000	77.450475 
3192.000000	77.447507 
3191.000000	77.444250 
3190.000000	77.440403 
3189.000000	77.436071 
3188.000000	77.431656 
3187.000000	77.427536 
3186.000000	77.423892 
3185.000000	77.420644 
3184.000000	77.417356 
3183.000000	77.413400 
3182.000000	77.408482 
3181.000000	77.403123 
3180.000000	77.398373 
3179.000000	77.394857 
3178.000000	77.392347 
3177.000000	77.390205 
3176.000000	77.388102 
3175.000000	77.385976 
3174.000000	77.383562 
3173.000000	77.380485 
3172.000000	77.376751 
3171.000000	77.372761 
3170.000000	77.368674 
3169.000000	77.364279 
3168.000000	77.359670 
3167.000000	77.355543 
3166.000000	77.352489 
3165.000000	77.350266 
3164.000000	77.347968 
3163.000000	77.344980 
3162.000000	77.341476 
3161.000000	77.337984 
3160.000000	77.334755 
3159.000000	77.331682 
3158.000000	77.328612 
3157.000000	77.325505 
3156.000000	77.322343 
3155.000000	77.319107 
3154.000000	77.315896 
3153.000000	77.312926 
3152.000000	77.310305 
3151.000000	77.307883 
3150.000000	77.305392 
3149.000000	77.302755 
3148.000000	77.300104 
3147.000000	77.297540 
3146.000000	77.294997 
3145.000000	77.292366 
3144.000000	77.289635 
3143.000000	77.286840 
3142.000000	77.283988 
3141.000000	77.281157 
3140.000000	77.278627 
3139.000000	77.276662 
3138.000000	77.275182 
3137.000000	77.273780 
3136.000000	77.272048 
3135.000000	77.269897 
3134.000000	77.267498 
3133.000000	77.265065 
3132.000000	77.262723 
3131.000000	77.260508 
3130.000000	77.258392 
3129.000000	77.256298 
3128.000000	77.254174 
3127.000000	77.252113 
3126.000000	77.250280 
3125.000000	77.248701 
3124.000000	77.247185 
3123.000000	77.245518 
3122.000000	77.243650 
3121.000000	77.241624 
3120.000000	77.239447 
3119.000000	77.237118 
3118.000000	77.234781 
3117.000000	77.232724 
3116.000000	77.231155 
3115.000000	77.230038 
3114.000000	77.229123 
3113.000000	77.228016 
3112.000000	77.226322 
3111.000000	77.223883 
3110.000000	77.221065 
3109.000000	77.218688 
3108.000000	77.217379 
3107.000000	77.217057 
3106.000000	77.216990 
3105.000000	77.216536 
3104.000000	77.215592 
3103.000000	77.214246 
3102.000000	77.212413 
3101.000000	77.210112 
3100.000000	77.207858 
3099.000000	77.206271 
3098.000000	77.205330 
3097.000000	77.204432 
3096.000000	77.203209 
3095.000000	77.201793 
3094.000000	77.200106 
3093.000000	77.197501 
3092.000000	77.193630 
3091.000000	77.189300 
3090.000000	77.185894 
3089.000000	77.184053 
3088.000000	77.183449 
3087.000000	77.183566 
3086.000000	77.184081 
3085.000000	77.184448 
3084.000000	77.183839 
3083.000000	77.181860 
3082.000000	77.178906 
3081.000000	77.175627 
3080.000000	77.172422 
3079.000000	77.169767 
3078.000000	77.168495 
3077.000000	77.169104 
3076.000000	77.170950 
3075.000000	77.172509 
3074.000000	77.172652 
3073.000000	77.171515 
3072.000000	77.170259 
3071.000000	77.170091 
3070.000000	77.171306 
3069.000000	77.173026 
3068.000000	77.173859 
3067.000000	77.173039 
3066.000000	77.170945 
3065.000000	77.168813 
3064.000000	77.167867 
3063.000000	77.168437 
3062.000000	77.169558 
3061.000000	77.169515 
3060.000000	77.167390 
3059.000000	77.164150 
3058.000000	77.161827 
3057.000000	77.161147 
3056.000000	77.160604 
3055.000000	77.158429 
3054.000000	77.154990 
3053.000000	77.152396 
3052.000000	77.151797 
3051.000000	77.152075 
3050.000000	77.151509 
3049.000000	77.149861 
3048.000000	77.148169 
3047.000000	77.147176 
3046.000000	77.146717 
3045.000000	77.146221 
3044.000000	77.145212 
3043.000000	77.143654 
3042.000000	77.142176 
3041.000000	77.141422 
3040.000000	77.140880 
3039.000000	77.139238 
3038.000000	77.136452 
3037.000000	77.134635 
3036.000000	77.136019 
3035.000000	77.140481 
3034.000000	77.145642 
3033.000000	77.149106 
3032.000000	77.150276 
3031.000000	77.150455 
3030.000000	77.151430 
3029.000000	77.153406 
3028.000000	77.154331 
3027.000000	77.151905 
3026.000000	77.146186 
3025.000000	77.139367 
3024.000000	77.132961 
3023.000000	77.126387 
3022.000000	77.118729 
3021.000000	77.110554 
3020.000000	77.103186 
3019.000000	77.097217 
3018.000000	77.092676 
3017.000000	77.089639 
3016.000000	77.087580 
3015.000000	77.085139 
3014.000000	77.081981 
3013.000000	77.080250 
3012.000000	77.082307 
3011.000000	77.087019 
3010.000000	77.089932 
3009.000000	77.087877 
3008.000000	77.082510 
3007.000000	77.078652 
3006.000000	77.079642 
3005.000000	77.084796 
3004.000000	77.090547 
3003.000000	77.093263 
3002.000000	77.091403 
3001.000000	77.086327 
3000.000000	77.081601 
2999.000000	77.080825 
2998.000000	77.085071 
2997.000000	77.092140 
2996.000000	77.098680 
2995.000000	77.103177 
2994.000000	77.106705 
2993.000000	77.111087 
2992.000000	77.117223 
2991.000000	77.125421 
2990.000000	77.136625 
2989.000000	77.152679 
2988.000000	77.175559 
2987.000000	77.206385 
2986.000000	77.244264 
2985.000000	77.285526 
2984.000000	77.324945 
2983.000000	77.358913 
2982.000000	77.387279 
2981.000000	77.411776 
2980.000000	77.433443 
2979.000000	77.452507 
2978.000000	77.469780 
2977.000000	77.486268 
2976.000000	77.501573 
2975.000000	77.514253 
2974.000000	77.523642 
2973.000000	77.529150 
2972.000000	77.527492 
2971.000000	77.513381 
2970.000000	77.485116 
2969.000000	77.448422 
2968.000000	77.412892 
2967.000000	77.384714 
2966.000000	77.363848 
2965.000000	77.346948 
2964.000000	77.330564 
2963.000000	77.312133 
2962.000000	77.290758 
2961.000000	77.268324 
2960.000000	77.248488 
2959.000000	77.233629 
2958.000000	77.223646 
2957.000000	77.218113 
2956.000000	77.218057 
2955.000000	77.224382 
2954.000000	77.235221 
2953.000000	77.246184 
2952.000000	77.253180 
2951.000000	77.254520 
2950.000000	77.250791 
2949.000000	77.243799 
2948.000000	77.235653 
2947.000000	77.228073 
2946.000000	77.222388 
2945.000000	77.220558 
2944.000000	77.225529 
2943.000000	77.239108 
2942.000000	77.258952 
2941.000000	77.278812 
2940.000000	77.293144 
2939.000000	77.301754 
2938.000000	77.309198 
2937.000000	77.319718 
2936.000000	77.333339 
2935.000000	77.346916 
2934.000000	77.358003 
2933.000000	77.366581 
2932.000000	77.373323 
2931.000000	77.377474 
2930.000000	77.377480 
2929.000000	77.373176 
2928.000000	77.366303 
2927.000000	77.358794 
2926.000000	77.351721 
2925.000000	77.346230 
2924.000000	77.344033 
2923.000000	77.345273 
2922.000000	77.346506 
2921.000000	77.342808 
2920.000000	77.332381 
2919.000000	77.317971 
2918.000000	77.303393 
2917.000000	77.289624 
2916.000000	77.274901 
2915.000000	77.257737 
2914.000000	77.239053 
2913.000000	77.221967 
2912.000000	77.209975 
2911.000000	77.204427 
2910.000000	77.202821 
2909.000000	77.200139 
2908.000000	77.193285 
2907.000000	77.184190 
2906.000000	77.177596 
2905.000000	77.176002 
2904.000000	77.178021 
2903.000000	77.181395 
2902.000000	77.185911 
2901.000000	77.192317 
2900.000000	77.199346 
2899.000000	77.203183 
2898.000000	77.200213 
2897.000000	77.190188 
2896.000000	77.177074 
2895.000000	77.166639 
2894.000000	77.162225 
2893.000000	77.162255 
2892.000000	77.162198 
2891.000000	77.159198 
2890.000000	77.154210 
2889.000000	77.149547 
2888.000000	77.145776 
2887.000000	77.142048 
2886.000000	77.138405 
2885.000000	77.136026 
2884.000000	77.135370 
2883.000000	77.135594 
2882.000000	77.136095 
2881.000000	77.137311 
2880.000000	77.139463 
2879.000000	77.141628 
2878.000000	77.142934 
2877.000000	77.143743 
2876.000000	77.144419 
2875.000000	77.143424 
2874.000000	77.138202 
2873.000000	77.128275 
2872.000000	77.116550 
2871.000000	77.106979 
2870.000000	77.101238 
2869.000000	77.098238 
2868.000000	77.096131 
2867.000000	77.094144 
2866.000000	77.092764 
2865.000000	77.092634 
2864.000000	77.093446 
2863.000000	77.093856 
2862.000000	77.092792 
2861.000000	77.090890 
2860.000000	77.090005 
2859.000000	77.090888 
2858.000000	77.091914 
2857.000000	77.090831 
2856.000000	77.087156 
2855.000000	77.082124 
2854.000000	77.077019 
2853.000000	77.072631 
2852.000000	77.069801 
2851.000000	77.068646 
2850.000000	77.066969 
2849.000000	77.061318 
2848.000000	77.050616 
2847.000000	77.037895 
2846.000000	77.027495 
2845.000000	77.020909 
2844.000000	77.016469 
2843.000000	77.012266 
2842.000000	77.008059 
2841.000000	77.004450 
2840.000000	77.001578 
2839.000000	76.999220 
2838.000000	76.997289 
2837.000000	76.995423 
2836.000000	76.992539 
2835.000000	76.987632 
2834.000000	76.981015 
2833.000000	76.974254 
2832.000000	76.968644 
2831.000000	76.963968 
2830.000000	76.958992 
2829.000000	76.953085 
2828.000000	76.947113 
2827.000000	76.942637 
2826.000000	76.940387 
2825.000000	76.939632 
2824.000000	76.938783 
2823.000000	76.936560 
2822.000000	76.932879 
2821.000000	76.928862 
2820.000000	76.925756 
2819.000000	76.923561 
2818.000000	76.921008 
2817.000000	76.917338 
2816.000000	76.913638 
2815.000000	76.911550 
2814.000000	76.910901 
2813.000000	76.909705 
2812.000000	76.906772 
2811.000000	76.903155 
2810.000000	76.900416 
2809.000000	76.898427 
2808.000000	76.895805 
2807.000000	76.891939 
2806.000000	76.887584 
2805.000000	76.883725 
2804.000000	76.880772 
2803.000000	76.878789 
2802.000000	76.877543 
2801.000000	76.876425 
2800.000000	76.875029 
2799.000000	76.873824 
2798.000000	76.873814 
2797.000000	76.875504 
2796.000000	76.878337 
2795.000000	76.880782 
2794.000000	76.880876 
2793.000000	76.877479 
2792.000000	76.871745 
2791.000000	76.867008 
2790.000000	76.865986 
2789.000000	76.868394 
2788.000000	76.871619 
2787.000000	76.873614 
2786.000000	76.874488 
2785.000000	76.875339 
2784.000000	76.876645 
2783.000000	76.878051 
2782.000000	76.878904 
2781.000000	76.878607 
2780.000000	76.876946 
2779.000000	76.874402 
2778.000000	76.871699 
2777.000000	76.869003 
2776.000000	76.866037 
2775.000000	76.862946 
2774.000000	76.860410 
2773.000000	76.858845 
2772.000000	76.857984 
2771.000000	76.857301 
2770.000000	76.856346 
2769.000000	76.854787 
2768.000000	76.852800 
2767.000000	76.851394 
2766.000000	76.851531 
2765.000000	76.852737 
2764.000000	76.853288 
2763.000000	76.852141 
2762.000000	76.850017 
2761.000000	76.848240 
2760.000000	76.847096 
2759.000000	76.845850 
2758.000000	76.843993 
2757.000000	76.841885 
2756.000000	76.840306 
2755.000000	76.839686 
2754.000000	76.839643 
2753.000000	76.839141 
2752.000000	76.837507 
2751.000000	76.835501 
2750.000000	76.834803 
2749.000000	76.836151 
2748.000000	76.838535 
2747.000000	76.840404 
2746.000000	76.841266 
2745.000000	76.841555 
2744.000000	76.841468 
2743.000000	76.840729 
2742.000000	76.839161 
2741.000000	76.836817 
2740.000000	76.833761 
2739.000000	76.830330 
2738.000000	76.827476 
2737.000000	76.826145 
2736.000000	76.826247 
2735.000000	76.826649 
2734.000000	76.826326 
2733.000000	76.825292 
2732.000000	76.824317 
2731.000000	76.824127 
2730.000000	76.824931 
2729.000000	76.826338 
2728.000000	76.827612 
2727.000000	76.828303 
2726.000000	76.828699 
2725.000000	76.829357 
2724.000000	76.830132 
2723.000000	76.830090 
2722.000000	76.828506 
2721.000000	76.825539 
2720.000000	76.821936 
2719.000000	76.818439 
2718.000000	76.815637 
2717.000000	76.814071 
2716.000000	76.813976 
2715.000000	76.815064 
2714.000000	76.816770 
2713.000000	76.818580 
2712.000000	76.819972 
2711.000000	76.820262 
2710.000000	76.818954 
2709.000000	76.816301 
2708.000000	76.813224 
2707.000000	76.810601 
2706.000000	76.808737 
2705.000000	76.807505 
2704.000000	76.806779 
2703.000000	76.806531 
2702.000000	76.806606 
2701.000000	76.806655 
2700.000000	76.806347 
2699.000000	76.805539 
2698.000000	76.804213 
2697.000000	76.802411 
2696.000000	76.800357 
2695.000000	76.798495 
2694.000000	76.797105 
2693.000000	76.795877 
2692.000000	76.794143 
2691.000000	76.791689 
2690.000000	76.789174 
2689.000000	76.787482 
2688.000000	76.786739 
2687.000000	76.786289 
2686.000000	76.785595 
2685.000000	76.784863 
2684.000000	76.784522 
2683.000000	76.784509 
2682.000000	76.784434 
2681.000000	76.784198 
2680.000000	76.783988 
2679.000000	76.783695 
2678.000000	76.782818 
2677.000000	76.781135 
2676.000000	76.779113 
2675.000000	76.777522 
2674.000000	76.776613 
2673.000000	76.776077 
2672.000000	76.775611 
2671.000000	76.775248 
2670.000000	76.775028 
2669.000000	76.774719 
2668.000000	76.774055 
2667.000000	76.773062 
2666.000000	76.772005 
2665.000000	76.771160 
2664.000000	76.770595 
2663.000000	76.770193 
2662.000000	76.769778 
2661.000000	76.769243 
2660.000000	76.768616 
2659.000000	76.767978 
2658.000000	76.767368 
2657.000000	76.766765 
2656.000000	76.766154 
2655.000000	76.765557 
2654.000000	76.765001 
2653.000000	76.764485 
2652.000000	76.763987 
2651.000000	76.763485 
2650.000000	76.762970 
2649.000000	76.762435 
2648.000000	76.761881 
2647.000000	76.761314 
2646.000000	76.760730 
2645.000000	76.760121 
2644.000000	76.759488 
2643.000000	76.758831 
2642.000000	76.758153 
2641.000000	76.757460 
2640.000000	76.756761 
2639.000000	76.756062 
2638.000000	76.755372 
2637.000000	76.754693 
2636.000000	76.754012 
2635.000000	76.753318 
2634.000000	76.752621 
2633.000000	76.751946 
2632.000000	76.751312 
2631.000000	76.750725 
2630.000000	76.750179 
2629.000000	76.749621 
2628.000000	76.748949 
2627.000000	76.748111 
2626.000000	76.747222 
2625.000000	76.746488 
2624.000000	76.745949 
2623.000000	76.745404 
2622.000000	76.744622 
2621.000000	76.743617 
2620.000000	76.742689 
2619.000000	76.742182 
2618.000000	76.742193 
2617.000000	76.742402 
2616.000000	76.742284 
2615.000000	76.741560 
2614.000000	76.740386 
2613.000000	76.739124 
2612.000000	76.737955 
2611.000000	76.736864 
2610.000000	76.735914 
2609.000000	76.735319 
2608.000000	76.735167 
2607.000000	76.735148 
2606.000000	76.734647 
2605.000000	76.733156 
2604.000000	76.730653 
2603.000000	76.727724 
2602.000000	76.725302 
2601.000000	76.724117 
2600.000000	76.724399 
2599.000000	76.725861 
2598.000000	76.727785 
2597.000000	76.729332 
2596.000000	76.730069 
2595.000000	76.730231 
2594.000000	76.730337 
2593.000000	76.730489 
2592.000000	76.730234 
2591.000000	76.729210 
2590.000000	76.727675 
2589.000000	76.726309 
2588.000000	76.725613 
2587.000000	76.725608 
2586.000000	76.725914 
2585.000000	76.725985 
2584.000000	76.725439 
2583.000000	76.724311 
2582.000000	76.722935 
2581.000000	76.721593 
2580.000000	76.720431 
2579.000000	76.719695 
2578.000000	76.719721 
2577.000000	76.720528 
2576.000000	76.721659 
2575.000000	76.722594 
2574.000000	76.723199 
2573.000000	76.723629 
2572.000000	76.724009 
2571.000000	76.724356 
2570.000000	76.724613 
2569.000000	76.724655 
2568.000000	76.724352 
2567.000000	76.723735 
2566.000000	76.723073 
2565.000000	76.722694 
2564.000000	76.722727 
2563.000000	76.723070 
2562.000000	76.723472 
2561.000000	76.723660 
2560.000000	76.723489 
2559.000000	76.723019 
2558.000000	76.722453 
2557.000000	76.722002 
2556.000000	76.721729 
2555.000000	76.721563 
2554.000000	76.721379 
2553.000000	76.721104 
2552.000000	76.720760 
2551.000000	76.720417 
2550.000000	76.720106 
2549.000000	76.719788 
2548.000000	76.719408 
2547.000000	76.718977 
2546.000000	76.718586 
2545.000000	76.718314 
2544.000000	76.718144 
2543.000000	76.717930 
2542.000000	76.717501 
2541.000000	76.716829 
2540.000000	76.716047 
2539.000000	76.715316 
2538.000000	76.714668 
2537.000000	76.714026 
2536.000000	76.713299 
2535.000000	76.712455 
2534.000000	76.711517 
2533.000000	76.710530 
2532.000000	76.709552 
2531.000000	76.708657 
2530.000000	76.707895 
2529.000000	76.707231 
2528.000000	76.706552 
2527.000000	76.705765 
2526.000000	76.704878 
2525.000000	76.703981 
2524.000000	76.703177 
2523.000000	76.702521 
2522.000000	76.702001 
2521.000000	76.701488 
2520.000000	76.700776 
2519.000000	76.699735 
2518.000000	76.698406 
2517.000000	76.696988 
2516.000000	76.695710 
2515.000000	76.694685 
2514.000000	76.693888 
2513.000000	76.693179 
2512.000000	76.692413 
2511.000000	76.691554 
2510.000000	76.690640 
2509.000000	76.689685 
2508.000000	76.688670 
2507.000000	76.687625 
2506.000000	76.686617 
2505.000000	76.685657 
2504.000000	76.684689 
2503.000000	76.683744 
2502.000000	76.682957 
2501.000000	76.682332 
2500.000000	76.681607 
2499.000000	76.680506 
2498.000000	76.679072 
2497.000000	76.677683 
2496.000000	76.676678 
2495.000000	76.676074 
2494.000000	76.675668 
2493.000000	76.675307 
2492.000000	76.674944 
2491.000000	76.674578 
2490.000000	76.674245 
2489.000000	76.673971 
2488.000000	76.673636 
2487.000000	76.673032 
2486.000000	76.672131 
2485.000000	76.671166 
2484.000000	76.670376 
2483.000000	76.669734 
2482.000000	76.669043 
2481.000000	76.668228 
2480.000000	76.667417 
2479.000000	76.666719 
2478.000000	76.666087 
2477.000000	76.665438 
2476.000000	76.664797 
2475.000000	76.664231 
2474.000000	76.663679 
2473.000000	76.662992 
2472.000000	76.662181 
2471.000000	76.661500 
2470.000000	76.661177 
2469.000000	76.661133 
2468.000000	76.661014 
2467.000000	76.660514 
2466.000000	76.659627 
2465.000000	76.658586 
2464.000000	76.657665 
2463.000000	76.656990 
2462.000000	76.656500 
2461.000000	76.656026 
2460.000000	76.655433 
2459.000000	76.654731 
2458.000000	76.654039 
2457.000000	76.653427 
2456.000000	76.652860 
2455.000000	76.652266 
2454.000000	76.651618 
2453.000000	76.650900 
2452.000000	76.650074 
2451.000000	76.649157 
2450.000000	76.648343 
2449.000000	76.647926 
2448.000000	76.648001 
2447.000000	76.648356 
2446.000000	76.648574 
2445.000000	76.648387 
2444.000000	76.647846 
2443.000000	76.647222 
2442.000000	76.646780 
2441.000000	76.646536 
2440.000000	76.646310 
2439.000000	76.645953 
2438.000000	76.645476 
2437.000000	76.644993 
2436.000000	76.644610 
2435.000000	76.644373 
2434.000000	76.644253 
2433.000000	76.644158 
2432.000000	76.644012 
2431.000000	76.643811 
2430.000000	76.643586 
2429.000000	76.643327 
2428.000000	76.643008 
2427.000000	76.642652 
2426.000000	76.642301 
2425.000000	76.641923 
2424.000000	76.641438 
2423.000000	76.640828 
2422.000000	76.640163 
2421.000000	76.639531 
2420.000000	76.639002 
2419.000000	76.638630 
2418.000000	76.638429 
2417.000000	76.638349 
2416.000000	76.638337 
2415.000000	76.638345 
2414.000000	76.638249 
2413.000000	76.637847 
2412.000000	76.637052 
2411.000000	76.636086 
2410.000000	76.635356 
2409.000000	76.635033 
2408.000000	76.634900 
2407.000000	76.634608 
2406.000000	76.634044 
2405.000000	76.633326 
2404.000000	76.632584 
2403.000000	76.631804 
2402.000000	76.630942 
2401.000000	76.630059 
2400.000000	76.629246 
2399.000000	76.628524 
2398.000000	76.627840 
2397.000000	76.627116 
2396.000000	76.626307 
2395.000000	76.625432 
2394.000000	76.624520 
2393.000000	76.623597 
2392.000000	76.622711 
2391.000000	76.621911 
2390.000000	76.621184 
2389.000000	76.620438 
2388.000000	76.619625 
2387.000000	76.618781 
2386.000000	76.617956 
2385.000000	76.617163 
2384.000000	76.616397 
2383.000000	76.615654 
2382.000000	76.614925 
2381.000000	76.614190 
2380.000000	76.613445 
2379.000000	76.612701 
2378.000000	76.611976 
2377.000000	76.611283 
2376.000000	76.610631 
2375.000000	76.610022 
2374.000000	76.609461 
2373.000000	76.608952 
2372.000000	76.608494 
2371.000000	76.608078 
2370.000000	76.607689 
2369.000000	76.607316 
2368.000000	76.606946 
2367.000000	76.606570 
2366.000000	76.606188 
2365.000000	76.605814 
2364.000000	76.605468 
2363.000000	76.605172 
2362.000000	76.604939 
2361.000000	76.604762 
2360.000000	76.604622 
2359.000000	76.604498 
2358.000000	76.604380 
2357.000000	76.604267 
2356.000000	76.604162 
2355.000000	76.604069 
2354.000000	76.603991 
2353.000000	76.603932 
2352.000000	76.603910 
2351.000000	76.603939 
2350.000000	76.604018 
2349.000000	76.604126 
2348.000000	76.604229 
2347.000000	76.604302 
2346.000000	76.604347 
2345.000000	76.604384 
2344.000000	76.604446 
2343.000000	76.604548 
2342.000000	76.604690 
2341.000000	76.604857 
2340.000000	76.605035 
2339.000000	76.605229 
2338.000000	76.605454 
2337.000000	76.605712 
2336.000000	76.605986 
2335.000000	76.606239 
2334.000000	76.606441 
2333.000000	76.606580 
2332.000000	76.606666 
2331.000000	76.606714 
2330.000000	76.606737 
2329.000000	76.606746 
2328.000000	76.606755 
2327.000000	76.606776 
2326.000000	76.606819 
2325.000000	76.606884 
2324.000000	76.606968 
2323.000000	76.607063 
2322.000000	76.607158 
2321.000000	76.607237 
2320.000000	76.607289 
2319.000000	76.607312 
2318.000000	76.607319 
2317.000000	76.607319 
2316.000000	76.607314 
2315.000000	76.607289 
2314.000000	76.607244 
2313.000000	76.607181 
2312.000000	76.607115 
2311.000000	76.607036 
2310.000000	76.606934 
2309.000000	76.606789 
2308.000000	76.606591 
2307.000000	76.606323 
2306.000000	76.606004 
2305.000000	76.605738 
2304.000000	76.605667 
2303.000000	76.605788 
2302.000000	76.605964 
2301.000000	76.605992 
2300.000000	76.605793 
2299.000000	76.605426 
2298.000000	76.605053 
2297.000000	76.604763 
2296.000000	76.604529 
2295.000000	76.604260 
2294.000000	76.603913 
2293.000000	76.603513 
2292.000000	76.603121 
2291.000000	76.602786 
2290.000000	76.602520 
2289.000000	76.602294 
2288.000000	76.602061 
2287.000000	76.601788 
2286.000000	76.601474 
2285.000000	76.601144 
2284.000000	76.600813 
2283.000000	76.600479 
2282.000000	76.600142 
2281.000000	76.599813 
2280.000000	76.599505 
2279.000000	76.599221 
2278.000000	76.598946 
2277.000000	76.598657 
2276.000000	76.598346 
2275.000000	76.598011 
2274.000000	76.597647 
2273.000000	76.597235 
2272.000000	76.596777 
2271.000000	76.596316 
2270.000000	76.595918 
2269.000000	76.595616 
2268.000000	76.595385 
2267.000000	76.595167 
2266.000000	76.594931 
2265.000000	76.594680 
2264.000000	76.594437 
2263.000000	76.594216 
2262.000000	76.594025 
2261.000000	76.593856 
2260.000000	76.593691 
2259.000000	76.593537 
2258.000000	76.593424 
2257.000000	76.593359 
2256.000000	76.593312 
2255.000000	76.593250 
2254.000000	76.593167 
2253.000000	76.593074 
2252.000000	76.592986 
2251.000000	76.592912 
2250.000000	76.592851 
2249.000000	76.592800 
2248.000000	76.592754 
2247.000000	76.592715 
2246.000000	76.592690 
2245.000000	76.592686 
2244.000000	76.592702 
2243.000000	76.592733 
2242.000000	76.592773 
2241.000000	76.592813 
2240.000000	76.592848 
2239.000000	76.592878 
2238.000000	76.592909 
2237.000000	76.592948 
2236.000000	76.593000 
2235.000000	76.593067 
2234.000000	76.593150 
2233.000000	76.593252 
2232.000000	76.593375 
2231.000000	76.593515 
2230.000000	76.593663 
2229.000000	76.593813 
2228.000000	76.593957 
2227.000000	76.594094 
2226.000000	76.594230 
2225.000000	76.594370 
2224.000000	76.594517 
2223.000000	76.594668 
2222.000000	76.594813 
2221.000000	76.594947 
2220.000000	76.595068 
2219.000000	76.595180 
2218.000000	76.595286 
2217.000000	76.595384 
2216.000000	76.595470 
2215.000000	76.595542 
2214.000000	76.595607 
2213.000000	76.595679 
2212.000000	76.595770 
2211.000000	76.595884 
2210.000000	76.596020 
2209.000000	76.596174 
2208.000000	76.596343 
2207.000000	76.596522 
2206.000000	76.596704 
2205.000000	76.596882 
2204.000000	76.597049 
2203.000000	76.597201 
2202.000000	76.597342 
2201.000000	76.597479 
2200.000000	76.597618 
2199.000000	76.597764 
2198.000000	76.597914 
2197.000000	76.598064 
2196.000000	76.598207 
2195.000000	76.598337 
2194.000000	76.598457 
2193.000000	76.598569 
2192.000000	76.598681 
2191.000000	76.598792 
2190.000000	76.598891 
2189.000000	76.598966 
2188.000000	76.599020 
2187.000000	76.599090 
2186.000000	76.599225 
2185.000000	76.599456 
2184.000000	76.599725 
2183.000000	76.599911 
2182.000000	76.599934 
2181.000000	76.599827 
2180.000000	76.599688 
2179.000000	76.599595 
2178.000000	76.599593 
2177.000000	76.599676 
2176.000000	76.599742 
2175.000000	76.599665 
2174.000000	76.599468 
2173.000000	76.599341 
2172.000000	76.599419 
2171.000000	76.599662 
2170.000000	76.600009 
2169.000000	76.600510 
2168.000000	76.601152 
2167.000000	76.601658 
2166.000000	76.601681 
2165.000000	76.601149 
2164.000000	76.600278 
2163.000000	76.599295 
2162.000000	76.598289 
2161.000000	76.597311 
2160.000000	76.596506 
2159.000000	76.596087 
2158.000000	76.596202 
2157.000000	76.596721 
2156.000000	76.597204 
2155.000000	76.597297 
2154.000000	76.597156 
2153.000000	76.597293 
2152.000000	76.597928 
2151.000000	76.598690 
2150.000000	76.599041 
2149.000000	76.598838 
2148.000000	76.598377 
2147.000000	76.598007 
2146.000000	76.597838 
2145.000000	76.597790 
2144.000000	76.597790 
2143.000000	76.597846 
2142.000000	76.597942 
2141.000000	76.597946 
2140.000000	76.597709 
2139.000000	76.597251 
2138.000000	76.596806 
2137.000000	76.596671 
2136.000000	76.597023 
2135.000000	76.597836 
2134.000000	76.598859 
2133.000000	76.599686 
2132.000000	76.600015 
2131.000000	76.599895 
2130.000000	76.599657 
2129.000000	76.599583 
2128.000000	76.599689 
2127.000000	76.599864 
2126.000000	76.600037 
2125.000000	76.600136 
2124.000000	76.600057 
2123.000000	76.599808 
2122.000000	76.599576 
2121.000000	76.599561 
2120.000000	76.599754 
2119.000000	76.599976 
2118.000000	76.600067 
2117.000000	76.600026 
2116.000000	76.599957 
2115.000000	76.599956 
2114.000000	76.600052 
2113.000000	76.600240 
2112.000000	76.600494 
2111.000000	76.600737 
2110.000000	76.600847 
2109.000000	76.600741 
2108.000000	76.600484 
2107.000000	76.600292 
2106.000000	76.600356 
2105.000000	76.600670 
2104.000000	76.601032 
2103.000000	76.601233 
2102.000000	76.601238 
2101.000000	76.601218 
2100.000000	76.601403 
2099.000000	76.601879 
2098.000000	76.602492 
2097.000000	76.602967 
2096.000000	76.603181 
2095.000000	76.603253 
2094.000000	76.603310 
2093.000000	76.603246 
2092.000000	76.602863 
2091.000000	76.602216 
2090.000000	76.601640 
2089.000000	76.601403 
2088.000000	76.601519 
2087.000000	76.601952 
2086.000000	76.602711 
2085.000000	76.603574 
2084.000000	76.604024 
2083.000000	76.603781 
2082.000000	76.603224 
2081.000000	76.603019 
2080.000000	76.603379 
2079.000000	76.604006 
2078.000000	76.604594 
2077.000000	76.604965 
2076.000000	76.604861 
2075.000000	76.604165 
2074.000000	76.603282 
2073.000000	76.602679 
2072.000000	76.602128 
2071.000000	76.601051 
2070.000000	76.599495 
2069.000000	76.598174 
2068.000000	76.597523 
2067.000000	76.597341 
2066.000000	76.597403 
2065.000000	76.597715 
2064.000000	76.598027 
2063.000000	76.597836 
2062.000000	76.597153 
2061.000000	76.596579 
2060.000000	76.596278 
2059.000000	76.595519 
2058.000000	76.593684 
2057.000000	76.591238 
2056.000000	76.589218 
2055.000000	76.588056 
2054.000000	76.587485 
2053.000000	76.587283 
2052.000000	76.587557 
2051.000000	76.588335 
2050.000000	76.589342 
2049.000000	76.590231 
2048.000000	76.590730 
2047.000000	76.590456 
2046.000000	76.588915 
2045.000000	76.585931 
2044.000000	76.582026 
2043.000000	76.578292 
2042.000000	76.575657 
2041.000000	76.574177 
2040.000000	76.573143 
2039.000000	76.571972 
2038.000000	76.570948 
2037.000000	76.570837 
2036.000000	76.571926 
2035.000000	76.573642 
2034.000000	76.574978 
2033.000000	76.575263 
2032.000000	76.574556 
2031.000000	76.573455 
2030.000000	76.572494 
2029.000000	76.571634 
2028.000000	76.570421 
2027.000000	76.568692 
2026.000000	76.566854 
2025.000000	76.565352 
2024.000000	76.564063 
2023.000000	76.562622 
2022.000000	76.561164 
2021.000000	76.560255 
2020.000000	76.560077 
2019.000000	76.560073 
2018.000000	76.559540 
2017.000000	76.558446 
2016.000000	76.557446 
2015.000000	76.557170 
2014.000000	76.557618 
2013.000000	76.558215 
2012.000000	76.558350 
2011.000000	76.557909 
2010.000000	76.557226 
2009.000000	76.556572 
2008.000000	76.555824 
2007.000000	76.554753 
2006.000000	76.553486 
2005.000000	76.552508 
2004.000000	76.552196 
2003.000000	76.552507 
2002.000000	76.553088 
2001.000000	76.553554 
2000.000000	76.553703 
1999.000000	76.553468 
1998.000000	76.552872 
1997.000000	76.552035 
1996.000000	76.551194 
1995.000000	76.550619 
1994.000000	76.550437 
1993.000000	76.550555 
1992.000000	76.550779 
1991.000000	76.551046 
1990.000000	76.551421 
1989.000000	76.551879 
1988.000000	76.552260 
1987.000000	76.552447 
1986.000000	76.552495 
1985.000000	76.552552 
1984.000000	76.552730 
1983.000000	76.553063 
1982.000000	76.553514 
1981.000000	76.553976 
1980.000000	76.554330 
1979.000000	76.554552 
1978.000000	76.554747 
1977.000000	76.555062 
1976.000000	76.555553 
1975.000000	76.556167 
1974.000000	76.556796 
1973.000000	76.557359 
1972.000000	76.557825 
1971.000000	76.558231 
1970.000000	76.558670 
1969.000000	76.559187 
1968.000000	76.559699 
1967.000000	76.560105 
1966.000000	76.560504 
1965.000000	76.561138 
1964.000000	76.562084 
1963.000000	76.563140 
1962.000000	76.564077 
1961.000000	76.564917 
1960.000000	76.565805 
1959.000000	76.566667 
1958.000000	76.567279 
1957.000000	76.567708 
1956.000000	76.568313 
1955.000000	76.569160 
1954.000000	76.569743 
1953.000000	76.569528 
1952.000000	76.568640 
1951.000000	76.567981 
1950.000000	76.568401 
1949.000000	76.569851 
1948.000000	76.571409 
1947.000000	76.572228 
1946.000000	76.572482 
1945.000000	76.573094 
1944.000000	76.574575 
1943.000000	76.576446 
1942.000000	76.577884 
1941.000000	76.578576 
1940.000000	76.578675 
1939.000000	76.578544 
1938.000000	76.578792 
1937.000000	76.580003 
1936.000000	76.581915 
1935.000000	76.583418 
1934.000000	76.583974 
1933.000000	76.584354 
1932.000000	76.585259 
1931.000000	76.585971 
1930.000000	76.585088 
1929.000000	76.582646 
1928.000000	76.580345 
1927.000000	76.579354 
1926.000000	76.579417 
1925.000000	76.579693 
1924.000000	76.580263 
1923.000000	76.581692 
1922.000000	76.583758 
1921.000000	76.585652 
1920.000000	76.586938 
1919.000000	76.587106 
1918.000000	76.585241 
1917.000000	76.581294 
1916.000000	76.577103 
1915.000000	76.574501 
1914.000000	76.573319 
1913.000000	76.572076 
1912.000000	76.570257 
1911.000000	76.568990 
1910.000000	76.568970 
1909.000000	76.569015 
1908.000000	76.567341 
1907.000000	76.563632 
1906.000000	76.559522 
1905.000000	76.556595 
1904.000000	76.555463 
1903.000000	76.555773 
1902.000000	76.556373 
1901.000000	76.556000 
1900.000000	76.554078 
1899.000000	76.551052 
1898.000000	76.548328 
1897.000000	76.547003 
1896.000000	76.546930 
1895.000000	76.546999 
1894.000000	76.546420 
1893.000000	76.545764 
1892.000000	76.546186 
1891.000000	76.547683 
1890.000000	76.548873 
1889.000000	76.548731 
1888.000000	76.547713 
1887.000000	76.546690 
1886.000000	76.546032 
1885.000000	76.546179 
1884.000000	76.547904 
1883.000000	76.551091 
1882.000000	76.553884 
1881.000000	76.554492 
1880.000000	76.553177 
1879.000000	76.551641 
1878.000000	76.551313 
1877.000000	76.552484 
1876.000000	76.554841 
1875.000000	76.558042 
1874.000000	76.561258 
1873.000000	76.563157 
1872.000000	76.563064 
1871.000000	76.561612 
1870.000000	76.560132 
1869.000000	76.559783 
1868.000000	76.561174 
1867.000000	76.563938 
1866.000000	76.566830 
1865.000000	76.569021 
1864.000000	76.570858 
1863.000000	76.573139 
1862.000000	76.575904 
1861.000000	76.578382 
1860.000000	76.580254 
1859.000000	76.582298 
1858.000000	76.585396 
1857.000000	76.589302 
1856.000000	76.592799 
1855.000000	76.594860 
1854.000000	76.595406 
1853.000000	76.595419 
1852.000000	76.596326 
1851.000000	76.598357 
1850.000000	76.600633 
1849.000000	76.602257 
1848.000000	76.603125 
1847.000000	76.603715 
1846.000000	76.604676 
1845.000000	76.606686 
1844.000000	76.610067 
1843.000000	76.614067 
1842.000000	76.616954 
1841.000000	76.617894 
1840.000000	76.617570 
1839.000000	76.617225 
1838.000000	76.617768 
1837.000000	76.619081 
1836.000000	76.620528 
1835.000000	76.621535 
1834.000000	76.622011 
1833.000000	76.622918 
1832.000000	76.625612 
1831.000000	76.629697 
1830.000000	76.632868 
1829.000000	76.633398 
1828.000000	76.632190 
1827.000000	76.631441 
1826.000000	76.632054 
1825.000000	76.632929 
1824.000000	76.632992 
1823.000000	76.632890 
1822.000000	76.633519 
1821.000000	76.634517 
1820.000000	76.635292 
1819.000000	76.636568 
1818.000000	76.638773 
1817.000000	76.639670 
1816.000000	76.637745 
1815.000000	76.635660 
1814.000000	76.636694 
1813.000000	76.640053 
1812.000000	76.642465 
1811.000000	76.644546 
1810.000000	76.649435 
1809.000000	76.656413 
1808.000000	76.662530 
1807.000000	76.667549 
1806.000000	76.673178 
1805.000000	76.679419 
1804.000000	76.684484 
1803.000000	76.687117 
1802.000000	76.687359 
1801.000000	76.686694 
1800.000000	76.686444 
1799.000000	76.687911 
1798.000000	76.690596 
1797.000000	76.692036 
1796.000000	76.691394 
1795.000000	76.691508 
1794.000000	76.696239 
1793.000000	76.706110 
1792.000000	76.717103 
1791.000000	76.725395 
1790.000000	76.728803 
1789.000000	76.728707 
1788.000000	76.731068 
1787.000000	76.740973 
1786.000000	76.756002 
1785.000000	76.767561 
1784.000000	76.771587 
1783.000000	76.773154 
1782.000000	76.778055 
1781.000000	76.786181 
1780.000000	76.791588 
1779.000000	76.791838 
1778.000000	76.790383 
1777.000000	76.790729 
1776.000000	76.792868 
1775.000000	76.796739 
1774.000000	76.806679 
1773.000000	76.826436 
1772.000000	76.849818 
1771.000000	76.868062 
1770.000000	76.883080 
1769.000000	76.900764 
1768.000000	76.922119 
1767.000000	76.943812 
1766.000000	76.963527 
1765.000000	76.982193 
1764.000000	77.000918 
1763.000000	77.020408 
1762.000000	77.041984 
1761.000000	77.066050 
1760.000000	77.089396 
1759.000000	77.111329 
1758.000000	77.134626 
1757.000000	77.160783 
1756.000000	77.185395 
1755.000000	77.205014 
1754.000000	77.225360 
1753.000000	77.253680 
1752.000000	77.286581 
1751.000000	77.311253 
1750.000000	77.323285 
1749.000000	77.331268 
1748.000000	77.343216 
1747.000000	77.358373 
1746.000000	77.374661 
1745.000000	77.392201 
1744.000000	77.407822 
1743.000000	77.417589 
1742.000000	77.423285 
1741.000000	77.430755 
1740.000000	77.440842 
1739.000000	77.448132 
1738.000000	77.448071 
1737.000000	77.440355 
1736.000000	77.425006 
1735.000000	77.399367 
1734.000000	77.363998 
1733.000000	77.333099 
1732.000000	77.315827 
1731.000000	77.308579 
1730.000000	77.307153 
1729.000000	77.308333 
1728.000000	77.307121 
1727.000000	77.298739 
1726.000000	77.283462 
1725.000000	77.265333 
1724.000000	77.247411 
1723.000000	77.232586 
1722.000000	77.222292 
1721.000000	77.214989 
1720.000000	77.206741 
1719.000000	77.192939 
1718.000000	77.170778 
1717.000000	77.142814 
1716.000000	77.119382 
1715.000000	77.107037 
1714.000000	77.099621 
1713.000000	77.086346 
1712.000000	77.063826 
1711.000000	77.036516 
1710.000000	77.009999 
1709.000000	76.986791 
1708.000000	76.965848 
1707.000000	76.944550 
1706.000000	76.921338 
1705.000000	76.896836 
1704.000000	76.875255 
1703.000000	76.860528 
1702.000000	76.854259 
1701.000000	76.852568 
1700.000000	76.844289 
1699.000000	76.832529 
1698.000000	76.826160 
1697.000000	76.826751 
1696.000000	76.833419 
1695.000000	76.843163 
1694.000000	76.848791 
1693.000000	76.845392 
1692.000000	76.835903 
1691.000000	76.827427 
1690.000000	76.824820 
1689.000000	76.826457 
1688.000000	76.826319 
1687.000000	76.821586 
1686.000000	76.817368 
1685.000000	76.817263 
1684.000000	76.816824 
1683.000000	76.814668 
1682.000000	76.811874 
1681.000000	76.810312 
1680.000000	76.811302 
1679.000000	76.815116 
1678.000000	76.823174 
1677.000000	76.837239 
1676.000000	76.853179 
1675.000000	76.861535 
1674.000000	76.861279 
1673.000000	76.860567 
1672.000000	76.862289 
1671.000000	76.865054 
1670.000000	76.868110 
1669.000000	76.874509 
1668.000000	76.883739 
1667.000000	76.888664 
1666.000000	76.886409 
1665.000000	76.880961 
1664.000000	76.877534 
1663.000000	76.877775 
1662.000000	76.879474 
1661.000000	76.882305 
1660.000000	76.886882 
1659.000000	76.892335 
1658.000000	76.897661 
1657.000000	76.902171 
1656.000000	76.904431 
1655.000000	76.902724 
1654.000000	76.897074 
1653.000000	76.890593 
1652.000000	76.891781 
1651.000000	76.898455 
1650.000000	76.903964 
1649.000000	76.906692 
1648.000000	76.907772 
1647.000000	76.907846 
1646.000000	76.908297 
1645.000000	76.910208 
1644.000000	76.912536 
1643.000000	76.913561 
1642.000000	76.912300 
1641.000000	76.909645 
1640.000000	76.907330 
1639.000000	76.906094 
1638.000000	76.905539 
1637.000000	76.905079 
1636.000000	76.904478 
1635.000000	76.903542 
1634.000000	76.902968 
1633.000000	76.902728 
1632.000000	76.902736 
1631.000000	76.903009 
1630.000000	76.903312 
1629.000000	76.903498 
1628.000000	76.903721 
1627.000000	76.903623 
1626.000000	76.902346 
1625.000000	76.900050 
1624.000000	76.898225 
1623.000000	76.898323 
1622.000000	76.900078 
1621.000000	76.902105 
1620.000000	76.903213 
1619.000000	76.903099 
1618.000000	76.902204 
1617.000000	76.901307 
1616.000000	76.901273 
1615.000000	76.901803 
1614.000000	76.901966 
1613.000000	76.901878 
1612.000000	76.902290 
1611.000000	76.903307 
1610.000000	76.904322 
1609.000000	76.905221 
1608.000000	76.906208 
1607.000000	76.906925 
1606.000000	76.906938 
1605.000000	76.906667 
1604.000000	76.906650 
1603.000000	76.906922 
1602.000000	76.907400 
1601.000000	76.908157 
1600.000000	76.909144 
1599.000000	76.910073 
1598.000000	76.910799 
1597.000000	76.911551 
1596.000000	76.912642 
1595.000000	76.914114 
1594.000000	76.915760 
1593.000000	76.917406 
1592.000000	76.918947 
1591.000000	76.920263 
1590.000000	76.921309 
1589.000000	76.922296 
1588.000000	76.923515 
1587.000000	76.925003 
1586.000000	76.926623 
1585.000000	76.928441 
1584.000000	76.930572 
1583.000000	76.932503 
1582.000000	76.933717 
1581.000000	76.934739 
1580.000000	76.936489 
1579.000000	76.938725 
1578.000000	76.940551 
1577.000000	76.941884 
1576.000000	76.943621 
1575.000000	76.945942 
1574.000000	76.947638 
1573.000000	76.947966 
1572.000000	76.947255 
1571.000000	76.946718 
1570.000000	76.947596 
1569.000000	76.950571 
1568.000000	76.954799 
1567.000000	76.958111 
1566.000000	76.960199 
1565.000000	76.962413 
1564.000000	76.965348 
1563.000000	76.967419 
1562.000000	76.967681 
1561.000000	76.968015 
1560.000000	76.971460 
1559.000000	76.974613 
1558.000000	76.974750 
1557.000000	76.977075 
1556.000000	76.980844 
1555.000000	76.982611 
1554.000000	76.982496 
1553.000000	76.984342 
1552.000000	76.989536 
1551.000000	76.995119 
1550.000000	76.997596 
1549.000000	76.996502 
1548.000000	76.994447 
1547.000000	76.993392 
1546.000000	76.993594 
1545.000000	76.994646 
1544.000000	76.996284 
1543.000000	76.997991 
1542.000000	76.999378 
1541.000000	76.998583 
1540.000000	76.993499 
1539.000000	76.987635 
1538.000000	76.985652 
1537.000000	76.986107 
1536.000000	76.985999 
1535.000000	76.983901 
1534.000000	76.980449 
1533.000000	76.978332 
1532.000000	76.978796 
1531.000000	76.979905 
1530.000000	76.979430 
1529.000000	76.976741 
1528.000000	76.973310 
1527.000000	76.971798 
1526.000000	76.973665 
1525.000000	76.977341 
1524.000000	76.979687 
1523.000000	76.979376 
1522.000000	76.977512 
1521.000000	76.976260 
1520.000000	76.976955 
1519.000000	76.978629 
1518.000000	76.980934 
1517.000000	76.983594 
1516.000000	76.985060 
1515.000000	76.984846 
1514.000000	76.984904 
1513.000000	76.986942 
1512.000000	76.989269 
1511.000000	76.990099 
1510.000000	76.989780 
1509.000000	76.989800 
1508.000000	76.990690 
1507.000000	76.992695 
1506.000000	76.994686 
1505.000000	76.995514 
1504.000000	76.996079 
1503.000000	76.997279 
1502.000000	76.999747 
1501.000000	77.003837 
1500.000000	77.008917 
1499.000000	77.015341 
1498.000000	77.025122 
1497.000000	77.036400 
1496.000000	77.042389 
1495.000000	77.041365 
1494.000000	77.038211 
1493.000000	77.037677 
1492.000000	77.040962 
1491.000000	77.046972 
1490.000000	77.053719 
1489.000000	77.058822 
1488.000000	77.061051 
1487.000000	77.063338 
1486.000000	77.067941 
1485.000000	77.073954 
1484.000000	77.079933 
1483.000000	77.084173 
1482.000000	77.086307 
1481.000000	77.087203 
1480.000000	77.089535 
1479.000000	77.096367 
1478.000000	77.108313 
1477.000000	77.121328 
1476.000000	77.130413 
1475.000000	77.136038 
1474.000000	77.142797 
1473.000000	77.153711 
1472.000000	77.165132 
1471.000000	77.173288 
1470.000000	77.179296 
1469.000000	77.185729 
1468.000000	77.192724 
1467.000000	77.199309 
1466.000000	77.205850 
1465.000000	77.214341 
1464.000000	77.224996 
1463.000000	77.235144 
1462.000000	77.243002 
1461.000000	77.248670 
1460.000000	77.253664 
1459.000000	77.260195 
1458.000000	77.270778 
1457.000000	77.282576 
1456.000000	77.287132 
1455.000000	77.282426 
1454.000000	77.275417 
1453.000000	77.272206 
1452.000000	77.273017 
1451.000000	77.275597 
1450.000000	77.279186 
1449.000000	77.282967 
1448.000000	77.283363 
1447.000000	77.278373 
1446.000000	77.271669 
1445.000000	77.269148 
1444.000000	77.271334 
1443.000000	77.274279 
1442.000000	77.275163 
1441.000000	77.274938 
1440.000000	77.275940 
1439.000000	77.279699 
1438.000000	77.286876 
1437.000000	77.294326 
1436.000000	77.296151 
1435.000000	77.291324 
1434.000000	77.285587 
1433.000000	77.283899 
1432.000000	77.287034 
1431.000000	77.292683 
1430.000000	77.298310 
1429.000000	77.301269 
1428.000000	77.299072 
1427.000000	77.292866 
1426.000000	77.287726 
1425.000000	77.288749 
1424.000000	77.293825 
1423.000000	77.295796 
1422.000000	77.292239 
1421.000000	77.286581 
1420.000000	77.280696 
1419.000000	77.273172 
1418.000000	77.267100 
1417.000000	77.265516 
1416.000000	77.266405 
1415.000000	77.266627 
1414.000000	77.264334 
1413.000000	77.259395 
1412.000000	77.252757 
1411.000000	77.246890 
1410.000000	77.245170 
1409.000000	77.248121 
1408.000000	77.252978 
1407.000000	77.257893 
1406.000000	77.263646 
1405.000000	77.272669 
1404.000000	77.283199 
1403.000000	77.289503 
1402.000000	77.289381 
1401.000000	77.286067 
1400.000000	77.284036 
1399.000000	77.285213 
1398.000000	77.288436 
1397.000000	77.290165 
1396.000000	77.287874 
1395.000000	77.284205 
1394.000000	77.287612 
1393.000000	77.304595 
1392.000000	77.331575 
1391.000000	77.360238 
1390.000000	77.386023 
1389.000000	77.410409 
1388.000000	77.436736 
1387.000000	77.465327 
1386.000000	77.493199 
1385.000000	77.519196 
1384.000000	77.544183 
1383.000000	77.567634 
1382.000000	77.588309 
1381.000000	77.606616 
1380.000000	77.623288 
1379.000000	77.636424 
1378.000000	77.644077 
1377.000000	77.648447 
1376.000000	77.653854 
1375.000000	77.660896 
1374.000000	77.666080 
1373.000000	77.666866 
1372.000000	77.663303 
1371.000000	77.656942 
1370.000000	77.650365 
1369.000000	77.647877 
1368.000000	77.652686 
1367.000000	77.662386 
1366.000000	77.669641 
1365.000000	77.668012 
1364.000000	77.656282 
1363.000000	77.639905 
1362.000000	77.626740 
1361.000000	77.618932 
1360.000000	77.612676 
1359.000000	77.605537 
1358.000000	77.599332 
1357.000000	77.596349 
1356.000000	77.595048 
1355.000000	77.591669 
1354.000000	77.585225 
1353.000000	77.578096 
1352.000000	77.572145 
1351.000000	77.567354 
1350.000000	77.563147 
1349.000000	77.559006 
1348.000000	77.553032 
1347.000000	77.543503 
1346.000000	77.532108 
1345.000000	77.522643 
1344.000000	77.515806 
1343.000000	77.508409 
1342.000000	77.498251 
1341.000000	77.487036 
1340.000000	77.477455 
1339.000000	77.469244 
1338.000000	77.459917 
1337.000000	77.448364 
1336.000000	77.435646 
1335.000000	77.423608 
1334.000000	77.414247 
1333.000000	77.409005 
1332.000000	77.407182 
1331.000000	77.405891 
1330.000000	77.402417 
1329.000000	77.396292 
1328.000000	77.389144 
1327.000000	77.383550 
1326.000000	77.381603 
1325.000000	77.382805 
1324.000000	77.383344 
1323.000000	77.379179 
1322.000000	77.370259 
1321.000000	77.360433 
1320.000000	77.353266 
1319.000000	77.349323 
1318.000000	77.347362 
1317.000000	77.346337 
1316.000000	77.345399 
1315.000000	77.343460 
1314.000000	77.340246 
1313.000000	77.337021 
1312.000000	77.335042 
1311.000000	77.333696 
1310.000000	77.331203 
1309.000000	77.326914 
1308.000000	77.322276 
1307.000000	77.319390 
1306.000000	77.318769 
1305.000000	77.318632 
1304.000000	77.316560 
1303.000000	77.311762 
1302.000000	77.305732 
1301.000000	77.300535 
1300.000000	77.296583 
1299.000000	77.292548 
1298.000000	77.287209 
1297.000000	77.280862 
1296.000000	77.275001 
1295.000000	77.270961 
1294.000000	77.268760 
1293.000000	77.266964 
1292.000000	77.263755 
1291.000000	77.258474 
1290.000000	77.252125 
1289.000000	77.246179 
1288.000000	77.241055 
1287.000000	77.236161 
1286.000000	77.231031 
1285.000000	77.225816 
1284.000000	77.221000 
1283.000000	77.217214 
1282.000000	77.214836 
1281.000000	77.213069 
1280.000000	77.209979 
1279.000000	77.204532 
1278.000000	77.198330 
1277.000000	77.194184 
1276.000000	77.192905 
1275.000000	77.192455 
1274.000000	77.190189 
1273.000000	77.184930 
1272.000000	77.176761 
1271.000000	77.166221 
1270.000000	77.154712 
1269.000000	77.144929 
1268.000000	77.139776 
1267.000000	77.140545 
1266.000000	77.145587 
1265.000000	77.150053 
1264.000000	77.147876 
1263.000000	77.136148 
1262.000000	77.118141 
1261.000000	77.101079 
1260.000000	77.090635 
1259.000000	77.087532 
1258.000000	77.088384 
1257.000000	77.088599 
1256.000000	77.085103 
1255.000000	77.078165 
1254.000000	77.070685 
1253.000000	77.064585 
1252.000000	77.058710 
1251.000000	77.051822 
1250.000000	77.046323 
1249.000000	77.046320 
1248.000000	77.052376 
1247.000000	77.060274 
1246.000000	77.064689 
1245.000000	77.062412 
1244.000000	77.053604 
1243.000000	77.043189 
1242.000000	77.039905 
1241.000000	77.049517 
1240.000000	77.068407 
1239.000000	77.087173 
1238.000000	77.101123 
1237.000000	77.113676 
1236.000000	77.129059 
1235.000000	77.146494 
1234.000000	77.163498 
1233.000000	77.179988 
1232.000000	77.195043 
1231.000000	77.203077 
1230.000000	77.198378 
1229.000000	77.182300 
1228.000000	77.161846 
1227.000000	77.141082 
1226.000000	77.116893 
1225.000000	77.084027 
1224.000000	77.042816 
1223.000000	77.001617 
1222.000000	76.972382 
1221.000000	76.963125 
1220.000000	76.972435 
1219.000000	76.989215 
1218.000000	76.998085 
1217.000000	76.987231 
1216.000000	76.953514 
1215.000000	76.902564 
1214.000000	76.844757 
1213.000000	76.789453 
1212.000000	76.741258 
1211.000000	76.700209 
1210.000000	76.663959 
1209.000000	76.629760 
1208.000000	76.596004 
1207.000000	76.562981 
1206.000000	76.531480 
1205.000000	76.500017 
1204.000000	76.464446 
1203.000000	76.421411 
1202.000000	76.371729 
1201.000000	76.319615 
1200.000000	76.269102 
1199.000000	76.221721 
1198.000000	76.176598 
1197.000000	76.131854 
1196.000000	76.086465 
1195.000000	76.041350 
1194.000000	75.998134 
1193.000000	75.956797 
1192.000000	75.915746 
1191.000000	75.874530 
1190.000000	75.835171 
1189.000000	75.800111 
1188.000000	75.769754 
1187.000000	75.742191 
1186.000000	75.714057 
1185.000000	75.681734 
1184.000000	75.643839 
1183.000000	75.603599 
1182.000000	75.566953 
1181.000000	75.536809 
1180.000000	75.510226 
1179.000000	75.482031 
1178.000000	75.449564 
1177.000000	75.412782 
1176.000000	75.371842 
1175.000000	75.326972 
1174.000000	75.279574 
1173.000000	75.231212 
1172.000000	75.182233 
1171.000000	75.133196 
1170.000000	75.086700 
1169.000000	75.045608 
1168.000000	75.009649 
1167.000000	74.975507 
1166.000000	74.940796 
1165.000000	74.907620 
1164.000000	74.882609 
1163.000000	74.873726 
1162.000000	74.885279 
1161.000000	74.913683 
1160.000000	74.947647 
1159.000000	74.973981 
1158.000000	74.984340 
1157.000000	74.976937 
1156.000000	74.954131 
1155.000000	74.920704 
1154.000000	74.882806 
1153.000000	74.844675 
1152.000000	74.805575 
1151.000000	74.762325 
1150.000000	74.715395 
1149.000000	74.670286 
1148.000000	74.631873 
1147.000000	74.599077 
1146.000000	74.566191 
1145.000000	74.528207 
1144.000000	74.484078 
1143.000000	74.436640 
1142.000000	74.391000 
1141.000000	74.351457 
1140.000000	74.317456 
1139.000000	74.282546 
1138.000000	74.239491 
1137.000000	74.187312 
1136.000000	74.132129 
1135.000000	74.080649 
1134.000000	74.034147 
1133.000000	73.989776 
1132.000000	73.945764 
1131.000000	73.902577 
1130.000000	73.859586 
1129.000000	73.813899 
1128.000000	73.763908 
1127.000000	73.712093 
1126.000000	73.662747 
1125.000000	73.617896 
1124.000000	73.576664 
1123.000000	73.537429 
1122.000000	73.499037 
1121.000000	73.460595 
1120.000000	73.421423 
1119.000000	73.381040 
1118.000000	73.338758 
1117.000000	73.294070 
1116.000000	73.248055 
1115.000000	73.203396 
1114.000000	73.162234 
1113.000000	73.124757 
1112.000000	73.090277 
1111.000000	73.058375 
1110.000000	73.028499 
1109.000000	72.999990 
1108.000000	72.972970 
1107.000000	72.947631 
1106.000000	72.922302 
1105.000000	72.894928 
1104.000000	72.867632 
1103.000000	72.846800 
1102.000000	72.836377 
1101.000000	72.833498 
1100.000000	72.833117 
1099.000000	72.834641 
1098.000000	72.840366 
1097.000000	72.849099 
1096.000000	72.855096 
1095.000000	72.852687 
1094.000000	72.838227 
1093.000000	72.808189 
1092.000000	72.760976 
1091.000000	72.702904 
1090.000000	72.647396 
1089.000000	72.603142 
1088.000000	72.564896 
1087.000000	72.519983 
1086.000000	72.462849 
1085.000000	72.400087 
1084.000000	72.341990 
1083.000000	72.292704 
1082.000000	72.249074 
1081.000000	72.205799 
1080.000000	72.159885 
1079.000000	72.112145 
1078.000000	72.066697 
1077.000000	72.028316 
1076.000000	71.998441 
1075.000000	71.973539 
1074.000000	71.948181 
1073.000000	71.919150 
1072.000000	71.885184 
1071.000000	71.843864 
1070.000000	71.791837 
1069.000000	71.729058 
1068.000000	71.660702 
1067.000000	71.593410 
1066.000000	71.530647 
1065.000000	71.473037 
1064.000000	71.422076 
1063.000000	71.381305 
1062.000000	71.353726 
1061.000000	71.339546 
1060.000000	71.336575 
1059.000000	71.342105 
1058.000000	71.354767 
1057.000000	71.374525 
1056.000000	71.399256 
1055.000000	71.421094 
1054.000000	71.428811 
1053.000000	71.414780 
1052.000000	71.376756 
1051.000000	71.312213 
1050.000000	71.216618 
1049.000000	71.091693 
1048.000000	70.950588 
1047.000000	70.808110 
1046.000000	70.667735 
1045.000000	70.524350 
1044.000000	70.378106 
1043.000000	70.238391 
1042.000000	70.112601 
1041.000000	69.996813 
1040.000000	69.881294 
1039.000000	69.762716 
1038.000000	69.649076 
1037.000000	69.554551 
1036.000000	69.489587 
1035.000000	69.452016 
1034.000000	69.426408 
1033.000000	69.396185 
1032.000000	69.358202 
1031.000000	69.322939 
1030.000000	69.300972 
1029.000000	69.293376 
1028.000000	69.294672 
1027.000000	69.299142 
1026.000000	69.302634 
1025.000000	69.303336 
1024.000000	69.303964 
1023.000000	69.310220 
1022.000000	69.324298 
1021.000000	69.341125 
1020.000000	69.352212 
1019.000000	69.352291 
1018.000000	69.342805 
1017.000000	69.331290 
1016.000000	69.327299 
1015.000000	69.336056 
1014.000000	69.354569 
1013.000000	69.374557 
1012.000000	69.388654 
1011.000000	69.393571 
1010.000000	69.390755 
1009.000000	69.387232 
1008.000000	69.392996 
1007.000000	69.412533 
1006.000000	69.439417 
1005.000000	69.463386 
1004.000000	69.482233 
1003.000000	69.502577 
1002.000000	69.529673 
1001.000000	69.561298 
1000.000000	69.592236 
999.000000	 69.620626 
998.000000	 69.648763 
997.000000	 69.680762 
996.000000	 69.720374 
995.000000	 69.768483 
994.000000	 69.821473 
993.000000	 69.873355 
992.000000	 69.919955 
991.000000	 69.960798 
990.000000	 69.998490 
989.000000	 70.037623 
988.000000	 70.082673 
987.000000	 70.135343 
986.000000	 70.195457 
985.000000	 70.265037 
984.000000	 70.347702 
983.000000	 70.441958 
982.000000	 70.539423 
981.000000	 70.633428 
980.000000	 70.725651 
979.000000	 70.820362 
978.000000	 70.916665 
977.000000	 71.011813 
976.000000	 71.108180 
975.000000	 71.209840 
974.000000	 71.314019 
973.000000	 71.412892 
972.000000	 71.503995 
971.000000	 71.593457 
970.000000	 71.688563 
969.000000	 71.791473 
968.000000	 71.900102 
967.000000	 72.010334 
966.000000	 72.116926 
965.000000	 72.216942 
964.000000	 72.313734 
963.000000	 72.413848 
962.000000	 72.518103 
961.000000	 72.618594 
960.000000	 72.706395 
959.000000	 72.780469 
958.000000	 72.847870 
957.000000	 72.916304 
956.000000	 72.987586 
955.000000	 73.057592 
954.000000	 73.120951 
953.000000	 73.175214 
952.000000	 73.221338 
951.000000	 73.262259 
950.000000	 73.302478 
949.000000	 73.347271 
948.000000	 73.398522 
947.000000	 73.450498 
946.000000	 73.493215 
945.000000	 73.522417 
944.000000	 73.544170 
943.000000	 73.567617 
942.000000	 73.595162 
941.000000	 73.622550 
940.000000	 73.646405 
939.000000	 73.667429 
938.000000	 73.687121 
937.000000	 73.705949 
936.000000	 73.725381 
935.000000	 73.747408 
934.000000	 73.770232 
933.000000	 73.788322 
932.000000	 73.799947 
931.000000	 73.812452 
930.000000	 73.836662 
929.000000	 73.876402 
928.000000	 73.925089 
927.000000	 73.970948 
926.000000	 74.003818 
925.000000	 74.019709 
924.000000	 74.023637 
923.000000	 74.028332 
922.000000	 74.045158 
921.000000	 74.073251 
920.000000	 74.099789 
919.000000	 74.113326 
918.000000	 74.115626 
917.000000	 74.118421 
916.000000	 74.130435 
915.000000	 74.150685 
914.000000	 74.173439 
913.000000	 74.196319 
912.000000	 74.222666 
911.000000	 74.257784 
910.000000	 74.303877 
909.000000	 74.357720 
908.000000	 74.413304 
907.000000	 74.468256 
906.000000	 74.527144 
905.000000	 74.596387 
904.000000	 74.676465 
903.000000	 74.761639 
902.000000	 74.846928 
901.000000	 74.931757 
900.000000	 75.015976 
899.000000	 75.097360 
898.000000	 75.175767 
897.000000	 75.255996 
896.000000	 75.341840 
895.000000	 75.429637 
894.000000	 75.511626 
893.000000	 75.584128 
892.000000	 75.649283 
891.000000	 75.711436 
890.000000	 75.776203 
889.000000	 75.850608 
888.000000	 75.937702 
887.000000	 76.030112 
886.000000	 76.114054 
885.000000	 76.182229 
884.000000	 76.239913 
883.000000	 76.296708 
882.000000	 76.354312 
881.000000	 76.404477 
880.000000	 76.437846 
879.000000	 76.452653 
878.000000	 76.455310 
877.000000	 76.454657 
876.000000	 76.457244 
875.000000	 76.466275 
874.000000	 76.480608 
873.000000	 76.494255 
872.000000	 76.502010 
871.000000	 76.509029 
870.000000	 76.530502 
869.000000	 76.576084 
868.000000	 76.636576 
867.000000	 76.691533 
866.000000	 76.730381 
865.000000	 76.761270 
864.000000	 76.798704 
863.000000	 76.847559 
862.000000	 76.900424 
861.000000	 76.945613 
860.000000	 76.975390 
859.000000	 76.990928 
858.000000	 77.002923 
857.000000	 77.024433 
856.000000	 77.060239 
855.000000	 77.104332 
854.000000	 77.147264 
853.000000	 77.182107 
852.000000	 77.203873 
851.000000	 77.210847 
850.000000	 77.210216 
849.000000	 77.216056 
848.000000	 77.235873 
847.000000	 77.262215 
846.000000	 77.281466 
845.000000	 77.287763 
844.000000	 77.285311 
843.000000	 77.281611 
842.000000	 77.282620 
841.000000	 77.290400 
840.000000	 77.299811 
839.000000	 77.300013 
838.000000	 77.284683 
837.000000	 77.259317 
836.000000	 77.233706 
835.000000	 77.208675 
834.000000	 77.175822 
833.000000	 77.131054 
832.000000	 77.084042 
831.000000	 77.052318 
830.000000	 77.047397 
829.000000	 77.067115 
828.000000	 77.099326 
827.000000	 77.131144 
826.000000	 77.155118 
825.000000	 77.168277 
824.000000	 77.168303 
823.000000	 77.154949 
822.000000	 77.135225 
821.000000	 77.121006 
820.000000	 77.117261 
819.000000	 77.115020 
818.000000	 77.099425 
817.000000	 77.064406 
816.000000	 77.017188 
815.000000	 76.968137 
814.000000	 76.918190 
813.000000	 76.858196 
812.000000	 76.779451 
811.000000	 76.680683 
810.000000	 76.562434 
809.000000	 76.418434 
808.000000	 76.239339 
807.000000	 76.025911 
806.000000	 75.792950 
805.000000	 75.557865 
804.000000	 75.330496 
803.000000	 75.116428 
802.000000	 74.923915 
801.000000	 74.762891 
800.000000	 74.640985 
799.000000	 74.564125 
798.000000	 74.537148 
797.000000	 74.558724 
796.000000	 74.616830 
795.000000	 74.693399 
794.000000	 74.774225 
793.000000	 74.852864 
792.000000	 74.927124 
791.000000	 74.996300 
790.000000	 75.060387 
789.000000	 75.115351 
788.000000	 75.147773 
787.000000	 75.140413 
786.000000	 75.088030 
785.000000	 75.005563 
784.000000	 74.917597 
783.000000	 74.840346 
782.000000	 74.774257 
781.000000	 74.712223 
780.000000	 74.653999 
779.000000	 74.613264 
778.000000	 74.609869 
777.000000	 74.653545 
776.000000	 74.735418 
775.000000	 74.836923 
774.000000	 74.946248 
773.000000	 75.062558 
772.000000	 75.184241 
771.000000	 75.299362 
770.000000	 75.392649 
769.000000	 75.459820 
768.000000	 75.510751 
767.000000	 75.559271 
766.000000	 75.612638 
765.000000	 75.670064 
764.000000	 75.727648 
763.000000	 75.781665 
762.000000	 75.826916 
761.000000	 75.855393 
760.000000	 75.862584 
759.000000	 75.858230 
758.000000	 75.865828 
757.000000	 75.903506 
756.000000	 75.964594 
755.000000	 76.021669 
754.000000	 76.051645 
753.000000	 76.055592 
752.000000	 76.055962 
751.000000	 76.078644 
750.000000	 76.135453 
749.000000	 76.216312 
748.000000	 76.295421 
747.000000	 76.350802 
746.000000	 76.382318 
745.000000	 76.409018 
744.000000	 76.448025 
743.000000	 76.499073 
742.000000	 76.550198 
741.000000	 76.592985 
740.000000	 76.629261 
739.000000	 76.667609 
738.000000	 76.716774 
737.000000	 76.778645 
736.000000	 76.843846 
735.000000	 76.896701 
734.000000	 76.927960 
733.000000	 76.941687 
732.000000	 76.950085 
731.000000	 76.964417 
730.000000	 76.990433 
729.000000	 77.027056 
728.000000	 77.064614 
727.000000	 77.090099 
726.000000	 77.101504 
725.000000	 77.112099 
724.000000	 77.134425 
723.000000	 77.163978 
722.000000	 77.185777 
721.000000	 77.195296 
720.000000	 77.206136 
719.000000	 77.235647 
718.000000	 77.286446 
717.000000	 77.342746 
716.000000	 77.381721 
715.000000	 77.388999 
714.000000	 77.368440 
713.000000	 77.339245 
712.000000	 77.321001 
711.000000	 77.319871 
710.000000	 77.327389 
709.000000	 77.330501 
708.000000	 77.321035 
707.000000	 77.300361 
706.000000	 77.279930 
705.000000	 77.271403 
704.000000	 77.271005 
703.000000	 77.258125 
702.000000	 77.212740 
701.000000	 77.133251 
700.000000	 77.036375 
699.000000	 76.939277 
698.000000	 76.846595 
697.000000	 76.754651 
696.000000	 76.666429 
695.000000	 76.603353 
694.000000	 76.596162 
693.000000	 76.661320 
692.000000	 76.784788 
691.000000	 76.926185 
690.000000	 77.044737 
689.000000	 77.122063 
688.000000	 77.164238 
687.000000	 77.191957 
686.000000	 77.226981 
685.000000	 77.281454 
684.000000	 77.353729 
683.000000	 77.430633 
682.000000	 77.496232 
681.000000	 77.540803 
680.000000	 77.565055 
679.000000	 77.577498 
678.000000	 77.587794 
677.000000	 77.605038 
676.000000	 77.635099 
675.000000	 77.679444 
674.000000	 77.736770 
673.000000	 77.801420 
672.000000	 77.857484 
671.000000	 77.884021 
670.000000	 77.867282 
669.000000	 77.820037 
668.000000	 77.809718 
667.000000	 77.892869 
666.000000	 78.028604 
665.000000	 78.170321 
664.000000	 78.300935 
663.000000	 78.401464 
662.000000	 78.458723 
661.000000	 78.486888 
660.000000	 78.515383 
659.000000	 78.562786 
658.000000	 78.631085 
657.000000	 78.712181 
656.000000	 78.785710 
655.000000	 78.828658 
654.000000	 78.842503 
653.000000	 78.855335 
652.000000	 78.886452 
651.000000	 78.929768 
650.000000	 78.977290 

