PE IR                   SPECTRUM    ASCII       PEDS        1.60        
  -1
~SP.SP
22/12/06
16:19:48.00
23/01/09
15:06:17.00
Administrator

650.000000
4









FRONTIER FT-IR,CPU32 MAIN 00.09.9951 07-SEPTEMBER-2011 11:49:41
MIR TGS
MIR
OPTKBR
90694
0.200000

4.000000
STRONG
RATIO
SPECTRUM
MAGNITUDE
MIRACLE ATR
DOUBLE

COMBINED


0


#HDR
-1
-1
#GR
CM-1
%T
0.00002384185791015625
0.0
4000.000000
-1.000000
3351
8
94.669769
89.412783
#DATA
4000.000000	94.647372 
3999.000000	94.642747 
3998.000000	94.633054 
3997.000000	94.621710 
3996.000000	94.612807 
3995.000000	94.608138 
3994.000000	94.607047 
3993.000000	94.607376 
3992.000000	94.607087 
3991.000000	94.605656 
3990.000000	94.604194 
3989.000000	94.604321 
3988.000000	94.606713 
3987.000000	94.610456 
3986.000000	94.613655 
3985.000000	94.614744 
3984.000000	94.613272 
3983.000000	94.609722 
3982.000000	94.604960 
3981.000000	94.599789 
3980.000000	94.594734 
3979.000000	94.589974 
3978.000000	94.585303 
3977.000000	94.580303 
3976.000000	94.574898 
3975.000000	94.569881 
3974.000000	94.566754 
3973.000000	94.566706 
3972.000000	94.569480 
3971.000000	94.573252 
3970.000000	94.575743 
3969.000000	94.575620 
3968.000000	94.572876 
3967.000000	94.568162 
3966.000000	94.562085 
3965.000000	94.555100 
3964.000000	94.547829 
3963.000000	94.541134 
3962.000000	94.535619 
3961.000000	94.531244 
3960.000000	94.527756 
3959.000000	94.525493 
3958.000000	94.525346 
3957.000000	94.527664 
3956.000000	94.531285 
3955.000000	94.533894 
3954.000000	94.533446 
3953.000000	94.529062 
3952.000000	94.520941 
3951.000000	94.510037 
3950.000000	94.497937 
3949.000000	94.486562 
3948.000000	94.477130 
3947.000000	94.469767 
3946.000000	94.464492 
3945.000000	94.462063 
3944.000000	94.463533 
3943.000000	94.468728 
3942.000000	94.475358 
3941.000000	94.480263 
3940.000000	94.481598 
3939.000000	94.479337 
3938.000000	94.474071 
3937.000000	94.466181 
3936.000000	94.456421 
3935.000000	94.446796 
3934.000000	94.439985 
3933.000000	94.437228 
3932.000000	94.436944 
3931.000000	94.436252 
3930.000000	94.434002 
3929.000000	94.431586 
3928.000000	94.430627 
3927.000000	94.430701 
3926.000000	94.429739 
3925.000000	94.426038 
3924.000000	94.419634 
3923.000000	94.412029 
3922.000000	94.404991 
3921.000000	94.399422 
3920.000000	94.394884 
3919.000000	94.390484 
3918.000000	94.386665 
3917.000000	94.385586 
3916.000000	94.389424 
3915.000000	94.398593 
3914.000000	94.411524 
3913.000000	94.425234 
3912.000000	94.435609 
3911.000000	94.438372 
3910.000000	94.431476 
3909.000000	94.417240 
3908.000000	94.401705 
3907.000000	94.390594 
3906.000000	94.384823 
3905.000000	94.380054 
3904.000000	94.370953 
3903.000000	94.356946 
3902.000000	94.342913 
3901.000000	94.334623 
3900.000000	94.334364 
3899.000000	94.340252 
3898.000000	94.348648 
3897.000000	94.356682 
3896.000000	94.363221 
3895.000000	94.369095 
3894.000000	94.375685 
3893.000000	94.382725 
3892.000000	94.388090 
3891.000000	94.390015 
3890.000000	94.388693 
3889.000000	94.385539 
3888.000000	94.381954 
3887.000000	94.378462 
3886.000000	94.374080 
3885.000000	94.368131 
3884.000000	94.361281 
3883.000000	94.354887 
3882.000000	94.351324 
3881.000000	94.352314 
3880.000000	94.356571 
3879.000000	94.361839 
3878.000000	94.366971 
3877.000000	94.371276 
3876.000000	94.373282 
3875.000000	94.370950 
3874.000000	94.363988 
3873.000000	94.355206 
3872.000000	94.348746 
3871.000000	94.347483 
3870.000000	94.351064 
3869.000000	94.356264 
3868.000000	94.359184 
3867.000000	94.357960 
3866.000000	94.355482 
3865.000000	94.356869 
3864.000000	94.363623 
3863.000000	94.372253 
3862.000000	94.377811 
3861.000000	94.378724 
3860.000000	94.377935 
3859.000000	94.379875 
3858.000000	94.388526 
3857.000000	94.406208 
3856.000000	94.429990 
3855.000000	94.448747 
3854.000000	94.451260 
3853.000000	94.442477 
3852.000000	94.434975 
3851.000000	94.425125 
3850.000000	94.407107 
3849.000000	94.387536 
3848.000000	94.373348 
3847.000000	94.364567 
3846.000000	94.358884 
3845.000000	94.355450 
3844.000000	94.354221 
3843.000000	94.354799 
3842.000000	94.357474 
3841.000000	94.363985 
3840.000000	94.374632 
3839.000000	94.384972 
3838.000000	94.389407 
3837.000000	94.388360 
3836.000000	94.387810 
3835.000000	94.392019 
3834.000000	94.399591 
3833.000000	94.405424 
3832.000000	94.404640 
3831.000000	94.396634 
3830.000000	94.385747 
3829.000000	94.377541 
3828.000000	94.374936 
3827.000000	94.377298 
3826.000000	94.381972 
3825.000000	94.387132 
3824.000000	94.393000 
3823.000000	94.399966 
3822.000000	94.406326 
3821.000000	94.410448 
3820.000000	94.413064 
3819.000000	94.413764 
3818.000000	94.411842 
3817.000000	94.409010 
3816.000000	94.405432 
3815.000000	94.400294 
3814.000000	94.392788 
3813.000000	94.380900 
3812.000000	94.365802 
3811.000000	94.353107 
3810.000000	94.346894 
3809.000000	94.346659 
3808.000000	94.349371 
3807.000000	94.352567 
3806.000000	94.356287 
3805.000000	94.361169 
3804.000000	94.366863 
3803.000000	94.371835 
3802.000000	94.371709 
3801.000000	94.364319 
3800.000000	94.354776 
3799.000000	94.347932 
3798.000000	94.344520 
3797.000000	94.344467 
3796.000000	94.345688 
3795.000000	94.344865 
3794.000000	94.340533 
3793.000000	94.333266 
3792.000000	94.324709 
3791.000000	94.316193 
3790.000000	94.307805 
3789.000000	94.298892 
3788.000000	94.289479 
3787.000000	94.280759 
3786.000000	94.274281 
3785.000000	94.270646 
3784.000000	94.268866 
3783.000000	94.267341 
3782.000000	94.265831 
3781.000000	94.265608 
3780.000000	94.267764 
3779.000000	94.271586 
3778.000000	94.274606 
3777.000000	94.274305 
3776.000000	94.270498 
3775.000000	94.265870 
3774.000000	94.264113 
3773.000000	94.267584 
3772.000000	94.275329 
3771.000000	94.283046 
3770.000000	94.285814 
3769.000000	94.281600 
3768.000000	94.271373 
3767.000000	94.257527 
3766.000000	94.243456 
3765.000000	94.232686 
3764.000000	94.227242 
3763.000000	94.226882 
3762.000000	94.229318 
3761.000000	94.231172 
3760.000000	94.229342 
3759.000000	94.223403 
3758.000000	94.216472 
3757.000000	94.212225 
3756.000000	94.212927 
3755.000000	94.219458 
3754.000000	94.231432 
3753.000000	94.247164 
3752.000000	94.261979 
3751.000000	94.269649 
3750.000000	94.267574 
3749.000000	94.258063 
3748.000000	94.245654 
3747.000000	94.234950 
3746.000000	94.228189 
3745.000000	94.222740 
3744.000000	94.216273 
3743.000000	94.209443 
3742.000000	94.196396 
3741.000000	94.172991 
3740.000000	94.148504 
3739.000000	94.130792 
3738.000000	94.115564 
3737.000000	94.096570 
3736.000000	94.077842 
3735.000000	94.071148 
3734.000000	94.082161 
3733.000000	94.106301 
3732.000000	94.134026 
3731.000000	94.155405 
3730.000000	94.162893 
3729.000000	94.153835 
3728.000000	94.131660 
3727.000000	94.103874 
3726.000000	94.079182 
3725.000000	94.064873 
3724.000000	94.062986 
3723.000000	94.069432 
3722.000000	94.078003 
3721.000000	94.085341 
3720.000000	94.091979 
3719.000000	94.098986 
3718.000000	94.105702 
3717.000000	94.110576 
3716.000000	94.113684 
3715.000000	94.117721 
3714.000000	94.125907 
3713.000000	94.139164 
3712.000000	94.155044 
3711.000000	94.170048 
3710.000000	94.181215 
3709.000000	94.186236 
3708.000000	94.185089 
3707.000000	94.179934 
3706.000000	94.173708 
3705.000000	94.169431 
3704.000000	94.168799 
3703.000000	94.171365 
3702.000000	94.175757 
3701.000000	94.181762 
3700.000000	94.190146 
3699.000000	94.201285 
3698.000000	94.215005 
3697.000000	94.230266 
3696.000000	94.244987 
3695.000000	94.257280 
3694.000000	94.266339 
3693.000000	94.272402 
3692.000000	94.275484 
3691.000000	94.274226 
3690.000000	94.268565 
3689.000000	94.263396 
3688.000000	94.265405 
3687.000000	94.274054 
3686.000000	94.280652 
3685.000000	94.278713 
3684.000000	94.269885 
3683.000000	94.259076 
3682.000000	94.249302 
3681.000000	94.242549 
3680.000000	94.241754 
3679.000000	94.250173 
3678.000000	94.268424 
3677.000000	94.291195 
3676.000000	94.307784 
3675.000000	94.312484 
3674.000000	94.306999 
3673.000000	94.292194 
3672.000000	94.272590 
3671.000000	94.254907 
3670.000000	94.240240 
3669.000000	94.228997 
3668.000000	94.221136 
3667.000000	94.213408 
3666.000000	94.205025 
3665.000000	94.198007 
3664.000000	94.193281 
3663.000000	94.190068 
3662.000000	94.186350 
3661.000000	94.179706 
3660.000000	94.169210 
3659.000000	94.156222 
3658.000000	94.142462 
3657.000000	94.128163 
3656.000000	94.112202 
3655.000000	94.093104 
3654.000000	94.069738 
3653.000000	94.044133 
3652.000000	94.021127 
3651.000000	94.001153 
3650.000000	93.981201 
3649.000000	93.963429 
3648.000000	93.950976 
3647.000000	93.941307 
3646.000000	93.932828 
3645.000000	93.927791 
3644.000000	93.928126 
3643.000000	93.932609 
3642.000000	93.936174 
3641.000000	93.933093 
3640.000000	93.921731 
3639.000000	93.905674 
3638.000000	93.890850 
3637.000000	93.881795 
3636.000000	93.879237 
3635.000000	93.879948 
3634.000000	93.878838 
3633.000000	93.873146 
3632.000000	93.864733 
3631.000000	93.857443 
3630.000000	93.851411 
3629.000000	93.844344 
3628.000000	93.838506 
3627.000000	93.834197 
3626.000000	93.826168 
3625.000000	93.812102 
3624.000000	93.792632 
3623.000000	93.768854 
3622.000000	93.744154 
3621.000000	93.724145 
3620.000000	93.712414 
3619.000000	93.707670 
3618.000000	93.705391 
3617.000000	93.701761 
3616.000000	93.696833 
3615.000000	93.693479 
3614.000000	93.693772 
3613.000000	93.697294 
3612.000000	93.701249 
3611.000000	93.702881 
3610.000000	93.703087 
3609.000000	93.706444 
3608.000000	93.716764 
3607.000000	93.732434 
3606.000000	93.747657 
3605.000000	93.758379 
3604.000000	93.764499 
3603.000000	93.767408 
3602.000000	93.767712 
3601.000000	93.765103 
3600.000000	93.759650 
3599.000000	93.753185 
3598.000000	93.748768 
3597.000000	93.748609 
3596.000000	93.752850 
3595.000000	93.759742 
3594.000000	93.766239 
3593.000000	93.769114 
3592.000000	93.766499 
3591.000000	93.758814 
3590.000000	93.748491 
3589.000000	93.738564 
3588.000000	93.732146 
3587.000000	93.731766 
3586.000000	93.738058 
3585.000000	93.749861 
3584.000000	93.764465 
3583.000000	93.777564 
3582.000000	93.786250 
3581.000000	93.791495 
3580.000000	93.796229 
3579.000000	93.802310 
3578.000000	93.810013 
3577.000000	93.819432 
3576.000000	93.830930 
3575.000000	93.843757 
3574.000000	93.854668 
3573.000000	93.858715 
3572.000000	93.851865 
3571.000000	93.832915 
3570.000000	93.803854 
3569.000000	93.769715 
3568.000000	93.738601 
3567.000000	93.719595 
3566.000000	93.717723 
3565.000000	93.731814 
3564.000000	93.757000 
3563.000000	93.786545 
3562.000000	93.813648 
3561.000000	93.834488 
3560.000000	93.848874 
3559.000000	93.858392 
3558.000000	93.864556 
3557.000000	93.868164 
3556.000000	93.869884 
3555.000000	93.870985 
3554.000000	93.872880 
3553.000000	93.875518 
3552.000000	93.876780 
3551.000000	93.874139 
3550.000000	93.866665 
3549.000000	93.855065 
3548.000000	93.840768 
3547.000000	93.826394 
3546.000000	93.816649 
3545.000000	93.816824 
3544.000000	93.829252 
3543.000000	93.851069 
3542.000000	93.875283 
3541.000000	93.894694 
3540.000000	93.905651 
3539.000000	93.908978 
3538.000000	93.908377 
3537.000000	93.907982 
3536.000000	93.910501 
3535.000000	93.916695 
3534.000000	93.925656 
3533.000000	93.935037 
3532.000000	93.941550 
3531.000000	93.942587 
3530.000000	93.938158 
3529.000000	93.931099 
3528.000000	93.924731 
3527.000000	93.920192 
3526.000000	93.916631 
3525.000000	93.913833 
3524.000000	93.913715 
3523.000000	93.918606 
3522.000000	93.928532 
3521.000000	93.940919 
3520.000000	93.952710 
3519.000000	93.962392 
3518.000000	93.970161 
3517.000000	93.976602 
3516.000000	93.981574 
3515.000000	93.984392 
3514.000000	93.984778 
3513.000000	93.983574 
3512.000000	93.982700 
3511.000000	93.984307 
3510.000000	93.989373 
3509.000000	93.996813 
3508.000000	94.004090 
3507.000000	94.009014 
3506.000000	94.010965 
3505.000000	94.010733 
3504.000000	94.009922 
3503.000000	94.010368 
3502.000000	94.013518 
3501.000000	94.019691 
3500.000000	94.027726 
3499.000000	94.035553 
3498.000000	94.041452 
3497.000000	94.045090 
3496.000000	94.047406 
3495.000000	94.049600 
3494.000000	94.052380 
3493.000000	94.055879 
3492.000000	94.059841 
3491.000000	94.063801 
3490.000000	94.067318 
3489.000000	94.070246 
3488.000000	94.072798 
3487.000000	94.075344 
3486.000000	94.078095 
3485.000000	94.080984 
3484.000000	94.083832 
3483.000000	94.086555 
3482.000000	94.089234 
3481.000000	94.092021 
3480.000000	94.094993 
3479.000000	94.098107 
3478.000000	94.101216 
3477.000000	94.104141 
3476.000000	94.106843 
3475.000000	94.109479 
3474.000000	94.112247 
3473.000000	94.115169 
3472.000000	94.118098 
3471.000000	94.120865 
3470.000000	94.123426 
3469.000000	94.125847 
3468.000000	94.128233 
3467.000000	94.130686 
3466.000000	94.133282 
3465.000000	94.136022 
3464.000000	94.138772 
3463.000000	94.141313 
3462.000000	94.143545 
3461.000000	94.145567 
3460.000000	94.147607 
3459.000000	94.149815 
3458.000000	94.152189 
3457.000000	94.154640 
3456.000000	94.157137 
3455.000000	94.159765 
3454.000000	94.162556 
3453.000000	94.165307 
3452.000000	94.167660 
3451.000000	94.169457 
3450.000000	94.170968 
3449.000000	94.172618 
3448.000000	94.174575 
3447.000000	94.176814 
3446.000000	94.179352 
3445.000000	94.182169 
3444.000000	94.185041 
3443.000000	94.187813 
3442.000000	94.190745 
3441.000000	94.194168 
3440.000000	94.197697 
3439.000000	94.200266 
3438.000000	94.201215 
3437.000000	94.201130 
3436.000000	94.201402 
3435.000000	94.202888 
3434.000000	94.205075 
3433.000000	94.206486 
3432.000000	94.206090 
3431.000000	94.204438 
3430.000000	94.203293 
3429.000000	94.203915 
3428.000000	94.205967 
3427.000000	94.208188 
3426.000000	94.209798 
3425.000000	94.210846 
3424.000000	94.211531 
3423.000000	94.211843 
3422.000000	94.211917 
3421.000000	94.212299 
3420.000000	94.213827 
3419.000000	94.217396 
3418.000000	94.223367 
3417.000000	94.230447 
3416.000000	94.235619 
3415.000000	94.236591 
3414.000000	94.234379 
3413.000000	94.232720 
3412.000000	94.233935 
3411.000000	94.236164 
3410.000000	94.235816 
3409.000000	94.231828 
3408.000000	94.226549 
3407.000000	94.222930 
3406.000000	94.221731 
3405.000000	94.221635 
3404.000000	94.220883 
3403.000000	94.218404 
3402.000000	94.214204 
3401.000000	94.209498 
3400.000000	94.206258 
3399.000000	94.205919 
3398.000000	94.208162 
3397.000000	94.210955 
3396.000000	94.211990 
3395.000000	94.210352 
3394.000000	94.207053 
3393.000000	94.204279 
3392.000000	94.203877 
3391.000000	94.206092 
3390.000000	94.209473 
3389.000000	94.211972 
3388.000000	94.212558 
3387.000000	94.211952 
3386.000000	94.211746 
3385.000000	94.212694 
3384.000000	94.213930 
3383.000000	94.213989 
3382.000000	94.212398 
3381.000000	94.209987 
3380.000000	94.207795 
3379.000000	94.206085 
3378.000000	94.204574 
3377.000000	94.203220 
3376.000000	94.202345 
3375.000000	94.202033 
3374.000000	94.201738 
3373.000000	94.200640 
3372.000000	94.198278 
3371.000000	94.194822 
3370.000000	94.190870 
3369.000000	94.187110 
3368.000000	94.183903 
3367.000000	94.181053 
3366.000000	94.178082 
3365.000000	94.174828 
3364.000000	94.171830 
3363.000000	94.169915 
3362.000000	94.169298 
3361.000000	94.169202 
3360.000000	94.168417 
3359.000000	94.166417 
3358.000000	94.163885 
3357.000000	94.162009 
3356.000000	94.161202 
3355.000000	94.160543 
3354.000000	94.158615 
3353.000000	94.154891 
3352.000000	94.150317 
3351.000000	94.146524 
3350.000000	94.144529 
3349.000000	94.144189 
3348.000000	94.144436 
3347.000000	94.143973 
3346.000000	94.142007 
3345.000000	94.138654 
3344.000000	94.134774 
3343.000000	94.131122 
3342.000000	94.127693 
3341.000000	94.124023 
3340.000000	94.119960 
3339.000000	94.115828 
3338.000000	94.111924 
3337.000000	94.108220 
3336.000000	94.104777 
3335.000000	94.102041 
3334.000000	94.100349 
3333.000000	94.099272 
3332.000000	94.097769 
3331.000000	94.095152 
3330.000000	94.091590 
3329.000000	94.087627 
3328.000000	94.083478 
3327.000000	94.079051 
3326.000000	94.074496 
3325.000000	94.070316 
3324.000000	94.066839 
3323.000000	94.063793 
3322.000000	94.060458 
3321.000000	94.056295 
3320.000000	94.051354 
3319.000000	94.046137 
3318.000000	94.041164 
3317.000000	94.036634 
3316.000000	94.032408 
3315.000000	94.028135 
3314.000000	94.023454 
3313.000000	94.018235 
3312.000000	94.012716 
3311.000000	94.007396 
3310.000000	94.002618 
3309.000000	93.998274 
3308.000000	93.993898 
3307.000000	93.989079 
3306.000000	93.983776 
3305.000000	93.978262 
3304.000000	93.972933 
3303.000000	93.968098 
3302.000000	93.963834 
3301.000000	93.959855 
3300.000000	93.955586 
3299.000000	93.950595 
3298.000000	93.944921 
3297.000000	93.939000 
3296.000000	93.933247 
3295.000000	93.927783 
3294.000000	93.922516 
3293.000000	93.917326 
3292.000000	93.912175 
3291.000000	93.907152 
3290.000000	93.902358 
3289.000000	93.897660 
3288.000000	93.892634 
3287.000000	93.886935 
3286.000000	93.880740 
3285.000000	93.874712 
3284.000000	93.869457 
3283.000000	93.865088 
3282.000000	93.861302 
3281.000000	93.857612 
3280.000000	93.853391 
3279.000000	93.847946 
3278.000000	93.840884 
3277.000000	93.832564 
3276.000000	93.823984 
3275.000000	93.816126 
3274.000000	93.809462 
3273.000000	93.804031 
3272.000000	93.799744 
3271.000000	93.796475 
3270.000000	93.793953 
3269.000000	93.791888 
3268.000000	93.790132 
3267.000000	93.788374 
3266.000000	93.785813 
3265.000000	93.781595 
3264.000000	93.775861 
3263.000000	93.770102 
3262.000000	93.765779 
3261.000000	93.762590 
3260.000000	93.758724 
3259.000000	93.753112 
3258.000000	93.746871 
3257.000000	93.742043 
3256.000000	93.739061 
3255.000000	93.736126 
3254.000000	93.731281 
3253.000000	93.724562 
3252.000000	93.717875 
3251.000000	93.712904 
3250.000000	93.709504 
3249.000000	93.706255 
3248.000000	93.702171 
3247.000000	93.697527 
3246.000000	93.693132 
3245.000000	93.689239 
3244.000000	93.685353 
3243.000000	93.680734 
3242.000000	93.674769 
3241.000000	93.667219 
3240.000000	93.658672 
3239.000000	93.650668 
3238.000000	93.644642 
3237.000000	93.640562 
3236.000000	93.636897 
3235.000000	93.632224 
3234.000000	93.626660 
3233.000000	93.621288 
3232.000000	93.616632 
3231.000000	93.612276 
3230.000000	93.607773 
3229.000000	93.603240 
3228.000000	93.598913 
3227.000000	93.594613 
3226.000000	93.589877 
3225.000000	93.584474 
3224.000000	93.578720 
3223.000000	93.573415 
3222.000000	93.569433 
3221.000000	93.566997 
3220.000000	93.565040 
3219.000000	93.561634 
3218.000000	93.555638 
3217.000000	93.547822 
3216.000000	93.540322 
3215.000000	93.534665 
3214.000000	93.530539 
3213.000000	93.526525 
3212.000000	93.521567 
3211.000000	93.515487 
3210.000000	93.508487 
3209.000000	93.500805 
3208.000000	93.492950 
3207.000000	93.485638 
3206.000000	93.479180 
3205.000000	93.473185 
3204.000000	93.467175 
3203.000000	93.461284 
3202.000000	93.455958 
3201.000000	93.451205 
3200.000000	93.446561 
3199.000000	93.441739 
3198.000000	93.436895 
3197.000000	93.432187 
3196.000000	93.427462 
3195.000000	93.422622 
3194.000000	93.417979 
3193.000000	93.413885 
3192.000000	93.410089 
3191.000000	93.405742 
3190.000000	93.400202 
3189.000000	93.393628 
3188.000000	93.386859 
3187.000000	93.380782 
3186.000000	93.375659 
3185.000000	93.371110 
3184.000000	93.366465 
3183.000000	93.361298 
3182.000000	93.355697 
3181.000000	93.350112 
3180.000000	93.344947 
3179.000000	93.340245 
3178.000000	93.335763 
3177.000000	93.331294 
3176.000000	93.326843 
3175.000000	93.322451 
3174.000000	93.318027 
3173.000000	93.313409 
3172.000000	93.308549 
3171.000000	93.303542 
3170.000000	93.298498 
3169.000000	93.293479 
3168.000000	93.288571 
3167.000000	93.283880 
3166.000000	93.279429 
3165.000000	93.275083 
3164.000000	93.270617 
3163.000000	93.265920 
3162.000000	93.261063 
3161.000000	93.256249 
3160.000000	93.251621 
3159.000000	93.247139 
3158.000000	93.242600 
3157.000000	93.237790 
3156.000000	93.232682 
3155.000000	93.227584 
3154.000000	93.222942 
3153.000000	93.218944 
3152.000000	93.215330 
3151.000000	93.211618 
3150.000000	93.207616 
3149.000000	93.203561 
3148.000000	93.199777 
3147.000000	93.196232 
3146.000000	93.192512 
3145.000000	93.188270 
3144.000000	93.183565 
3143.000000	93.178755 
3142.000000	93.174063 
3141.000000	93.169443 
3140.000000	93.164961 
3139.000000	93.161004 
3138.000000	93.157888 
3137.000000	93.155334 
3136.000000	93.152573 
3135.000000	93.149047 
3134.000000	93.144805 
3133.000000	93.140222 
3132.000000	93.135556 
3131.000000	93.130874 
3130.000000	93.126283 
3129.000000	93.122024 
3128.000000	93.118367 
3127.000000	93.115396 
3126.000000	93.112764 
3125.000000	93.109770 
3124.000000	93.106001 
3123.000000	93.101929 
3122.000000	93.098536 
3121.000000	93.096267 
3120.000000	93.094546 
3119.000000	93.092470 
3118.000000	93.089777 
3117.000000	93.086885 
3116.000000	93.084316 
3115.000000	93.082350 
3114.000000	93.080890 
3113.000000	93.079351 
3112.000000	93.076901 
3111.000000	93.073212 
3110.000000	93.069103 
3109.000000	93.066074 
3108.000000	93.064949 
3107.000000	93.065078 
3106.000000	93.064916 
3105.000000	93.063489 
3104.000000	93.060944 
3103.000000	93.057825 
3102.000000	93.054363 
3101.000000	93.050787 
3100.000000	93.047892 
3099.000000	93.046487 
3098.000000	93.046221 
3097.000000	93.045529 
3096.000000	93.043099 
3095.000000	93.038930 
3094.000000	93.033811 
3093.000000	93.028347 
3092.000000	93.023090 
3091.000000	93.019076 
3090.000000	93.017236 
3089.000000	93.017234 
3088.000000	93.017606 
3087.000000	93.017261 
3086.000000	93.016093 
3085.000000	93.014001 
3084.000000	93.010460 
3083.000000	93.005605 
3082.000000	93.000660 
3081.000000	92.996481 
3080.000000	92.992786 
3079.000000	92.989739 
3078.000000	92.989003 
3077.000000	92.991756 
3076.000000	92.996417 
3075.000000	92.999713 
3074.000000	92.999713 
3073.000000	92.997077 
3072.000000	92.994160 
3071.000000	92.993530 
3070.000000	92.996099 
3069.000000	92.999388 
3068.000000	92.998644 
3067.000000	92.991422 
3066.000000	92.980904 
3065.000000	92.973636 
3064.000000	92.973925 
3063.000000	92.980724 
3062.000000	92.988742 
3061.000000	92.991961 
3060.000000	92.987819 
3059.000000	92.979540 
3058.000000	92.973517 
3057.000000	92.973043 
3056.000000	92.975460 
3055.000000	92.976592 
3054.000000	92.976381 
3053.000000	92.977834 
3052.000000	92.981634 
3051.000000	92.984881 
3050.000000	92.985224 
3049.000000	92.983629 
3048.000000	92.982280 
3047.000000	92.981795 
3046.000000	92.981769 
3045.000000	92.982601 
3044.000000	92.985375 
3043.000000	92.990549 
3042.000000	92.997689 
3041.000000	93.006104 
3040.000000	93.014995 
3039.000000	93.023294 
3038.000000	93.030211 
3037.000000	93.036390 
3036.000000	93.044311 
3035.000000	93.056667 
3034.000000	93.073613 
3033.000000	93.092402 
3032.000000	93.110605 
3031.000000	93.129020 
3030.000000	93.150103 
3029.000000	93.173444 
3028.000000	93.194620 
3027.000000	93.209793 
3026.000000	93.220185 
3025.000000	93.230301 
3024.000000	93.242659 
3023.000000	93.256322 
3022.000000	93.270139 
3021.000000	93.284918 
3020.000000	93.301805 
3019.000000	93.320578 
3018.000000	93.340627 
3017.000000	93.362132 
3016.000000	93.384998 
3015.000000	93.407931 
3014.000000	93.430357 
3013.000000	93.454615 
3012.000000	93.484257 
3011.000000	93.519820 
3010.000000	93.557707 
3009.000000	93.593942 
3008.000000	93.627887 
3007.000000	93.661429 
3006.000000	93.695634 
3005.000000	93.729827 
3004.000000	93.763552 
3003.000000	93.797374 
3002.000000	93.831149 
3001.000000	93.863303 
3000.000000	93.893391 
2999.000000	93.924093 
2998.000000	93.958220 
2997.000000	93.993656 
2996.000000	94.023923 
2995.000000	94.046144 
2994.000000	94.068072 
2993.000000	94.104719 
2992.000000	94.165637 
2991.000000	94.244453 
2990.000000	94.321411 
2989.000000	94.378105 
2988.000000	94.410926 
2987.000000	94.430723 
2986.000000	94.450483 
2985.000000	94.474538 
2984.000000	94.499672 
2983.000000	94.523395 
2982.000000	94.547603 
2981.000000	94.574599 
2980.000000	94.602571 
2979.000000	94.626515 
2978.000000	94.642511 
2977.000000	94.650448 
2976.000000	94.653925 
2975.000000	94.657964 
2974.000000	94.664791 
2973.000000	94.669769 
2972.000000	94.662101 
2971.000000	94.631636 
2970.000000	94.576137 
2969.000000	94.502516 
2968.000000	94.421777 
2967.000000	94.342832 
2966.000000	94.269860 
2965.000000	94.203379 
2964.000000	94.142416 
2963.000000	94.085998 
2962.000000	94.033670 
2961.000000	93.985501 
2960.000000	93.942074 
2959.000000	93.904333 
2958.000000	93.872943 
2957.000000	93.847583 
2956.000000	93.827083 
2955.000000	93.810180 
2954.000000	93.795666 
2953.000000	93.781903 
2952.000000	93.767043 
2951.000000	93.750263 
2950.000000	93.732277 
2949.000000	93.714188 
2948.000000	93.696234 
2947.000000	93.678137 
2946.000000	93.660220 
2945.000000	93.643506 
2944.000000	93.628787 
2943.000000	93.615892 
2942.000000	93.603874 
2941.000000	93.591771 
2940.000000	93.579205 
2939.000000	93.566281 
2938.000000	93.552705 
2937.000000	93.537070 
2936.000000	93.517603 
2935.000000	93.494315 
2934.000000	93.470472 
2933.000000	93.451071 
2932.000000	93.438602 
2931.000000	93.429777 
2930.000000	93.417190 
2929.000000	93.395829 
2928.000000	93.368743 
2927.000000	93.345804 
2926.000000	93.336748 
2925.000000	93.345312 
2924.000000	93.368605 
2923.000000	93.399586 
2922.000000	93.429993 
2921.000000	93.454042 
2920.000000	93.471996 
2919.000000	93.489593 
2918.000000	93.512234 
2917.000000	93.540044 
2916.000000	93.569527 
2915.000000	93.598616 
2914.000000	93.627871 
2913.000000	93.657453 
2912.000000	93.685817 
2911.000000	93.711741 
2910.000000	93.735160 
2909.000000	93.755345 
2908.000000	93.770898 
2907.000000	93.783407 
2906.000000	93.799409 
2905.000000	93.826037 
2904.000000	93.864301 
2903.000000	93.907038 
2902.000000	93.942879 
2901.000000	93.962073 
2900.000000	93.960148 
2899.000000	93.939487 
2898.000000	93.908569 
2897.000000	93.878559 
2896.000000	93.858591 
2895.000000	93.852038 
2894.000000	93.855562 
2893.000000	93.861191 
2892.000000	93.861063 
2891.000000	93.852668 
2890.000000	93.840446 
2889.000000	93.831666 
2888.000000	93.830105 
2887.000000	93.833484 
2886.000000	93.836556 
2885.000000	93.835665 
2884.000000	93.830063 
2883.000000	93.820178 
2882.000000	93.806110 
2881.000000	93.787959 
2880.000000	93.766618 
2879.000000	93.743631 
2878.000000	93.720465 
2877.000000	93.697804 
2876.000000	93.674749 
2875.000000	93.648616 
2874.000000	93.617050 
2873.000000	93.581870 
2872.000000	93.549966 
2871.000000	93.527995 
2870.000000	93.515366 
2869.000000	93.503664 
2868.000000	93.483952 
2867.000000	93.453876 
2866.000000	93.417412 
2865.000000	93.379215 
2864.000000	93.340555 
2863.000000	93.300008 
2862.000000	93.256440 
2861.000000	93.210881 
2860.000000	93.165972 
2859.000000	93.123749 
2858.000000	93.084089 
2857.000000	93.045870 
2856.000000	93.009502 
2855.000000	92.977450 
2854.000000	92.952573 
2853.000000	92.937294 
2852.000000	92.933798 
2851.000000	92.942003 
2850.000000	92.956429 
2849.000000	92.968253 
2848.000000	92.973399 
2847.000000	92.976692 
2846.000000	92.985168 
2845.000000	92.999159 
2844.000000	93.012843 
2843.000000	93.021956 
2842.000000	93.026976 
2841.000000	93.029138 
2840.000000	93.027824 
2839.000000	93.023193 
2838.000000	93.017931 
2837.000000	93.014253 
2836.000000	93.011303 
2835.000000	93.007388 
2834.000000	93.003059 
2833.000000	92.999999 
2832.000000	92.997974 
2831.000000	92.994925 
2830.000000	92.989864 
2829.000000	92.984168 
2828.000000	92.979814 
2827.000000	92.977161 
2826.000000	92.974914 
2825.000000	92.972014 
2824.000000	92.968965 
2823.000000	92.966732 
2822.000000	92.964608 
2821.000000	92.960477 
2820.000000	92.953720 
2819.000000	92.946449 
2818.000000	92.940835 
2817.000000	92.936696 
2816.000000	92.933229 
2815.000000	92.931504 
2814.000000	92.932707 
2813.000000	92.934843 
2812.000000	92.934075 
2811.000000	92.929440 
2810.000000	92.923891 
2809.000000	92.920474 
2808.000000	92.919481 
2807.000000	92.919541 
2806.000000	92.919426 
2805.000000	92.918399 
2804.000000	92.916370 
2803.000000	92.913996 
2802.000000	92.911982 
2801.000000	92.910336 
2800.000000	92.908642 
2799.000000	92.907033 
2798.000000	92.906251 
2797.000000	92.906450 
2796.000000	92.906607 
2795.000000	92.905482 
2794.000000	92.902792 
2793.000000	92.899185 
2792.000000	92.895683 
2791.000000	92.893251 
2790.000000	92.892380 
2789.000000	92.892762 
2788.000000	92.893518 
2787.000000	92.894043 
2786.000000	92.894326 
2785.000000	92.894328 
2784.000000	92.893644 
2783.000000	92.892043 
2782.000000	92.889985 
2781.000000	92.888272 
2780.000000	92.887317 
2779.000000	92.886965 
2778.000000	92.886826 
2777.000000	92.886546 
2776.000000	92.885897 
2775.000000	92.884836 
2774.000000	92.883491 
2773.000000	92.882044 
2772.000000	92.880630 
2771.000000	92.879312 
2770.000000	92.878054 
2769.000000	92.876779 
2768.000000	92.875566 
2767.000000	92.874694 
2766.000000	92.874322 
2765.000000	92.874201 
2764.000000	92.873875 
2763.000000	92.873179 
2762.000000	92.872332 
2761.000000	92.871575 
2760.000000	92.870886 
2759.000000	92.870114 
2758.000000	92.869246 
2757.000000	92.868424 
2756.000000	92.867761 
2755.000000	92.867220 
2754.000000	92.866664 
2753.000000	92.865967 
2752.000000	92.865108 
2751.000000	92.864225 
2750.000000	92.863532 
2749.000000	92.863111 
2748.000000	92.862892 
2747.000000	92.862705 
2746.000000	92.862455 
2745.000000	92.862123 
2744.000000	92.861657 
2743.000000	92.860969 
2742.000000	92.860069 
2741.000000	92.859126 
2740.000000	92.858289 
2739.000000	92.857551 
2738.000000	92.856858 
2737.000000	92.856260 
2736.000000	92.855860 
2735.000000	92.855666 
2734.000000	92.855546 
2733.000000	92.855316 
2732.000000	92.854856 
2731.000000	92.854225 
2730.000000	92.853646 
2729.000000	92.853252 
2728.000000	92.852877 
2727.000000	92.852273 
2726.000000	92.851544 
2725.000000	92.851117 
2724.000000	92.851258 
2723.000000	92.851812 
2722.000000	92.852455 
2721.000000	92.852907 
2720.000000	92.852767 
2719.000000	92.851603 
2718.000000	92.849491 
2717.000000	92.847319 
2716.000000	92.846167 
2715.000000	92.846400 
2714.000000	92.847552 
2713.000000	92.848896 
2712.000000	92.849967 
2711.000000	92.850550 
2710.000000	92.850467 
2709.000000	92.849660 
2708.000000	92.848391 
2707.000000	92.847251 
2706.000000	92.846805 
2705.000000	92.847024 
2704.000000	92.847101 
2703.000000	92.846062 
2702.000000	92.843619 
2701.000000	92.840398 
2700.000000	92.837405 
2699.000000	92.835334 
2698.000000	92.834345 
2697.000000	92.834250 
2696.000000	92.834664 
2695.000000	92.835015 
2694.000000	92.834604 
2693.000000	92.832902 
2692.000000	92.829953 
2691.000000	92.826550 
2690.000000	92.823885 
2689.000000	92.822816 
2688.000000	92.823331 
2687.000000	92.824611 
2686.000000	92.825605 
2685.000000	92.825747 
2684.000000	92.825204 
2683.000000	92.824586 
2682.000000	92.824513 
2681.000000	92.825357 
2680.000000	92.827000 
2679.000000	92.828561 
2678.000000	92.828745 
2677.000000	92.827069 
2676.000000	92.824675 
2675.000000	92.823332 
2674.000000	92.823571 
2673.000000	92.824551 
2672.000000	92.825623 
2671.000000	92.827053 
2670.000000	92.828786 
2669.000000	92.829705 
2668.000000	92.829082 
2667.000000	92.827894 
2666.000000	92.827663 
2665.000000	92.828466 
2664.000000	92.829228 
2663.000000	92.829593 
2662.000000	92.830332 
2661.000000	92.831894 
2660.000000	92.833742 
2659.000000	92.835315 
2658.000000	92.836605 
2657.000000	92.837499 
2656.000000	92.837531 
2655.000000	92.836714 
2654.000000	92.835879 
2653.000000	92.835709 
2652.000000	92.836008 
2651.000000	92.836279 
2650.000000	92.836492 
2649.000000	92.836889 
2648.000000	92.837480 
2647.000000	92.838081 
2646.000000	92.838580 
2645.000000	92.838895 
2644.000000	92.838918 
2643.000000	92.838656 
2642.000000	92.838285 
2641.000000	92.837964 
2640.000000	92.837758 
2639.000000	92.837749 
2638.000000	92.837988 
2637.000000	92.838246 
2636.000000	92.838126 
2635.000000	92.837562 
2634.000000	92.837021 
2633.000000	92.836996 
2632.000000	92.837486 
2631.000000	92.838176 
2630.000000	92.838848 
2629.000000	92.839448 
2628.000000	92.839879 
2627.000000	92.840022 
2626.000000	92.839965 
2625.000000	92.839985 
2624.000000	92.840230 
2623.000000	92.840550 
2622.000000	92.840697 
2621.000000	92.840598 
2620.000000	92.840384 
2619.000000	92.840276 
2618.000000	92.840392 
2617.000000	92.840649 
2616.000000	92.840841 
2615.000000	92.840867 
2614.000000	92.840823 
2613.000000	92.840864 
2612.000000	92.840988 
2611.000000	92.841042 
2610.000000	92.840964 
2609.000000	92.840937 
2608.000000	92.841199 
2607.000000	92.841731 
2606.000000	92.842197 
2605.000000	92.842274 
2604.000000	92.841969 
2603.000000	92.841559 
2602.000000	92.841273 
2601.000000	92.841183 
2600.000000	92.841459 
2599.000000	92.842414 
2598.000000	92.844074 
2597.000000	92.845827 
2596.000000	92.846895 
2595.000000	92.847192 
2594.000000	92.847423 
2593.000000	92.848238 
2592.000000	92.849472 
2591.000000	92.850449 
2590.000000	92.850820 
2589.000000	92.850849 
2588.000000	92.851037 
2587.000000	92.851692 
2586.000000	92.852768 
2585.000000	92.853880 
2584.000000	92.854564 
2583.000000	92.854648 
2582.000000	92.854254 
2581.000000	92.853424 
2580.000000	92.852154 
2579.000000	92.851108 
2578.000000	92.851593 
2577.000000	92.854226 
2576.000000	92.858112 
2575.000000	92.861526 
2574.000000	92.863678 
2573.000000	92.865128 
2572.000000	92.866630 
2571.000000	92.868227 
2570.000000	92.869540 
2569.000000	92.870469 
2568.000000	92.871234 
2567.000000	92.871974 
2566.000000	92.872649 
2565.000000	92.873291 
2564.000000	92.874090 
2563.000000	92.875150 
2562.000000	92.876302 
2561.000000	92.877275 
2560.000000	92.877982 
2559.000000	92.878554 
2558.000000	92.879125 
2557.000000	92.879709 
2556.000000	92.880317 
2555.000000	92.881025 
2554.000000	92.881814 
2553.000000	92.882491 
2552.000000	92.882940 
2551.000000	92.883349 
2550.000000	92.883997 
2549.000000	92.884868 
2548.000000	92.885715 
2547.000000	92.886495 
2546.000000	92.887462 
2545.000000	92.888751 
2544.000000	92.890047 
2543.000000	92.890849 
2542.000000	92.891008 
2541.000000	92.890899 
2540.000000	92.891130 
2539.000000	92.892000 
2538.000000	92.893253 
2537.000000	92.894263 
2536.000000	92.894580 
2535.000000	92.894221 
2534.000000	92.893594 
2533.000000	92.893167 
2532.000000	92.893220 
2531.000000	92.893842 
2530.000000	92.894956 
2529.000000	92.896310 
2528.000000	92.897575 
2527.000000	92.898551 
2526.000000	92.899219 
2525.000000	92.899643 
2524.000000	92.899948 
2523.000000	92.900413 
2522.000000	92.901356 
2521.000000	92.902830 
2520.000000	92.904455 
2519.000000	92.905645 
2518.000000	92.906061 
2517.000000	92.905782 
2516.000000	92.905243 
2515.000000	92.904957 
2514.000000	92.905159 
2513.000000	92.905684 
2512.000000	92.906198 
2511.000000	92.906555 
2510.000000	92.906826 
2509.000000	92.907091 
2508.000000	92.907389 
2507.000000	92.907851 
2506.000000	92.908580 
2505.000000	92.909355 
2504.000000	92.909758 
2503.000000	92.909731 
2502.000000	92.909735 
2501.000000	92.910197 
2500.000000	92.911049 
2499.000000	92.911962 
2498.000000	92.912769 
2497.000000	92.913406 
2496.000000	92.913683 
2495.000000	92.913479 
2494.000000	92.913022 
2493.000000	92.912661 
2492.000000	92.912445 
2491.000000	92.912283 
2490.000000	92.912444 
2489.000000	92.913338 
2488.000000	92.914887 
2487.000000	92.916472 
2486.000000	92.917603 
2485.000000	92.918335 
2484.000000	92.918905 
2483.000000	92.919336 
2482.000000	92.919535 
2481.000000	92.919565 
2480.000000	92.919622 
2479.000000	92.919835 
2478.000000	92.920172 
2477.000000	92.920498 
2476.000000	92.920704 
2475.000000	92.920810 
2474.000000	92.920909 
2473.000000	92.921072 
2472.000000	92.921512 
2471.000000	92.922774 
2470.000000	92.925372 
2469.000000	92.928944 
2468.000000	92.932023 
2467.000000	92.933146 
2466.000000	92.932070 
2465.000000	92.929860 
2464.000000	92.927998 
2463.000000	92.927315 
2462.000000	92.927591 
2461.000000	92.927864 
2460.000000	92.927303 
2459.000000	92.926142 
2458.000000	92.925529 
2457.000000	92.926145 
2456.000000	92.927299 
2455.000000	92.927805 
2454.000000	92.927555 
2453.000000	92.927573 
2452.000000	92.928482 
2451.000000	92.929637 
2450.000000	92.930177 
2449.000000	92.930576 
2448.000000	92.932411 
2447.000000	92.936477 
2446.000000	92.941540 
2445.000000	92.945336 
2444.000000	92.946986 
2443.000000	92.947673 
2442.000000	92.948831 
2441.000000	92.950097 
2440.000000	92.949984 
2439.000000	92.948156 
2438.000000	92.946007 
2437.000000	92.944954 
2436.000000	92.945026 
2435.000000	92.945572 
2434.000000	92.946513 
2433.000000	92.948285 
2432.000000	92.950936 
2431.000000	92.953888 
2430.000000	92.956449 
2429.000000	92.958197 
2428.000000	92.959001 
2427.000000	92.959053 
2426.000000	92.958851 
2425.000000	92.958893 
2424.000000	92.959336 
2423.000000	92.959973 
2422.000000	92.960413 
2421.000000	92.960347 
2420.000000	92.959957 
2419.000000	92.960081 
2418.000000	92.961599 
2417.000000	92.964555 
2416.000000	92.968045 
2415.000000	92.970992 
2414.000000	92.972907 
2413.000000	92.973767 
2412.000000	92.973834 
2411.000000	92.973790 
2410.000000	92.974424 
2409.000000	92.975843 
2408.000000	92.977291 
2407.000000	92.978053 
2406.000000	92.978257 
2405.000000	92.978492 
2404.000000	92.978937 
2403.000000	92.979313 
2402.000000	92.979591 
2401.000000	92.980235 
2400.000000	92.981593 
2399.000000	92.983375 
2398.000000	92.984856 
2397.000000	92.985533 
2396.000000	92.985507 
2395.000000	92.985273 
2394.000000	92.985210 
2393.000000	92.985386 
2392.000000	92.985732 
2391.000000	92.986326 
2390.000000	92.987360 
2389.000000	92.988781 
2388.000000	92.990363 
2387.000000	92.992002 
2386.000000	92.993632 
2385.000000	92.995154 
2384.000000	92.996606 
2383.000000	92.998151 
2382.000000	92.999799 
2381.000000	93.001294 
2380.000000	93.002431 
2379.000000	93.003349 
2378.000000	93.004341 
2377.000000	93.005489 
2376.000000	93.006679 
2375.000000	93.007885 
2374.000000	93.009230 
2373.000000	93.010783 
2372.000000	93.012461 
2371.000000	93.014124 
2370.000000	93.015720 
2369.000000	93.017277 
2368.000000	93.018824 
2367.000000	93.020386 
2366.000000	93.022001 
2365.000000	93.023704 
2364.000000	93.025490 
2363.000000	93.027334 
2362.000000	93.029215 
2361.000000	93.031124 
2360.000000	93.033060 
2359.000000	93.035019 
2358.000000	93.036994 
2357.000000	93.038974 
2356.000000	93.040963 
2355.000000	93.042973 
2354.000000	93.044976 
2353.000000	93.046955 
2352.000000	93.048978 
2351.000000	93.051148 
2350.000000	93.053495 
2349.000000	93.055945 
2348.000000	93.058338 
2347.000000	93.060511 
2346.000000	93.062389 
2345.000000	93.064105 
2344.000000	93.065887 
2343.000000	93.067914 
2342.000000	93.070139 
2341.000000	93.072336 
2340.000000	93.074211 
2339.000000	93.075757 
2338.000000	93.077285 
2337.000000	93.079080 
2336.000000	93.081202 
2335.000000	93.083421 
2334.000000	93.085455 
2333.000000	93.087207 
2332.000000	93.088916 
2331.000000	93.090244 
2330.000000	93.090773 
2329.000000	93.090234 
2328.000000	93.089709 
2327.000000	93.089829 
2326.000000	93.090839 
2325.000000	93.092579 
2324.000000	93.094992 
2323.000000	93.097904 
2322.000000	93.100709 
2321.000000	93.103139 
2320.000000	93.105108 
2319.000000	93.106267 
2318.000000	93.106380 
2317.000000	93.105396 
2316.000000	93.104087 
2315.000000	93.102800 
2314.000000	93.102430 
2313.000000	93.103230 
2312.000000	93.105184 
2311.000000	93.106390 
2310.000000	93.105401 
2309.000000	93.101863 
2308.000000	93.097352 
2307.000000	93.093075 
2306.000000	93.089840 
2305.000000	93.088129 
2304.000000	93.088813 
2303.000000	93.091460 
2302.000000	93.094678 
2301.000000	93.096560 
2300.000000	93.096487 
2299.000000	93.094789 
2298.000000	93.092874 
2297.000000	93.091508 
2296.000000	93.090725 
2295.000000	93.089424 
2294.000000	93.087204 
2293.000000	93.084635 
2292.000000	93.082800 
2291.000000	93.081749 
2290.000000	93.080757 
2289.000000	93.079455 
2288.000000	93.078268 
2287.000000	93.077612 
2286.000000	93.077217 
2285.000000	93.076697 
2284.000000	93.075969 
2283.000000	93.075152 
2282.000000	93.074234 
2281.000000	93.073433 
2280.000000	93.073192 
2279.000000	93.073653 
2278.000000	93.074248 
2277.000000	93.074434 
2276.000000	93.074567 
2275.000000	93.075408 
2274.000000	93.076807 
2273.000000	93.077370 
2272.000000	93.075925 
2271.000000	93.072832 
2270.000000	93.069756 
2269.000000	93.068046 
2268.000000	93.067864 
2267.000000	93.068658 
2266.000000	93.069852 
2265.000000	93.071023 
2264.000000	93.071869 
2263.000000	93.072262 
2262.000000	93.072304 
2261.000000	93.072199 
2260.000000	93.072110 
2259.000000	93.072301 
2258.000000	93.073132 
2257.000000	93.074869 
2256.000000	93.077384 
2255.000000	93.080108 
2254.000000	93.082249 
2253.000000	93.083261 
2252.000000	93.083235 
2251.000000	93.082718 
2250.000000	93.082167 
2249.000000	93.081633 
2248.000000	93.081164 
2247.000000	93.080957 
2246.000000	93.081120 
2245.000000	93.081382 
2244.000000	93.081610 
2243.000000	93.082234 
2242.000000	93.083680 
2241.000000	93.085550 
2240.000000	93.086847 
2239.000000	93.087134 
2238.000000	93.086914 
2237.000000	93.086957 
2236.000000	93.087425 
2235.000000	93.088007 
2234.000000	93.088564 
2233.000000	93.089277 
2232.000000	93.090252 
2231.000000	93.091343 
2230.000000	93.092346 
2229.000000	93.093161 
2228.000000	93.093766 
2227.000000	93.094204 
2226.000000	93.094614 
2225.000000	93.095176 
2224.000000	93.095964 
2223.000000	93.096930 
2222.000000	93.097979 
2221.000000	93.099025 
2220.000000	93.100020 
2219.000000	93.100936 
2218.000000	93.101775 
2217.000000	93.102566 
2216.000000	93.103345 
2215.000000	93.104135 
2214.000000	93.104939 
2213.000000	93.105743 
2212.000000	93.106521 
2211.000000	93.107267 
2210.000000	93.108032 
2209.000000	93.108898 
2208.000000	93.109911 
2207.000000	93.111047 
2206.000000	93.112222 
2205.000000	93.113347 
2204.000000	93.114360 
2203.000000	93.115241 
2202.000000	93.116032 
2201.000000	93.116859 
2200.000000	93.117894 
2199.000000	93.119242 
2198.000000	93.120834 
2197.000000	93.122423 
2196.000000	93.123751 
2195.000000	93.124759 
2194.000000	93.125583 
2193.000000	93.126432 
2192.000000	93.127401 
2191.000000	93.128423 
2190.000000	93.129366 
2189.000000	93.130184 
2188.000000	93.131037 
2187.000000	93.132206 
2186.000000	93.133842 
2185.000000	93.135779 
2184.000000	93.137588 
2183.000000	93.138956 
2182.000000	93.139906 
2181.000000	93.140680 
2180.000000	93.141461 
2179.000000	93.142262 
2178.000000	93.143036 
2177.000000	93.143774 
2176.000000	93.144527 
2175.000000	93.145393 
2174.000000	93.146420 
2173.000000	93.147501 
2172.000000	93.148449 
2171.000000	93.149247 
2170.000000	93.150143 
2169.000000	93.151392 
2168.000000	93.152952 
2167.000000	93.154473 
2166.000000	93.155627 
2165.000000	93.156359 
2164.000000	93.156821 
2163.000000	93.157205 
2162.000000	93.157679 
2161.000000	93.158353 
2160.000000	93.159240 
2159.000000	93.160282 
2158.000000	93.161431 
2157.000000	93.162599 
2156.000000	93.163570 
2155.000000	93.164144 
2154.000000	93.164414 
2153.000000	93.164760 
2152.000000	93.165436 
2151.000000	93.166348 
2150.000000	93.167323 
2149.000000	93.168420 
2148.000000	93.169775 
2147.000000	93.171262 
2146.000000	93.172495 
2145.000000	93.173209 
2144.000000	93.173532 
2143.000000	93.173903 
2142.000000	93.174665 
2141.000000	93.175764 
2140.000000	93.176838 
2139.000000	93.177599 
2138.000000	93.178118 
2137.000000	93.178754 
2136.000000	93.179820 
2135.000000	93.181346 
2134.000000	93.183066 
2133.000000	93.184590 
2132.000000	93.185653 
2131.000000	93.186260 
2130.000000	93.186629 
2129.000000	93.186971 
2128.000000	93.187383 
2127.000000	93.187907 
2126.000000	93.188510 
2125.000000	93.188990 
2124.000000	93.189089 
2123.000000	93.188826 
2122.000000	93.188592 
2121.000000	93.188802 
2120.000000	93.189517 
2119.000000	93.190486 
2118.000000	93.191379 
2117.000000	93.192026 
2116.000000	93.192446 
2115.000000	93.192766 
2114.000000	93.193137 
2113.000000	93.193629 
2112.000000	93.194181 
2111.000000	93.194674 
2110.000000	93.195044 
2109.000000	93.195303 
2108.000000	93.195491 
2107.000000	93.195678 
2106.000000	93.195967 
2105.000000	93.196395 
2104.000000	93.196837 
2103.000000	93.197087 
2102.000000	93.197083 
2101.000000	93.197014 
2100.000000	93.197141 
2099.000000	93.197531 
2098.000000	93.198016 
2097.000000	93.198380 
2096.000000	93.198596 
2095.000000	93.198808 
2094.000000	93.199125 
2093.000000	93.199454 
2092.000000	93.199607 
2091.000000	93.199530 
2090.000000	93.199360 
2089.000000	93.199264 
2088.000000	93.199299 
2087.000000	93.199472 
2086.000000	93.199820 
2085.000000	93.200327 
2084.000000	93.200834 
2083.000000	93.201215 
2082.000000	93.201597 
2081.000000	93.202172 
2080.000000	93.202822 
2079.000000	93.203207 
2078.000000	93.203257 
2077.000000	93.203248 
2076.000000	93.203329 
2075.000000	93.203366 
2074.000000	93.203297 
2073.000000	93.203223 
2072.000000	93.203057 
2071.000000	93.202503 
2070.000000	93.201508 
2069.000000	93.200470 
2068.000000	93.199877 
2067.000000	93.199895 
2066.000000	93.200404 
2065.000000	93.201156 
2064.000000	93.201798 
2063.000000	93.202025 
2062.000000	93.201853 
2061.000000	93.201589 
2060.000000	93.201425 
2059.000000	93.201193 
2058.000000	93.200650 
2057.000000	93.199895 
2056.000000	93.199343 
2055.000000	93.199330 
2054.000000	93.199861 
2053.000000	93.200601 
2052.000000	93.201090 
2051.000000	93.201103 
2050.000000	93.200857 
2049.000000	93.200842 
2048.000000	93.201279 
2047.000000	93.201796 
2046.000000	93.201759 
2045.000000	93.200923 
2044.000000	93.199635 
2043.000000	93.198532 
2042.000000	93.198003 
2041.000000	93.197901 
2040.000000	93.197700 
2039.000000	93.197039 
2038.000000	93.196180 
2037.000000	93.195769 
2036.000000	93.196107 
2035.000000	93.196848 
2034.000000	93.197418 
2033.000000	93.197661 
2032.000000	93.197854 
2031.000000	93.198208 
2030.000000	93.198548 
2029.000000	93.198539 
2028.000000	93.198062 
2027.000000	93.197329 
2026.000000	93.196741 
2025.000000	93.196580 
2024.000000	93.196670 
2023.000000	93.196401 
2022.000000	93.195294 
2021.000000	93.193574 
2020.000000	93.192020 
2019.000000	93.191137 
2018.000000	93.190742 
2017.000000	93.190448 
2016.000000	93.190300 
2015.000000	93.190722 
2014.000000	93.191957 
2013.000000	93.193719 
2012.000000	93.195287 
2011.000000	93.195986 
2010.000000	93.195639 
2009.000000	93.194595 
2008.000000	93.193337 
2007.000000	93.192092 
2006.000000	93.190929 
2005.000000	93.190129 
2004.000000	93.190153 
2003.000000	93.191183 
2002.000000	93.192854 
2001.000000	93.194450 
2000.000000	93.195350 
1999.000000	93.195263 
1998.000000	93.194263 
1997.000000	93.192740 
1996.000000	93.191318 
1995.000000	93.190521 
1994.000000	93.190301 
1993.000000	93.190110 
1992.000000	93.189706 
1991.000000	93.189673 
1990.000000	93.190678 
1989.000000	93.192511 
1988.000000	93.194237 
1987.000000	93.195250 
1986.000000	93.195811 
1985.000000	93.196471 
1984.000000	93.197393 
1983.000000	93.198409 
1982.000000	93.199388 
1981.000000	93.200179 
1980.000000	93.200520 
1979.000000	93.200377 
1978.000000	93.200295 
1977.000000	93.200983 
1976.000000	93.202623 
1975.000000	93.204711 
1974.000000	93.206408 
1973.000000	93.207100 
1972.000000	93.206803 
1971.000000	93.206260 
1970.000000	93.206397 
1969.000000	93.207426 
1968.000000	93.208692 
1967.000000	93.209598 
1966.000000	93.210519 
1965.000000	93.212369 
1964.000000	93.215382 
1963.000000	93.218682 
1962.000000	93.221130 
1961.000000	93.222401 
1960.000000	93.223035 
1959.000000	93.223667 
1958.000000	93.224466 
1957.000000	93.225391 
1956.000000	93.226548 
1955.000000	93.227945 
1954.000000	93.229136 
1953.000000	93.229571 
1952.000000	93.229267 
1951.000000	93.228869 
1950.000000	93.228956 
1949.000000	93.229532 
1948.000000	93.230246 
1947.000000	93.230910 
1946.000000	93.231698 
1945.000000	93.232816 
1944.000000	93.234141 
1943.000000	93.235293 
1942.000000	93.235976 
1941.000000	93.236205 
1940.000000	93.236438 
1939.000000	93.237431 
1938.000000	93.239640 
1937.000000	93.242578 
1936.000000	93.244891 
1935.000000	93.245513 
1934.000000	93.244718 
1933.000000	93.243954 
1932.000000	93.244222 
1931.000000	93.244862 
1930.000000	93.244529 
1929.000000	93.243103 
1928.000000	93.241856 
1927.000000	93.241775 
1926.000000	93.242476 
1925.000000	93.242797 
1924.000000	93.242299 
1923.000000	93.241698 
1922.000000	93.241960 
1921.000000	93.243242 
1920.000000	93.244772 
1919.000000	93.245366 
1918.000000	93.244218 
1917.000000	93.241545 
1916.000000	93.238429 
1915.000000	93.235960 
1914.000000	93.234588 
1913.000000	93.234108 
1912.000000	93.234061 
1911.000000	93.234155 
1910.000000	93.234381 
1909.000000	93.234704 
1908.000000	93.234691 
1907.000000	93.233758 
1906.000000	93.231820 
1905.000000	93.229387 
1904.000000	93.227280 
1903.000000	93.226035 
1902.000000	93.225568 
1901.000000	93.225227 
1900.000000	93.224264 
1899.000000	93.222611 
1898.000000	93.221053 
1897.000000	93.220230 
1896.000000	93.219793 
1895.000000	93.218870 
1894.000000	93.217380 
1893.000000	93.216231 
1892.000000	93.216088 
1891.000000	93.216619 
1890.000000	93.217083 
1889.000000	93.217042 
1888.000000	93.216216 
1887.000000	93.214506 
1886.000000	93.212558 
1885.000000	93.211644 
1884.000000	93.212657 
1883.000000	93.215218 
1882.000000	93.217938 
1881.000000	93.219502 
1880.000000	93.219488 
1879.000000	93.218521 
1878.000000	93.217773 
1877.000000	93.217825 
1876.000000	93.218168 
1875.000000	93.217976 
1874.000000	93.217012 
1873.000000	93.215546 
1872.000000	93.213743 
1871.000000	93.211717 
1870.000000	93.210432 
1869.000000	93.211602 
1868.000000	93.215532 
1867.000000	93.220237 
1866.000000	93.223913 
1865.000000	93.226421 
1864.000000	93.228091 
1863.000000	93.229016 
1862.000000	93.229535 
1861.000000	93.230390 
1860.000000	93.231821 
1859.000000	93.233191 
1858.000000	93.234127 
1857.000000	93.235191 
1856.000000	93.236887 
1855.000000	93.238808 
1854.000000	93.240260 
1853.000000	93.241204 
1852.000000	93.242060 
1851.000000	93.242763 
1850.000000	93.243106 
1849.000000	93.243331 
1848.000000	93.243841 
1847.000000	93.244568 
1846.000000	93.245219 
1845.000000	93.246124 
1844.000000	93.248288 
1843.000000	93.252058 
1842.000000	93.256232 
1841.000000	93.259430 
1840.000000	93.261278 
1839.000000	93.262342 
1838.000000	93.263602 
1837.000000	93.265434 
1836.000000	93.267287 
1835.000000	93.268560 
1834.000000	93.269656 
1833.000000	93.271896 
1832.000000	93.276225 
1831.000000	93.281552 
1830.000000	93.284992 
1829.000000	93.284594 
1828.000000	93.281590 
1827.000000	93.278954 
1826.000000	93.277963 
1825.000000	93.277648 
1824.000000	93.277119 
1823.000000	93.276961 
1822.000000	93.278194 
1821.000000	93.280812 
1820.000000	93.284022 
1819.000000	93.287188 
1818.000000	93.289786 
1817.000000	93.291455 
1816.000000	93.292784 
1815.000000	93.294494 
1814.000000	93.295761 
1813.000000	93.294968 
1812.000000	93.292811 
1811.000000	93.292993 
1810.000000	93.298069 
1809.000000	93.306923 
1808.000000	93.316286 
1807.000000	93.323234 
1806.000000	93.327115 
1805.000000	93.329436 
1804.000000	93.331700 
1803.000000	93.333752 
1802.000000	93.334906 
1801.000000	93.335997 
1800.000000	93.337129 
1799.000000	93.336763 
1798.000000	93.335108 
1797.000000	93.335198 
1796.000000	93.339020 
1795.000000	93.345251 
1794.000000	93.351446 
1793.000000	93.356933 
1792.000000	93.363338 
1791.000000	93.370728 
1790.000000	93.376157 
1789.000000	93.379993 
1788.000000	93.386387 
1787.000000	93.397009 
1786.000000	93.408469 
1785.000000	93.416547 
1784.000000	93.421367 
1783.000000	93.426807 
1782.000000	93.435420 
1781.000000	93.445068 
1780.000000	93.450373 
1779.000000	93.450297 
1778.000000	93.450315 
1777.000000	93.455243 
1776.000000	93.463788 
1775.000000	93.473474 
1774.000000	93.486553 
1773.000000	93.505303 
1772.000000	93.524956 
1771.000000	93.539563 
1770.000000	93.551030 
1769.000000	93.565899 
1768.000000	93.587586 
1767.000000	93.612811 
1766.000000	93.636251 
1765.000000	93.657363 
1764.000000	93.678522 
1763.000000	93.700423 
1762.000000	93.720827 
1761.000000	93.736986 
1760.000000	93.749487 
1759.000000	93.763481 
1758.000000	93.783324 
1757.000000	93.806864 
1756.000000	93.825627 
1755.000000	93.834720 
1754.000000	93.838085 
1753.000000	93.840475 
1752.000000	93.842247 
1751.000000	93.844734 
1750.000000	93.852976 
1749.000000	93.868362 
1748.000000	93.886879 
1747.000000	93.904549 
1746.000000	93.922178 
1745.000000	93.942749 
1744.000000	93.965712 
1743.000000	93.987211 
1742.000000	94.003731 
1741.000000	94.014898 
1740.000000	94.022696 
1739.000000	94.029242 
1738.000000	94.034669 
1737.000000	94.036659 
1736.000000	94.029609 
1735.000000	94.004163 
1734.000000	93.962559 
1733.000000	93.928639 
1732.000000	93.915906 
1731.000000	93.918806 
1730.000000	93.928852 
1729.000000	93.939227 
1728.000000	93.944450 
1727.000000	93.940965 
1726.000000	93.928512 
1725.000000	93.909906 
1724.000000	93.890004 
1723.000000	93.873489 
1722.000000	93.860862 
1721.000000	93.849211 
1720.000000	93.834141 
1719.000000	93.809149 
1718.000000	93.770508 
1717.000000	93.730402 
1716.000000	93.707887 
1715.000000	93.703476 
1714.000000	93.703175 
1713.000000	93.695372 
1712.000000	93.677882 
1711.000000	93.654209 
1710.000000	93.627872 
1709.000000	93.602085 
1708.000000	93.579996 
1707.000000	93.561977 
1706.000000	93.546078 
1705.000000	93.531600 
1704.000000	93.519219 
1703.000000	93.507663 
1702.000000	93.494165 
1701.000000	93.476263 
1700.000000	93.456769 
1699.000000	93.442482 
1698.000000	93.434245 
1697.000000	93.434310 
1696.000000	93.443104 
1695.000000	93.452694 
1694.000000	93.454874 
1693.000000	93.450654 
1692.000000	93.444829 
1691.000000	93.440199 
1690.000000	93.438202 
1689.000000	93.438289 
1688.000000	93.437522 
1687.000000	93.434494 
1686.000000	93.432162 
1685.000000	93.432051 
1684.000000	93.432529 
1683.000000	93.432709 
1682.000000	93.431015 
1681.000000	93.428919 
1680.000000	93.427892 
1679.000000	93.429662 
1678.000000	93.438090 
1677.000000	93.454885 
1676.000000	93.473363 
1675.000000	93.483299 
1674.000000	93.484213 
1673.000000	93.483251 
1672.000000	93.483617 
1671.000000	93.484752 
1670.000000	93.488627 
1669.000000	93.498157 
1668.000000	93.508538 
1667.000000	93.512083 
1666.000000	93.508486 
1665.000000	93.502752 
1664.000000	93.499788 
1663.000000	93.502246 
1662.000000	93.510268 
1661.000000	93.521080 
1660.000000	93.529455 
1659.000000	93.532816 
1658.000000	93.533837 
1657.000000	93.536084 
1656.000000	93.538867 
1655.000000	93.538798 
1654.000000	93.534253 
1653.000000	93.528255 
1652.000000	93.527413 
1651.000000	93.530921 
1650.000000	93.535501 
1649.000000	93.538390 
1648.000000	93.538120 
1647.000000	93.535721 
1646.000000	93.534683 
1645.000000	93.536379 
1644.000000	93.539074 
1643.000000	93.540546 
1642.000000	93.539263 
1641.000000	93.535960 
1640.000000	93.532451 
1639.000000	93.529927 
1638.000000	93.528706 
1637.000000	93.528506 
1636.000000	93.528574 
1635.000000	93.528495 
1634.000000	93.528818 
1633.000000	93.528980 
1632.000000	93.528168 
1631.000000	93.526253 
1630.000000	93.524180 
1629.000000	93.523531 
1628.000000	93.524446 
1627.000000	93.524826 
1626.000000	93.522580 
1625.000000	93.517795 
1624.000000	93.512043 
1623.000000	93.507578 
1622.000000	93.506022 
1621.000000	93.506777 
1620.000000	93.507722 
1619.000000	93.507418 
1618.000000	93.505822 
1617.000000	93.503399 
1616.000000	93.500683 
1615.000000	93.498376 
1614.000000	93.497045 
1613.000000	93.496923 
1612.000000	93.497663 
1611.000000	93.498430 
1610.000000	93.499000 
1609.000000	93.499873 
1608.000000	93.500795 
1607.000000	93.500872 
1606.000000	93.499937 
1605.000000	93.498690 
1604.000000	93.497609 
1603.000000	93.497214 
1602.000000	93.498076 
1601.000000	93.499471 
1600.000000	93.499783 
1599.000000	93.498650 
1598.000000	93.497455 
1597.000000	93.497335 
1596.000000	93.497971 
1595.000000	93.498713 
1594.000000	93.499681 
1593.000000	93.501042 
1592.000000	93.502188 
1591.000000	93.502488 
1590.000000	93.502152 
1589.000000	93.501714 
1588.000000	93.501246 
1587.000000	93.500686 
1586.000000	93.500256 
1585.000000	93.500087 
1584.000000	93.499902 
1583.000000	93.499494 
1582.000000	93.499207 
1581.000000	93.499310 
1580.000000	93.499595 
1579.000000	93.499789 
1578.000000	93.499870 
1577.000000	93.499884 
1576.000000	93.499784 
1575.000000	93.499575 
1574.000000	93.499329 
1573.000000	93.499084 
1572.000000	93.498838 
1571.000000	93.498587 
1570.000000	93.498357 
1569.000000	93.498188 
1568.000000	93.498046 
1567.000000	93.497846 
1566.000000	93.497611 
1565.000000	93.497431 
1564.000000	93.497297 
1563.000000	93.497124 
1562.000000	93.496912 
1561.000000	93.496732 
1560.000000	93.496350 
1559.000000	93.495580 
1558.000000	93.495113 
1557.000000	93.495173 
1556.000000	93.495335 
1555.000000	93.495273 
1554.000000	93.494981 
1553.000000	93.494781 
1552.000000	93.494876 
1551.000000	93.495147 
1550.000000	93.495367 
1549.000000	93.495322 
1548.000000	93.494855 
1547.000000	93.494018 
1546.000000	93.493335 
1545.000000	93.493767 
1544.000000	93.495862 
1543.000000	93.498885 
1542.000000	93.501413 
1541.000000	93.502574 
1540.000000	93.502216 
1539.000000	93.501017 
1538.000000	93.500213 
1537.000000	93.500435 
1536.000000	93.501314 
1535.000000	93.502056 
1534.000000	93.502795 
1533.000000	93.504760 
1532.000000	93.507695 
1531.000000	93.509624 
1530.000000	93.509931 
1529.000000	93.510037 
1528.000000	93.511865 
1527.000000	93.516158 
1526.000000	93.521842 
1525.000000	93.527035 
1524.000000	93.530519 
1523.000000	93.532062 
1522.000000	93.532764 
1521.000000	93.534954 
1520.000000	93.539126 
1519.000000	93.543480 
1518.000000	93.547244 
1517.000000	93.550936 
1516.000000	93.554887 
1515.000000	93.558641 
1514.000000	93.562075 
1513.000000	93.565652 
1512.000000	93.569577 
1511.000000	93.573640 
1510.000000	93.577466 
1509.000000	93.581217 
1508.000000	93.586283 
1507.000000	93.594156 
1506.000000	93.601906 
1505.000000	93.606098 
1504.000000	93.608752 
1503.000000	93.612399 
1502.000000	93.617629 
1501.000000	93.624239 
1500.000000	93.631729 
1499.000000	93.639763 
1498.000000	93.647791 
1497.000000	93.654671 
1496.000000	93.659264 
1495.000000	93.661273 
1494.000000	93.661618 
1493.000000	93.661970 
1492.000000	93.663693 
1491.000000	93.667594 
1490.000000	93.673949 
1489.000000	93.682091 
1488.000000	93.690425 
1487.000000	93.697966 
1486.000000	93.705094 
1485.000000	93.712292 
1484.000000	93.718868 
1483.000000	93.723676 
1482.000000	93.726849 
1481.000000	93.730117 
1480.000000	93.735360 
1479.000000	93.742948 
1478.000000	93.751773 
1477.000000	93.759765 
1476.000000	93.764940 
1475.000000	93.766394 
1474.000000	93.765792 
1473.000000	93.767517 
1472.000000	93.772874 
1471.000000	93.777424 
1470.000000	93.778852 
1469.000000	93.780343 
1468.000000	93.784416 
1467.000000	93.789910 
1466.000000	93.795555 
1465.000000	93.803553 
1464.000000	93.814526 
1463.000000	93.823837 
1462.000000	93.828327 
1461.000000	93.830515 
1460.000000	93.835007 
1459.000000	93.844937 
1458.000000	93.862192 
1457.000000	93.886834 
1456.000000	93.911857 
1455.000000	93.929055 
1454.000000	93.940309 
1453.000000	93.950261 
1452.000000	93.959156 
1451.000000	93.964952 
1450.000000	93.966655 
1449.000000	93.965435 
1448.000000	93.963357 
1447.000000	93.961447 
1446.000000	93.960325 
1445.000000	93.961417 
1444.000000	93.964357 
1443.000000	93.966759 
1442.000000	93.966879 
1441.000000	93.965615 
1440.000000	93.966269 
1439.000000	93.971890 
1438.000000	93.981740 
1437.000000	93.991383 
1436.000000	93.997374 
1435.000000	93.999813 
1434.000000	94.002002 
1433.000000	94.007891 
1432.000000	94.018689 
1431.000000	94.033161 
1430.000000	94.048140 
1429.000000	94.059379 
1428.000000	94.065331 
1427.000000	94.068797 
1426.000000	94.074184 
1425.000000	94.083128 
1424.000000	94.093715 
1423.000000	94.104356 
1422.000000	94.115442 
1421.000000	94.127735 
1420.000000	94.140549 
1419.000000	94.153869 
1418.000000	94.169190 
1417.000000	94.186979 
1416.000000	94.207465 
1415.000000	94.229754 
1414.000000	94.251510 
1413.000000	94.271347 
1412.000000	94.290034 
1411.000000	94.309209 
1410.000000	94.328211 
1409.000000	94.344127 
1408.000000	94.355030 
1407.000000	94.360954 
1406.000000	94.363496 
1405.000000	94.365224 
1404.000000	94.367187 
1403.000000	94.367252 
1402.000000	94.362247 
1401.000000	94.351384 
1400.000000	94.338078 
1399.000000	94.330743 
1398.000000	94.338574 
1397.000000	94.365845 
1396.000000	94.409834 
1395.000000	94.456487 
1394.000000	94.483913 
1393.000000	94.481671 
1392.000000	94.460796 
1391.000000	94.440640 
1390.000000	94.433433 
1389.000000	94.441844 
1388.000000	94.463893 
1387.000000	94.495930 
1386.000000	94.531555 
1385.000000	94.564175 
1384.000000	94.590979 
1383.000000	94.612428 
1382.000000	94.630236 
1381.000000	94.645860 
1380.000000	94.658259 
1379.000000	94.663845 
1378.000000	94.660796 
1377.000000	94.651803 
1376.000000	94.641455 
1375.000000	94.632799 
1374.000000	94.626289 
1373.000000	94.618768 
1372.000000	94.604964 
1371.000000	94.583092 
1370.000000	94.558014 
1369.000000	94.537604 
1368.000000	94.526066 
1367.000000	94.519773 
1366.000000	94.509927 
1365.000000	94.490051 
1364.000000	94.460962 
1363.000000	94.430953 
1362.000000	94.408171 
1361.000000	94.391499 
1360.000000	94.374970 
1359.000000	94.358252 
1358.000000	94.346449 
1357.000000	94.341559 
1356.000000	94.338618 
1355.000000	94.331924 
1354.000000	94.321720 
1353.000000	94.311807 
1352.000000	94.302639 
1351.000000	94.291345 
1350.000000	94.278095 
1349.000000	94.265442 
1348.000000	94.253004 
1347.000000	94.238385 
1346.000000	94.222140 
1345.000000	94.207456 
1344.000000	94.194499 
1343.000000	94.179259 
1342.000000	94.159053 
1341.000000	94.136983 
1340.000000	94.119961 
1339.000000	94.111988 
1338.000000	94.109344 
1337.000000	94.104203 
1336.000000	94.092508 
1335.000000	94.076940 
1334.000000	94.063594 
1333.000000	94.056450 
1332.000000	94.054513 
1331.000000	94.053805 
1330.000000	94.051104 
1329.000000	94.045567 
1328.000000	94.038486 
1327.000000	94.032716 
1326.000000	94.030571 
1325.000000	94.030003 
1324.000000	94.025321 
1323.000000	94.013276 
1322.000000	93.996749 
1321.000000	93.981686 
1320.000000	93.971957 
1319.000000	93.968236 
1318.000000	93.969390 
1317.000000	93.973299 
1316.000000	93.977048 
1315.000000	93.978097 
1314.000000	93.975876 
1313.000000	93.972023 
1312.000000	93.968714 
1311.000000	93.966653 
1310.000000	93.964603 
1309.000000	93.960991 
1308.000000	93.956276 
1307.000000	93.953297 
1306.000000	93.954482 
1305.000000	93.958620 
1304.000000	93.961916 
1303.000000	93.961921 
1302.000000	93.959212 
1301.000000	93.955542 
1300.000000	93.951803 
1299.000000	93.948165 
1298.000000	93.944712 
1297.000000	93.941490 
1296.000000	93.938759 
1295.000000	93.937569 
1294.000000	93.938919 
1293.000000	93.942070 
1292.000000	93.944979 
1291.000000	93.946635 
1290.000000	93.947741 
1289.000000	93.948781 
1288.000000	93.948847 
1287.000000	93.947236 
1286.000000	93.945156 
1285.000000	93.945158 
1284.000000	93.949601 
1283.000000	93.959308 
1282.000000	93.972493 
1281.000000	93.984944 
1280.000000	93.992410 
1279.000000	93.994204 
1278.000000	93.993843 
1277.000000	93.995563 
1276.000000	94.000751 
1275.000000	94.007958 
1274.000000	94.015108 
1273.000000	94.020899 
1272.000000	94.024987 
1271.000000	94.028043 
1270.000000	94.031823 
1269.000000	94.038605 
1268.000000	94.050331 
1267.000000	94.067657 
1266.000000	94.088376 
1265.000000	94.107012 
1264.000000	94.118068 
1263.000000	94.121021 
1262.000000	94.121217 
1261.000000	94.124565 
1260.000000	94.132234 
1259.000000	94.141470 
1258.000000	94.150240 
1257.000000	94.159172 
1256.000000	94.169224 
1255.000000	94.179401 
1254.000000	94.187652 
1253.000000	94.193073 
1252.000000	94.196382 
1251.000000	94.198676 
1250.000000	94.200148 
1249.000000	94.199578 
1248.000000	94.194962 
1247.000000	94.185615 
1246.000000	94.174866 
1245.000000	94.170331 
1244.000000	94.179117 
1243.000000	94.200219 
1242.000000	94.222307 
1241.000000	94.232612 
1240.000000	94.229649 
1239.000000	94.225544 
1238.000000	94.234523 
1237.000000	94.260301 
1236.000000	94.295746 
1235.000000	94.332453 
1234.000000	94.367647 
1233.000000	94.402174 
1232.000000	94.434620 
1231.000000	94.459002 
1230.000000	94.468170 
1229.000000	94.459721 
1228.000000	94.438899 
1227.000000	94.414447 
1226.000000	94.389880 
1225.000000	94.360010 
1224.000000	94.318963 
1223.000000	94.271302 
1222.000000	94.232365 
1221.000000	94.216431 
1220.000000	94.225258 
1219.000000	94.246494 
1218.000000	94.260663 
1217.000000	94.251433 
1216.000000	94.213684 
1215.000000	94.155021 
1214.000000	94.089448 
1213.000000	94.028212 
1212.000000	93.976200 
1211.000000	93.934038 
1210.000000	93.899527 
1209.000000	93.867988 
1208.000000	93.835624 
1207.000000	93.803673 
1206.000000	93.776499 
1205.000000	93.754668 
1204.000000	93.732016 
1203.000000	93.700319 
1202.000000	93.655662 
1201.000000	93.600849 
1200.000000	93.543661 
1199.000000	93.491956 
1198.000000	93.447346 
1197.000000	93.403887 
1196.000000	93.355402 
1195.000000	93.303083 
1194.000000	93.253167 
1193.000000	93.208887 
1192.000000	93.169088 
1191.000000	93.133474 
1190.000000	93.103620 
1189.000000	93.078412 
1188.000000	93.053550 
1187.000000	93.026908 
1186.000000	93.000140 
1185.000000	92.973815 
1184.000000	92.945609 
1183.000000	92.915558 
1182.000000	92.888958 
1181.000000	92.870464 
1180.000000	92.857363 
1179.000000	92.841255 
1178.000000	92.815183 
1177.000000	92.777851 
1176.000000	92.732892 
1175.000000	92.686139 
1174.000000	92.642250 
1173.000000	92.602231 
1172.000000	92.565049 
1171.000000	92.531384 
1170.000000	92.503269 
1169.000000	92.480380 
1168.000000	92.460023 
1167.000000	92.441337 
1166.000000	92.426459 
1165.000000	92.417001 
1164.000000	92.412729 
1163.000000	92.414568 
1162.000000	92.425078 
1161.000000	92.443853 
1160.000000	92.465249 
1159.000000	92.483148 
1158.000000	92.495783 
1157.000000	92.503398 
1156.000000	92.503695 
1155.000000	92.493402 
1154.000000	92.473577 
1153.000000	92.449982 
1152.000000	92.427555 
1151.000000	92.406177 
1150.000000	92.382463 
1149.000000	92.354718 
1148.000000	92.325582 
1147.000000	92.299753 
1146.000000	92.278998 
1145.000000	92.260210 
1144.000000	92.239370 
1143.000000	92.216525 
1142.000000	92.195112 
1141.000000	92.177010 
1140.000000	92.160632 
1139.000000	92.143724 
1138.000000	92.125625 
1137.000000	92.106518 
1136.000000	92.086584 
1135.000000	92.066249 
1134.000000	92.045347 
1133.000000	92.022177 
1132.000000	91.995580 
1131.000000	91.967653 
1130.000000	91.941556 
1129.000000	91.916635 
1128.000000	91.889032 
1127.000000	91.857855 
1126.000000	91.827675 
1125.000000	91.803596 
1124.000000	91.786140 
1123.000000	91.771843 
1122.000000	91.756821 
1121.000000	91.739464 
1120.000000	91.722001 
1119.000000	91.709802 
1118.000000	91.706420 
1117.000000	91.708568 
1116.000000	91.708384 
1115.000000	91.701481 
1114.000000	91.690756 
1113.000000	91.682350 
1112.000000	91.681187 
1111.000000	91.690561 
1110.000000	91.711793 
1109.000000	91.741982 
1108.000000	91.773544 
1107.000000	91.798807 
1106.000000	91.815383 
1105.000000	91.825929 
1104.000000	91.835279 
1103.000000	91.849056 
1102.000000	91.871765 
1101.000000	91.902884 
1100.000000	91.937529 
1099.000000	91.971763 
1098.000000	92.005771 
1097.000000	92.040745 
1096.000000	92.074367 
1095.000000	92.103368 
1094.000000	92.128110 
1093.000000	92.151452 
1092.000000	92.174251 
1091.000000	92.195402 
1090.000000	92.214982 
1089.000000	92.233400 
1088.000000	92.248243 
1087.000000	92.256700 
1086.000000	92.261479 
1085.000000	92.269736 
1084.000000	92.285163 
1083.000000	92.305001 
1082.000000	92.325528 
1081.000000	92.345785 
1080.000000	92.364027 
1079.000000	92.375246 
1078.000000	92.375872 
1077.000000	92.368038 
1076.000000	92.356058 
1075.000000	92.340709 
1074.000000	92.318947 
1073.000000	92.287117 
1072.000000	92.244087 
1071.000000	92.196243 
1070.000000	92.161385 
1069.000000	92.159840 
1068.000000	92.192827 
1067.000000	92.230722 
1066.000000	92.231867 
1065.000000	92.178037 
1064.000000	92.089548 
1063.000000	92.007726 
1062.000000	91.967063 
1061.000000	91.981452 
1060.000000	92.044957 
1059.000000	92.136344 
1058.000000	92.227349 
1057.000000	92.296852 
1056.000000	92.340337 
1055.000000	92.365309 
1054.000000	92.379614 
1053.000000	92.384448 
1052.000000	92.373428 
1051.000000	92.334193 
1050.000000	92.255306 
1049.000000	92.138227 
1048.000000	92.000663 
1047.000000	91.861802 
1046.000000	91.724807 
1045.000000	91.579621 
1044.000000	91.421652 
1043.000000	91.260315 
1042.000000	91.107927 
1041.000000	90.967198 
1040.000000	90.833199 
1039.000000	90.701249 
1038.000000	90.568233 
1037.000000	90.432240 
1036.000000	90.296726 
1035.000000	90.170268 
1034.000000	90.057062 
1033.000000	89.954122 
1032.000000	89.865131 
1031.000000	89.809517 
1030.000000	89.804085 
1029.000000	89.835239 
1028.000000	89.859668 
1027.000000	89.838934 
1026.000000	89.771084 
1025.000000	89.686346 
1024.000000	89.618007 
1023.000000	89.580920 
1022.000000	89.569919 
1021.000000	89.569700 
1020.000000	89.565831 
1019.000000	89.551430 
1018.000000	89.528394 
1017.000000	89.504303 
1016.000000	89.487616 
1015.000000	89.483138 
1014.000000	89.488559 
1013.000000	89.494509 
1012.000000	89.490304 
1011.000000	89.472086 
1010.000000	89.446167 
1009.000000	89.424229 
1008.000000	89.414949 
1007.000000	89.418865 
1006.000000	89.428944 
1005.000000	89.435511 
1004.000000	89.432674 
1003.000000	89.422480 
1002.000000	89.413293 
1001.000000	89.412783 
1000.000000	89.422003 
999.000000	 89.436885 
998.000000	 89.454743 
997.000000	 89.476773 
996.000000	 89.503184 
995.000000	 89.529015 
994.000000	 89.548274 
993.000000	 89.560995 
992.000000	 89.572466 
991.000000	 89.585980 
990.000000	 89.600484 
989.000000	 89.615941 
988.000000	 89.636624 
987.000000	 89.666817 
986.000000	 89.706344 
985.000000	 89.752696 
984.000000	 89.803965 
983.000000	 89.857844 
982.000000	 89.912395 
981.000000	 89.969680 
980.000000	 90.034313 
979.000000	 90.106142 
978.000000	 90.178202 
977.000000	 90.245089 
976.000000	 90.309759 
975.000000	 90.378204 
974.000000	 90.450643 
973.000000	 90.522113 
972.000000	 90.589058 
971.000000	 90.651057 
970.000000	 90.708528 
969.000000	 90.763521 
968.000000	 90.821164 
967.000000	 90.885640 
966.000000	 90.955528 
965.000000	 91.026884 
964.000000	 91.099300 
963.000000	 91.174036 
962.000000	 91.247273 
961.000000	 91.311362 
960.000000	 91.364087 
959.000000	 91.412237 
958.000000	 91.463662 
957.000000	 91.518017 
956.000000	 91.567543 
955.000000	 91.605921 
954.000000	 91.635064 
953.000000	 91.663649 
952.000000	 91.699050 
951.000000	 91.740506 
950.000000	 91.781231 
949.000000	 91.817099 
948.000000	 91.850450 
947.000000	 91.884146 
946.000000	 91.915702 
945.000000	 91.941142 
944.000000	 91.961808 
943.000000	 91.982114 
942.000000	 92.001965 
941.000000	 92.017478 
940.000000	 92.029367 
939.000000	 92.044121 
938.000000	 92.064533 
937.000000	 92.084801 
936.000000	 92.098940 
935.000000	 92.109431 
934.000000	 92.122690 
933.000000	 92.138921 
932.000000	 92.152126 
931.000000	 92.159386 
930.000000	 92.165195 
929.000000	 92.176029 
928.000000	 92.194061 
927.000000	 92.216586 
926.000000	 92.238747 
925.000000	 92.256719 
924.000000	 92.271010 
923.000000	 92.286935 
922.000000	 92.308919 
921.000000	 92.333692 
920.000000	 92.352402 
919.000000	 92.361011 
918.000000	 92.365754 
917.000000	 92.376196 
916.000000	 92.395889 
915.000000	 92.422665 
914.000000	 92.454969 
913.000000	 92.493112 
912.000000	 92.534643 
911.000000	 92.573342 
910.000000	 92.605596 
909.000000	 92.635428 
908.000000	 92.670901 
907.000000	 92.717180 
906.000000	 92.774463 
905.000000	 92.840107 
904.000000	 92.909826 
903.000000	 92.978468 
902.000000	 93.043522 
901.000000	 93.108030 
900.000000	 93.176984 
899.000000	 93.250485 
898.000000	 93.323109 
897.000000	 93.390895 
896.000000	 93.456243 
895.000000	 93.523816 
894.000000	 93.592712 
893.000000	 93.654630 
892.000000	 93.700869 
891.000000	 93.731967 
890.000000	 93.760684 
889.000000	 93.803371 
888.000000	 93.866176 
887.000000	 93.939995 
886.000000	 94.010005 
885.000000	 94.069148 
884.000000	 94.120919 
883.000000	 94.171034 
882.000000	 94.219537 
881.000000	 94.260149 
880.000000	 94.283537 
879.000000	 94.281340 
878.000000	 94.252215 
877.000000	 94.207166 
876.000000	 94.166415 
875.000000	 94.146151 
874.000000	 94.146474 
873.000000	 94.153380 
872.000000	 94.153271 
871.000000	 94.145638 
870.000000	 94.142217 
869.000000	 94.154507 
868.000000	 94.182471 
867.000000	 94.215026 
866.000000	 94.240704 
865.000000	 94.256878 
864.000000	 94.268177 
863.000000	 94.277952 
862.000000	 94.284244 
861.000000	 94.284543 
860.000000	 94.281593 
859.000000	 94.281838 
858.000000	 94.288493 
857.000000	 94.298383 
856.000000	 94.306451 
855.000000	 94.311919 
854.000000	 94.318445 
853.000000	 94.328253 
852.000000	 94.337646 
851.000000	 94.340227 
850.000000	 94.335083 
849.000000	 94.330129 
848.000000	 94.334894 
847.000000	 94.349601 
846.000000	 94.363509 
845.000000	 94.365525 
844.000000	 94.355191 
843.000000	 94.341905 
842.000000	 94.334552 
841.000000	 94.333773 
840.000000	 94.333597 
839.000000	 94.327641 
838.000000	 94.313289 
837.000000	 94.292965 
836.000000	 94.273593 
835.000000	 94.263130 
834.000000	 94.264229 
833.000000	 94.270311 
832.000000	 94.269230 
831.000000	 94.252730 
830.000000	 94.224400 
829.000000	 94.199631 
828.000000	 94.195816 
827.000000	 94.218224 
826.000000	 94.253034 
825.000000	 94.276704 
824.000000	 94.274922 
823.000000	 94.251979 
822.000000	 94.222602 
821.000000	 94.197988 
820.000000	 94.180199 
819.000000	 94.164492 
818.000000	 94.143438 
817.000000	 94.112618 
816.000000	 94.076002 
815.000000	 94.043433 
814.000000	 94.019446 
813.000000	 93.996613 
812.000000	 93.962803 
811.000000	 93.911531 
810.000000	 93.841023 
809.000000	 93.747365 
808.000000	 93.626667 
807.000000	 93.483658 
806.000000	 93.330865 
805.000000	 93.178051 
804.000000	 93.028681 
803.000000	 92.887214 
802.000000	 92.761821 
801.000000	 92.657321 
800.000000	 92.572304 
799.000000	 92.506788 
798.000000	 92.467331 
797.000000	 92.460356 
796.000000	 92.483506 
795.000000	 92.526467 
794.000000	 92.578093 
793.000000	 92.631150 
792.000000	 92.683118 
791.000000	 92.735074 
790.000000	 92.787212 
789.000000	 92.832142 
788.000000	 92.854807 
787.000000	 92.843786 
786.000000	 92.802970 
785.000000	 92.748716 
784.000000	 92.695056 
783.000000	 92.644232 
782.000000	 92.591752 
781.000000	 92.538137 
780.000000	 92.494432 
779.000000	 92.476547 
778.000000	 92.493590 
777.000000	 92.540501 
776.000000	 92.601920 
775.000000	 92.664460 
774.000000	 92.726315 
773.000000	 92.794941 
772.000000	 92.875649 
771.000000	 92.962743 
770.000000	 93.041707 
769.000000	 93.100355 
768.000000	 93.138221 
767.000000	 93.165149 
766.000000	 93.190324 
765.000000	 93.213472 
764.000000	 93.228987 
763.000000	 93.237882 
762.000000	 93.250640 
761.000000	 93.275163 
760.000000	 93.305499 
759.000000	 93.327606 
758.000000	 93.334954 
757.000000	 93.333735 
756.000000	 93.333355 
755.000000	 93.337308 
754.000000	 93.344959 
753.000000	 93.357711 
752.000000	 93.379948 
751.000000	 93.415159 
750.000000	 93.462872 
749.000000	 93.517986 
748.000000	 93.572136 
747.000000	 93.617786 
746.000000	 93.652726 
745.000000	 93.679772 
744.000000	 93.701904 
743.000000	 93.720089 
742.000000	 93.736600 
741.000000	 93.756644 
740.000000	 93.783563 
739.000000	 93.814863 
738.000000	 93.846027 
737.000000	 93.875838 
736.000000	 93.904656 
735.000000	 93.929155 
734.000000	 93.943761 
733.000000	 93.948419 
732.000000	 93.951413 
731.000000	 93.962128 
730.000000	 93.983127 
729.000000	 94.010983 
728.000000	 94.039850 
727.000000	 94.063742 
726.000000	 94.080877 
725.000000	 94.095338 
724.000000	 94.111626 
723.000000	 94.128661 
722.000000	 94.142059 
721.000000	 94.150946 
720.000000	 94.157885 
719.000000	 94.163219 
718.000000	 94.165214 
717.000000	 94.165321 
716.000000	 94.167771 
715.000000	 94.172600 
714.000000	 94.174393 
713.000000	 94.170655 
712.000000	 94.165353 
711.000000	 94.160246 
710.000000	 94.149949 
709.000000	 94.132618 
708.000000	 94.115710 
707.000000	 94.107755 
706.000000	 94.108972 
705.000000	 94.111763 
704.000000	 94.106768 
703.000000	 94.087241 
702.000000	 94.049668 
701.000000	 93.996703 
700.000000	 93.938665 
699.000000	 93.882384 
698.000000	 93.821378 
697.000000	 93.744665 
696.000000	 93.657999 
695.000000	 93.591525 
694.000000	 93.575464 
693.000000	 93.613530 
692.000000	 93.683791 
691.000000	 93.758449 
690.000000	 93.822538 
689.000000	 93.873700 
688.000000	 93.912303 
687.000000	 93.939399 
686.000000	 93.958313 
685.000000	 93.974935 
684.000000	 93.995472 
683.000000	 94.021395 
682.000000	 94.048746 
681.000000	 94.073062 
680.000000	 94.094240 
679.000000	 94.112894 
678.000000	 94.126299 
677.000000	 94.135157 
676.000000	 94.145942 
675.000000	 94.162839 
674.000000	 94.181518 
673.000000	 94.192146 
672.000000	 94.186388 
671.000000	 94.155489 
670.000000	 94.094014 
669.000000	 94.016783 
668.000000	 93.996362 
667.000000	 94.067941 
666.000000	 94.174146 
665.000000	 94.267318 
664.000000	 94.342997 
663.000000	 94.401582 
662.000000	 94.445565 
661.000000	 94.481484 
660.000000	 94.516240 
659.000000	 94.550199 
658.000000	 94.581641 
657.000000	 94.613062 
656.000000	 94.641771 
655.000000	 94.656627 
654.000000	 94.655041 
653.000000	 94.648963 
652.000000	 94.645901 
651.000000	 94.640430 
650.000000	 94.630715 

