PE IR                   SPECTRUM    ASCII       PEDS        1.60        
  -1
~SP.SP
22/12/06
16:18:24.00
23/01/09
15:00:06.00
Administrator

650.000000
4









FRONTIER FT-IR,CPU32 MAIN 00.09.9951 07-SEPTEMBER-2011 11:49:41
MIR TGS
MIR
OPTKBR
90694
0.200000

4.000000
STRONG
RATIO
SPECTRUM
MAGNITUDE
MIRACLE ATR
DOUBLE

COMBINED


0


#HDR
-1
-1
#GR
CM-1
%T
0.00002384185791015625
0.0
4000.000000
-1.000000
3351
8
97.066190
79.119841
#DATA
4000.000000	97.033748 
3999.000000	97.031110 
3998.000000	97.024576 
3997.000000	97.015526 
3996.000000	97.006857 
3995.000000	97.000215 
3994.000000	96.995261 
3993.000000	96.991019 
3992.000000	96.987537 
3991.000000	96.985937 
3990.000000	96.986956 
3989.000000	96.989884 
3988.000000	96.992654 
3987.000000	96.993351 
3986.000000	96.991608 
3985.000000	96.988419 
3984.000000	96.984760 
3983.000000	96.980567 
3982.000000	96.975190 
3981.000000	96.968578 
3980.000000	96.961776 
3979.000000	96.956201 
3978.000000	96.952457 
3977.000000	96.949926 
3976.000000	96.947456 
3975.000000	96.944447 
3974.000000	96.941264 
3973.000000	96.938642 
3972.000000	96.936857 
3971.000000	96.935607 
3970.000000	96.934506 
3969.000000	96.933396 
3968.000000	96.932109 
3967.000000	96.930189 
3966.000000	96.927136 
3965.000000	96.922848 
3964.000000	96.917666 
3963.000000	96.912007 
3962.000000	96.906161 
3961.000000	96.900665 
3960.000000	96.896760 
3959.000000	96.896030 
3958.000000	96.899108 
3957.000000	96.904559 
3956.000000	96.909115 
3955.000000	96.909551 
3954.000000	96.904492 
3953.000000	96.894501 
3952.000000	96.881270 
3951.000000	96.867064 
3950.000000	96.854583 
3949.000000	96.846264 
3948.000000	96.842754 
3947.000000	96.842463 
3946.000000	96.843253 
3945.000000	96.844623 
3944.000000	96.847672 
3943.000000	96.852860 
3942.000000	96.858521 
3941.000000	96.862074 
3940.000000	96.862312 
3939.000000	96.859789 
3938.000000	96.855130 
3937.000000	96.847899 
3936.000000	96.837733 
3935.000000	96.826210 
3934.000000	96.816780 
3933.000000	96.812217 
3932.000000	96.812275 
3931.000000	96.814212 
3930.000000	96.815513 
3929.000000	96.815585 
3928.000000	96.814990 
3927.000000	96.814112 
3926.000000	96.812790 
3925.000000	96.810516 
3924.000000	96.806710 
3923.000000	96.800938 
3922.000000	96.793132 
3921.000000	96.783787 
3920.000000	96.774114 
3919.000000	96.766507 
3918.000000	96.764369 
3917.000000	96.770031 
3916.000000	96.782391 
3915.000000	96.797261 
3914.000000	96.810328 
3913.000000	96.819204 
3912.000000	96.822605 
3911.000000	96.819047 
3910.000000	96.807952 
3909.000000	96.791716 
3908.000000	96.775537 
3907.000000	96.764038 
3906.000000	96.757431 
3905.000000	96.751285 
3904.000000	96.741018 
3903.000000	96.727130 
3902.000000	96.714746 
3901.000000	96.708428 
3900.000000	96.708640 
3899.000000	96.712699 
3898.000000	96.717840 
3897.000000	96.722756 
3896.000000	96.727221 
3895.000000	96.731917 
3894.000000	96.738046 
3893.000000	96.745972 
3892.000000	96.753752 
3891.000000	96.757756 
3890.000000	96.755822 
3889.000000	96.749407 
3888.000000	96.742300 
3887.000000	96.736790 
3886.000000	96.731710 
3885.000000	96.725106 
3884.000000	96.717381 
3883.000000	96.711377 
3882.000000	96.709997 
3881.000000	96.713347 
3880.000000	96.718655 
3879.000000	96.723513 
3878.000000	96.727734 
3877.000000	96.731722 
3876.000000	96.733898 
3875.000000	96.730926 
3874.000000	96.721642 
3873.000000	96.710100 
3872.000000	96.703411 
3871.000000	96.705857 
3870.000000	96.714833 
3869.000000	96.722843 
3868.000000	96.724549 
3867.000000	96.720942 
3866.000000	96.717258 
3865.000000	96.717586 
3864.000000	96.721751 
3863.000000	96.726620 
3862.000000	96.729177 
3861.000000	96.728820 
3860.000000	96.727303 
3859.000000	96.727355 
3858.000000	96.731959 
3857.000000	96.743395 
3856.000000	96.760919 
3855.000000	96.777864 
3854.000000	96.785213 
3853.000000	96.782144 
3852.000000	96.774594 
3851.000000	96.764987 
3850.000000	96.754753 
3849.000000	96.746234 
3848.000000	96.739177 
3847.000000	96.731758 
3846.000000	96.723535 
3845.000000	96.715836 
3844.000000	96.709838 
3843.000000	96.705262 
3842.000000	96.701920 
3841.000000	96.701583 
3840.000000	96.705922 
3839.000000	96.712923 
3838.000000	96.718007 
3837.000000	96.719079 
3836.000000	96.718505 
3835.000000	96.719862 
3834.000000	96.724396 
3833.000000	96.729954 
3832.000000	96.732647 
3831.000000	96.730608 
3830.000000	96.725874 
3829.000000	96.722261 
3828.000000	96.721683 
3827.000000	96.722590 
3826.000000	96.722170 
3825.000000	96.720123 
3824.000000	96.719242 
3823.000000	96.721867 
3822.000000	96.726421 
3821.000000	96.728560 
3820.000000	96.726248 
3819.000000	96.721599 
3818.000000	96.718394 
3817.000000	96.718069 
3816.000000	96.718594 
3815.000000	96.717612 
3814.000000	96.714839 
3813.000000	96.711392 
3812.000000	96.708365 
3811.000000	96.706124 
3810.000000	96.704515 
3809.000000	96.703248 
3808.000000	96.702035 
3807.000000	96.700629 
3806.000000	96.698980 
3805.000000	96.697281 
3804.000000	96.695753 
3803.000000	96.694374 
3802.000000	96.692858 
3801.000000	96.691027 
3800.000000	96.688973 
3799.000000	96.686858 
3798.000000	96.684780 
3797.000000	96.682762 
3796.000000	96.680699 
3795.000000	96.678417 
3794.000000	96.675885 
3793.000000	96.673207 
3792.000000	96.670488 
3791.000000	96.667784 
3790.000000	96.665075 
3789.000000	96.662265 
3788.000000	96.659239 
3787.000000	96.655984 
3786.000000	96.652701 
3785.000000	96.649657 
3784.000000	96.646800 
3783.000000	96.643812 
3782.000000	96.640656 
3781.000000	96.637768 
3780.000000	96.635493 
3779.000000	96.633580 
3778.000000	96.631565 
3777.000000	96.629373 
3776.000000	96.627321 
3775.000000	96.625529 
3774.000000	96.623748 
3773.000000	96.621935 
3772.000000	96.620290 
3771.000000	96.618335 
3770.000000	96.614727 
3769.000000	96.608664 
3768.000000	96.600965 
3767.000000	96.593437 
3766.000000	96.587386 
3765.000000	96.582964 
3764.000000	96.579943 
3763.000000	96.578392 
3762.000000	96.578033 
3761.000000	96.577303 
3760.000000	96.573989 
3759.000000	96.567642 
3758.000000	96.560304 
3757.000000	96.554108 
3756.000000	96.549644 
3755.000000	96.546845 
3754.000000	96.546431 
3753.000000	96.549743 
3752.000000	96.556331 
3751.000000	96.562062 
3750.000000	96.561451 
3749.000000	96.552557 
3748.000000	96.538829 
3747.000000	96.526695 
3746.000000	96.520482 
3745.000000	96.518548 
3744.000000	96.515690 
3743.000000	96.508525 
3742.000000	96.496868 
3741.000000	96.483758 
3740.000000	96.472751 
3739.000000	96.463545 
3738.000000	96.452622 
3737.000000	96.437986 
3736.000000	96.423668 
3735.000000	96.417372 
3734.000000	96.422753 
3733.000000	96.436300 
3732.000000	96.449944 
3731.000000	96.456873 
3730.000000	96.455001 
3729.000000	96.445989 
3728.000000	96.433077 
3727.000000	96.419524 
3726.000000	96.408449 
3725.000000	96.402600 
3724.000000	96.402582 
3723.000000	96.405780 
3722.000000	96.408383 
3721.000000	96.408909 
3720.000000	96.408737 
3719.000000	96.409080 
3718.000000	96.408789 
3717.000000	96.405803 
3716.000000	96.400547 
3715.000000	96.396802 
3714.000000	96.398543 
3713.000000	96.405625 
3712.000000	96.412909 
3711.000000	96.415182 
3710.000000	96.411479 
3709.000000	96.403513 
3708.000000	96.392937 
3707.000000	96.381018 
3706.000000	96.369553 
3705.000000	96.361004 
3704.000000	96.357372 
3703.000000	96.358996 
3702.000000	96.364597 
3701.000000	96.372876 
3700.000000	96.383619 
3699.000000	96.397344 
3698.000000	96.413893 
3697.000000	96.430613 
3696.000000	96.443492 
3695.000000	96.450909 
3694.000000	96.454741 
3693.000000	96.457703 
3692.000000	96.460076 
3691.000000	96.459712 
3690.000000	96.456068 
3689.000000	96.452736 
3688.000000	96.453581 
3687.000000	96.456927 
3686.000000	96.457761 
3685.000000	96.453896 
3684.000000	96.445956 
3683.000000	96.434725 
3682.000000	96.421029 
3681.000000	96.406701 
3680.000000	96.394845 
3679.000000	96.389225 
3678.000000	96.393094 
3677.000000	96.404802 
3676.000000	96.413626 
3675.000000	96.407720 
3674.000000	96.384257 
3673.000000	96.350401 
3672.000000	96.318714 
3671.000000	96.294494 
3670.000000	96.272901 
3669.000000	96.251416 
3668.000000	96.232589 
3667.000000	96.218633 
3666.000000	96.210007 
3665.000000	96.204826 
3664.000000	96.199899 
3663.000000	96.192899 
3662.000000	96.182220 
3661.000000	96.165805 
3660.000000	96.142094 
3659.000000	96.111315 
3658.000000	96.075035 
3657.000000	96.035129 
3656.000000	95.993650 
3655.000000	95.952719 
3654.000000	95.914330 
3653.000000	95.880357 
3652.000000	95.848789 
3651.000000	95.810940 
3650.000000	95.762318 
3649.000000	95.716028 
3648.000000	95.689216 
3647.000000	95.681106 
3646.000000	95.679132 
3645.000000	95.676592 
3644.000000	95.675300 
3643.000000	95.676911 
3642.000000	95.676981 
3641.000000	95.668051 
3640.000000	95.646860 
3639.000000	95.616928 
3638.000000	95.585415 
3637.000000	95.558419 
3636.000000	95.537950 
3635.000000	95.520896 
3634.000000	95.501406 
3633.000000	95.477321 
3632.000000	95.453578 
3631.000000	95.436447 
3630.000000	95.423339 
3629.000000	95.405499 
3628.000000	95.383075 
3627.000000	95.363756 
3626.000000	95.351098 
3625.000000	95.342054 
3624.000000	95.329721 
3623.000000	95.310444 
3622.000000	95.289185 
3621.000000	95.275417 
3620.000000	95.274032 
3619.000000	95.281508 
3618.000000	95.290734 
3617.000000	95.298152 
3616.000000	95.305991 
3615.000000	95.318170 
3614.000000	95.334990 
3613.000000	95.352394 
3612.000000	95.365600 
3611.000000	95.373865 
3610.000000	95.382107 
3609.000000	95.396877 
3608.000000	95.420690 
3607.000000	95.449872 
3606.000000	95.477790 
3605.000000	95.500075 
3604.000000	95.516431 
3603.000000	95.529028 
3602.000000	95.539659 
3601.000000	95.547709 
3600.000000	95.550962 
3599.000000	95.549189 
3598.000000	95.546054 
3597.000000	95.546538 
3596.000000	95.553145 
3595.000000	95.564264 
3594.000000	95.575192 
3593.000000	95.580842 
3592.000000	95.578215 
3591.000000	95.567799 
3590.000000	95.553456 
3589.000000	95.540871 
3588.000000	95.536106 
3587.000000	95.543003 
3586.000000	95.560315 
3585.000000	95.582412 
3584.000000	95.602596 
3583.000000	95.615963 
3582.000000	95.621602 
3581.000000	95.623004 
3580.000000	95.625245 
3579.000000	95.630938 
3578.000000	95.639047 
3577.000000	95.647178 
3576.000000	95.654198 
3575.000000	95.660253 
3574.000000	95.664578 
3573.000000	95.664119 
3572.000000	95.654919 
3571.000000	95.634917 
3570.000000	95.605819 
3569.000000	95.573479 
3568.000000	95.547062 
3567.000000	95.535615 
3566.000000	95.542707 
3565.000000	95.564374 
3564.000000	95.592560 
3563.000000	95.619780 
3562.000000	95.641627 
3561.000000	95.657079 
3560.000000	95.667146 
3559.000000	95.673007 
3558.000000	95.675287 
3557.000000	95.674619 
3556.000000	95.672349 
3555.000000	95.670520 
3554.000000	95.670989 
3553.000000	95.674024 
3552.000000	95.677421 
3551.000000	95.677385 
3550.000000	95.670878 
3549.000000	95.657500 
3548.000000	95.639994 
3547.000000	95.623764 
3546.000000	95.615181 
3545.000000	95.618383 
3544.000000	95.632732 
3543.000000	95.653174 
3542.000000	95.673226 
3541.000000	95.688104 
3540.000000	95.695964 
3539.000000	95.697749 
3538.000000	95.696642 
3537.000000	95.696830 
3536.000000	95.701116 
3535.000000	95.708912 
3534.000000	95.716829 
3533.000000	95.721471 
3532.000000	95.721731 
3531.000000	95.718885 
3530.000000	95.715197 
3529.000000	95.712334 
3528.000000	95.710422 
3527.000000	95.708332 
3526.000000	95.705296 
3525.000000	95.702568 
3524.000000	95.703082 
3523.000000	95.708818 
3522.000000	95.718770 
3521.000000	95.729902 
3520.000000	95.739852 
3519.000000	95.748326 
3518.000000	95.755972 
3517.000000	95.762533 
3516.000000	95.766627 
3515.000000	95.767240 
3514.000000	95.765026 
3513.000000	95.762184 
3512.000000	95.761209 
3511.000000	95.763558 
3510.000000	95.769014 
3509.000000	95.775876 
3508.000000	95.781867 
3507.000000	95.785364 
3506.000000	95.786107 
3505.000000	95.785117 
3504.000000	95.784210 
3503.000000	95.785244 
3502.000000	95.789288 
3501.000000	95.796095 
3500.000000	95.804163 
3499.000000	95.811386 
3498.000000	95.816200 
3497.000000	95.818519 
3496.000000	95.819649 
3495.000000	95.821120 
3494.000000	95.823525 
3493.000000	95.826480 
3492.000000	95.829462 
3491.000000	95.832393 
3490.000000	95.835444 
3489.000000	95.838545 
3488.000000	95.841318 
3487.000000	95.843513 
3486.000000	95.845327 
3485.000000	95.847155 
3484.000000	95.849068 
3483.000000	95.850731 
3482.000000	95.851924 
3481.000000	95.852969 
3480.000000	95.854467 
3479.000000	95.856619 
3478.000000	95.858929 
3477.000000	95.860660 
3476.000000	95.861633 
3475.000000	95.862385 
3474.000000	95.863545 
3473.000000	95.865203 
3472.000000	95.867001 
3471.000000	95.868561 
3470.000000	95.869751 
3469.000000	95.870628 
3468.000000	95.871355 
3467.000000	95.872178 
3466.000000	95.873298 
3465.000000	95.874700 
3464.000000	95.876105 
3463.000000	95.877179 
3462.000000	95.877866 
3461.000000	95.878360 
3460.000000	95.878877 
3459.000000	95.879485 
3458.000000	95.880133 
3457.000000	95.880772 
3456.000000	95.881393 
3455.000000	95.882006 
3454.000000	95.882617 
3453.000000	95.883222 
3452.000000	95.883818 
3451.000000	95.884405 
3450.000000	95.884978 
3449.000000	95.885517 
3448.000000	95.886008 
3447.000000	95.886494 
3446.000000	95.887071 
3445.000000	95.887796 
3444.000000	95.888606 
3443.000000	95.889367 
3442.000000	95.890025 
3441.000000	95.890655 
3440.000000	95.891273 
3439.000000	95.891668 
3438.000000	95.891653 
3437.000000	95.891456 
3436.000000	95.891579 
3435.000000	95.892218 
3434.000000	95.892957 
3433.000000	95.893111 
3432.000000	95.892490 
3431.000000	95.891705 
3430.000000	95.891576 
3429.000000	95.892226 
3428.000000	95.893039 
3427.000000	95.893491 
3426.000000	95.893734 
3425.000000	95.894152 
3424.000000	95.894621 
3423.000000	95.894558 
3422.000000	95.893633 
3421.000000	95.892201 
3420.000000	95.891185 
3419.000000	95.891712 
3418.000000	95.894550 
3417.000000	95.899300 
3416.000000	95.904005 
3415.000000	95.906511 
3414.000000	95.906363 
3413.000000	95.904988 
3412.000000	95.903887 
3411.000000	95.903086 
3410.000000	95.901901 
3409.000000	95.900421 
3408.000000	95.899433 
3407.000000	95.899209 
3406.000000	95.899068 
3405.000000	95.898115 
3404.000000	95.895876 
3403.000000	95.892299 
3402.000000	95.887783 
3401.000000	95.883473 
3400.000000	95.881074 
3399.000000	95.881718 
3398.000000	95.884893 
3397.000000	95.888458 
3396.000000	95.889995 
3395.000000	95.888520 
3394.000000	95.884938 
3393.000000	95.881292 
3392.000000	95.879350 
3391.000000	95.879659 
3390.000000	95.881708 
3389.000000	95.884492 
3388.000000	95.887108 
3387.000000	95.889086 
3386.000000	95.890327 
3385.000000	95.890801 
3384.000000	95.890415 
3383.000000	95.889271 
3382.000000	95.887890 
3381.000000	95.886883 
3380.000000	95.886322 
3379.000000	95.885696 
3378.000000	95.884556 
3377.000000	95.882997 
3376.000000	95.881419 
3375.000000	95.880018 
3374.000000	95.878699 
3373.000000	95.877281 
3372.000000	95.875580 
3371.000000	95.873467 
3370.000000	95.871072 
3369.000000	95.868875 
3368.000000	95.867379 
3367.000000	95.866616 
3366.000000	95.866102 
3365.000000	95.865329 
3364.000000	95.864221 
3363.000000	95.863026 
3362.000000	95.861855 
3361.000000	95.860485 
3360.000000	95.858680 
3359.000000	95.856598 
3358.000000	95.854750 
3357.000000	95.853491 
3356.000000	95.852599 
3355.000000	95.851359 
3354.000000	95.849179 
3353.000000	95.846083 
3352.000000	95.842776 
3351.000000	95.840110 
3350.000000	95.838439 
3349.000000	95.837546 
3348.000000	95.836795 
3347.000000	95.835533 
3346.000000	95.833470 
3345.000000	95.830814 
3344.000000	95.828108 
3343.000000	95.825740 
3342.000000	95.823598 
3341.000000	95.821299 
3340.000000	95.818625 
3339.000000	95.815646 
3338.000000	95.812495 
3337.000000	95.809323 
3336.000000	95.806538 
3335.000000	95.804774 
3334.000000	95.804308 
3333.000000	95.804511 
3332.000000	95.804124 
3331.000000	95.802310 
3330.000000	95.799210 
3329.000000	95.795513 
3328.000000	95.791654 
3327.000000	95.787690 
3326.000000	95.783854 
3325.000000	95.780726 
3324.000000	95.778650 
3323.000000	95.777064 
3322.000000	95.774717 
3321.000000	95.770764 
3320.000000	95.765476 
3319.000000	95.759827 
3318.000000	95.754545 
3317.000000	95.749812 
3316.000000	95.745653 
3315.000000	95.742056 
3314.000000	95.738651 
3313.000000	95.734802 
3312.000000	95.730364 
3311.000000	95.726041 
3310.000000	95.722559 
3309.000000	95.719674 
3308.000000	95.716409 
3307.000000	95.712157 
3306.000000	95.707133 
3305.000000	95.701837 
3304.000000	95.696669 
3303.000000	95.692129 
3302.000000	95.688802 
3301.000000	95.686738 
3300.000000	95.684993 
3299.000000	95.682180 
3298.000000	95.677601 
3297.000000	95.671619 
3296.000000	95.665189 
3295.000000	95.659115 
3294.000000	95.653666 
3293.000000	95.648747 
3292.000000	95.644248 
3291.000000	95.640197 
3290.000000	95.636504 
3289.000000	95.632665 
3288.000000	95.628018 
3287.000000	95.622463 
3286.000000	95.616811 
3285.000000	95.612122 
3284.000000	95.608715 
3283.000000	95.605995 
3282.000000	95.603233 
3281.000000	95.600213 
3280.000000	95.596904 
3279.000000	95.592866 
3278.000000	95.587428 
3277.000000	95.580458 
3276.000000	95.572775 
3275.000000	95.565689 
3274.000000	95.560142 
3273.000000	95.556259 
3272.000000	95.553396 
3271.000000	95.550583 
3270.000000	95.547212 
3269.000000	95.543518 
3268.000000	95.540316 
3267.000000	95.538083 
3266.000000	95.536256 
3265.000000	95.533665 
3264.000000	95.529806 
3263.000000	95.525473 
3262.000000	95.521873 
3261.000000	95.519103 
3260.000000	95.515915 
3259.000000	95.511247 
3258.000000	95.505699 
3257.000000	95.500993 
3256.000000	95.497903 
3255.000000	95.495330 
3254.000000	95.491728 
3253.000000	95.487040 
3252.000000	95.482679 
3251.000000	95.479709 
3250.000000	95.477626 
3249.000000	95.475142 
3248.000000	95.471690 
3247.000000	95.467712 
3246.000000	95.463776 
3245.000000	95.459956 
3244.000000	95.456019 
3243.000000	95.451647 
3242.000000	95.446318 
3241.000000	95.439564 
3240.000000	95.431782 
3239.000000	95.424542 
3238.000000	95.419466 
3237.000000	95.416719 
3236.000000	95.414787 
3235.000000	95.411779 
3234.000000	95.407056 
3233.000000	95.401497 
3232.000000	95.396545 
3231.000000	95.393067 
3230.000000	95.390902 
3229.000000	95.389164 
3228.000000	95.386909 
3227.000000	95.383763 
3226.000000	95.380009 
3225.000000	95.376157 
3224.000000	95.372572 
3223.000000	95.369527 
3222.000000	95.367301 
3221.000000	95.365800 
3220.000000	95.364039 
3219.000000	95.360530 
3218.000000	95.354617 
3217.000000	95.347292 
3216.000000	95.340548 
3215.000000	95.335647 
3214.000000	95.332234 
3213.000000	95.329085 
3212.000000	95.325323 
3211.000000	95.320866 
3210.000000	95.316029 
3209.000000	95.311142 
3208.000000	95.306492 
3207.000000	95.302219 
3206.000000	95.298116 
3205.000000	95.293741 
3204.000000	95.288860 
3203.000000	95.283686 
3202.000000	95.278615 
3201.000000	95.273898 
3200.000000	95.269660 
3199.000000	95.266069 
3198.000000	95.263206 
3197.000000	95.260807 
3196.000000	95.258282 
3195.000000	95.255140 
3194.000000	95.251443 
3193.000000	95.247718 
3192.000000	95.244337 
3191.000000	95.241001 
3190.000000	95.236988 
3189.000000	95.231957 
3188.000000	95.226399 
3187.000000	95.221288 
3186.000000	95.217210 
3185.000000	95.213918 
3184.000000	95.210565 
3183.000000	95.206388 
3182.000000	95.201273 
3181.000000	95.195808 
3180.000000	95.190839 
3179.000000	95.186803 
3178.000000	95.183587 
3177.000000	95.180952 
3176.000000	95.178833 
3175.000000	95.177007 
3174.000000	95.174700 
3173.000000	95.171098 
3172.000000	95.166226 
3171.000000	95.160988 
3170.000000	95.156123 
3169.000000	95.151567 
3168.000000	95.147092 
3167.000000	95.142986 
3166.000000	95.139659 
3165.000000	95.136835 
3164.000000	95.133606 
3163.000000	95.129356 
3162.000000	95.124333 
3161.000000	95.119382 
3160.000000	95.115227 
3159.000000	95.111994 
3158.000000	95.109177 
3157.000000	95.105996 
3156.000000	95.102107 
3155.000000	95.098043 
3154.000000	95.094778 
3153.000000	95.092744 
3152.000000	95.091422 
3151.000000	95.089784 
3150.000000	95.087235 
3149.000000	95.083944 
3148.000000	95.080451 
3147.000000	95.077138 
3146.000000	95.074029 
3145.000000	95.071029 
3144.000000	95.068155 
3143.000000	95.065433 
3142.000000	95.062663 
3141.000000	95.059556 
3140.000000	95.056196 
3139.000000	95.053158 
3138.000000	95.050935 
3137.000000	95.049406 
3136.000000	95.047928 
3135.000000	95.045924 
3134.000000	95.043317 
3133.000000	95.040463 
3132.000000	95.037834 
3131.000000	95.035688 
3130.000000	95.033956 
3129.000000	95.032386 
3128.000000	95.030799 
3127.000000	95.029182 
3126.000000	95.027501 
3125.000000	95.025581 
3124.000000	95.023265 
3123.000000	95.020665 
3122.000000	95.018104 
3121.000000	95.015789 
3120.000000	95.013651 
3119.000000	95.011543 
3118.000000	95.009539 
3117.000000	95.007905 
3116.000000	95.006800 
3115.000000	95.006108 
3114.000000	95.005448 
3113.000000	95.004372 
3112.000000	95.002664 
3111.000000	95.000492 
3110.000000	94.998385 
3109.000000	94.996878 
3108.000000	94.996134 
3107.000000	94.995822 
3106.000000	94.995307 
3105.000000	94.994123 
3104.000000	94.992211 
3103.000000	94.989865 
3102.000000	94.987498 
3101.000000	94.985468 
3100.000000	94.984084 
3099.000000	94.983485 
3098.000000	94.983404 
3097.000000	94.983186 
3096.000000	94.982315 
3095.000000	94.980768 
3094.000000	94.978710 
3093.000000	94.975982 
3092.000000	94.972416 
3091.000000	94.968765 
3090.000000	94.966526 
3089.000000	94.966394 
3088.000000	94.967289 
3087.000000	94.967411 
3086.000000	94.965891 
3085.000000	94.963061 
3084.000000	94.959803 
3083.000000	94.957046 
3082.000000	94.955244 
3081.000000	94.954030 
3080.000000	94.953061 
3079.000000	94.953301 
3078.000000	94.956359 
3077.000000	94.962113 
3076.000000	94.967944 
3075.000000	94.970836 
3074.000000	94.969714 
3073.000000	94.965897 
3072.000000	94.962310 
3071.000000	94.961882 
3070.000000	94.965055 
3069.000000	94.968565 
3068.000000	94.968316 
3067.000000	94.964125 
3066.000000	94.960363 
3065.000000	94.961547 
3064.000000	94.968472 
3063.000000	94.978350 
3062.000000	94.986532 
3061.000000	94.988145 
3060.000000	94.981256 
3059.000000	94.970071 
3058.000000	94.962507 
3057.000000	94.962289 
3056.000000	94.965100 
3055.000000	94.964635 
3054.000000	94.960750 
3053.000000	94.958725 
3052.000000	94.961694 
3051.000000	94.967277 
3050.000000	94.971896 
3049.000000	94.975609 
3048.000000	94.981342 
3047.000000	94.990881 
3046.000000	95.002885 
3045.000000	95.014041 
3044.000000	95.021447 
3043.000000	95.024691 
3042.000000	95.026465 
3041.000000	95.030669 
3040.000000	95.039061 
3039.000000	95.049761 
3038.000000	95.059556 
3037.000000	95.067886 
3036.000000	95.078201 
3035.000000	95.094651 
3034.000000	95.117377 
3033.000000	95.142231 
3032.000000	95.165618 
3031.000000	95.188374 
3030.000000	95.213704 
3029.000000	95.241980 
3028.000000	95.269420 
3027.000000	95.292301 
3026.000000	95.310843 
3025.000000	95.327663 
3024.000000	95.343764 
3023.000000	95.358306 
3022.000000	95.372158 
3021.000000	95.389394 
3020.000000	95.414043 
3019.000000	95.446189 
3018.000000	95.482022 
3017.000000	95.517027 
3016.000000	95.548450 
3015.000000	95.575688 
3014.000000	95.600293 
3013.000000	95.625995 
3012.000000	95.657027 
3011.000000	95.694884 
3010.000000	95.737085 
3009.000000	95.780110 
3008.000000	95.823086 
3007.000000	95.867335 
3006.000000	95.912764 
3005.000000	95.956887 
3004.000000	95.998215 
3003.000000	96.038683 
3002.000000	96.081119 
3001.000000	96.125564 
3000.000000	96.169923 
2999.000000	96.213234 
2998.000000	96.255514 
2997.000000	96.294364 
2996.000000	96.325166 
2995.000000	96.347797 
2994.000000	96.372638 
2993.000000	96.416635 
2992.000000	96.490207 
2991.000000	96.586457 
2990.000000	96.683352 
2989.000000	96.758407 
2988.000000	96.803219 
2987.000000	96.825491 
2986.000000	96.839192 
2985.000000	96.853801 
2984.000000	96.871894 
2983.000000	96.893178 
2982.000000	96.917518 
2981.000000	96.944516 
2980.000000	96.972525 
2979.000000	96.998929 
2978.000000	97.020776 
2977.000000	97.035795 
2976.000000	97.044508 
2975.000000	97.051067 
2974.000000	97.059321 
2973.000000	97.066190 
2972.000000	97.060062 
2971.000000	97.027996 
2970.000000	96.965642 
2969.000000	96.880870 
2968.000000	96.788449 
2967.000000	96.700873 
2966.000000	96.622794 
2965.000000	96.552296 
2964.000000	96.485964 
2963.000000	96.422777 
2962.000000	96.364317 
2961.000000	96.312449 
2960.000000	96.267246 
2959.000000	96.226697 
2958.000000	96.188367 
2957.000000	96.152069 
2956.000000	96.121033 
2955.000000	96.099221 
2954.000000	96.086428 
2953.000000	96.076836 
2952.000000	96.063597 
2951.000000	96.044504 
2950.000000	96.022229 
2949.000000	95.999960 
2948.000000	95.978766 
2947.000000	95.958860 
2946.000000	95.940927 
2945.000000	95.925154 
2944.000000	95.910469 
2943.000000	95.895657 
2942.000000	95.880020 
2941.000000	95.862407 
2940.000000	95.841280 
2939.000000	95.817221 
2938.000000	95.794096 
2937.000000	95.775587 
2936.000000	95.760803 
2935.000000	95.745294 
2934.000000	95.726731 
2933.000000	95.707583 
2932.000000	95.691079 
2931.000000	95.676209 
2930.000000	95.659015 
2929.000000	95.638623 
2928.000000	95.619765 
2927.000000	95.608616 
2926.000000	95.608257 
2925.000000	95.619167 
2924.000000	95.641431 
2923.000000	95.673275 
2922.000000	95.708438 
2921.000000	95.739104 
2920.000000	95.762970 
2919.000000	95.785221 
2918.000000	95.812240 
2917.000000	95.845322 
2916.000000	95.881558 
2915.000000	95.918330 
2914.000000	95.954439 
2913.000000	95.988248 
2912.000000	96.017817 
2911.000000	96.043005 
2910.000000	96.065398 
2909.000000	96.085994 
2908.000000	96.104778 
2907.000000	96.123239 
2906.000000	96.146109 
2905.000000	96.179294 
2904.000000	96.225151 
2903.000000	96.278179 
2902.000000	96.324805 
2901.000000	96.349687 
2900.000000	96.345296 
2899.000000	96.316954 
2898.000000	96.278791 
2897.000000	96.244909 
2896.000000	96.223740 
2895.000000	96.217178 
2894.000000	96.220604 
2893.000000	96.224021 
2892.000000	96.218118 
2891.000000	96.202460 
2890.000000	96.186171 
2889.000000	96.178454 
2888.000000	96.179526 
2887.000000	96.182361 
2886.000000	96.181490 
2885.000000	96.177161 
2884.000000	96.171362 
2883.000000	96.163197 
2882.000000	96.149832 
2881.000000	96.130233 
2880.000000	96.106004 
2879.000000	96.079131 
2878.000000	96.050685 
2877.000000	96.021676 
2876.000000	95.993335 
2875.000000	95.965515 
2874.000000	95.936064 
2873.000000	95.903571 
2872.000000	95.870630 
2871.000000	95.842740 
2870.000000	95.822894 
2869.000000	95.807686 
2868.000000	95.789541 
2867.000000	95.762711 
2866.000000	95.726918 
2865.000000	95.685548 
2864.000000	95.641142 
2863.000000	95.593314 
2862.000000	95.541129 
2861.000000	95.486506 
2860.000000	95.433676 
2859.000000	95.385042 
2858.000000	95.339300 
2857.000000	95.294801 
2856.000000	95.253204 
2855.000000	95.218006 
2854.000000	95.190929 
2853.000000	95.172561 
2852.000000	95.165553 
2851.000000	95.172783 
2850.000000	95.191117 
2849.000000	95.210701 
2848.000000	95.223468 
2847.000000	95.230286 
2846.000000	95.237036 
2845.000000	95.246254 
2844.000000	95.255840 
2843.000000	95.263765 
2842.000000	95.269834 
2841.000000	95.273330 
2840.000000	95.272864 
2839.000000	95.269258 
2838.000000	95.265466 
2837.000000	95.262506 
2836.000000	95.257883 
2835.000000	95.249418 
2834.000000	95.238782 
2833.000000	95.229703 
2832.000000	95.223766 
2831.000000	95.219487 
2830.000000	95.215105 
2829.000000	95.210949 
2828.000000	95.208718 
2827.000000	95.208991 
2826.000000	95.210263 
2825.000000	95.210845 
2824.000000	95.210960 
2823.000000	95.211700 
2822.000000	95.212193 
2821.000000	95.209757 
2820.000000	95.203483 
2819.000000	95.195673 
2818.000000	95.188696 
2817.000000	95.182505 
2816.000000	95.176875 
2815.000000	95.173916 
2814.000000	95.175677 
2813.000000	95.180507 
2812.000000	95.184440 
2811.000000	95.185581 
2810.000000	95.184897 
2809.000000	95.183384 
2808.000000	95.180915 
2807.000000	95.177541 
2806.000000	95.173879 
2805.000000	95.170445 
2804.000000	95.167739 
2803.000000	95.166444 
2802.000000	95.166721 
2801.000000	95.167585 
2800.000000	95.167621 
2799.000000	95.166449 
2798.000000	95.164991 
2797.000000	95.164173 
2796.000000	95.163916 
2795.000000	95.163487 
2794.000000	95.162228 
2793.000000	95.159843 
2792.000000	95.156618 
2791.000000	95.153629 
2790.000000	95.152139 
2789.000000	95.152572 
2788.000000	95.154341 
2787.000000	95.156555 
2786.000000	95.158556 
2785.000000	95.159819 
2784.000000	95.159968 
2783.000000	95.159124 
2782.000000	95.157889 
2781.000000	95.156802 
2780.000000	95.156015 
2779.000000	95.155534 
2778.000000	95.155418 
2777.000000	95.155625 
2776.000000	95.155899 
2775.000000	95.155956 
2774.000000	95.155668 
2773.000000	95.155075 
2772.000000	95.154353 
2771.000000	95.153698 
2770.000000	95.153073 
2769.000000	95.152226 
2768.000000	95.151187 
2767.000000	95.150543 
2766.000000	95.150819 
2765.000000	95.151775 
2764.000000	95.152565 
2763.000000	95.152670 
2762.000000	95.152335 
2761.000000	95.152044 
2760.000000	95.151944 
2759.000000	95.151866 
2758.000000	95.151712 
2757.000000	95.151616 
2756.000000	95.151801 
2755.000000	95.152351 
2754.000000	95.153090 
2753.000000	95.153609 
2752.000000	95.153590 
2751.000000	95.153144 
2750.000000	95.152813 
2749.000000	95.153021 
2748.000000	95.153690 
2747.000000	95.154494 
2746.000000	95.155299 
2745.000000	95.156139 
2744.000000	95.156802 
2743.000000	95.156811 
2742.000000	95.155910 
2741.000000	95.154346 
2740.000000	95.152699 
2739.000000	95.151513 
2738.000000	95.151088 
2737.000000	95.151417 
2736.000000	95.152289 
2735.000000	95.153521 
2734.000000	95.154948 
2733.000000	95.156201 
2732.000000	95.156852 
2731.000000	95.156951 
2730.000000	95.157065 
2729.000000	95.157469 
2728.000000	95.157635 
2727.000000	95.156964 
2726.000000	95.155705 
2725.000000	95.154680 
2724.000000	95.154258 
2723.000000	95.154136 
2722.000000	95.153966 
2721.000000	95.153674 
2720.000000	95.153222 
2719.000000	95.152643 
2718.000000	95.152321 
2717.000000	95.152763 
2716.000000	95.154087 
2715.000000	95.156118 
2714.000000	95.158787 
2713.000000	95.161895 
2712.000000	95.164536 
2711.000000	95.165386 
2710.000000	95.163879 
2709.000000	95.160857 
2708.000000	95.157988 
2707.000000	95.156547 
2706.000000	95.156554 
2705.000000	95.156890 
2704.000000	95.156389 
2703.000000	95.154931 
2702.000000	95.153293 
2701.000000	95.151995 
2700.000000	95.150769 
2699.000000	95.149270 
2698.000000	95.147742 
2697.000000	95.146749 
2696.000000	95.146638 
2695.000000	95.147404 
2694.000000	95.148529 
2693.000000	95.148824 
2692.000000	95.147217 
2691.000000	95.144182 
2690.000000	95.141771 
2689.000000	95.141502 
2688.000000	95.142682 
2687.000000	95.143429 
2686.000000	95.143013 
2685.000000	95.142384 
2684.000000	95.142523 
2683.000000	95.143269 
2682.000000	95.144032 
2681.000000	95.144875 
2680.000000	95.146299 
2679.000000	95.148248 
2678.000000	95.149920 
2677.000000	95.150644 
2676.000000	95.150569 
2675.000000	95.150246 
2674.000000	95.149918 
2673.000000	95.149740 
2672.000000	95.150429 
2671.000000	95.152787 
2670.000000	95.156322 
2669.000000	95.159063 
2668.000000	95.159525 
2667.000000	95.158339 
2666.000000	95.157489 
2665.000000	95.158068 
2664.000000	95.159587 
2663.000000	95.161357 
2662.000000	95.163511 
2661.000000	95.166246 
2660.000000	95.169004 
2659.000000	95.171181 
2658.000000	95.172903 
2657.000000	95.174426 
2656.000000	95.175279 
2655.000000	95.174867 
2654.000000	95.173589 
2653.000000	95.172689 
2652.000000	95.172979 
2651.000000	95.174219 
2650.000000	95.175648 
2649.000000	95.176728 
2648.000000	95.177435 
2647.000000	95.178115 
2646.000000	95.179124 
2645.000000	95.180494 
2644.000000	95.181925 
2643.000000	95.183085 
2642.000000	95.183846 
2641.000000	95.184279 
2640.000000	95.184589 
2639.000000	95.185102 
2638.000000	95.186046 
2637.000000	95.187222 
2636.000000	95.188096 
2635.000000	95.188416 
2634.000000	95.188516 
2633.000000	95.188767 
2632.000000	95.189041 
2631.000000	95.189125 
2630.000000	95.189399 
2629.000000	95.190486 
2628.000000	95.192337 
2627.000000	95.194197 
2626.000000	95.195608 
2625.000000	95.196945 
2624.000000	95.198717 
2623.000000	95.200686 
2622.000000	95.201965 
2621.000000	95.201991 
2620.000000	95.201192 
2619.000000	95.200831 
2618.000000	95.201915 
2617.000000	95.204174 
2616.000000	95.206174 
2615.000000	95.206772 
2614.000000	95.206219 
2613.000000	95.205660 
2612.000000	95.205713 
2611.000000	95.205987 
2610.000000	95.206098 
2609.000000	95.206463 
2608.000000	95.207643 
2607.000000	95.209220 
2606.000000	95.209901 
2605.000000	95.208836 
2604.000000	95.206523 
2603.000000	95.204376 
2602.000000	95.203466 
2601.000000	95.203922 
2600.000000	95.205409 
2599.000000	95.207699 
2598.000000	95.210497 
2597.000000	95.213102 
2596.000000	95.214918 
2595.000000	95.216340 
2594.000000	95.218533 
2593.000000	95.222004 
2592.000000	95.225723 
2591.000000	95.228039 
2590.000000	95.228320 
2589.000000	95.227411 
2588.000000	95.226757 
2587.000000	95.227174 
2586.000000	95.228385 
2585.000000	95.229465 
2584.000000	95.229775 
2583.000000	95.229568 
2582.000000	95.229528 
2581.000000	95.229763 
2580.000000	95.229698 
2579.000000	95.229269 
2578.000000	95.229638 
2577.000000	95.232058 
2576.000000	95.236373 
2575.000000	95.241000 
2574.000000	95.244439 
2573.000000	95.246472 
2572.000000	95.247825 
2571.000000	95.249347 
2570.000000	95.251500 
2569.000000	95.254130 
2568.000000	95.256454 
2567.000000	95.257580 
2566.000000	95.257402 
2565.000000	95.256889 
2564.000000	95.257215 
2563.000000	95.258576 
2562.000000	95.260148 
2561.000000	95.261206 
2560.000000	95.261952 
2559.000000	95.263063 
2558.000000	95.264695 
2557.000000	95.266274 
2556.000000	95.267262 
2555.000000	95.267756 
2554.000000	95.268205 
2553.000000	95.268821 
2552.000000	95.269597 
2551.000000	95.270715 
2550.000000	95.272452 
2549.000000	95.274636 
2548.000000	95.276592 
2547.000000	95.277893 
2546.000000	95.278923 
2545.000000	95.280377 
2544.000000	95.282268 
2543.000000	95.283725 
2542.000000	95.283939 
2541.000000	95.283056 
2540.000000	95.282188 
2539.000000	95.282388 
2538.000000	95.283701 
2537.000000	95.285346 
2536.000000	95.286624 
2535.000000	95.287490 
2534.000000	95.288149 
2533.000000	95.288513 
2532.000000	95.288422 
2531.000000	95.288208 
2530.000000	95.288527 
2529.000000	95.289660 
2528.000000	95.291403 
2527.000000	95.293517 
2526.000000	95.295827 
2525.000000	95.297942 
2524.000000	95.299446 
2523.000000	95.300510 
2522.000000	95.301832 
2521.000000	95.303725 
2520.000000	95.305580 
2519.000000	95.306595 
2518.000000	95.306675 
2517.000000	95.306398 
2516.000000	95.306363 
2515.000000	95.306782 
2514.000000	95.307574 
2513.000000	95.308580 
2512.000000	95.309701 
2511.000000	95.310924 
2510.000000	95.312195 
2509.000000	95.313320 
2508.000000	95.314195 
2507.000000	95.315019 
2506.000000	95.316002 
2505.000000	95.316897 
2504.000000	95.317242 
2503.000000	95.317091 
2502.000000	95.317183 
2501.000000	95.318139 
2500.000000	95.319835 
2499.000000	95.321627 
2498.000000	95.323000 
2497.000000	95.323903 
2496.000000	95.324490 
2495.000000	95.324926 
2494.000000	95.325364 
2493.000000	95.325925 
2492.000000	95.326659 
2491.000000	95.327617 
2490.000000	95.328865 
2489.000000	95.330361 
2488.000000	95.331907 
2487.000000	95.333310 
2486.000000	95.334552 
2485.000000	95.335718 
2484.000000	95.336790 
2483.000000	95.337642 
2482.000000	95.338216 
2481.000000	95.338660 
2480.000000	95.339236 
2479.000000	95.340095 
2478.000000	95.341165 
2477.000000	95.342252 
2476.000000	95.343256 
2475.000000	95.344267 
2474.000000	95.345396 
2473.000000	95.346596 
2472.000000	95.347747 
2471.000000	95.348920 
2470.000000	95.350357 
2469.000000	95.352117 
2468.000000	95.353845 
2467.000000	95.355056 
2466.000000	95.355598 
2465.000000	95.355775 
2464.000000	95.356125 
2463.000000	95.357023 
2462.000000	95.358431 
2461.000000	95.359920 
2460.000000	95.361015 
2459.000000	95.361655 
2458.000000	95.362209 
2457.000000	95.363012 
2456.000000	95.364034 
2455.000000	95.365074 
2454.000000	95.366073 
2453.000000	95.367033 
2452.000000	95.367792 
2451.000000	95.368153 
2450.000000	95.368318 
2449.000000	95.368978 
2448.000000	95.370793 
2447.000000	95.373810 
2446.000000	95.377264 
2445.000000	95.380042 
2444.000000	95.381644 
2443.000000	95.382521 
2442.000000	95.383503 
2441.000000	95.384781 
2440.000000	95.385807 
2439.000000	95.386217 
2438.000000	95.386331 
2437.000000	95.386633 
2436.000000	95.387203 
2435.000000	95.387919 
2434.000000	95.388891 
2433.000000	95.390328 
2432.000000	95.392172 
2431.000000	95.394140 
2430.000000	95.396013 
2429.000000	95.397657 
2428.000000	95.398901 
2427.000000	95.399665 
2426.000000	95.400160 
2425.000000	95.400775 
2424.000000	95.401736 
2423.000000	95.402980 
2422.000000	95.404265 
2421.000000	95.405372 
2420.000000	95.406308 
2419.000000	95.407374 
2418.000000	95.408906 
2417.000000	95.410920 
2416.000000	95.413095 
2415.000000	95.415079 
2414.000000	95.416685 
2413.000000	95.417791 
2412.000000	95.418451 
2411.000000	95.419066 
2410.000000	95.420017 
2409.000000	95.421218 
2408.000000	95.422301 
2407.000000	95.423045 
2406.000000	95.423683 
2405.000000	95.424877 
2404.000000	95.426865 
2403.000000	95.428733 
2402.000000	95.429393 
2401.000000	95.429024 
2400.000000	95.428916 
2399.000000	95.430048 
2398.000000	95.432157 
2397.000000	95.433991 
2396.000000	95.434397 
2395.000000	95.433271 
2394.000000	95.431556 
2393.000000	95.430518 
2392.000000	95.430784 
2391.000000	95.432051 
2390.000000	95.433476 
2389.000000	95.434372 
2388.000000	95.434809 
2387.000000	95.435376 
2386.000000	95.436290 
2385.000000	95.437054 
2384.000000	95.437325 
2383.000000	95.437702 
2382.000000	95.438863 
2381.000000	95.440215 
2380.000000	95.440429 
2379.000000	95.439455 
2378.000000	95.438711 
2377.000000	95.438874 
2376.000000	95.438871 
2375.000000	95.437970 
2374.000000	95.437600 
2373.000000	95.439637 
2372.000000	95.443590 
2371.000000	95.446872 
2370.000000	95.447594 
2369.000000	95.445760 
2368.000000	95.442265 
2367.000000	95.438285 
2366.000000	95.435469 
2365.000000	95.435326 
2364.000000	95.438192 
2363.000000	95.443471 
2362.000000	95.450136 
2361.000000	95.456579 
2360.000000	95.461554 
2359.000000	95.464819 
2358.000000	95.467061 
2357.000000	95.469166 
2356.000000	95.471537 
2355.000000	95.473967 
2354.000000	95.475084 
2353.000000	95.475048 
2352.000000	95.475829 
2351.000000	95.479024 
2350.000000	95.484655 
2349.000000	95.491155 
2348.000000	95.496671 
2347.000000	95.499752 
2346.000000	95.500803 
2345.000000	95.501866 
2344.000000	95.504284 
2343.000000	95.508315 
2342.000000	95.512832 
2341.000000	95.516589 
2340.000000	95.518760 
2339.000000	95.519943 
2338.000000	95.521640 
2337.000000	95.524771 
2336.000000	95.529073 
2335.000000	95.533186 
2334.000000	95.535949 
2333.000000	95.537439 
2332.000000	95.539038 
2331.000000	95.540905 
2330.000000	95.542437 
2329.000000	95.542869 
2328.000000	95.543751 
2327.000000	95.545920 
2326.000000	95.549230 
2325.000000	95.552659 
2324.000000	95.555792 
2323.000000	95.558879 
2322.000000	95.561852 
2321.000000	95.564709 
2320.000000	95.567434 
2319.000000	95.569766 
2318.000000	95.571340 
2317.000000	95.571459 
2316.000000	95.570407 
2315.000000	95.568638 
2314.000000	95.567869 
2313.000000	95.568968 
2312.000000	95.572099 
2311.000000	95.574839 
2310.000000	95.575204 
2309.000000	95.572482 
2308.000000	95.568376 
2307.000000	95.564359 
2306.000000	95.561471 
2305.000000	95.560126 
2304.000000	95.561074 
2303.000000	95.563741 
2302.000000	95.566795 
2301.000000	95.568516 
2300.000000	95.568634 
2299.000000	95.567451 
2298.000000	95.566066 
2297.000000	95.564956 
2296.000000	95.564505 
2295.000000	95.564090 
2294.000000	95.563261 
2293.000000	95.561847 
2292.000000	95.560467 
2291.000000	95.559563 
2290.000000	95.559215 
2289.000000	95.559324 
2288.000000	95.559755 
2287.000000	95.560140 
2286.000000	95.559961 
2285.000000	95.559341 
2284.000000	95.558944 
2283.000000	95.559205 
2282.000000	95.559719 
2281.000000	95.559976 
2280.000000	95.560023 
2279.000000	95.560250 
2278.000000	95.560653 
2277.000000	95.560955 
2276.000000	95.561179 
2275.000000	95.561610 
2274.000000	95.562295 
2273.000000	95.562843 
2272.000000	95.562897 
2271.000000	95.562566 
2270.000000	95.562388 
2269.000000	95.562762 
2268.000000	95.563655 
2267.000000	95.564797 
2266.000000	95.565865 
2265.000000	95.566652 
2264.000000	95.567133 
2263.000000	95.567451 
2262.000000	95.567831 
2261.000000	95.568439 
2260.000000	95.569298 
2259.000000	95.570335 
2258.000000	95.571424 
2257.000000	95.572461 
2256.000000	95.573410 
2255.000000	95.574309 
2254.000000	95.575211 
2253.000000	95.576149 
2252.000000	95.577126 
2251.000000	95.578105 
2250.000000	95.579033 
2249.000000	95.579895 
2248.000000	95.580743 
2247.000000	95.581632 
2246.000000	95.582569 
2245.000000	95.583534 
2244.000000	95.584522 
2243.000000	95.585529 
2242.000000	95.586546 
2241.000000	95.587569 
2240.000000	95.588587 
2239.000000	95.589597 
2238.000000	95.590603 
2237.000000	95.591615 
2236.000000	95.592633 
2235.000000	95.593655 
2234.000000	95.594676 
2233.000000	95.595698 
2232.000000	95.596728 
2231.000000	95.597772 
2230.000000	95.598839 
2229.000000	95.599937 
2228.000000	95.601064 
2227.000000	95.602216 
2226.000000	95.603389 
2225.000000	95.604588 
2224.000000	95.605815 
2223.000000	95.607068 
2222.000000	95.608327 
2221.000000	95.609575 
2220.000000	95.610817 
2219.000000	95.612069 
2218.000000	95.613345 
2217.000000	95.614646 
2216.000000	95.615963 
2215.000000	95.617291 
2214.000000	95.618643 
2213.000000	95.620045 
2212.000000	95.621493 
2211.000000	95.622926 
2210.000000	95.624287 
2209.000000	95.625599 
2208.000000	95.626979 
2207.000000	95.628530 
2206.000000	95.630209 
2205.000000	95.631799 
2204.000000	95.633059 
2203.000000	95.633906 
2202.000000	95.634508 
2201.000000	95.635220 
2200.000000	95.636383 
2199.000000	95.638141 
2198.000000	95.640302 
2197.000000	95.642416 
2196.000000	95.644120 
2195.000000	95.645453 
2194.000000	95.646779 
2193.000000	95.648387 
2192.000000	95.650209 
2191.000000	95.651978 
2190.000000	95.653529 
2189.000000	95.654909 
2188.000000	95.656314 
2187.000000	95.658003 
2186.000000	95.660135 
2185.000000	95.662532 
2184.000000	95.664664 
2183.000000	95.666090 
2182.000000	95.666839 
2181.000000	95.667331 
2180.000000	95.667980 
2179.000000	95.668946 
2178.000000	95.670177 
2177.000000	95.671509 
2176.000000	95.672774 
2175.000000	95.673947 
2174.000000	95.675124 
2173.000000	95.676305 
2172.000000	95.677324 
2171.000000	95.678102 
2170.000000	95.678861 
2169.000000	95.679950 
2168.000000	95.681456 
2167.000000	95.683126 
2166.000000	95.684616 
2165.000000	95.685790 
2164.000000	95.686723 
2163.000000	95.687542 
2162.000000	95.688344 
2161.000000	95.689202 
2160.000000	95.690174 
2159.000000	95.691290 
2158.000000	95.692534 
2157.000000	95.693798 
2156.000000	95.694894 
2155.000000	95.695729 
2154.000000	95.696465 
2153.000000	95.697390 
2152.000000	95.698546 
2151.000000	95.699642 
2150.000000	95.700418 
2149.000000	95.701008 
2148.000000	95.701810 
2147.000000	95.703029 
2146.000000	95.704482 
2145.000000	95.705806 
2144.000000	95.706814 
2143.000000	95.707607 
2142.000000	95.708385 
2141.000000	95.709199 
2140.000000	95.709954 
2139.000000	95.710626 
2138.000000	95.711423 
2137.000000	95.712633 
2136.000000	95.714323 
2135.000000	95.716273 
2134.000000	95.718173 
2133.000000	95.719796 
2132.000000	95.721043 
2131.000000	95.721985 
2130.000000	95.722831 
2129.000000	95.723717 
2128.000000	95.724583 
2127.000000	95.725342 
2126.000000	95.726029 
2125.000000	95.726613 
2124.000000	95.726870 
2123.000000	95.726740 
2122.000000	95.726676 
2121.000000	95.727234 
2120.000000	95.728407 
2119.000000	95.729652 
2118.000000	95.730510 
2117.000000	95.731064 
2116.000000	95.731660 
2115.000000	95.732414 
2114.000000	95.733173 
2113.000000	95.733831 
2112.000000	95.734461 
2111.000000	95.735127 
2110.000000	95.735756 
2109.000000	95.736258 
2108.000000	95.736669 
2107.000000	95.737123 
2106.000000	95.737690 
2105.000000	95.738309 
2104.000000	95.738843 
2103.000000	95.739222 
2102.000000	95.739497 
2101.000000	95.739806 
2100.000000	95.740232 
2099.000000	95.740728 
2098.000000	95.741170 
2097.000000	95.741490 
2096.000000	95.741733 
2095.000000	95.741977 
2094.000000	95.742229 
2093.000000	95.742426 
2092.000000	95.742535 
2091.000000	95.742608 
2090.000000	95.742721 
2089.000000	95.742892 
2088.000000	95.743090 
2087.000000	95.743301 
2086.000000	95.743572 
2085.000000	95.743914 
2084.000000	95.744204 
2083.000000	95.744307 
2082.000000	95.744261 
2081.000000	95.744261 
2080.000000	95.744407 
2079.000000	95.744635 
2078.000000	95.744915 
2077.000000	95.745273 
2076.000000	95.745584 
2075.000000	95.745681 
2074.000000	95.745704 
2073.000000	95.745921 
2072.000000	95.746158 
2071.000000	95.745878 
2070.000000	95.744937 
2069.000000	95.743907 
2068.000000	95.743447 
2067.000000	95.743618 
2066.000000	95.744043 
2065.000000	95.744422 
2064.000000	95.744656 
2063.000000	95.744742 
2062.000000	95.744797 
2061.000000	95.744939 
2060.000000	95.744906 
2059.000000	95.744089 
2058.000000	95.742219 
2057.000000	95.739880 
2056.000000	95.738076 
2055.000000	95.737295 
2054.000000	95.737316 
2053.000000	95.737710 
2052.000000	95.738258 
2051.000000	95.738945 
2050.000000	95.739728 
2049.000000	95.740465 
2048.000000	95.740978 
2047.000000	95.741047 
2046.000000	95.740395 
2045.000000	95.738807 
2044.000000	95.736352 
2043.000000	95.733587 
2042.000000	95.731401 
2041.000000	95.730359 
2040.000000	95.730179 
2039.000000	95.730038 
2038.000000	95.729547 
2037.000000	95.729167 
2036.000000	95.729507 
2035.000000	95.730501 
2034.000000	95.731445 
2033.000000	95.731729 
2032.000000	95.731352 
2031.000000	95.730695 
2030.000000	95.730040 
2029.000000	95.729364 
2028.000000	95.728512 
2027.000000	95.727450 
2026.000000	95.726332 
2025.000000	95.725403 
2024.000000	95.724787 
2023.000000	95.724394 
2022.000000	95.724006 
2021.000000	95.723501 
2020.000000	95.722943 
2019.000000	95.722427 
2018.000000	95.721900 
2017.000000	95.721208 
2016.000000	95.720362 
2015.000000	95.719727 
2014.000000	95.719785 
2013.000000	95.720647 
2012.000000	95.721793 
2011.000000	95.722403 
2010.000000	95.722048 
2009.000000	95.720931 
2008.000000	95.719585 
2007.000000	95.718442 
2006.000000	95.717731 
2005.000000	95.717627 
2004.000000	95.718213 
2003.000000	95.719297 
2002.000000	95.720438 
2001.000000	95.721212 
2000.000000	95.721418 
1999.000000	95.721014 
1998.000000	95.720032 
1997.000000	95.718621 
1996.000000	95.717275 
1995.000000	95.716767 
1994.000000	95.717556 
1993.000000	95.719269 
1992.000000	95.720930 
1991.000000	95.721950 
1990.000000	95.722606 
1989.000000	95.723412 
1988.000000	95.724408 
1987.000000	95.725248 
1986.000000	95.725735 
1985.000000	95.726066 
1984.000000	95.726646 
1983.000000	95.727845 
1982.000000	95.729785 
1981.000000	95.732031 
1980.000000	95.733662 
1979.000000	95.734079 
1978.000000	95.733716 
1977.000000	95.733745 
1976.000000	95.734965 
1975.000000	95.737179 
1974.000000	95.739484 
1973.000000	95.741091 
1972.000000	95.741933 
1971.000000	95.742652 
1970.000000	95.744019 
1969.000000	95.746215 
1968.000000	95.748646 
1967.000000	95.750601 
1966.000000	95.752118 
1965.000000	95.753965 
1964.000000	95.756711 
1963.000000	95.760071 
1962.000000	95.763331 
1961.000000	95.766116 
1960.000000	95.768377 
1959.000000	95.769850 
1958.000000	95.770301 
1957.000000	95.770419 
1956.000000	95.771556 
1955.000000	95.773982 
1954.000000	95.776069 
1953.000000	95.776082 
1952.000000	95.774386 
1951.000000	95.773138 
1950.000000	95.773771 
1949.000000	95.775592 
1948.000000	95.776707 
1947.000000	95.775927 
1946.000000	95.774021 
1945.000000	95.773278 
1944.000000	95.775543 
1943.000000	95.780251 
1942.000000	95.784405 
1941.000000	95.785470 
1940.000000	95.784338 
1939.000000	95.784379 
1938.000000	95.787670 
1937.000000	95.792947 
1936.000000	95.797126 
1935.000000	95.798430 
1934.000000	95.797748 
1933.000000	95.797521 
1932.000000	95.799159 
1931.000000	95.801397 
1930.000000	95.801862 
1929.000000	95.800221 
1928.000000	95.798369 
1927.000000	95.797535 
1926.000000	95.797021 
1925.000000	95.795905 
1924.000000	95.795220 
1923.000000	95.796604 
1922.000000	95.799599 
1921.000000	95.802043 
1920.000000	95.802564 
1919.000000	95.800933 
1918.000000	95.796872 
1917.000000	95.790249 
1916.000000	95.782251 
1915.000000	95.775218 
1914.000000	95.770700 
1913.000000	95.768040 
1912.000000	95.765412 
1911.000000	95.761895 
1910.000000	95.758118 
1909.000000	95.754752 
1908.000000	95.750968 
1907.000000	95.745435 
1906.000000	95.738441 
1905.000000	95.731694 
1904.000000	95.726849 
1903.000000	95.724303 
1902.000000	95.723661 
1901.000000	95.724181 
1900.000000	95.724362 
1899.000000	95.722582 
1898.000000	95.718668 
1897.000000	95.713987 
1896.000000	95.709812 
1895.000000	95.705861 
1894.000000	95.701344 
1893.000000	95.696839 
1892.000000	95.693867 
1891.000000	95.693047 
1890.000000	95.693619 
1889.000000	95.694413 
1888.000000	95.694530 
1887.000000	95.693718 
1886.000000	95.692580 
1885.000000	95.692343 
1884.000000	95.694325 
1883.000000	95.698714 
1882.000000	95.703711 
1881.000000	95.706373 
1880.000000	95.705016 
1879.000000	95.701030 
1878.000000	95.697720 
1877.000000	95.696947 
1876.000000	95.697843 
1875.000000	95.698579 
1874.000000	95.697904 
1873.000000	95.695087 
1872.000000	95.689840 
1871.000000	95.683399 
1870.000000	95.679419 
1869.000000	95.681911 
1868.000000	95.690513 
1867.000000	95.700151 
1866.000000	95.707287 
1865.000000	95.712336 
1864.000000	95.716525 
1863.000000	95.720104 
1862.000000	95.723199 
1861.000000	95.726496 
1860.000000	95.730373 
1859.000000	95.734537 
1858.000000	95.739207 
1857.000000	95.745091 
1856.000000	95.751737 
1855.000000	95.757481 
1854.000000	95.761195 
1853.000000	95.763191 
1852.000000	95.764260 
1851.000000	95.764584 
1850.000000	95.764670 
1849.000000	95.765370 
1848.000000	95.766674 
1847.000000	95.767752 
1846.000000	95.768751 
1845.000000	95.771417 
1844.000000	95.776990 
1843.000000	95.784063 
1842.000000	95.789865 
1841.000000	95.793256 
1840.000000	95.794883 
1839.000000	95.795946 
1838.000000	95.797438 
1837.000000	95.799458 
1836.000000	95.801211 
1835.000000	95.801729 
1834.000000	95.800997 
1833.000000	95.800547 
1832.000000	95.802688 
1831.000000	95.808048 
1830.000000	95.813873 
1829.000000	95.816015 
1828.000000	95.813717 
1827.000000	95.809991 
1826.000000	95.807413 
1825.000000	95.806043 
1824.000000	95.805163 
1823.000000	95.805104 
1822.000000	95.806803 
1821.000000	95.810249 
1820.000000	95.814494 
1819.000000	95.818673 
1818.000000	95.821996 
1817.000000	95.823568 
1816.000000	95.823111 
1815.000000	95.820950 
1814.000000	95.817369 
1813.000000	95.813063 
1812.000000	95.810359 
1811.000000	95.811908 
1810.000000	95.817497 
1809.000000	95.824935 
1808.000000	95.832738 
1807.000000	95.839928 
1806.000000	95.845246 
1805.000000	95.847735 
1804.000000	95.847528 
1803.000000	95.845937 
1802.000000	95.845362 
1801.000000	95.848327 
1800.000000	95.853683 
1799.000000	95.857080 
1798.000000	95.856898 
1797.000000	95.856017 
1796.000000	95.857076 
1795.000000	95.859867 
1794.000000	95.864152 
1793.000000	95.872236 
1792.000000	95.886532 
1791.000000	95.903012 
1790.000000	95.912811 
1789.000000	95.913811 
1788.000000	95.912492 
1787.000000	95.915820 
1786.000000	95.925227 
1785.000000	95.937107 
1784.000000	95.947066 
1783.000000	95.953770 
1782.000000	95.958819 
1781.000000	95.963291 
1780.000000	95.965442 
1779.000000	95.964426 
1778.000000	95.963124 
1777.000000	95.964922 
1776.000000	95.969870 
1775.000000	95.978047 
1774.000000	95.993659 
1773.000000	96.019051 
1772.000000	96.047230 
1771.000000	96.069713 
1770.000000	96.087322 
1769.000000	96.106433 
1768.000000	96.130639 
1767.000000	96.156533 
1766.000000	96.178044 
1765.000000	96.194467 
1764.000000	96.210370 
1763.000000	96.230732 
1762.000000	96.255321 
1761.000000	96.277125 
1760.000000	96.290988 
1759.000000	96.301622 
1758.000000	96.317490 
1757.000000	96.339911 
1756.000000	96.359803 
1755.000000	96.369634 
1754.000000	96.372623 
1753.000000	96.375182 
1752.000000	96.379880 
1751.000000	96.388362 
1750.000000	96.402429 
1749.000000	96.419068 
1748.000000	96.432967 
1747.000000	96.443077 
1746.000000	96.454548 
1745.000000	96.472382 
1744.000000	96.495222 
1743.000000	96.517869 
1742.000000	96.536622 
1741.000000	96.551493 
1740.000000	96.563013 
1739.000000	96.569219 
1738.000000	96.567177 
1737.000000	96.555739 
1736.000000	96.534639 
1735.000000	96.502545 
1734.000000	96.465175 
1733.000000	96.438828 
1732.000000	96.429290 
1731.000000	96.431578 
1730.000000	96.439893 
1729.000000	96.447819 
1728.000000	96.448487 
1727.000000	96.438312 
1726.000000	96.419447 
1725.000000	96.397195 
1724.000000	96.376592 
1723.000000	96.359790 
1722.000000	96.343915 
1721.000000	96.324496 
1720.000000	96.298921 
1719.000000	96.265812 
1718.000000	96.226583 
1717.000000	96.192514 
1716.000000	96.175914 
1715.000000	96.172315 
1714.000000	96.167413 
1713.000000	96.151905 
1712.000000	96.126218 
1711.000000	96.095385 
1710.000000	96.063267 
1709.000000	96.032671 
1708.000000	96.006072 
1707.000000	95.983114 
1706.000000	95.961207 
1705.000000	95.939527 
1704.000000	95.919591 
1703.000000	95.901747 
1702.000000	95.886009 
1701.000000	95.871066 
1700.000000	95.852899 
1699.000000	95.832641 
1698.000000	95.816197 
1697.000000	95.812487 
1696.000000	95.822606 
1695.000000	95.832847 
1694.000000	95.830754 
1693.000000	95.818979 
1692.000000	95.804914 
1691.000000	95.793308 
1690.000000	95.786687 
1689.000000	95.783501 
1688.000000	95.778460 
1687.000000	95.769353 
1686.000000	95.761503 
1685.000000	95.759167 
1684.000000	95.757869 
1683.000000	95.752750 
1682.000000	95.744734 
1681.000000	95.738792 
1680.000000	95.736535 
1679.000000	95.737709 
1678.000000	95.743755 
1677.000000	95.755343 
1676.000000	95.766006 
1675.000000	95.766874 
1674.000000	95.760341 
1673.000000	95.755753 
1672.000000	95.755570 
1671.000000	95.756086 
1670.000000	95.755793 
1669.000000	95.757637 
1668.000000	95.761155 
1667.000000	95.761666 
1666.000000	95.757717 
1665.000000	95.751674 
1664.000000	95.746286 
1663.000000	95.742699 
1662.000000	95.741774 
1661.000000	95.744234 
1660.000000	95.747648 
1659.000000	95.749389 
1658.000000	95.750116 
1657.000000	95.751015 
1656.000000	95.750442 
1655.000000	95.746564 
1654.000000	95.739821 
1653.000000	95.730753 
1652.000000	95.724600 
1651.000000	95.724423 
1650.000000	95.727312 
1649.000000	95.728766 
1648.000000	95.728012 
1647.000000	95.726596 
1646.000000	95.726021 
1645.000000	95.726426 
1644.000000	95.727599 
1643.000000	95.728321 
1642.000000	95.726286 
1641.000000	95.721079 
1640.000000	95.714297 
1639.000000	95.707964 
1638.000000	95.703375 
1637.000000	95.701058 
1636.000000	95.700432 
1635.000000	95.700041 
1634.000000	95.699368 
1633.000000	95.697705 
1632.000000	95.695239 
1631.000000	95.693696 
1630.000000	95.695060 
1629.000000	95.699095 
1628.000000	95.702269 
1627.000000	95.701027 
1626.000000	95.695472 
1625.000000	95.688676 
1624.000000	95.683284 
1623.000000	95.680660 
1622.000000	95.681347 
1621.000000	95.684134 
1620.000000	95.686338 
1619.000000	95.686774 
1618.000000	95.686920 
1617.000000	95.687781 
1616.000000	95.687918 
1615.000000	95.686751 
1614.000000	95.685576 
1613.000000	95.685566 
1612.000000	95.687297 
1611.000000	95.690993 
1610.000000	95.696902 
1609.000000	95.704578 
1608.000000	95.711678 
1607.000000	95.715947 
1606.000000	95.717848 
1605.000000	95.719452 
1604.000000	95.721661 
1603.000000	95.725154 
1602.000000	95.730991 
1601.000000	95.737886 
1600.000000	95.742504 
1599.000000	95.743958 
1598.000000	95.745341 
1597.000000	95.749484 
1596.000000	95.755700 
1595.000000	95.761929 
1594.000000	95.767615 
1593.000000	95.772803 
1592.000000	95.776671 
1591.000000	95.779049 
1590.000000	95.781571 
1589.000000	95.785277 
1588.000000	95.788746 
1587.000000	95.790557 
1586.000000	95.791628 
1585.000000	95.793571 
1584.000000	95.796111 
1583.000000	95.798152 
1582.000000	95.800788 
1581.000000	95.805680 
1580.000000	95.812000 
1579.000000	95.817650 
1578.000000	95.822044 
1577.000000	95.825316 
1576.000000	95.826631 
1575.000000	95.826392 
1574.000000	95.826516 
1573.000000	95.827528 
1572.000000	95.829014 
1571.000000	95.831305 
1570.000000	95.835056 
1569.000000	95.839658 
1568.000000	95.843092 
1567.000000	95.844613 
1566.000000	95.845560 
1565.000000	95.847214 
1564.000000	95.849179 
1563.000000	95.850411 
1562.000000	95.851073 
1561.000000	95.852430 
1560.000000	95.853978 
1559.000000	95.854450 
1558.000000	95.856213 
1557.000000	95.859902 
1556.000000	95.863441 
1555.000000	95.864978 
1554.000000	95.864533 
1553.000000	95.863883 
1552.000000	95.864335 
1551.000000	95.865708 
1550.000000	95.867260 
1549.000000	95.868151 
1548.000000	95.867729 
1547.000000	95.866169 
1546.000000	95.864846 
1545.000000	95.865852 
1544.000000	95.869951 
1543.000000	95.875424 
1542.000000	95.880157 
1541.000000	95.883571 
1540.000000	95.885195 
1539.000000	95.884849 
1538.000000	95.884542 
1537.000000	95.885832 
1536.000000	95.887698 
1535.000000	95.888512 
1534.000000	95.888816 
1533.000000	95.891022 
1532.000000	95.894955 
1531.000000	95.897690 
1530.000000	95.898378 
1529.000000	95.899000 
1528.000000	95.901786 
1527.000000	95.907156 
1526.000000	95.913669 
1525.000000	95.919660 
1524.000000	95.924352 
1523.000000	95.927778 
1522.000000	95.930967 
1521.000000	95.935356 
1520.000000	95.940422 
1519.000000	95.944581 
1518.000000	95.948162 
1517.000000	95.952581 
1516.000000	95.958100 
1515.000000	95.963346 
1514.000000	95.967672 
1513.000000	95.971686 
1512.000000	95.975896 
1511.000000	95.980185 
1510.000000	95.984281 
1509.000000	95.988833 
1508.000000	95.995869 
1507.000000	96.006046 
1506.000000	96.014178 
1505.000000	96.017256 
1504.000000	96.019356 
1503.000000	96.023548 
1502.000000	96.029913 
1501.000000	96.037684 
1500.000000	96.045932 
1499.000000	96.054244 
1498.000000	96.062450 
1497.000000	96.069880 
1496.000000	96.075291 
1495.000000	96.077752 
1494.000000	96.077714 
1493.000000	96.076994 
1492.000000	96.077711 
1491.000000	96.081623 
1490.000000	96.089205 
1489.000000	96.098744 
1488.000000	96.107386 
1487.000000	96.113842 
1486.000000	96.119219 
1485.000000	96.125082 
1484.000000	96.131217 
1483.000000	96.136040 
1482.000000	96.138792 
1481.000000	96.140745 
1480.000000	96.144273 
1479.000000	96.150435 
1478.000000	96.158003 
1477.000000	96.163988 
1476.000000	96.165775 
1475.000000	96.163130 
1474.000000	96.159523 
1473.000000	96.160260 
1472.000000	96.164652 
1471.000000	96.165693 
1470.000000	96.161554 
1469.000000	96.157780 
1468.000000	96.158369 
1467.000000	96.161806 
1466.000000	96.165651 
1465.000000	96.172115 
1464.000000	96.182813 
1463.000000	96.193219 
1462.000000	96.199109 
1461.000000	96.202238 
1460.000000	96.207418 
1459.000000	96.218826 
1458.000000	96.239665 
1457.000000	96.269009 
1456.000000	96.296151 
1455.000000	96.311213 
1454.000000	96.317154 
1453.000000	96.320353 
1452.000000	96.323551 
1451.000000	96.325953 
1450.000000	96.324673 
1449.000000	96.317795 
1448.000000	96.306528 
1447.000000	96.293838 
1446.000000	96.283193 
1445.000000	96.278048 
1444.000000	96.278427 
1443.000000	96.280323 
1442.000000	96.279099 
1441.000000	96.274092 
1440.000000	96.270159 
1439.000000	96.273276 
1438.000000	96.283703 
1437.000000	96.294977 
1436.000000	96.301321 
1435.000000	96.303279 
1434.000000	96.305111 
1433.000000	96.309938 
1432.000000	96.317986 
1431.000000	96.328865 
1430.000000	96.341494 
1429.000000	96.352716 
1428.000000	96.360353 
1427.000000	96.366003 
1426.000000	96.373748 
1425.000000	96.385585 
1424.000000	96.399568 
1423.000000	96.413454 
1422.000000	96.427097 
1421.000000	96.441781 
1420.000000	96.458030 
1419.000000	96.476089 
1418.000000	96.496228 
1417.000000	96.518384 
1416.000000	96.543579 
1415.000000	96.570916 
1414.000000	96.596753 
1413.000000	96.618763 
1412.000000	96.638823 
1411.000000	96.660939 
1410.000000	96.685242 
1409.000000	96.707405 
1408.000000	96.724308 
1407.000000	96.736377 
1406.000000	96.745681 
1405.000000	96.753049 
1404.000000	96.756475 
1403.000000	96.753403 
1402.000000	96.743784 
1401.000000	96.730253 
1400.000000	96.717163 
1399.000000	96.711597 
1398.000000	96.722209 
1397.000000	96.755253 
1396.000000	96.809518 
1395.000000	96.867613 
1394.000000	96.900754 
1393.000000	96.895378 
1392.000000	96.865510 
1391.000000	96.835205 
1390.000000	96.819693 
1389.000000	96.823274 
1388.000000	96.844963 
1387.000000	96.880266 
1386.000000	96.919812 
1385.000000	96.954931 
1384.000000	96.983480 
1383.000000	97.007276 
1382.000000	97.027518 
1381.000000	97.043756 
1380.000000	97.054260 
1379.000000	97.056941 
1378.000000	97.052246 
1377.000000	97.044395 
1376.000000	97.038241 
1375.000000	97.035297 
1374.000000	97.032617 
1373.000000	97.024496 
1372.000000	97.006841 
1371.000000	96.981129 
1370.000000	96.954052 
1369.000000	96.933003 
1368.000000	96.921603 
1367.000000	96.917304 
1366.000000	96.912479 
1365.000000	96.899700 
1364.000000	96.877107 
1363.000000	96.851047 
1362.000000	96.830340 
1361.000000	96.815894 
1360.000000	96.802333 
1359.000000	96.788155 
1358.000000	96.777574 
1357.000000	96.773521 
1356.000000	96.773084 
1355.000000	96.771389 
1354.000000	96.766940 
1353.000000	96.760863 
1352.000000	96.752597 
1351.000000	96.740458 
1350.000000	96.726902 
1349.000000	96.716408 
1348.000000	96.709500 
1347.000000	96.703262 
1346.000000	96.695988 
1345.000000	96.688083 
1344.000000	96.678681 
1343.000000	96.665163 
1342.000000	96.646670 
1341.000000	96.626482 
1340.000000	96.610448 
1339.000000	96.602365 
1338.000000	96.599881 
1337.000000	96.596729 
1336.000000	96.589201 
1335.000000	96.579137 
1334.000000	96.571505 
1333.000000	96.569704 
1332.000000	96.572675 
1331.000000	96.576266 
1330.000000	96.576852 
1329.000000	96.573727 
1328.000000	96.569214 
1327.000000	96.566998 
1326.000000	96.568954 
1325.000000	96.572109 
1324.000000	96.570871 
1323.000000	96.562808 
1322.000000	96.550633 
1321.000000	96.539117 
1320.000000	96.531606 
1319.000000	96.529472 
1318.000000	96.532299 
1317.000000	96.538003 
1316.000000	96.543721 
1315.000000	96.547055 
1314.000000	96.546774 
1313.000000	96.543562 
1312.000000	96.540245 
1311.000000	96.539615 
1310.000000	96.541148 
1309.000000	96.541463 
1308.000000	96.539252 
1307.000000	96.537901 
1306.000000	96.541218 
1305.000000	96.547499 
1304.000000	96.551028 
1303.000000	96.548665 
1302.000000	96.542413 
1301.000000	96.536183 
1300.000000	96.532333 
1299.000000	96.531318 
1298.000000	96.532180 
1297.000000	96.533141 
1296.000000	96.533312 
1295.000000	96.533948 
1294.000000	96.536288 
1293.000000	96.538665 
1292.000000	96.537973 
1291.000000	96.533706 
1290.000000	96.528555 
1289.000000	96.525118 
1288.000000	96.524092 
1287.000000	96.525285 
1286.000000	96.528043 
1285.000000	96.531295 
1284.000000	96.535540 
1283.000000	96.543492 
1282.000000	96.556422 
1281.000000	96.570665 
1280.000000	96.580066 
1279.000000	96.582822 
1278.000000	96.583270 
1277.000000	96.586399 
1276.000000	96.593196 
1275.000000	96.601904 
1274.000000	96.611100 
1273.000000	96.620021 
1272.000000	96.627761 
1271.000000	96.633987 
1270.000000	96.639806 
1269.000000	96.647088 
1268.000000	96.658024 
1267.000000	96.675196 
1266.000000	96.699162 
1265.000000	96.724944 
1264.000000	96.743853 
1263.000000	96.751227 
1262.000000	96.751204 
1261.000000	96.751964 
1260.000000	96.757352 
1259.000000	96.764994 
1258.000000	96.771421 
1257.000000	96.776523 
1256.000000	96.782410 
1255.000000	96.789700 
1254.000000	96.796586 
1253.000000	96.801352 
1252.000000	96.804275 
1251.000000	96.805990 
1250.000000	96.804671 
1249.000000	96.796346 
1248.000000	96.778745 
1247.000000	96.754635 
1246.000000	96.731932 
1245.000000	96.721170 
1244.000000	96.730100 
1243.000000	96.755377 
1242.000000	96.779428 
1241.000000	96.782611 
1240.000000	96.762733 
1239.000000	96.739263 
1238.000000	96.734417 
1237.000000	96.752568 
1236.000000	96.781960 
1235.000000	96.812232 
1234.000000	96.843068 
1233.000000	96.876430 
1232.000000	96.907316 
1231.000000	96.925365 
1230.000000	96.923086 
1229.000000	96.901150 
1228.000000	96.866946 
1227.000000	96.827504 
1226.000000	96.781659 
1225.000000	96.720640 
1224.000000	96.640190 
1223.000000	96.551527 
1222.000000	96.476333 
1221.000000	96.429850 
1220.000000	96.410322 
1219.000000	96.401666 
1218.000000	96.381950 
1217.000000	96.332707 
1216.000000	96.248102 
1215.000000	96.138382 
1214.000000	96.021652 
1213.000000	95.910693 
1212.000000	95.809298 
1211.000000	95.717834 
1210.000000	95.635469 
1209.000000	95.557696 
1208.000000	95.478464 
1207.000000	95.396334 
1206.000000	95.314309 
1205.000000	95.233176 
1204.000000	95.149399 
1203.000000	95.060204 
1202.000000	94.966827 
1201.000000	94.872239 
1200.000000	94.779003 
1199.000000	94.689041 
1198.000000	94.601715 
1197.000000	94.512816 
1196.000000	94.419076 
1195.000000	94.322840 
1194.000000	94.229145 
1193.000000	94.139859 
1192.000000	94.054317 
1191.000000	93.973143 
1190.000000	93.896451 
1189.000000	93.820391 
1188.000000	93.740951 
1187.000000	93.659800 
1186.000000	93.581065 
1185.000000	93.503728 
1184.000000	93.423108 
1183.000000	93.339287 
1182.000000	93.258077 
1181.000000	93.182777 
1180.000000	93.109680 
1179.000000	93.032576 
1178.000000	92.947786 
1177.000000	92.854386 
1176.000000	92.753530 
1175.000000	92.648706 
1174.000000	92.543747 
1173.000000	92.439670 
1172.000000	92.335378 
1171.000000	92.230710 
1170.000000	92.126435 
1169.000000	92.022673 
1168.000000	91.920050 
1167.000000	91.821295 
1166.000000	91.729948 
1165.000000	91.650226 
1164.000000	91.590517 
1163.000000	91.563170 
1162.000000	91.576065 
1161.000000	91.624885 
1160.000000	91.694629 
1159.000000	91.766343 
1158.000000	91.822399 
1157.000000	91.850899 
1156.000000	91.849736 
1155.000000	91.825501 
1154.000000	91.786084 
1153.000000	91.734973 
1152.000000	91.673124 
1151.000000	91.602620 
1150.000000	91.526032 
1149.000000	91.445476 
1148.000000	91.364755 
1147.000000	91.288533 
1146.000000	91.216357 
1145.000000	91.141689 
1144.000000	91.060477 
1143.000000	90.976879 
1142.000000	90.896930 
1141.000000	90.820453 
1140.000000	90.743149 
1139.000000	90.662753 
1138.000000	90.579249 
1137.000000	90.493005 
1136.000000	90.406487 
1135.000000	90.323620 
1134.000000	90.243635 
1133.000000	90.160136 
1132.000000	90.070116 
1131.000000	89.978698 
1130.000000	89.890482 
1129.000000	89.801731 
1128.000000	89.706823 
1127.000000	89.607467 
1126.000000	89.509413 
1125.000000	89.414221 
1124.000000	89.320371 
1123.000000	89.228904 
1122.000000	89.142285 
1121.000000	89.061026 
1120.000000	88.986021 
1119.000000	88.919703 
1118.000000	88.859983 
1117.000000	88.798097 
1116.000000	88.727967 
1115.000000	88.653500 
1114.000000	88.582147 
1113.000000	88.516775 
1112.000000	88.458684 
1111.000000	88.411525 
1110.000000	88.375261 
1109.000000	88.341697 
1108.000000	88.302229 
1107.000000	88.256516 
1106.000000	88.209177 
1105.000000	88.162211 
1104.000000	88.115856 
1103.000000	88.072203 
1102.000000	88.032013 
1101.000000	87.991219 
1100.000000	87.946970 
1099.000000	87.902424 
1098.000000	87.861252 
1097.000000	87.821734 
1096.000000	87.779779 
1095.000000	87.735453 
1094.000000	87.691429 
1093.000000	87.648003 
1092.000000	87.603792 
1091.000000	87.559080 
1090.000000	87.514749 
1089.000000	87.470023 
1088.000000	87.424176 
1087.000000	87.378407 
1086.000000	87.334128 
1085.000000	87.292135 
1084.000000	87.254527 
1083.000000	87.223232 
1082.000000	87.194987 
1081.000000	87.162434 
1080.000000	87.122255 
1079.000000	87.077801 
1078.000000	87.031895 
1077.000000	86.981874 
1076.000000	86.924059 
1075.000000	86.858011 
1074.000000	86.783168 
1073.000000	86.695810 
1072.000000	86.594089 
1071.000000	86.485245 
1070.000000	86.385542 
1069.000000	86.310671 
1068.000000	86.260184 
1067.000000	86.206655 
1066.000000	86.107473 
1065.000000	85.940108 
1064.000000	85.727644 
1063.000000	85.524350 
1062.000000	85.375733 
1061.000000	85.296114 
1060.000000	85.275666 
1059.000000	85.291328 
1058.000000	85.311676 
1057.000000	85.310031 
1056.000000	85.280833 
1055.000000	85.235265 
1054.000000	85.179064 
1053.000000	85.103489 
1052.000000	84.998075 
1051.000000	84.859479 
1050.000000	84.685909 
1049.000000	84.477844 
1048.000000	84.248081 
1047.000000	84.015262 
1046.000000	83.782676 
1045.000000	83.538084 
1044.000000	83.277400 
1043.000000	83.013360 
1042.000000	82.756993 
1041.000000	82.506050 
1040.000000	82.257596 
1039.000000	82.015989 
1038.000000	81.780718 
1037.000000	81.542714 
1036.000000	81.302559 
1035.000000	81.077269 
1034.000000	80.878918 
1033.000000	80.702358 
1032.000000	80.546059 
1031.000000	80.429039 
1030.000000	80.369063 
1029.000000	80.351382 
1028.000000	80.332682 
1027.000000	80.275048 
1026.000000	80.172099 
1025.000000	80.048165 
1024.000000	79.938584 
1023.000000	79.864922 
1022.000000	79.820868 
1021.000000	79.783481 
1020.000000	79.738473 
1019.000000	79.687898 
1018.000000	79.636833 
1017.000000	79.586829 
1016.000000	79.543347 
1015.000000	79.514297 
1014.000000	79.496067 
1013.000000	79.473112 
1012.000000	79.435999 
1011.000000	79.389404 
1010.000000	79.340402 
1009.000000	79.291713 
1008.000000	79.249078 
1007.000000	79.220977 
1006.000000	79.205641 
1005.000000	79.190470 
1004.000000	79.169128 
1003.000000	79.148150 
1002.000000	79.133660 
1001.000000	79.124147 
1000.000000	79.119841 
999.000000	 79.126148 
998.000000	 79.143051 
997.000000	 79.162802 
996.000000	 79.182047 
995.000000	 79.204974 
994.000000	 79.231748 
993.000000	 79.256236 
992.000000	 79.278557 
991.000000	 79.307520 
990.000000	 79.346961 
989.000000	 79.391499 
988.000000	 79.438859 
987.000000	 79.494436 
986.000000	 79.560575 
985.000000	 79.633383 
984.000000	 79.712797 
983.000000	 79.804970 
982.000000	 79.913321 
981.000000	 80.036977 
980.000000	 80.176678 
979.000000	 80.330255 
978.000000	 80.484370 
977.000000	 80.625702 
976.000000	 80.760515 
975.000000	 80.908249 
974.000000	 81.075489 
973.000000	 81.251288 
972.000000	 81.428163 
971.000000	 81.610825 
970.000000	 81.801550 
969.000000	 81.993581 
968.000000	 82.183587 
967.000000	 82.376225 
966.000000	 82.572377 
965.000000	 82.766573 
964.000000	 82.959331 
963.000000	 83.157664 
962.000000	 83.359267 
961.000000	 83.550721 
960.000000	 83.726753 
959.000000	 83.897889 
958.000000	 84.073127 
957.000000	 84.247053 
956.000000	 84.410399 
955.000000	 84.561977 
954.000000	 84.703754 
953.000000	 84.834566 
952.000000	 84.955573 
951.000000	 85.073436 
950.000000	 85.191836 
949.000000	 85.306727 
948.000000	 85.414164 
947.000000	 85.515283 
946.000000	 85.610294 
945.000000	 85.695841 
944.000000	 85.771655 
943.000000	 85.841862 
942.000000	 85.907290 
941.000000	 85.965225 
940.000000	 86.018777 
939.000000	 86.076242 
938.000000	 86.138241 
937.000000	 86.196509 
936.000000	 86.249261 
935.000000	 86.306139 
934.000000	 86.372731 
933.000000	 86.441515 
932.000000	 86.504729 
931.000000	 86.565726 
930.000000	 86.630325 
929.000000	 86.696511 
928.000000	 86.760573 
927.000000	 86.824788 
926.000000	 86.890902 
925.000000	 86.953643 
924.000000	 87.009015 
923.000000	 87.062533 
922.000000	 87.120840 
921.000000	 87.180327 
920.000000	 87.232399 
919.000000	 87.276620 
918.000000	 87.321491 
917.000000	 87.374313 
916.000000	 87.435668 
915.000000	 87.501884 
914.000000	 87.569331 
913.000000	 87.639117 
912.000000	 87.719652 
911.000000	 87.820361 
910.000000	 87.940906 
909.000000	 88.071642 
908.000000	 88.206891 
907.000000	 88.352063 
906.000000	 88.514884 
905.000000	 88.695294 
904.000000	 88.887073 
903.000000	 89.084721 
902.000000	 89.286239 
901.000000	 89.493129 
900.000000	 89.708941 
899.000000	 89.933574 
898.000000	 90.158283 
897.000000	 90.371669 
896.000000	 90.571775 
895.000000	 90.766847 
894.000000	 90.962482 
893.000000	 91.153124 
892.000000	 91.329376 
891.000000	 91.490567 
890.000000	 91.647532 
889.000000	 91.814348 
888.000000	 91.997356 
887.000000	 92.189063 
886.000000	 92.372269 
885.000000	 92.534213 
884.000000	 92.678600 
883.000000	 92.821427 
882.000000	 92.972968 
881.000000	 93.125039 
880.000000	 93.257079 
879.000000	 93.353682 
878.000000	 93.417336 
877.000000	 93.467805 
876.000000	 93.530173 
875.000000	 93.619412 
874.000000	 93.731591 
873.000000	 93.849356 
872.000000	 93.958110 
871.000000	 94.058256 
870.000000	 94.162156 
869.000000	 94.279626 
868.000000	 94.407528 
867.000000	 94.534337 
866.000000	 94.653795 
865.000000	 94.771149 
864.000000	 94.894446 
863.000000	 95.022454 
862.000000	 95.144561 
861.000000	 95.251163 
860.000000	 95.340570 
859.000000	 95.417387 
858.000000	 95.488807 
857.000000	 95.561931 
856.000000	 95.639953 
855.000000	 95.719941 
854.000000	 95.797410 
853.000000	 95.872214 
852.000000	 95.945490 
851.000000	 96.012703 
850.000000	 96.067301 
849.000000	 96.111783 
848.000000	 96.156859 
847.000000	 96.206186 
846.000000	 96.249128 
845.000000	 96.273209 
844.000000	 96.277740 
843.000000	 96.270562 
842.000000	 96.257080 
841.000000	 96.237835 
840.000000	 96.211543 
839.000000	 96.173665 
838.000000	 96.116355 
837.000000	 96.038253 
836.000000	 95.952995 
835.000000	 95.880725 
834.000000	 95.830227 
833.000000	 95.794041 
832.000000	 95.760364 
831.000000	 95.724173 
830.000000	 95.687951 
829.000000	 95.659046 
828.000000	 95.647265 
827.000000	 95.658161 
826.000000	 95.685466 
825.000000	 95.713248 
824.000000	 95.725995 
823.000000	 95.714971 
822.000000	 95.680190 
821.000000	 95.632053 
820.000000	 95.585691 
819.000000	 95.545627 
818.000000	 95.498759 
817.000000	 95.429014 
816.000000	 95.335401 
815.000000	 95.228156 
814.000000	 95.110329 
813.000000	 94.972472 
812.000000	 94.803038 
811.000000	 94.591678 
810.000000	 94.322201 
809.000000	 93.977317 
808.000000	 93.558042 
807.000000	 93.089657 
806.000000	 92.601816 
805.000000	 92.110274 
804.000000	 91.623060 
803.000000	 91.152658 
802.000000	 90.712337 
801.000000	 90.310559 
800.000000	 89.959674 
799.000000	 89.681992 
798.000000	 89.497133 
797.000000	 89.408571 
796.000000	 89.406665 
795.000000	 89.474352 
794.000000	 89.584635 
793.000000	 89.705682 
792.000000	 89.818910 
791.000000	 89.925427 
790.000000	 90.027889 
789.000000	 90.112468 
788.000000	 90.154901 
787.000000	 90.139010 
786.000000	 90.064014 
785.000000	 89.938536 
784.000000	 89.773780 
783.000000	 89.580853 
782.000000	 89.371543 
781.000000	 89.164257 
780.000000	 88.989209 
779.000000	 88.879718 
778.000000	 88.853534 
777.000000	 88.906673 
776.000000	 89.025163 
775.000000	 89.194513 
774.000000	 89.397974 
773.000000	 89.617571 
772.000000	 89.842050 
771.000000	 90.066984 
770.000000	 90.285174 
769.000000	 90.484965 
768.000000	 90.660407 
767.000000	 90.815515 
766.000000	 90.955781 
765.000000	 91.082175 
764.000000	 91.195877 
763.000000	 91.301615 
762.000000	 91.402161 
761.000000	 91.494208 
760.000000	 91.572825 
759.000000	 91.637096 
758.000000	 91.691071 
757.000000	 91.743376 
756.000000	 91.804892 
755.000000	 91.880319 
754.000000	 91.962349 
753.000000	 92.041611 
752.000000	 92.122150 
751.000000	 92.218267 
750.000000	 92.335229 
749.000000	 92.462204 
748.000000	 92.586695 
747.000000	 92.707053 
746.000000	 92.826753 
745.000000	 92.944926 
744.000000	 93.058809 
743.000000	 93.170205 
742.000000	 93.284084 
741.000000	 93.403721 
740.000000	 93.529749 
739.000000	 93.660437 
738.000000	 93.790810 
737.000000	 93.914627 
736.000000	 94.028451 
735.000000	 94.130559 
734.000000	 94.217671 
733.000000	 94.289324 
732.000000	 94.354750 
731.000000	 94.427401 
730.000000	 94.511600 
729.000000	 94.600947 
728.000000	 94.686182 
727.000000	 94.759710 
726.000000	 94.818082 
725.000000	 94.865042 
724.000000	 94.910279 
723.000000	 94.960523 
722.000000	 95.014098 
721.000000	 95.069092 
720.000000	 95.131313 
719.000000	 95.205409 
718.000000	 95.281598 
717.000000	 95.341454 
716.000000	 95.376895 
715.000000	 95.394737 
714.000000	 95.403593 
713.000000	 95.406228 
712.000000	 95.404622 
711.000000	 95.401920 
710.000000	 95.396175 
709.000000	 95.382528 
708.000000	 95.359911 
707.000000	 95.329169 
706.000000	 95.288222 
705.000000	 95.232854 
704.000000	 95.158541 
703.000000	 95.056807 
702.000000	 94.909698 
701.000000	 94.701346 
700.000000	 94.439425 
699.000000	 94.151095 
698.000000	 93.861372 
697.000000	 93.588477 
696.000000	 93.361875 
695.000000	 93.229441 
694.000000	 93.226152 
693.000000	 93.344486 
692.000000	 93.542629 
691.000000	 93.771019 
690.000000	 93.993701 
689.000000	 94.191463 
688.000000	 94.356763 
687.000000	 94.490989 
686.000000	 94.598146 
685.000000	 94.686049 
684.000000	 94.772476 
683.000000	 94.874038 
682.000000	 94.989644 
681.000000	 95.104846 
680.000000	 95.213765 
679.000000	 95.318916 
678.000000	 95.413082 
677.000000	 95.486664 
676.000000	 95.545925 
675.000000	 95.610250 
674.000000	 95.687864 
673.000000	 95.762190 
672.000000	 95.809188 
671.000000	 95.805158 
670.000000	 95.733786 
669.000000	 95.605792 
668.000000	 95.565792 
667.000000	 95.715971 
666.000000	 95.954536 
665.000000	 96.189054 
664.000000	 96.395790 
663.000000	 96.550013 
662.000000	 96.646483 
661.000000	 96.710160 
660.000000	 96.770958 
659.000000	 96.835739 
658.000000	 96.900661 
657.000000	 96.968131 
656.000000	 97.026663 
655.000000	 97.050626 
654.000000	 97.041450 
653.000000	 97.032623 
652.000000	 97.037659 
651.000000	 97.032760 
650.000000	 97.005726 

