4000.000000	99.536302 
3999.000000	99.536515 
3998.000000	99.536473 
3997.000000	99.535957 
3996.000000	99.535050 
3995.000000	99.534133 
3994.000000	99.533616 
3993.000000	99.533687 
3992.000000	99.534241 
3991.000000	99.534987 
3990.000000	99.535634 
3989.000000	99.536052 
3988.000000	99.536340 
3987.000000	99.536705 
3986.000000	99.537205 
3985.000000	99.537641 
3984.000000	99.537716 
3983.000000	99.537262 
3982.000000	99.536310 
3981.000000	99.534984 
3980.000000	99.533322 
3979.000000	99.531326 
3978.000000	99.529279 
3977.000000	99.527898 
3976.000000	99.527892 
3975.000000	99.529367 
3974.000000	99.531652 
3973.000000	99.533666 
3972.000000	99.534706 
3971.000000	99.534821 
3970.000000	99.534448 
3969.000000	99.533930 
3968.000000	99.533361 
3967.000000	99.532744 
3966.000000	99.532147 
3965.000000	99.531711 
3964.000000	99.531468 
3963.000000	99.531195 
3962.000000	99.530549 
3961.000000	99.529385 
3960.000000	99.527931 
3959.000000	99.526660 
3958.000000	99.525941 
3957.000000	99.525780 
3956.000000	99.525922 
3955.000000	99.526110 
3954.000000	99.526218 
3953.000000	99.526187 
3952.000000	99.525975 
3951.000000	99.525644 
3950.000000	99.525371 
3949.000000	99.525308 
3948.000000	99.525416 
3947.000000	99.525459 
3946.000000	99.525228 
3945.000000	99.524744 
3944.000000	99.524251 
3943.000000	99.523938 
3942.000000	99.523776 
3941.000000	99.523624 
3940.000000	99.523359 
3939.000000	99.522888 
3938.000000	99.522178 
3937.000000	99.521356 
3936.000000	99.520783 
3935.000000	99.520873 
3934.000000	99.521777 
3933.000000	99.523222 
3932.000000	99.524598 
3931.000000	99.525341 
3930.000000	99.525258 
3929.000000	99.524560 
3928.000000	99.523725 
3927.000000	99.523210 
3926.000000	99.523219 
3925.000000	99.523623 
3924.000000	99.524001 
3923.000000	99.523990 
3922.000000	99.523565 
3921.000000	99.523021 
3920.000000	99.522708 
3919.000000	99.522793 
3918.000000	99.523246 
3917.000000	99.523912 
3916.000000	99.524593 
3915.000000	99.525128 
3914.000000	99.525502 
3913.000000	99.525809 
3912.000000	99.526085 
3911.000000	99.526281 
3910.000000	99.526400 
3909.000000	99.526556 
3908.000000	99.526873 
3907.000000	99.527240 
3906.000000	99.527264 
3905.000000	99.526542 
3904.000000	99.524990 
3903.000000	99.523070 
3902.000000	99.521634 
3901.000000	99.521250 
3900.000000	99.521901 
3899.000000	99.523072 
3898.000000	99.524128 
3897.000000	99.524796 
3896.000000	99.525117 
3895.000000	99.525192 
3894.000000	99.525066 
3893.000000	99.524733 
3892.000000	99.524219 
3891.000000	99.523642 
3890.000000	99.523177 
3889.000000	99.522918 
3888.000000	99.522867 
3887.000000	99.523050 
3886.000000	99.523450 
3885.000000	99.523887 
3884.000000	99.524142 
3883.000000	99.524208 
3882.000000	99.524265 
3881.000000	99.524453 
3880.000000	99.524738 
3879.000000	99.524989 
3878.000000	99.525160 
3877.000000	99.525305 
3876.000000	99.525495 
3875.000000	99.525720 
3874.000000	99.525879 
3873.000000	99.525912 
3872.000000	99.525876 
3871.000000	99.525892 
3870.000000	99.526023 
3869.000000	99.526236 
3868.000000	99.526475 
3867.000000	99.526711 
3866.000000	99.526950 
3865.000000	99.527197 
3864.000000	99.527447 
3863.000000	99.527699 
3862.000000	99.527964 
3861.000000	99.528258 
3860.000000	99.528588 
3859.000000	99.528944 
3858.000000	99.529309 
3857.000000	99.529658 
3856.000000	99.529969 
3855.000000	99.530227 
3854.000000	99.530452 
3853.000000	99.530679 
3852.000000	99.530915 
3851.000000	99.531157 
3850.000000	99.531399 
3849.000000	99.531650 
3848.000000	99.531925 
3847.000000	99.532229 
3846.000000	99.532558 
3845.000000	99.532908 
3844.000000	99.533281 
3843.000000	99.533710 
3842.000000	99.534200 
3841.000000	99.534673 
3840.000000	99.535023 
3839.000000	99.535199 
3838.000000	99.535222 
3837.000000	99.535150 
3836.000000	99.535034 
3835.000000	99.534948 
3834.000000	99.534975 
3833.000000	99.535188 
3832.000000	99.535588 
3831.000000	99.536039 
3830.000000	99.536347 
3829.000000	99.536404 
3828.000000	99.536243 
3827.000000	99.536014 
3826.000000	99.535857 
3825.000000	99.535752 
3824.000000	99.535606 
3823.000000	99.535579 
3822.000000	99.536009 
3821.000000	99.536793 
3820.000000	99.537308 
3819.000000	99.537260 
3818.000000	99.536847 
3817.000000	99.536486 
3816.000000	99.536348 
3815.000000	99.535994 
3814.000000	99.534968 
3813.000000	99.533605 
3812.000000	99.532816 
3811.000000	99.533152 
3810.000000	99.534378 
3809.000000	99.535729 
3808.000000	99.536656 
3807.000000	99.537139 
3806.000000	99.537245 
3805.000000	99.536896 
3804.000000	99.536109 
3803.000000	99.535389 
3802.000000	99.535297 
3801.000000	99.535449 
3800.000000	99.534957 
3799.000000	99.533639 
3798.000000	99.532010 
3797.000000	99.530643 
3796.000000	99.529635 
3795.000000	99.528693 
3794.000000	99.527698 
3793.000000	99.526934 
3792.000000	99.526709 
3791.000000	99.526913 
3790.000000	99.527134 
3789.000000	99.527179 
3788.000000	99.527283 
3787.000000	99.527678 
3786.000000	99.528238 
3785.000000	99.528626 
3784.000000	99.528733 
3783.000000	99.528814 
3782.000000	99.529316 
3781.000000	99.530549 
3780.000000	99.532192 
3779.000000	99.533253 
3778.000000	99.532981 
3777.000000	99.531567 
3776.000000	99.529830 
3775.000000	99.528670 
3774.000000	99.528389 
3773.000000	99.528524 
3772.000000	99.528449 
3771.000000	99.528078 
3770.000000	99.527593 
3769.000000	99.527054 
3768.000000	99.526715 
3767.000000	99.526866 
3766.000000	99.527380 
3765.000000	99.527671 
3764.000000	99.527116 
3763.000000	99.525633 
3762.000000	99.523970 
3761.000000	99.523256 
3760.000000	99.523851 
3759.000000	99.525107 
3758.000000	99.526560 
3757.000000	99.528522 
3756.000000	99.531073 
3755.000000	99.533589 
3754.000000	99.535373 
3753.000000	99.536272 
3752.000000	99.536268 
3751.000000	99.534884 
3750.000000	99.532426 
3749.000000	99.530618 
3748.000000	99.530370 
3747.000000	99.530687 
3746.000000	99.530424 
3745.000000	99.529581 
3744.000000	99.528566 
3743.000000	99.527320 
3742.000000	99.525672 
3741.000000	99.523837 
3740.000000	99.522140 
3739.000000	99.520359 
3738.000000	99.518422 
3737.000000	99.517413 
3736.000000	99.518521 
3735.000000	99.520981 
3734.000000	99.522351 
3733.000000	99.521483 
3732.000000	99.519356 
3731.000000	99.517242 
3730.000000	99.515183 
3729.000000	99.512522 
3728.000000	99.509485 
3727.000000	99.507266 
3726.000000	99.506449 
3725.000000	99.506302 
3724.000000	99.506030 
3723.000000	99.505857 
3722.000000	99.506230 
3721.000000	99.507011 
3720.000000	99.507411 
3719.000000	99.506550 
3718.000000	99.504301 
3717.000000	99.501203 
3716.000000	99.497758 
3715.000000	99.494091 
3714.000000	99.490287 
3713.000000	99.487013 
3712.000000	99.485039 
3711.000000	99.484359 
3710.000000	99.484098 
3709.000000	99.483249 
3708.000000	99.481468 
3707.000000	99.479063 
3706.000000	99.476595 
3705.000000	99.474520 
3704.000000	99.473008 
3703.000000	99.471748 
3702.000000	99.469864 
3701.000000	99.466569 
3700.000000	99.461921 
3699.000000	99.456627 
3698.000000	99.451510 
3697.000000	99.447206 
3696.000000	99.443909 
3695.000000	99.441476 
3694.000000	99.439961 
3693.000000	99.439715 
3692.000000	99.440677 
3691.000000	99.441866 
3690.000000	99.441693 
3689.000000	99.439287 
3688.000000	99.435320 
3687.000000	99.431059 
3686.000000	99.427003 
3685.000000	99.423219 
3684.000000	99.419922 
3683.000000	99.417221 
3682.000000	99.414862 
3681.000000	99.412444 
3680.000000	99.409787 
3679.000000	99.406722 
3678.000000	99.403204 
3677.000000	99.400247 
3676.000000	99.399212 
3675.000000	99.399106 
3674.000000	99.397439 
3673.000000	99.393271 
3672.000000	99.387712 
3671.000000	99.383579 
3670.000000	99.382686 
3669.000000	99.383703 
3668.000000	99.384395 
3667.000000	99.384279 
3666.000000	99.383949 
3665.000000	99.383735 
3664.000000	99.383287 
3663.000000	99.382060 
3662.000000	99.379963 
3661.000000	99.377280 
3660.000000	99.374296 
3659.000000	99.371308 
3658.000000	99.369028 
3657.000000	99.368296 
3656.000000	99.368993 
3655.000000	99.369974 
3654.000000	99.370220 
3653.000000	99.369547 
3652.000000	99.368326 
3651.000000	99.366917 
3650.000000	99.365194 
3649.000000	99.363229 
3648.000000	99.362143 
3647.000000	99.362716 
3646.000000	99.364250 
3645.000000	99.365660 
3644.000000	99.366738 
3643.000000	99.368095 
3642.000000	99.370580 
3641.000000	99.374267 
3640.000000	99.378246 
3639.000000	99.381226 
3638.000000	99.382338 
3637.000000	99.381599 
3636.000000	99.379793 
3635.000000	99.377965 
3634.000000	99.376548 
3633.000000	99.374991 
3632.000000	99.372545 
3631.000000	99.369609 
3630.000000	99.368184 
3629.000000	99.369228 
3628.000000	99.370599 
3627.000000	99.370610 
3626.000000	99.370193 
3625.000000	99.371002 
3624.000000	99.373695 
3623.000000	99.377642 
3622.000000	99.381734 
3621.000000	99.385581 
3620.000000	99.389079 
3619.000000	99.391217 
3618.000000	99.390952 
3617.000000	99.388995 
3616.000000	99.387346 
3615.000000	99.387657 
3614.000000	99.389806 
3613.000000	99.391938 
3612.000000	99.392469 
3611.000000	99.391783 
3610.000000	99.391524 
3609.000000	99.392805 
3608.000000	99.395107 
3607.000000	99.397239 
3606.000000	99.399132 
3605.000000	99.401676 
3604.000000	99.405428 
3603.000000	99.409978 
3602.000000	99.414330 
3601.000000	99.417808 
3600.000000	99.420109 
3599.000000	99.420962 
3598.000000	99.420322 
3597.000000	99.418662 
3596.000000	99.416902 
3595.000000	99.416165 
3594.000000	99.416987 
3593.000000	99.419003 
3592.000000	99.421331 
3591.000000	99.423080 
3590.000000	99.423973 
3589.000000	99.424577 
3588.000000	99.425554 
3587.000000	99.426571 
3586.000000	99.427017 
3585.000000	99.427071 
3584.000000	99.427465 
3583.000000	99.428555 
3582.000000	99.430101 
3581.000000	99.431568 
3580.000000	99.432533 
3579.000000	99.432852 
3578.000000	99.432577 
3577.000000	99.432001 
3576.000000	99.431599 
3575.000000	99.431813 
3574.000000	99.432673 
3573.000000	99.433702 
3572.000000	99.434324 
3571.000000	99.434327 
3570.000000	99.433931 
3569.000000	99.433705 
3568.000000	99.434161 
3567.000000	99.435105 
3566.000000	99.435809 
3565.000000	99.435988 
3564.000000	99.436071 
3563.000000	99.436621 
3562.000000	99.437748 
3561.000000	99.438979 
3560.000000	99.439727 
3559.000000	99.439854 
3558.000000	99.439735 
3557.000000	99.439856 
3556.000000	99.440386 
3555.000000	99.441104 
3554.000000	99.441622 
3553.000000	99.441653 
3552.000000	99.441170 
3551.000000	99.440426 
3550.000000	99.439748 
3549.000000	99.439323 
3548.000000	99.439256 
3547.000000	99.439603 
3546.000000	99.440288 
3545.000000	99.440943 
3544.000000	99.441138 
3543.000000	99.440862 
3542.000000	99.440679 
3541.000000	99.441186 
3540.000000	99.442464 
3539.000000	99.444003 
3538.000000	99.445192 
3537.000000	99.445858 
3536.000000	99.446218 
3535.000000	99.446510 
3534.000000	99.446731 
3533.000000	99.446804 
3532.000000	99.446815 
3531.000000	99.447003 
3530.000000	99.447470 
3529.000000	99.448021 
3528.000000	99.448358 
3527.000000	99.448398 
3526.000000	99.448324 
3525.000000	99.448343 
3524.000000	99.448477 
3523.000000	99.448613 
3522.000000	99.448721 
3521.000000	99.448911 
3520.000000	99.449306 
3519.000000	99.449909 
3518.000000	99.450604 
3517.000000	99.451232 
3516.000000	99.451669 
3515.000000	99.451887 
3514.000000	99.451946 
3513.000000	99.451972 
3512.000000	99.452068 
3511.000000	99.452259 
3510.000000	99.452513 
3509.000000	99.452799 
3508.000000	99.453107 
3507.000000	99.453433 
3506.000000	99.453757 
3505.000000	99.454049 
3504.000000	99.454292 
3503.000000	99.454496 
3502.000000	99.454692 
3501.000000	99.454902 
3500.000000	99.455127 
3499.000000	99.455353 
3498.000000	99.455558 
3497.000000	99.455728 
3496.000000	99.455863 
3495.000000	99.455978 
3494.000000	99.456096 
3493.000000	99.456227 
3492.000000	99.456374 
3491.000000	99.456536 
3490.000000	99.456710 
3489.000000	99.456893 
3488.000000	99.457083 
3487.000000	99.457273 
3486.000000	99.457459 
3485.000000	99.457637 
3484.000000	99.457805 
3483.000000	99.457966 
3482.000000	99.458123 
3481.000000	99.458276 
3480.000000	99.458427 
3479.000000	99.458572 
3478.000000	99.458706 
3477.000000	99.458827 
3476.000000	99.458936 
3475.000000	99.459045 
3474.000000	99.459169 
3473.000000	99.459310 
3472.000000	99.459456 
3471.000000	99.459585 
3470.000000	99.459683 
3469.000000	99.459762 
3468.000000	99.459854 
3467.000000	99.459969 
3466.000000	99.460076 
3465.000000	99.460138 
3464.000000	99.460156 
3463.000000	99.460170 
3462.000000	99.460212 
3461.000000	99.460286 
3460.000000	99.460401 
3459.000000	99.460582 
3458.000000	99.460816 
3457.000000	99.461010 
3456.000000	99.461047 
3455.000000	99.460888 
3454.000000	99.460621 
3453.000000	99.460424 
3452.000000	99.460426 
3451.000000	99.460627 
3450.000000	99.460911 
3449.000000	99.461131 
3448.000000	99.461206 
3447.000000	99.461107 
3446.000000	99.460827 
3445.000000	99.460395 
3444.000000	99.459937 
3443.000000	99.459627 
3442.000000	99.459538 
3441.000000	99.459522 
3440.000000	99.459309 
3439.000000	99.458765 
3438.000000	99.458012 
3437.000000	99.457303 
3436.000000	99.456842 
3435.000000	99.456747 
3434.000000	99.457069 
3433.000000	99.457740 
3432.000000	99.458497 
3431.000000	99.458986 
3430.000000	99.459039 
3429.000000	99.458813 
3428.000000	99.458668 
3427.000000	99.458806 
3426.000000	99.459037 
3425.000000	99.458919 
3424.000000	99.458169 
3423.000000	99.456924 
3422.000000	99.455678 
3421.000000	99.454918 
3420.000000	99.454835 
3419.000000	99.455318 
3418.000000	99.456083 
3417.000000	99.456781 
3416.000000	99.457121 
3415.000000	99.456996 
3414.000000	99.456516 
3413.000000	99.455874 
3412.000000	99.455230 
3411.000000	99.454751 
3410.000000	99.454633 
3409.000000	99.454898 
3408.000000	99.455187 
3407.000000	99.454951 
3406.000000	99.453983 
3405.000000	99.452672 
3404.000000	99.451658 
3403.000000	99.451253 
3402.000000	99.451322 
3401.000000	99.451666 
3400.000000	99.452323 
3399.000000	99.453389 
3398.000000	99.454709 
3397.000000	99.455889 
3396.000000	99.456596 
3395.000000	99.456714 
3394.000000	99.456237 
3393.000000	99.455214 
3392.000000	99.453879 
3391.000000	99.452722 
3390.000000	99.452238 
3389.000000	99.452590 
3388.000000	99.453568 
3387.000000	99.454792 
3386.000000	99.455984 
3385.000000	99.457034 
3384.000000	99.457880 
3383.000000	99.458403 
3382.000000	99.458430 
3381.000000	99.457889 
3380.000000	99.456989 
3379.000000	99.456215 
3378.000000	99.455987 
3377.000000	99.456302 
3376.000000	99.456736 
3375.000000	99.456866 
3374.000000	99.456657 
3373.000000	99.456431 
3372.000000	99.456522 
3371.000000	99.457015 
3370.000000	99.457736 
3369.000000	99.458349 
3368.000000	99.458524 
3367.000000	99.458149 
3366.000000	99.457452 
3365.000000	99.456853 
3364.000000	99.456593 
3363.000000	99.456585 
3362.000000	99.456623 
3361.000000	99.456613 
3360.000000	99.456557 
3359.000000	99.456414 
3358.000000	99.456112 
3357.000000	99.455707 
3356.000000	99.455409 
3355.000000	99.455365 
3354.000000	99.455476 
3353.000000	99.455476 
3352.000000	99.455198 
3351.000000	99.454716 
3350.000000	99.454288 
3349.000000	99.454148 
3348.000000	99.454353 
3347.000000	99.454757 
3346.000000	99.455099 
3345.000000	99.455186 
3344.000000	99.455009 
3343.000000	99.454720 
3342.000000	99.454498 
3341.000000	99.454383 
3340.000000	99.454259 
3339.000000	99.454015 
3338.000000	99.453722 
3337.000000	99.453623 
3336.000000	99.453900 
3335.000000	99.454469 
3334.000000	99.455055 
3333.000000	99.455493 
3332.000000	99.455845 
3331.000000	99.456200 
3330.000000	99.456433 
3329.000000	99.456292 
3328.000000	99.455727 
3327.000000	99.455009 
3326.000000	99.454486 
3325.000000	99.454259 
3324.000000	99.454148 
3323.000000	99.453953 
3322.000000	99.453728 
3321.000000	99.453736 
3320.000000	99.454127 
3319.000000	99.454753 
3318.000000	99.455314 
3317.000000	99.455633 
3316.000000	99.455717 
3315.000000	99.455631 
3314.000000	99.455477 
3313.000000	99.455445 
3312.000000	99.455723 
3311.000000	99.456245 
3310.000000	99.456644 
3309.000000	99.456604 
3308.000000	99.456179 
3307.000000	99.455663 
3306.000000	99.455273 
3305.000000	99.455053 
3304.000000	99.454999 
3303.000000	99.455099 
3302.000000	99.455222 
3301.000000	99.455139 
3300.000000	99.454731 
3299.000000	99.454096 
3298.000000	99.453473 
3297.000000	99.453055 
3296.000000	99.452868 
3295.000000	99.452799 
3294.000000	99.452708 
3293.000000	99.452543 
3292.000000	99.452362 
3291.000000	99.452232 
3290.000000	99.452133 
3289.000000	99.451984 
3288.000000	99.451757 
3287.000000	99.451499 
3286.000000	99.451275 
3285.000000	99.451099 
3284.000000	99.450935 
3283.000000	99.450749 
3282.000000	99.450544 
3281.000000	99.450359 
3280.000000	99.450224 
3279.000000	99.450134 
3278.000000	99.450053 
3277.000000	99.449941 
3276.000000	99.449784 
3275.000000	99.449588 
3274.000000	99.449371 
3273.000000	99.449163 
3272.000000	99.449006 
3271.000000	99.448938 
3270.000000	99.448966 
3269.000000	99.449033 
3268.000000	99.449055 
3267.000000	99.448983 
3266.000000	99.448827 
3265.000000	99.448632 
3264.000000	99.448456 
3263.000000	99.448390 
3262.000000	99.448537 
3261.000000	99.448920 
3260.000000	99.449405 
3259.000000	99.449769 
3258.000000	99.449874 
3257.000000	99.449776 
3256.000000	99.449650 
3255.000000	99.449579 
3254.000000	99.449497 
3253.000000	99.449351 
3252.000000	99.449265 
3251.000000	99.449452 
3250.000000	99.449942 
3249.000000	99.450507 
3248.000000	99.450889 
3247.000000	99.451013 
3246.000000	99.450945 
3245.000000	99.450741 
3244.000000	99.450444 
3243.000000	99.450194 
3242.000000	99.450182 
3241.000000	99.450448 
3240.000000	99.450819 
3239.000000	99.451113 
3238.000000	99.451399 
3237.000000	99.451929 
3236.000000	99.452832 
3235.000000	99.453888 
3234.000000	99.454663 
3233.000000	99.454877 
3232.000000	99.454627 
3231.000000	99.454248 
3230.000000	99.454018 
3229.000000	99.453991 
3228.000000	99.454013 
3227.000000	99.453821 
3226.000000	99.453209 
3225.000000	99.452228 
3224.000000	99.451228 
3223.000000	99.450605 
3222.000000	99.450483 
3221.000000	99.450686 
3220.000000	99.450942 
3219.000000	99.451068 
3218.000000	99.451006 
3217.000000	99.450840 
3216.000000	99.450819 
3215.000000	99.451200 
3214.000000	99.451960 
3213.000000	99.452683 
3212.000000	99.452870 
3211.000000	99.452370 
3210.000000	99.451438 
3209.000000	99.450552 
3208.000000	99.450045 
3207.000000	99.449956 
3206.000000	99.450103 
3205.000000	99.450247 
3204.000000	99.450267 
3203.000000	99.450205 
3202.000000	99.450128 
3201.000000	99.450027 
3200.000000	99.449880 
3199.000000	99.449778 
3198.000000	99.449863 
3197.000000	99.450139 
3196.000000	99.450429 
3195.000000	99.450560 
3194.000000	99.450529 
3193.000000	99.450432 
3192.000000	99.450284 
3191.000000	99.449983 
3190.000000	99.449451 
3189.000000	99.448776 
3188.000000	99.448196 
3187.000000	99.447931 
3186.000000	99.447998 
3185.000000	99.448170 
3184.000000	99.448169 
3183.000000	99.447952 
3182.000000	99.447767 
3181.000000	99.447902 
3180.000000	99.448428 
3179.000000	99.449172 
3178.000000	99.449873 
3177.000000	99.450290 
3176.000000	99.450267 
3175.000000	99.449908 
3174.000000	99.449632 
3173.000000	99.449807 
3172.000000	99.450217 
3171.000000	99.450136 
3170.000000	99.449118 
3169.000000	99.447579 
3168.000000	99.446484 
3167.000000	99.446322 
3166.000000	99.446792 
3165.000000	99.447318 
3164.000000	99.447693 
3163.000000	99.448077 
3162.000000	99.448564 
3161.000000	99.449050 
3160.000000	99.449455 
3159.000000	99.449776 
3158.000000	99.449857 
3157.000000	99.449351 
3156.000000	99.448092 
3155.000000	99.446402 
3154.000000	99.444857 
3153.000000	99.443745 
3152.000000	99.442963 
3151.000000	99.442431 
3150.000000	99.442349 
3149.000000	99.442915 
3148.000000	99.443957 
3147.000000	99.445025 
3146.000000	99.445811 
3145.000000	99.446334 
3144.000000	99.446718 
3143.000000	99.446980 
3142.000000	99.447060 
3141.000000	99.446982 
3140.000000	99.446894 
3139.000000	99.446939 
3138.000000	99.447107 
3137.000000	99.447252 
3136.000000	99.447271 
3135.000000	99.447229 
3134.000000	99.447269 
3133.000000	99.447406 
3132.000000	99.447488 
3131.000000	99.447388 
3130.000000	99.447166 
3129.000000	99.447015 
3128.000000	99.447132 
3127.000000	99.447649 
3126.000000	99.448543 
3125.000000	99.449496 
3124.000000	99.449956 
3123.000000	99.449593 
3122.000000	99.448592 
3121.000000	99.447539 
3120.000000	99.446930 
3119.000000	99.446820 
3118.000000	99.446990 
3117.000000	99.447234 
3116.000000	99.447470 
3115.000000	99.447692 
3114.000000	99.447901 
3113.000000	99.448090 
3112.000000	99.448233 
3111.000000	99.448306 
3110.000000	99.448327 
3109.000000	99.448347 
3108.000000	99.448390 
3107.000000	99.448426 
3106.000000	99.448409 
3105.000000	99.448342 
3104.000000	99.448276 
3103.000000	99.448267 
3102.000000	99.448356 
3101.000000	99.448568 
3100.000000	99.448876 
3099.000000	99.449212 
3098.000000	99.449524 
3097.000000	99.449807 
3096.000000	99.450042 
3095.000000	99.450148 
3094.000000	99.450045 
3093.000000	99.449742 
3092.000000	99.449341 
3091.000000	99.448972 
3090.000000	99.448754 
3089.000000	99.448806 
3088.000000	99.449197 
3087.000000	99.449822 
3086.000000	99.450353 
3085.000000	99.450435 
3084.000000	99.449947 
3083.000000	99.449076 
3082.000000	99.448136 
3081.000000	99.447421 
3080.000000	99.447201 
3079.000000	99.447685 
3078.000000	99.448905 
3077.000000	99.450622 
3076.000000	99.452348 
3075.000000	99.453469 
3074.000000	99.453442 
3073.000000	99.452110 
3072.000000	99.449941 
3071.000000	99.447841 
3070.000000	99.446536 
3069.000000	99.446060 
3068.000000	99.445867 
3067.000000	99.445543 
3066.000000	99.445491 
3065.000000	99.446735 
3064.000000	99.449684 
3063.000000	99.453024 
3062.000000	99.454304 
3061.000000	99.452016 
3060.000000	99.447044 
3059.000000	99.441969 
3058.000000	99.438957 
3057.000000	99.438532 
3056.000000	99.440024 
3055.000000	99.442408 
3054.000000	99.444616 
3053.000000	99.445715 
3052.000000	99.445279 
3051.000000	99.443515 
3050.000000	99.440999 
3049.000000	99.438524 
3048.000000	99.437051 
3047.000000	99.437042 
3046.000000	99.437478 
3045.000000	99.436227 
3044.000000	99.432195 
3043.000000	99.426943 
3042.000000	99.423552 
3041.000000	99.423662 
3040.000000	99.426039 
3039.000000	99.428074 
3038.000000	99.428110 
3037.000000	99.426032 
3036.000000	99.422195 
3035.000000	99.416641 
3034.000000	99.409511 
3033.000000	99.401698 
3032.000000	99.394560 
3031.000000	99.388893 
3030.000000	99.384358 
3029.000000	99.380077 
3028.000000	99.375673 
3027.000000	99.371596 
3026.000000	99.368413 
3025.000000	99.365857 
3024.000000	99.362741 
3023.000000	99.357916 
3022.000000	99.351212 
3021.000000	99.343217 
3020.000000	99.334193 
3019.000000	99.323705 
3018.000000	99.311765 
3017.000000	99.299916 
3016.000000	99.290298 
3015.000000	99.283409 
3014.000000	99.277511 
3013.000000	99.270729 
3012.000000	99.263241 
3011.000000	99.256729 
3010.000000	99.251949 
3009.000000	99.247675 
3008.000000	99.242013 
3007.000000	99.234100 
3006.000000	99.224384 
3005.000000	99.213885 
3004.000000	99.203552 
3003.000000	99.193925 
3002.000000	99.185028 
3001.000000	99.176615 
3000.000000	99.168631 
2999.000000	99.161325 
2998.000000	99.155006 
2997.000000	99.149916 
2996.000000	99.146141 
2995.000000	99.142995 
2994.000000	99.138463 
2993.000000	99.130070 
2992.000000	99.116961 
2991.000000	99.101034 
2990.000000	99.085896 
2989.000000	99.074915 
2988.000000	99.070085 
2987.000000	99.071695 
2986.000000	99.078106 
2985.000000	99.086129 
2984.000000	99.092550 
2983.000000	99.095821 
2982.000000	99.096358 
2981.000000	99.095651 
2980.000000	99.095326 
2979.000000	99.096503 
2978.000000	99.099178 
2977.000000	99.102043 
2976.000000	99.103326 
2975.000000	99.102153 
2974.000000	99.099172 
2973.000000	99.096100 
2972.000000	99.094874 
2971.000000	99.096870 
2970.000000	99.102312 
2969.000000	99.110222 
2968.000000	99.119248 
2967.000000	99.128648 
2966.000000	99.138322 
2965.000000	99.148008 
2964.000000	99.156919 
2963.000000	99.164370 
2962.000000	99.170490 
2961.000000	99.176012 
2960.000000	99.181346 
2959.000000	99.186024 
2958.000000	99.189199 
2957.000000	99.190772 
2956.000000	99.191921 
2955.000000	99.194374 
2954.000000	99.199082 
2953.000000	99.205670 
2952.000000	99.213043 
2951.000000	99.220211 
2950.000000	99.226473 
2949.000000	99.231241 
2948.000000	99.234065 
2947.000000	99.234917 
2946.000000	99.234515 
2945.000000	99.234488 
2944.000000	99.236810 
2943.000000	99.242272 
2942.000000	99.249210 
2941.000000	99.254486 
2940.000000	99.256338 
2939.000000	99.256143 
2938.000000	99.257056 
2937.000000	99.261240 
2936.000000	99.268744 
2935.000000	99.278316 
2934.000000	99.288228 
2933.000000	99.296456 
2932.000000	99.301298 
2931.000000	99.302438 
2930.000000	99.301169 
2929.000000	99.299398 
2928.000000	99.298456 
2927.000000	99.298508 
2926.000000	99.298527 
2925.000000	99.296925 
2924.000000	99.292917 
2923.000000	99.287443 
2922.000000	99.282243 
2921.000000	99.277860 
2920.000000	99.273088 
2919.000000	99.266514 
2918.000000	99.258120 
2917.000000	99.249183 
2916.000000	99.241058 
2915.000000	99.234280 
2914.000000	99.228507 
2913.000000	99.223101 
2912.000000	99.217981 
2911.000000	99.213915 
2910.000000	99.211594 
2909.000000	99.210450 
2908.000000	99.208851 
2907.000000	99.205683 
2906.000000	99.201098 
2905.000000	99.195493 
2904.000000	99.188519 
2903.000000	99.180013 
2902.000000	99.171775 
2901.000000	99.167760 
2900.000000	99.170957 
2899.000000	99.180801 
2898.000000	99.192746 
2897.000000	99.201166 
2896.000000	99.203498 
2895.000000	99.201789 
2894.000000	99.200225 
2893.000000	99.201164 
2892.000000	99.203824 
2891.000000	99.206270 
2890.000000	99.207662 
2889.000000	99.208183 
2888.000000	99.207857 
2887.000000	99.206625 
2886.000000	99.205362 
2885.000000	99.205769 
2884.000000	99.208973 
2883.000000	99.214750 
2882.000000	99.222184 
2881.000000	99.230464 
2880.000000	99.238870 
2879.000000	99.246641 
2878.000000	99.253394 
2877.000000	99.259464 
2876.000000	99.265455 
2875.000000	99.271572 
2874.000000	99.277597 
2873.000000	99.283257 
2872.000000	99.288233 
2871.000000	99.291990 
2870.000000	99.294155 
2869.000000	99.295378 
2868.000000	99.297509 
2867.000000	99.302415 
2866.000000	99.310347 
2865.000000	99.319529 
2864.000000	99.327550 
2863.000000	99.333278 
2862.000000	99.337413 
2861.000000	99.341412 
2860.000000	99.346237 
2859.000000	99.352180 
2858.000000	99.359207 
2857.000000	99.366824 
2856.000000	99.373760 
2855.000000	99.378575 
2854.000000	99.380945 
2853.000000	99.382164 
2852.000000	99.383977 
2851.000000	99.387001 
2850.000000	99.390619 
2849.000000	99.394030 
2848.000000	99.396861 
2847.000000	99.398936 
2846.000000	99.400037 
2845.000000	99.400139 
2844.000000	99.399557 
2843.000000	99.398638 
2842.000000	99.397524 
2841.000000	99.396446 
2840.000000	99.396029 
2839.000000	99.396998 
2838.000000	99.399580 
2837.000000	99.403314 
2836.000000	99.407320 
2835.000000	99.410620 
2834.000000	99.412447 
2833.000000	99.412623 
2832.000000	99.411721 
2831.000000	99.410568 
2830.000000	99.409493 
2829.000000	99.408279 
2828.000000	99.406907 
2827.000000	99.406059 
2826.000000	99.406626 
2825.000000	99.408818 
2824.000000	99.411907 
2823.000000	99.414739 
2822.000000	99.416473 
2821.000000	99.416981 
2820.000000	99.416760 
2819.000000	99.416418 
2818.000000	99.416113 
2817.000000	99.415592 
2816.000000	99.414837 
2815.000000	99.414389 
2814.000000	99.414754 
2813.000000	99.415648 
2812.000000	99.416253 
2811.000000	99.416247 
2810.000000	99.416233 
2809.000000	99.416983 
2808.000000	99.418514 
2807.000000	99.420106 
2806.000000	99.421042 
2805.000000	99.421175 
2804.000000	99.420867 
2803.000000	99.420629 
2802.000000	99.420790 
2801.000000	99.421343 
2800.000000	99.421991 
2799.000000	99.422406 
2798.000000	99.422486 
2797.000000	99.422348 
2796.000000	99.422085 
2795.000000	99.421663 
2794.000000	99.421115 
2793.000000	99.420706 
2792.000000	99.420707 
2791.000000	99.421062 
2790.000000	99.421453 
2789.000000	99.421726 
2788.000000	99.422102 
2787.000000	99.422841 
2786.000000	99.423808 
2785.000000	99.424507 
2784.000000	99.424540 
2783.000000	99.423937 
2782.000000	99.423108 
2781.000000	99.422564 
2780.000000	99.422647 
2779.000000	99.423380 
2778.000000	99.424457 
2777.000000	99.425452 
2776.000000	99.426138 
2775.000000	99.426584 
2774.000000	99.426959 
2773.000000	99.427355 
2772.000000	99.427836 
2771.000000	99.428528 
2770.000000	99.429500 
2769.000000	99.430560 
2768.000000	99.431313 
2767.000000	99.431529 
2766.000000	99.431366 
2765.000000	99.431171 
2764.000000	99.431059 
2763.000000	99.430812 
2762.000000	99.430231 
2761.000000	99.429455 
2760.000000	99.428886 
2759.000000	99.428807 
2758.000000	99.429203 
2757.000000	99.429910 
2756.000000	99.430760 
2755.000000	99.431549 
2754.000000	99.432012 
2753.000000	99.432004 
2752.000000	99.431690 
2751.000000	99.431468 
2750.000000	99.431618 
2749.000000	99.432104 
2748.000000	99.432708 
2747.000000	99.433238 
2746.000000	99.433631 
2745.000000	99.433884 
2744.000000	99.434016 
2743.000000	99.434066 
2742.000000	99.434098 
2741.000000	99.434184 
2740.000000	99.434369 
2739.000000	99.434645 
2738.000000	99.434946 
2737.000000	99.435210 
2736.000000	99.435434 
2735.000000	99.435653 
2734.000000	99.435866 
2733.000000	99.436030 
2732.000000	99.436129 
2731.000000	99.436205 
2730.000000	99.436310 
2729.000000	99.436462 
2728.000000	99.436653 
2727.000000	99.436868 
2726.000000	99.437091 
2725.000000	99.437312 
2724.000000	99.437531 
2723.000000	99.437759 
2722.000000	99.438001 
2721.000000	99.438254 
2720.000000	99.438509 
2719.000000	99.438752 
2718.000000	99.438977 
2717.000000	99.439190 
2716.000000	99.439400 
2715.000000	99.439617 
2714.000000	99.439847 
2713.000000	99.440087 
2712.000000	99.440329 
2711.000000	99.440570 
2710.000000	99.440813 
2709.000000	99.441061 
2708.000000	99.441313 
2707.000000	99.441549 
2706.000000	99.441745 
2705.000000	99.441895 
2704.000000	99.442016 
2703.000000	99.442143 
2702.000000	99.442292 
2701.000000	99.442454 
2700.000000	99.442611 
2699.000000	99.442756 
2698.000000	99.442908 
2697.000000	99.443086 
2696.000000	99.443290 
2695.000000	99.443493 
2694.000000	99.443670 
2693.000000	99.443813 
2692.000000	99.443945 
2691.000000	99.444094 
2690.000000	99.444259 
2689.000000	99.444415 
2688.000000	99.444547 
2687.000000	99.444674 
2686.000000	99.444825 
2685.000000	99.445003 
2684.000000	99.445187 
2683.000000	99.445358 
2682.000000	99.445509 
2681.000000	99.445640 
2680.000000	99.445759 
2679.000000	99.445876 
2678.000000	99.446008 
2677.000000	99.446162 
2676.000000	99.446337 
2675.000000	99.446520 
2674.000000	99.446700 
2673.000000	99.446869 
2672.000000	99.447026 
2671.000000	99.447178 
2670.000000	99.447330 
2669.000000	99.447488 
2668.000000	99.447655 
2667.000000	99.447832 
2666.000000	99.448019 
2665.000000	99.448215 
2664.000000	99.448419 
2663.000000	99.448632 
2662.000000	99.448851 
2661.000000	99.449075 
2660.000000	99.449302 
2659.000000	99.449531 
2658.000000	99.449763 
2657.000000	99.449996 
2656.000000	99.450229 
2655.000000	99.450462 
2654.000000	99.450692 
2653.000000	99.450919 
2652.000000	99.451146 
2651.000000	99.451375 
2650.000000	99.451611 
2649.000000	99.451851 
2648.000000	99.452088 
2647.000000	99.452320 
2646.000000	99.452548 
2645.000000	99.452781 
2644.000000	99.453020 
2643.000000	99.453258 
2642.000000	99.453489 
2641.000000	99.453709 
2640.000000	99.453925 
2639.000000	99.454144 
2638.000000	99.454370 
2637.000000	99.454600 
2636.000000	99.454822 
2635.000000	99.455029 
2634.000000	99.455217 
2633.000000	99.455389 
2632.000000	99.455551 
2631.000000	99.455709 
2630.000000	99.455871 
2629.000000	99.456041 
2628.000000	99.456209 
2627.000000	99.456355 
2626.000000	99.456465 
2625.000000	99.456554 
2624.000000	99.456646 
2623.000000	99.456740 
2622.000000	99.456809 
2621.000000	99.456840 
2620.000000	99.456855 
2619.000000	99.456886 
2618.000000	99.456946 
2617.000000	99.457017 
2616.000000	99.457065 
2615.000000	99.457073 
2614.000000	99.457079 
2613.000000	99.457153 
2612.000000	99.457315 
2611.000000	99.457496 
2610.000000	99.457601 
2609.000000	99.457599 
2608.000000	99.457505 
2607.000000	99.457351 
2606.000000	99.457221 
2605.000000	99.457276 
2604.000000	99.457626 
2603.000000	99.458163 
2602.000000	99.458583 
2601.000000	99.458670 
2600.000000	99.458537 
2599.000000	99.458511 
2598.000000	99.458754 
2597.000000	99.458990 
2596.000000	99.458729 
2595.000000	99.457792 
2594.000000	99.456544 
2593.000000	99.455661 
2592.000000	99.455492 
2591.000000	99.455836 
2590.000000	99.456179 
2589.000000	99.456222 
2588.000000	99.456053 
2587.000000	99.455842 
2586.000000	99.455613 
2585.000000	99.455379 
2584.000000	99.455285 
2583.000000	99.455434 
2582.000000	99.455692 
2581.000000	99.455790 
2580.000000	99.455593 
2579.000000	99.455172 
2578.000000	99.454651 
2577.000000	99.454112 
2576.000000	99.453639 
2575.000000	99.453346 
2574.000000	99.453295 
2573.000000	99.453428 
2572.000000	99.453633 
2571.000000	99.453844 
2570.000000	99.454035 
2569.000000	99.454156 
2568.000000	99.454135 
2567.000000	99.453945 
2566.000000	99.453645 
2565.000000	99.453341 
2564.000000	99.453114 
2563.000000	99.452969 
2562.000000	99.452841 
2561.000000	99.452655 
2560.000000	99.452380 
2559.000000	99.452036 
2558.000000	99.451667 
2557.000000	99.451312 
2556.000000	99.451000 
2555.000000	99.450734 
2554.000000	99.450505 
2553.000000	99.450291 
2552.000000	99.450071 
2551.000000	99.449832 
2550.000000	99.449570 
2549.000000	99.449286 
2548.000000	99.448991 
2547.000000	99.448701 
2546.000000	99.448439 
2545.000000	99.448213 
2544.000000	99.448014 
2543.000000	99.447820 
2542.000000	99.447607 
2541.000000	99.447363 
2540.000000	99.447087 
2539.000000	99.446795 
2538.000000	99.446519 
2537.000000	99.446275 
2536.000000	99.446054 
2535.000000	99.445828 
2534.000000	99.445592 
2533.000000	99.445355 
2532.000000	99.445122 
2531.000000	99.444880 
2530.000000	99.444637 
2529.000000	99.444435 
2528.000000	99.444311 
2527.000000	99.444241 
2526.000000	99.444129 
2525.000000	99.443902 
2524.000000	99.443651 
2523.000000	99.443603 
2522.000000	99.443896 
2521.000000	99.444412 
2520.000000	99.444858 
2519.000000	99.445015 
2518.000000	99.444842 
2517.000000	99.444405 
2516.000000	99.443797 
2515.000000	99.443154 
2514.000000	99.442701 
2513.000000	99.442680 
2512.000000	99.443214 
2511.000000	99.444238 
2510.000000	99.445475 
2509.000000	99.446546 
2508.000000	99.447217 
2507.000000	99.447567 
2506.000000	99.447815 
2505.000000	99.447928 
2504.000000	99.447586 
2503.000000	99.446618 
2502.000000	99.445365 
2501.000000	99.444455 
2500.000000	99.444286 
2499.000000	99.444874 
2498.000000	99.445999 
2497.000000	99.447296 
2496.000000	99.448315 
2495.000000	99.448712 
2494.000000	99.448479 
2493.000000	99.447906 
2492.000000	99.447352 
2491.000000	99.447127 
2490.000000	99.447510 
2489.000000	99.448700 
2488.000000	99.450658 
2487.000000	99.453039 
2486.000000	99.455211 
2485.000000	99.456404 
2484.000000	99.456085 
2483.000000	99.454401 
2482.000000	99.452267 
2481.000000	99.450703 
2480.000000	99.450008 
2479.000000	99.449779 
2478.000000	99.449529 
2477.000000	99.449144 
2476.000000	99.448841 
2475.000000	99.448921 
2474.000000	99.449528 
2473.000000	99.450400 
2472.000000	99.450887 
2471.000000	99.450512 
2470.000000	99.449486 
2469.000000	99.448564 
2468.000000	99.448264 
2467.000000	99.448407 
2466.000000	99.448477 
2465.000000	99.448220 
2464.000000	99.447791 
2463.000000	99.447444 
2462.000000	99.447307 
2461.000000	99.447347 
2460.000000	99.447389 
2459.000000	99.447207 
2458.000000	99.446741 
2457.000000	99.446213 
2456.000000	99.445904 
2455.000000	99.445842 
2454.000000	99.445805 
2453.000000	99.445599 
2452.000000	99.445209 
2451.000000	99.444681 
2450.000000	99.444020 
2449.000000	99.443272 
2448.000000	99.442626 
2447.000000	99.442305 
2446.000000	99.442397 
2445.000000	99.442787 
2444.000000	99.443223 
2443.000000	99.443446 
2442.000000	99.443328 
2441.000000	99.442941 
2440.000000	99.442524 
2439.000000	99.442324 
2438.000000	99.442418 
2437.000000	99.442647 
2436.000000	99.442741 
2435.000000	99.442521 
2434.000000	99.442020 
2433.000000	99.441500 
2432.000000	99.441290 
2431.000000	99.441556 
2430.000000	99.442172 
2429.000000	99.442786 
2428.000000	99.443031 
2427.000000	99.442762 
2426.000000	99.442114 
2425.000000	99.441400 
2424.000000	99.440910 
2423.000000	99.440780 
2422.000000	99.441037 
2421.000000	99.441582 
2420.000000	99.442054 
2419.000000	99.441922 
2418.000000	99.440943 
2417.000000	99.439435 
2416.000000	99.438061 
2415.000000	99.437199 
2414.000000	99.436717 
2413.000000	99.436324 
2412.000000	99.435903 
2411.000000	99.435504 
2410.000000	99.435173 
2409.000000	99.434893 
2408.000000	99.434621 
2407.000000	99.434295 
2406.000000	99.433862 
2405.000000	99.433369 
2404.000000	99.432946 
2403.000000	99.432647 
2402.000000	99.432377 
2401.000000	99.432007 
2400.000000	99.431493 
2399.000000	99.430849 
2398.000000	99.430097 
2397.000000	99.429287 
2396.000000	99.428554 
2395.000000	99.428038 
2394.000000	99.427739 
2393.000000	99.427478 
2392.000000	99.427107 
2391.000000	99.426622 
2390.000000	99.426075 
2389.000000	99.425489 
2388.000000	99.424879 
2387.000000	99.424307 
2386.000000	99.423818 
2385.000000	99.423377 
2384.000000	99.422908 
2383.000000	99.422384 
2382.000000	99.421851 
2381.000000	99.421357 
2380.000000	99.420901 
2379.000000	99.420451 
2378.000000	99.420013 
2377.000000	99.419617 
2376.000000	99.419260 
2375.000000	99.418889 
2374.000000	99.418468 
2373.000000	99.418008 
2372.000000	99.417554 
2371.000000	99.417134 
2370.000000	99.416744 
2369.000000	99.416373 
2368.000000	99.416012 
2367.000000	99.415655 
2366.000000	99.415303 
2365.000000	99.414969 
2364.000000	99.414661 
2363.000000	99.414357 
2362.000000	99.414026 
2361.000000	99.413661 
2360.000000	99.413281 
2359.000000	99.412916 
2358.000000	99.412603 
2357.000000	99.412372 
2356.000000	99.412234 
2355.000000	99.412171 
2354.000000	99.412154 
2353.000000	99.412139 
2352.000000	99.412075 
2351.000000	99.411951 
2350.000000	99.411790 
2349.000000	99.411642 
2348.000000	99.411544 
2347.000000	99.411510 
2346.000000	99.411537 
2345.000000	99.411597 
2344.000000	99.411666 
2343.000000	99.411745 
2342.000000	99.411850 
2341.000000	99.411993 
2340.000000	99.412183 
2339.000000	99.412442 
2338.000000	99.412786 
2337.000000	99.413196 
2336.000000	99.413592 
2335.000000	99.413906 
2334.000000	99.414174 
2333.000000	99.414550 
2332.000000	99.415115 
2331.000000	99.415822 
2330.000000	99.416537 
2329.000000	99.417232 
2328.000000	99.417907 
2327.000000	99.418650 
2326.000000	99.419549 
2325.000000	99.420567 
2324.000000	99.421429 
2323.000000	99.421987 
2322.000000	99.422478 
2321.000000	99.423198 
2320.000000	99.423861 
2319.000000	99.423996 
2318.000000	99.423720 
2317.000000	99.423960 
2316.000000	99.425215 
2315.000000	99.427200 
2314.000000	99.429128 
2313.000000	99.430868 
2312.000000	99.432691 
2311.000000	99.434887 
2310.000000	99.437116 
2309.000000	99.438854 
2308.000000	99.439756 
2307.000000	99.440202 
2306.000000	99.440773 
2305.000000	99.441891 
2304.000000	99.443535 
2303.000000	99.445688 
2302.000000	99.448161 
2301.000000	99.450612 
2300.000000	99.452632 
2299.000000	99.454509 
2298.000000	99.456663 
2297.000000	99.458954 
2296.000000	99.460289 
2295.000000	99.460170 
2294.000000	99.459483 
2293.000000	99.459890 
2292.000000	99.461955 
2291.000000	99.464774 
2290.000000	99.466933 
2289.000000	99.467705 
2288.000000	99.467332 
2287.000000	99.466688 
2286.000000	99.466733 
2285.000000	99.467625 
2284.000000	99.468632 
2283.000000	99.469027 
2282.000000	99.469079 
2281.000000	99.469607 
2280.000000	99.470801 
2279.000000	99.471924 
2278.000000	99.472318 
2277.000000	99.472170 
2276.000000	99.472053 
2275.000000	99.472252 
2274.000000	99.472734 
2273.000000	99.473498 
2272.000000	99.474560 
2271.000000	99.475757 
2270.000000	99.476828 
2269.000000	99.477718 
2268.000000	99.478573 
2267.000000	99.479495 
2266.000000	99.480341 
2265.000000	99.480758 
2264.000000	99.480470 
2263.000000	99.479584 
2262.000000	99.478687 
2261.000000	99.478415 
2260.000000	99.478913 
2259.000000	99.479736 
2258.000000	99.480281 
2257.000000	99.480388 
2256.000000	99.480364 
2255.000000	99.480535 
2254.000000	99.480971 
2253.000000	99.481579 
2252.000000	99.482287 
2251.000000	99.483049 
2250.000000	99.483726 
2249.000000	99.484145 
2248.000000	99.484278 
2247.000000	99.484317 
2246.000000	99.484466 
2245.000000	99.484773 
2244.000000	99.485173 
2243.000000	99.485606 
2242.000000	99.486039 
2241.000000	99.486437 
2240.000000	99.486833 
2239.000000	99.487342 
2238.000000	99.487978 
2237.000000	99.488481 
2236.000000	99.488549 
2235.000000	99.488204 
2234.000000	99.487780 
2233.000000	99.487597 
2232.000000	99.487670 
2231.000000	99.487832 
2230.000000	99.487930 
2229.000000	99.487927 
2228.000000	99.487879 
2227.000000	99.487878 
2226.000000	99.487985 
2225.000000	99.488186 
2224.000000	99.488428 
2223.000000	99.488671 
2222.000000	99.488910 
2221.000000	99.489146 
2220.000000	99.489382 
2219.000000	99.489622 
2218.000000	99.489879 
2217.000000	99.490164 
2216.000000	99.490479 
2215.000000	99.490804 
2214.000000	99.491114 
2213.000000	99.491405 
2212.000000	99.491695 
2211.000000	99.492013 
2210.000000	99.492377 
2209.000000	99.492790 
2208.000000	99.493244 
2207.000000	99.493727 
2206.000000	99.494235 
2205.000000	99.494766 
2204.000000	99.495245 
2203.000000	99.495667 
2202.000000	99.496221 
2201.000000	99.497133 
2200.000000	99.498313 
2199.000000	99.499328 
2198.000000	99.499744 
2197.000000	99.499498 
2196.000000	99.499069 
2195.000000	99.499159 
2194.000000	99.500125 
2193.000000	99.501708 
2192.000000	99.503275 
2191.000000	99.504366 
2190.000000	99.505145 
2189.000000	99.506426 
2188.000000	99.508768 
2187.000000	99.511086 
2186.000000	99.510841 
2185.000000	99.506624 
2184.000000	99.500441 
2183.000000	99.496297 
2182.000000	99.496112 
2181.000000	99.498396 
2180.000000	99.500901 
2179.000000	99.503272 
2178.000000	99.506174 
2177.000000	99.509349 
2176.000000	99.511783 
2175.000000	99.512747 
2174.000000	99.511763 
2173.000000	99.508970 
2172.000000	99.506743 
2171.000000	99.509241 
2170.000000	99.518252 
2169.000000	99.530088 
2168.000000	99.538712 
2167.000000	99.541902 
2166.000000	99.541938 
2165.000000	99.541049 
2164.000000	99.539125 
2163.000000	99.536421 
2162.000000	99.534915 
2161.000000	99.534841 
2160.000000	99.532359 
2159.000000	99.523538 
2158.000000	99.509315 
2157.000000	99.494436 
2156.000000	99.482628 
2155.000000	99.475254 
2154.000000	99.473396 
2153.000000	99.478004 
2152.000000	99.487637 
2151.000000	99.497713 
2150.000000	99.503387 
2149.000000	99.503264 
2148.000000	99.500120 
2147.000000	99.497998 
2146.000000	99.498394 
2145.000000	99.499429 
2144.000000	99.498646 
2143.000000	99.495923 
2142.000000	99.493095 
2141.000000	99.491279 
2140.000000	99.489643 
2139.000000	99.486886 
2138.000000	99.483104 
2137.000000	99.479745 
2136.000000	99.478016 
2135.000000	99.477618 
2134.000000	99.477154 
2133.000000	99.475898 
2132.000000	99.474884 
2131.000000	99.475580 
2130.000000	99.477584 
2129.000000	99.478649 
2128.000000	99.477466 
2127.000000	99.475423 
2126.000000	99.474681 
2125.000000	99.475517 
2124.000000	99.476796 
2123.000000	99.478317 
2122.000000	99.480883 
2121.000000	99.484275 
2120.000000	99.486788 
2119.000000	99.487186 
2118.000000	99.486122 
2117.000000	99.485241 
2116.000000	99.485464 
2115.000000	99.486491 
2114.000000	99.487517 
2113.000000	99.487865 
2112.000000	99.487255 
2111.000000	99.485985 
2110.000000	99.484827 
2109.000000	99.484424 
2108.000000	99.484668 
2107.000000	99.484844 
2106.000000	99.484407 
2105.000000	99.483508 
2104.000000	99.482813 
2103.000000	99.482930 
2102.000000	99.483873 
2101.000000	99.484999 
2100.000000	99.485572 
2099.000000	99.485423 
2098.000000	99.485047 
2097.000000	99.485106 
2096.000000	99.485841 
2095.000000	99.487030 
2094.000000	99.488308 
2093.000000	99.489430 
2092.000000	99.490319 
2091.000000	99.491006 
2090.000000	99.491595 
2089.000000	99.492199 
2088.000000	99.492851 
2087.000000	99.493472 
2086.000000	99.493970 
2085.000000	99.494369 
2084.000000	99.494860 
2083.000000	99.495648 
2082.000000	99.496771 
2081.000000	99.498034 
2080.000000	99.499144 
2079.000000	99.500012 
2078.000000	99.500812 
2077.000000	99.501764 
2076.000000	99.502851 
2075.000000	99.503849 
2074.000000	99.504566 
2073.000000	99.504966 
2072.000000	99.505191 
2071.000000	99.505497 
2070.000000	99.506143 
2069.000000	99.507175 
2068.000000	99.508359 
2067.000000	99.509379 
2066.000000	99.510094 
2065.000000	99.510641 
2064.000000	99.511342 
2063.000000	99.512478 
2062.000000	99.514037 
2061.000000	99.515643 
2060.000000	99.516873 
2059.000000	99.517695 
2058.000000	99.518499 
2057.000000	99.519633 
2056.000000	99.521004 
2055.000000	99.522264 
2054.000000	99.523285 
2053.000000	99.524280 
2052.000000	99.525485 
2051.000000	99.526865 
2050.000000	99.528158 
2049.000000	99.529146 
2048.000000	99.529850 
2047.000000	99.530510 
2046.000000	99.531373 
2045.000000	99.532468 
2044.000000	99.533541 
2043.000000	99.534268 
2042.000000	99.534588 
2041.000000	99.534753 
2040.000000	99.535031 
2039.000000	99.535439 
2038.000000	99.535817 
2037.000000	99.536036 
2036.000000	99.536098 
2035.000000	99.536046 
2034.000000	99.535878 
2033.000000	99.535610 
2032.000000	99.535406 
2031.000000	99.535480 
2030.000000	99.535858 
2029.000000	99.536337 
2028.000000	99.536594 
2027.000000	99.536535 
2026.000000	99.536309 
2025.000000	99.536148 
2024.000000	99.536180 
2023.000000	99.536432 
2022.000000	99.536849 
2021.000000	99.537221 
2020.000000	99.537213 
2019.000000	99.536640 
2018.000000	99.535775 
2017.000000	99.535167 
2016.000000	99.535019 
2015.000000	99.535036 
2014.000000	99.534901 
2013.000000	99.534601 
2012.000000	99.534203 
2011.000000	99.533659 
2010.000000	99.533056 
2009.000000	99.532749 
2008.000000	99.532980 
2007.000000	99.533521 
2006.000000	99.533892 
2005.000000	99.533830 
2004.000000	99.533471 
2003.000000	99.533171 
2002.000000	99.533094 
2001.000000	99.532766 
2000.000000	99.531222 
1999.000000	99.527994 
1998.000000	99.523895 
1997.000000	99.520472 
1996.000000	99.518678 
1995.000000	99.518437 
1994.000000	99.519336 
1993.000000	99.521130 
1992.000000	99.523373 
1991.000000	99.524910 
1990.000000	99.524268 
1989.000000	99.520827 
1988.000000	99.516129 
1987.000000	99.513767 
1986.000000	99.516714 
1985.000000	99.524599 
1984.000000	99.533504 
1983.000000	99.539627 
1982.000000	99.542300 
1981.000000	99.542637 
1980.000000	99.540945 
1979.000000	99.536808 
1978.000000	99.530962 
1977.000000	99.524993 
1976.000000	99.519233 
1975.000000	99.513112 
1974.000000	99.507745 
1973.000000	99.505785 
1972.000000	99.508059 
1971.000000	99.512240 
1970.000000	99.515651 
1969.000000	99.518226 
1968.000000	99.521355 
1967.000000	99.524669 
1966.000000	99.525906 
1965.000000	99.524113 
1964.000000	99.521144 
1963.000000	99.519268 
1962.000000	99.518420 
1961.000000	99.516859 
1960.000000	99.513960 
1959.000000	99.511014 
1958.000000	99.509137 
1957.000000	99.507687 
1956.000000	99.505381 
1955.000000	99.502028 
1954.000000	99.498329 
1953.000000	99.494639 
1952.000000	99.490868 
1951.000000	99.487420 
1950.000000	99.485309 
1949.000000	99.485036 
1948.000000	99.485988 
1947.000000	99.487227 
1946.000000	99.488132 
1945.000000	99.488044 
1944.000000	99.486276 
1943.000000	99.483137 
1942.000000	99.480187 
1941.000000	99.478492 
1940.000000	99.477550 
1939.000000	99.476442 
1938.000000	99.475177 
1937.000000	99.474451 
1936.000000	99.474533 
1935.000000	99.474853 
1934.000000	99.474634 
1933.000000	99.473685 
1932.000000	99.472479 
1931.000000	99.471660 
1930.000000	99.471557 
1929.000000	99.471923 
1928.000000	99.472095 
1927.000000	99.471530 
1926.000000	99.470209 
1925.000000	99.468510 
1924.000000	99.466901 
1923.000000	99.465720 
1922.000000	99.465071 
1921.000000	99.464828 
1920.000000	99.464740 
1919.000000	99.464552 
1918.000000	99.464138 
1917.000000	99.463514 
1916.000000	99.462796 
1915.000000	99.462157 
1914.000000	99.461725 
1913.000000	99.461493 
1912.000000	99.461299 
1911.000000	99.460962 
1910.000000	99.460436 
1909.000000	99.459797 
1908.000000	99.459142 
1907.000000	99.458533 
1906.000000	99.458021 
1905.000000	99.457597 
1904.000000	99.457123 
1903.000000	99.456417 
1902.000000	99.455452 
1901.000000	99.454407 
1900.000000	99.453499 
1899.000000	99.452848 
1898.000000	99.452485 
1897.000000	99.452341 
1896.000000	99.452233 
1895.000000	99.451999 
1894.000000	99.451679 
1893.000000	99.451444 
1892.000000	99.451338 
1891.000000	99.451211 
1890.000000	99.450920 
1889.000000	99.450503 
1888.000000	99.450096 
1887.000000	99.449789 
1886.000000	99.449602 
1885.000000	99.449468 
1884.000000	99.449243 
1883.000000	99.448817 
1882.000000	99.448263 
1881.000000	99.447760 
1880.000000	99.447425 
1879.000000	99.447258 
1878.000000	99.447171 
1877.000000	99.446989 
1876.000000	99.446555 
1875.000000	99.445999 
1874.000000	99.445772 
1873.000000	99.446180 
1872.000000	99.446953 
1871.000000	99.447428 
1870.000000	99.447253 
1869.000000	99.446646 
1868.000000	99.445877 
1867.000000	99.444881 
1866.000000	99.443744 
1865.000000	99.443018 
1864.000000	99.443255 
1863.000000	99.444514 
1862.000000	99.446337 
1861.000000	99.448020 
1860.000000	99.448984 
1859.000000	99.449101 
1858.000000	99.448845 
1857.000000	99.448944 
1856.000000	99.449694 
1855.000000	99.450814 
1854.000000	99.451839 
1853.000000	99.452479 
1852.000000	99.452646 
1851.000000	99.452381 
1850.000000	99.451866 
1849.000000	99.451405 
1848.000000	99.451225 
1847.000000	99.451326 
1846.000000	99.451596 
1845.000000	99.451859 
1844.000000	99.451769 
1843.000000	99.451141 
1842.000000	99.450505 
1841.000000	99.450620 
1840.000000	99.451762 
1839.000000	99.453542 
1838.000000	99.455152 
1837.000000	99.456009 
1836.000000	99.456154 
1835.000000	99.456123 
1834.000000	99.456476 
1833.000000	99.457454 
1832.000000	99.459043 
1831.000000	99.460849 
1830.000000	99.462071 
1829.000000	99.462279 
1828.000000	99.462083 
1827.000000	99.462211 
1826.000000	99.462507 
1825.000000	99.462464 
1824.000000	99.462033 
1823.000000	99.461580 
1822.000000	99.461282 
1821.000000	99.460796 
1820.000000	99.459627 
1819.000000	99.457720 
1818.000000	99.455918 
1817.000000	99.455431 
1816.000000	99.456331 
1815.000000	99.457474 
1814.000000	99.458125 
1813.000000	99.458857 
1812.000000	99.460619 
1811.000000	99.463265 
1810.000000	99.465900 
1809.000000	99.468100 
1808.000000	99.469574 
1807.000000	99.469755 
1806.000000	99.468531 
1805.000000	99.466615 
1804.000000	99.464851 
1803.000000	99.463585 
1802.000000	99.463001 
1801.000000	99.463437 
1800.000000	99.464589 
1799.000000	99.465379 
1798.000000	99.465387 
1797.000000	99.465214 
1796.000000	99.465438 
1795.000000	99.466069 
1794.000000	99.466860 
1793.000000	99.467632 
1792.000000	99.468249 
1791.000000	99.468531 
1790.000000	99.468670 
1789.000000	99.469107 
1788.000000	99.469969 
1787.000000	99.471015 
1786.000000	99.471910 
1785.000000	99.472454 
1784.000000	99.472632 
1783.000000	99.472655 
1782.000000	99.472831 
1781.000000	99.473295 
1780.000000	99.473858 
1779.000000	99.474217 
1778.000000	99.474388 
1777.000000	99.474680 
1776.000000	99.475334 
1775.000000	99.476368 
1774.000000	99.477620 
1773.000000	99.478806 
1772.000000	99.479641 
1771.000000	99.480038 
1770.000000	99.480169 
1769.000000	99.480268 
1768.000000	99.480510 
1767.000000	99.480931 
1766.000000	99.481442 
1765.000000	99.481966 
1764.000000	99.482478 
1763.000000	99.482989 
1762.000000	99.483527 
1761.000000	99.484133 
1760.000000	99.484848 
1759.000000	99.485640 
1758.000000	99.486406 
1757.000000	99.487043 
1756.000000	99.487530 
1755.000000	99.487904 
1754.000000	99.488139 
1753.000000	99.488182 
1752.000000	99.488210 
1751.000000	99.488666 
1750.000000	99.489743 
1749.000000	99.491127 
1748.000000	99.492392 
1747.000000	99.493340 
1746.000000	99.493895 
1745.000000	99.494065 
1744.000000	99.494099 
1743.000000	99.494291 
1742.000000	99.494659 
1741.000000	99.495007 
1740.000000	99.495192 
1739.000000	99.495249 
1738.000000	99.495287 
1737.000000	99.495321 
1736.000000	99.495205 
1735.000000	99.494797 
1734.000000	99.494250 
1733.000000	99.493976 
1732.000000	99.494189 
1731.000000	99.494734 
1730.000000	99.495281 
1729.000000	99.495561 
1728.000000	99.495550 
1727.000000	99.495396 
1726.000000	99.495217 
1725.000000	99.495030 
1724.000000	99.494832 
1723.000000	99.494675 
1722.000000	99.494631 
1721.000000	99.494711 
1720.000000	99.494824 
1719.000000	99.494797 
1718.000000	99.494487 
1717.000000	99.493968 
1716.000000	99.493400 
1715.000000	99.492828 
1714.000000	99.492306 
1713.000000	99.491894 
1712.000000	99.491556 
1711.000000	99.491222 
1710.000000	99.490850 
1709.000000	99.490442 
1708.000000	99.490002 
1707.000000	99.489528 
1706.000000	99.489056 
1705.000000	99.488621 
1704.000000	99.488176 
1703.000000	99.487652 
1702.000000	99.487046 
1701.000000	99.486417 
1700.000000	99.485880 
1699.000000	99.485419 
1698.000000	99.484983 
1697.000000	99.484593 
1696.000000	99.484283 
1695.000000	99.483976 
1694.000000	99.483612 
1693.000000	99.483237 
1692.000000	99.482831 
1691.000000	99.482344 
1690.000000	99.481783 
1689.000000	99.481191 
1688.000000	99.480558 
1687.000000	99.479796 
1686.000000	99.478918 
1685.000000	99.478227 
1684.000000	99.478007 
1683.000000	99.477868 
1682.000000	99.477522 
1681.000000	99.476976 
1680.000000	99.476398 
1679.000000	99.475981 
1678.000000	99.475760 
1677.000000	99.475585 
1676.000000	99.475327 
1675.000000	99.475033 
1674.000000	99.474711 
1673.000000	99.474448 
1672.000000	99.474401 
1671.000000	99.474676 
1670.000000	99.475109 
1669.000000	99.475037 
1668.000000	99.474220 
1667.000000	99.473318 
1666.000000	99.472633 
1665.000000	99.471903 
1664.000000	99.471064 
1663.000000	99.470663 
1662.000000	99.471190 
1661.000000	99.472242 
1660.000000	99.473037 
1659.000000	99.473417 
1658.000000	99.473673 
1657.000000	99.473698 
1656.000000	99.472670 
1655.000000	99.470362 
1654.000000	99.468599 
1653.000000	99.469168 
1652.000000	99.469075 
1651.000000	99.468808 
1650.000000	99.468582 
1649.000000	99.467486 
1648.000000	99.465341 
1647.000000	99.463128 
1646.000000	99.461486 
1645.000000	99.460984 
1644.000000	99.461982 
1643.000000	99.463746 
1642.000000	99.465252 
1641.000000	99.466183 
1640.000000	99.466787 
1639.000000	99.467306 
1638.000000	99.467812 
1637.000000	99.468289 
1636.000000	99.468281 
1635.000000	99.467234 
1634.000000	99.466279 
1633.000000	99.466680 
1632.000000	99.467818 
1631.000000	99.468943 
1630.000000	99.469996 
1629.000000	99.471008 
1628.000000	99.471661 
1627.000000	99.472023 
1626.000000	99.472721 
1625.000000	99.474234 
1624.000000	99.476459 
1623.000000	99.478841 
1622.000000	99.480649 
1621.000000	99.481418 
1620.000000	99.481086 
1619.000000	99.480124 
1618.000000	99.479792 
1617.000000	99.480755 
1616.000000	99.481647 
1615.000000	99.481907 
1614.000000	99.482244 
1613.000000	99.482472 
1612.000000	99.482343 
1611.000000	99.482117 
1610.000000	99.482044 
1609.000000	99.481855 
1608.000000	99.481564 
1607.000000	99.481892 
1606.000000	99.483015 
1605.000000	99.484236 
1604.000000	99.485373 
1603.000000	99.487146 
1602.000000	99.489665 
1601.000000	99.491817 
1600.000000	99.492892 
1599.000000	99.493653 
1598.000000	99.495040 
1597.000000	99.496937 
1596.000000	99.498720 
1595.000000	99.500299 
1594.000000	99.501920 
1593.000000	99.503300 
1592.000000	99.503985 
1591.000000	99.504255 
1590.000000	99.504875 
1589.000000	99.506071 
1588.000000	99.507475 
1587.000000	99.508839 
1586.000000	99.510045 
1585.000000	99.510724 
1584.000000	99.510716 
1583.000000	99.510527 
1582.000000	99.510903 
1581.000000	99.511963 
1580.000000	99.513334 
1579.000000	99.514735 
1578.000000	99.516037 
1577.000000	99.516823 
1576.000000	99.516623 
1575.000000	99.516133 
1574.000000	99.516534 
1573.000000	99.517514 
1572.000000	99.518276 
1571.000000	99.518709 
1570.000000	99.519259 
1569.000000	99.519912 
1568.000000	99.520356 
1567.000000	99.520705 
1566.000000	99.521035 
1565.000000	99.521249 
1564.000000	99.521352 
1563.000000	99.521496 
1562.000000	99.521690 
1561.000000	99.521660 
1560.000000	99.521266 
1559.000000	99.521210 
1558.000000	99.521361 
1557.000000	99.521331 
1556.000000	99.521321 
1555.000000	99.521269 
1554.000000	99.521027 
1553.000000	99.520559 
1552.000000	99.520035 
1551.000000	99.519646 
1550.000000	99.519487 
1549.000000	99.519442 
1548.000000	99.519294 
1547.000000	99.518968 
1546.000000	99.518490 
1545.000000	99.517943 
1544.000000	99.517386 
1543.000000	99.516793 
1542.000000	99.516194 
1541.000000	99.515728 
1540.000000	99.515364 
1539.000000	99.514902 
1538.000000	99.514396 
1537.000000	99.513940 
1536.000000	99.513501 
1535.000000	99.513060 
1534.000000	99.512642 
1533.000000	99.512235 
1532.000000	99.511776 
1531.000000	99.511256 
1530.000000	99.510728 
1529.000000	99.510231 
1528.000000	99.509755 
1527.000000	99.509275 
1526.000000	99.508790 
1525.000000	99.508316 
1524.000000	99.507856 
1523.000000	99.507402 
1522.000000	99.506963 
1521.000000	99.506545 
1520.000000	99.506123 
1519.000000	99.505673 
1518.000000	99.505193 
1517.000000	99.504696 
1516.000000	99.504196 
1515.000000	99.503703 
1514.000000	99.503232 
1513.000000	99.502797 
1512.000000	99.502399 
1511.000000	99.502021 
1510.000000	99.501644 
1509.000000	99.501280 
1508.000000	99.500963 
1507.000000	99.500707 
1506.000000	99.500435 
1505.000000	99.500117 
1504.000000	99.499803 
1503.000000	99.499516 
1502.000000	99.499260 
1501.000000	99.499047 
1500.000000	99.498879 
1499.000000	99.498702 
1498.000000	99.498432 
1497.000000	99.498122 
1496.000000	99.497931 
1495.000000	99.497794 
1494.000000	99.497496 
1493.000000	99.496958 
1492.000000	99.496264 
1491.000000	99.495609 
1490.000000	99.495128 
1489.000000	99.494790 
1488.000000	99.494412 
1487.000000	99.493862 
1486.000000	99.493290 
1485.000000	99.492869 
1484.000000	99.492552 
1483.000000	99.492191 
1482.000000	99.491658 
1481.000000	99.490959 
1480.000000	99.490187 
1479.000000	99.489435 
1478.000000	99.488806 
1477.000000	99.488395 
1476.000000	99.488097 
1475.000000	99.487469 
1474.000000	99.486501 
1473.000000	99.486057 
1472.000000	99.486659 
1471.000000	99.487336 
1470.000000	99.487324 
1469.000000	99.486950 
1468.000000	99.486784 
1467.000000	99.486866 
1466.000000	99.486855 
1465.000000	99.486654 
1464.000000	99.486315 
1463.000000	99.485902 
1462.000000	99.485703 
1461.000000	99.486128 
1460.000000	99.486881 
1459.000000	99.486873 
1458.000000	99.484639 
1457.000000	99.480207 
1456.000000	99.475556 
1455.000000	99.472349 
1454.000000	99.470387 
1453.000000	99.469010 
1452.000000	99.468019 
1451.000000	99.467275 
1450.000000	99.466825 
1449.000000	99.467617 
1448.000000	99.470239 
1447.000000	99.472844 
1446.000000	99.473266 
1445.000000	99.472168 
1444.000000	99.471350 
1443.000000	99.470975 
1442.000000	99.470136 
1441.000000	99.468834 
1440.000000	99.468217 
1439.000000	99.468742 
1438.000000	99.468834 
1437.000000	99.467001 
1436.000000	99.463652 
1435.000000	99.459486 
1434.000000	99.455437 
1433.000000	99.453254 
1432.000000	99.453952 
1431.000000	99.456959 
1430.000000	99.459901 
1429.000000	99.460927 
1428.000000	99.460203 
1427.000000	99.458291 
1426.000000	99.455185 
1425.000000	99.451130 
1424.000000	99.448167 
1423.000000	99.447542 
1422.000000	99.446800 
1421.000000	99.443129 
1420.000000	99.437095 
1419.000000	99.431881 
1418.000000	99.426943 
1417.000000	99.420332 
1416.000000	99.413560 
1415.000000	99.407912 
1414.000000	99.402138 
1413.000000	99.394557 
1412.000000	99.386127 
1411.000000	99.379411 
1410.000000	99.374819 
1409.000000	99.371375 
1408.000000	99.369324 
1407.000000	99.369136 
1406.000000	99.370111 
1405.000000	99.371795 
1404.000000	99.375529 
1403.000000	99.381349 
1402.000000	99.386206 
1401.000000	99.388050 
1400.000000	99.388662 
1399.000000	99.391154 
1398.000000	99.394022 
1397.000000	99.392337 
1396.000000	99.384575 
1395.000000	99.375581 
1394.000000	99.372214 
1393.000000	99.376825 
1392.000000	99.387792 
1391.000000	99.401388 
1390.000000	99.413116 
1389.000000	99.419817 
1388.000000	99.421263 
1387.000000	99.419690 
1386.000000	99.417293 
1385.000000	99.415227 
1384.000000	99.414367 
1383.000000	99.415240 
1382.000000	99.417502 
1381.000000	99.420650 
1380.000000	99.424514 
1379.000000	99.428865 
1378.000000	99.432872 
1377.000000	99.435670 
1376.000000	99.437660 
1375.000000	99.440539 
1374.000000	99.445271 
1373.000000	99.450478 
1372.000000	99.454574 
1371.000000	99.458076 
1370.000000	99.462557 
1369.000000	99.468009 
1368.000000	99.473404 
1367.000000	99.478345 
1366.000000	99.482937 
1365.000000	99.486781 
1364.000000	99.489051 
1363.000000	99.489955 
1362.000000	99.491143 
1361.000000	99.493595 
1360.000000	99.496677 
1359.000000	99.499836 
1358.000000	99.503608 
1357.000000	99.508399 
1356.000000	99.513451 
1355.000000	99.517660 
1354.000000	99.520887 
1353.000000	99.523682 
1352.000000	99.525579 
1351.000000	99.525285 
1350.000000	99.523532 
1349.000000	99.522129 
1348.000000	99.522037 
1347.000000	99.523176 
1346.000000	99.525550 
1345.000000	99.528827 
1344.000000	99.531723 
1343.000000	99.533031 
1342.000000	99.533024 
1341.000000	99.532715 
1340.000000	99.532269 
1339.000000	99.531240 
1338.000000	99.529996 
1337.000000	99.529813 
1336.000000	99.531278 
1335.000000	99.533416 
1334.000000	99.535044 
1333.000000	99.536228 
1332.000000	99.537684 
1331.000000	99.539382 
1330.000000	99.540330 
1329.000000	99.539511 
1328.000000	99.537019 
1327.000000	99.534276 
1326.000000	99.533009 
1325.000000	99.533425 
1324.000000	99.534721 
1323.000000	99.536310 
1322.000000	99.537843 
1321.000000	99.538544 
1320.000000	99.537718 
1319.000000	99.535899 
1318.000000	99.534573 
1317.000000	99.534502 
1316.000000	99.534862 
1315.000000	99.534413 
1314.000000	99.533055 
1313.000000	99.531955 
1312.000000	99.532147 
1311.000000	99.533462 
1310.000000	99.535082 
1309.000000	99.536630 
1308.000000	99.538143 
1307.000000	99.539124 
1306.000000	99.538692 
1305.000000	99.536602 
1304.000000	99.534228 
1303.000000	99.533445 
1302.000000	99.534823 
1301.000000	99.537245 
1300.000000	99.539141 
1299.000000	99.539532 
1298.000000	99.538276 
1297.000000	99.536178 
1296.000000	99.534717 
1295.000000	99.535067 
1294.000000	99.537047 
1293.000000	99.539419 
1292.000000	99.541022 
1291.000000	99.541199 
1290.000000	99.539781 
1289.000000	99.537463 
1288.000000	99.535709 
1287.000000	99.535294 
1286.000000	99.535249 
1285.000000	99.534408 
1284.000000	99.533525 
1283.000000	99.534377 
1282.000000	99.536884 
1281.000000	99.538822 
1280.000000	99.538660 
1279.000000	99.537225 
1278.000000	99.535859 
1277.000000	99.534410 
1276.000000	99.531926 
1275.000000	99.528488 
1274.000000	99.525258 
1273.000000	99.523180 
1272.000000	99.522348 
1271.000000	99.522145 
1270.000000	99.521409 
1269.000000	99.519146 
1268.000000	99.515776 
1267.000000	99.512937 
1266.000000	99.511285 
1265.000000	99.509541 
1264.000000	99.506484 
1263.000000	99.502730 
1262.000000	99.499541 
1261.000000	99.496944 
1260.000000	99.494336 
1259.000000	99.492126 
1258.000000	99.491023 
1257.000000	99.490537 
1256.000000	99.489651 
1255.000000	99.488525 
1254.000000	99.488056 
1253.000000	99.488054 
1252.000000	99.487289 
1251.000000	99.485426 
1250.000000	99.483656 
1249.000000	99.483370 
1248.000000	99.485281 
1247.000000	99.489486 
1246.000000	99.494631 
1245.000000	99.497165 
1244.000000	99.493513 
1243.000000	99.484222 
1242.000000	99.475095 
1241.000000	99.472659 
1240.000000	99.478247 
1239.000000	99.486880 
1238.000000	99.491861 
1237.000000	99.490227 
1236.000000	99.483878 
1235.000000	99.476387 
1234.000000	99.469458 
1233.000000	99.462502 
1232.000000	99.454749 
1231.000000	99.446526 
1230.000000	99.438455 
1229.000000	99.430575 
1228.000000	99.422919 
1227.000000	99.416288 
1226.000000	99.411600 
1225.000000	99.408453 
1224.000000	99.404789 
1223.000000	99.398086 
1222.000000	99.387026 
1221.000000	99.372347 
1220.000000	99.356241 
1219.000000	99.340733 
1218.000000	99.326389 
1217.000000	99.312616 
1216.000000	99.298828 
1215.000000	99.284720 
1214.000000	99.269785 
1213.000000	99.253472 
1212.000000	99.235724 
1211.000000	99.216451 
1210.000000	99.194960 
1209.000000	99.171119 
1208.000000	99.146773 
1207.000000	99.124407 
1206.000000	99.104381 
1205.000000	99.085073 
1204.000000	99.065624 
1203.000000	99.046410 
1202.000000	99.026589 
1201.000000	99.003786 
1200.000000	98.977542 
1199.000000	98.951051 
1198.000000	98.927657 
1197.000000	98.907024 
1196.000000	98.886372 
1195.000000	98.864213 
1194.000000	98.841108 
1193.000000	98.817504 
1192.000000	98.792798 
1191.000000	98.766724 
1190.000000	98.740462 
1189.000000	98.716037 
1188.000000	98.694892 
1187.000000	98.676562 
1186.000000	98.658319 
1185.000000	98.636734 
1184.000000	98.610149 
1183.000000	98.579470 
1182.000000	98.546866 
1181.000000	98.514494 
1180.000000	98.484188 
1179.000000	98.456667 
1178.000000	98.430200 
1177.000000	98.401398 
1176.000000	98.368470 
1175.000000	98.332982 
1174.000000	98.297847 
1173.000000	98.264506 
1172.000000	98.232819 
1171.000000	98.202389 
1170.000000	98.172650 
1169.000000	98.142495 
1168.000000	98.111202 
1167.000000	98.079670 
1166.000000	98.050387 
1165.000000	98.026798 
1164.000000	98.012831 
1163.000000	98.011489 
1162.000000	98.022433 
1161.000000	98.041058 
1160.000000	98.060405 
1159.000000	98.074215 
1158.000000	98.078928 
1157.000000	98.074011 
1156.000000	98.060616 
1155.000000	98.039457 
1154.000000	98.010281 
1153.000000	97.973991 
1152.000000	97.934533 
1151.000000	97.897002 
1150.000000	97.863638 
1149.000000	97.832866 
1148.000000	97.802048 
1147.000000	97.769665 
1146.000000	97.735242 
1145.000000	97.699395 
1144.000000	97.664255 
1143.000000	97.631928 
1142.000000	97.601952 
1141.000000	97.571853 
1140.000000	97.540352 
1139.000000	97.508095 
1138.000000	97.475133 
1137.000000	97.440103 
1136.000000	97.402650 
1135.000000	97.364698 
1134.000000	97.328384 
1133.000000	97.294222 
1132.000000	97.261562 
1131.000000	97.229048 
1130.000000	97.194419 
1129.000000	97.156066 
1128.000000	97.115216 
1127.000000	97.074631 
1126.000000	97.034969 
1125.000000	96.994693 
1124.000000	96.953592 
1123.000000	96.913547 
1122.000000	96.875184 
1121.000000	96.836528 
1120.000000	96.795914 
1119.000000	96.753798 
1118.000000	96.711100 
1117.000000	96.668423 
1116.000000	96.627456 
1115.000000	96.590127 
1114.000000	96.555417 
1113.000000	96.519858 
1112.000000	96.482243 
1111.000000	96.445197 
1110.000000	96.411275 
1109.000000	96.380092 
1108.000000	96.349937 
1107.000000	96.319456 
1106.000000	96.287428 
1105.000000	96.253401 
1104.000000	96.218973 
1103.000000	96.186136 
1102.000000	96.154672 
1101.000000	96.123761 
1100.000000	96.095822 
1099.000000	96.073412 
1098.000000	96.054652 
1097.000000	96.034627 
1096.000000	96.011821 
1095.000000	95.988700 
1094.000000	95.966013 
1093.000000	95.941357 
1092.000000	95.913926 
1091.000000	95.885635 
1090.000000	95.856371 
1089.000000	95.823088 
1088.000000	95.785600 
1087.000000	95.749030 
1086.000000	95.718314 
1085.000000	95.693568 
1084.000000	95.672305 
1083.000000	95.652409 
1082.000000	95.631417 
1081.000000	95.606709 
1080.000000	95.578389 
1079.000000	95.549170 
1078.000000	95.520453 
1077.000000	95.491636 
1076.000000	95.463761 
1075.000000	95.439705 
1074.000000	95.419544 
1073.000000	95.399157 
1072.000000	95.373649 
1071.000000	95.338198 
1070.000000	95.286361 
1069.000000	95.214201 
1068.000000	95.128256 
1067.000000	95.044419 
1066.000000	94.975181 
1065.000000	94.920710 
1064.000000	94.873540 
1063.000000	94.826343 
1062.000000	94.772925 
1061.000000	94.708025 
1060.000000	94.631617 
1059.000000	94.551270 
1058.000000	94.476632 
1057.000000	94.412146 
1056.000000	94.355481 
1055.000000	94.299904 
1054.000000	94.237724 
1053.000000	94.165869 
1052.000000	94.089653 
1051.000000	94.017203 
1050.000000	93.949472 
1049.000000	93.880990 
1048.000000	93.810301 
1047.000000	93.742126 
1046.000000	93.678245 
1045.000000	93.613888 
1044.000000	93.545350 
1043.000000	93.475287 
1042.000000	93.408210 
1041.000000	93.345443 
1040.000000	93.286576 
1039.000000	93.231740 
1038.000000	93.180984 
1037.000000	93.135372 
1036.000000	93.099285 
1035.000000	93.076948 
1034.000000	93.066022 
1033.000000	93.058855 
1032.000000	93.049938 
1031.000000	93.037871 
1030.000000	93.022154 
1029.000000	93.005092 
1028.000000	92.995737 
1027.000000	93.003365 
1026.000000	93.025542 
1025.000000	93.049299 
1024.000000	93.065253 
1023.000000	93.073900 
1022.000000	93.077896 
1021.000000	93.076806 
1020.000000	93.071812 
1019.000000	93.067943 
1018.000000	93.067984 
1017.000000	93.069610 
1016.000000	93.070941 
1015.000000	93.073619 
1014.000000	93.078453 
1013.000000	93.083356 
1012.000000	93.087420 
1011.000000	93.092013 
1010.000000	93.096882 
1009.000000	93.100682 
1008.000000	93.106332 
1007.000000	93.119808 
1006.000000	93.142213 
1005.000000	93.168630 
1004.000000	93.195911 
1003.000000	93.225819 
1002.000000	93.259384 
1001.000000	93.294502 
1000.000000	93.330769 
999.000000	 93.370538 
998.000000	 93.413073 
997.000000	 93.453429 
996.000000	 93.489679 
995.000000	 93.526422 
994.000000	 93.568764 
993.000000	 93.616796 
992.000000	 93.667385 
991.000000	 93.717325 
990.000000	 93.763947 
989.000000	 93.806979 
988.000000	 93.850675 
987.000000	 93.900082 
986.000000	 93.954999 
985.000000	 94.011942 
984.000000	 94.071533 
983.000000	 94.138381 
982.000000	 94.213535 
981.000000	 94.292643 
980.000000	 94.372086 
979.000000	 94.451665 
978.000000	 94.531011 
977.000000	 94.609511 
976.000000	 94.690600 
975.000000	 94.779708 
974.000000	 94.875968 
973.000000	 94.971404 
972.000000	 95.060394 
971.000000	 95.145097 
970.000000	 95.229833 
969.000000	 95.315264 
968.000000	 95.400462 
967.000000	 95.485946 
966.000000	 95.571324 
965.000000	 95.653242 
964.000000	 95.728646 
963.000000	 95.798208 
962.000000	 95.864954 
961.000000	 95.931507 
960.000000	 95.999457 
959.000000	 96.068631 
958.000000	 96.135874 
957.000000	 96.197221 
956.000000	 96.252441 
955.000000	 96.305274 
954.000000	 96.358415 
953.000000	 96.410452 
952.000000	 96.458293 
951.000000	 96.500219 
950.000000	 96.536192 
949.000000	 96.567764 
948.000000	 96.598500 
947.000000	 96.632156 
946.000000	 96.669347 
945.000000	 96.707572 
944.000000	 96.744454 
943.000000	 96.778801 
942.000000	 96.808893 
941.000000	 96.832792 
940.000000	 96.850997 
939.000000	 96.866595 
938.000000	 96.882263 
937.000000	 96.898859 
936.000000	 96.916758 
935.000000	 96.936103 
934.000000	 96.955729 
933.000000	 96.974196 
932.000000	 96.992019 
931.000000	 97.010944 
930.000000	 97.031473 
929.000000	 97.053186 
928.000000	 97.076390 
927.000000	 97.100706 
926.000000	 97.123253 
925.000000	 97.141500 
924.000000	 97.156863 
923.000000	 97.171834 
922.000000	 97.184661 
921.000000	 97.191435 
920.000000	 97.193174 
919.000000	 97.196073 
918.000000	 97.203854 
917.000000	 97.214076 
916.000000	 97.223079 
915.000000	 97.230865 
914.000000	 97.239986 
913.000000	 97.253373 
912.000000	 97.274623 
911.000000	 97.306293 
910.000000	 97.345723 
909.000000	 97.385838 
908.000000	 97.422348 
907.000000	 97.457761 
906.000000	 97.496997 
905.000000	 97.541882 
904.000000	 97.591418 
903.000000	 97.644812 
902.000000	 97.702160 
901.000000	 97.763341 
900.000000	 97.827302 
899.000000	 97.891615 
898.000000	 97.953015 
897.000000	 98.009781 
896.000000	 98.063131 
895.000000	 98.114650 
894.000000	 98.163255 
893.000000	 98.206947 
892.000000	 98.246832 
891.000000	 98.286662 
890.000000	 98.328441 
889.000000	 98.371118 
888.000000	 98.413674 
887.000000	 98.456319 
886.000000	 98.497755 
885.000000	 98.534188 
884.000000	 98.563098 
883.000000	 98.586712 
882.000000	 98.610248 
881.000000	 98.637396 
880.000000	 98.668736 
879.000000	 98.703691 
878.000000	 98.741871 
877.000000	 98.781454 
876.000000	 98.817139 
875.000000	 98.842290 
874.000000	 98.855667 
873.000000	 98.865614 
872.000000	 98.884646 
871.000000	 98.918248 
870.000000	 98.960054 
869.000000	 98.998664 
868.000000	 99.027744 
867.000000	 99.049212 
866.000000	 99.069441 
865.000000	 99.094003 
864.000000	 99.124413 
863.000000	 99.157985 
862.000000	 99.190995 
861.000000	 99.222082 
860.000000	 99.251490 
859.000000	 99.278131 
858.000000	 99.301080 
857.000000	 99.324107 
856.000000	 99.353682 
855.000000	 99.389813 
854.000000	 99.423020 
853.000000	 99.444353 
852.000000	 99.455443 
851.000000	 99.465090 
850.000000	 99.478357 
849.000000	 99.492984 
848.000000	 99.504781 
847.000000	 99.512154 
846.000000	 99.516289 
845.000000	 99.520713 
844.000000	 99.529898 
843.000000	 99.544373 
842.000000	 99.557266 
841.000000	 99.559338 
840.000000	 99.548267 
839.000000	 99.531205 
838.000000	 99.518094 
837.000000	 99.513317 
836.000000	 99.513101 
835.000000	 99.509768 
834.000000	 99.499756 
833.000000	 99.488472 
832.000000	 99.484732 
831.000000	 99.488987 
830.000000	 99.491257 
829.000000	 99.484660 
828.000000	 99.476480 
827.000000	 99.478919 
826.000000	 99.491470 
825.000000	 99.501608 
824.000000	 99.503090 
823.000000	 99.503637 
822.000000	 99.511830 
821.000000	 99.525124 
820.000000	 99.534728 
819.000000	 99.535585 
818.000000	 99.528317 
817.000000	 99.516023 
816.000000	 99.501645 
815.000000	 99.485270 
814.000000	 99.461930 
813.000000	 99.424561 
812.000000	 99.370581 
811.000000	 99.303244 
810.000000	 99.225316 
809.000000	 99.133965 
808.000000	 99.023745 
807.000000	 98.892571 
806.000000	 98.743325 
805.000000	 98.582052 
804.000000	 98.417410 
803.000000	 98.260689 
802.000000	 98.123216 
801.000000	 98.013090 
800.000000	 97.934137 
799.000000	 97.886034 
798.000000	 97.865345 
797.000000	 97.868768 
796.000000	 97.894824 
795.000000	 97.939939 
794.000000	 97.995122 
793.000000	 98.050596 
792.000000	 98.101537 
791.000000	 98.144900 
790.000000	 98.173799 
789.000000	 98.181769 
788.000000	 98.171454 
787.000000	 98.152316 
786.000000	 98.129187 
785.000000	 98.098595 
784.000000	 98.057260 
783.000000	 98.008540 
782.000000	 97.958973 
781.000000	 97.913951 
780.000000	 97.878792 
779.000000	 97.858870 
778.000000	 97.855928 
777.000000	 97.868495 
776.000000	 97.897316 
775.000000	 97.944931 
774.000000	 98.007692 
773.000000	 98.073805 
772.000000	 98.132986 
771.000000	 98.184368 
770.000000	 98.232029 
769.000000	 98.276488 
768.000000	 98.314334 
767.000000	 98.343936 
766.000000	 98.367764 
765.000000	 98.389312 
764.000000	 98.409652 
763.000000	 98.426668 
762.000000	 98.437236 
761.000000	 98.441619 
760.000000	 98.446207 
759.000000	 98.459570 
758.000000	 98.484174 
757.000000	 98.513670 
756.000000	 98.539874 
755.000000	 98.561014 
754.000000	 98.581761 
753.000000	 98.606548 
752.000000	 98.635120 
751.000000	 98.664115 
750.000000	 98.690618 
749.000000	 98.713094 
748.000000	 98.730528 
747.000000	 98.743745 
746.000000	 98.758461 
745.000000	 98.783305 
744.000000	 98.820731 
743.000000	 98.861359 
742.000000	 98.892442 
741.000000	 98.912438 
740.000000	 98.932350 
739.000000	 98.961734 
738.000000	 98.998285 
737.000000	 99.033266 
736.000000	 99.062227 
735.000000	 99.087031 
734.000000	 99.111540 
733.000000	 99.139090 
732.000000	 99.170722 
731.000000	 99.201618 
730.000000	 99.222344 
729.000000	 99.227770 
728.000000	 99.224234 
727.000000	 99.223565 
726.000000	 99.230278 
725.000000	 99.240886 
724.000000	 99.253712 
723.000000	 99.271533 
722.000000	 99.294132 
721.000000	 99.315252 
720.000000	 99.329616 
719.000000	 99.338311 
718.000000	 99.344777 
717.000000	 99.350250 
716.000000	 99.355144 
715.000000	 99.360773 
714.000000	 99.367549 
713.000000	 99.373888 
712.000000	 99.379166 
711.000000	 99.385133 
710.000000	 99.393251 
709.000000	 99.401904 
708.000000	 99.406686 
707.000000	 99.404417 
706.000000	 99.394826 
705.000000	 99.381001 
704.000000	 99.367855 
703.000000	 99.355636 
702.000000	 99.337052 
701.000000	 99.303607 
700.000000	 99.251888 
699.000000	 99.183928 
698.000000	 99.103029 
697.000000	 99.015349 
696.000000	 98.935040 
695.000000	 98.879128 
694.000000	 98.858697 
693.000000	 98.875450 
692.000000	 98.921845 
691.000000	 98.982722 
690.000000	 99.038863 
689.000000	 99.078720 
688.000000	 99.107510 
687.000000	 99.138180 
686.000000	 99.176370 
685.000000	 99.216929 
684.000000	 99.251344 
683.000000	 99.275343 
682.000000	 99.291176 
681.000000	 99.306821 
680.000000	 99.329931 
679.000000	 99.359043 
678.000000	 99.382358 
677.000000	 99.387121 
676.000000	 99.377156 
675.000000	 99.373289 
674.000000	 99.389704 
673.000000	 99.419342 
672.000000	 99.449741 
671.000000	 99.482774 
670.000000	 99.531805 
669.000000	 99.593935 
668.000000	 99.618525 
667.000000	 99.580289 
666.000000	 99.538544 
665.000000	 99.518426 
664.000000	 99.509131 
663.000000	 99.503817 
662.000000	 99.502892 
661.000000	 99.509439 
660.000000	 99.528274 
659.000000	 99.558483 
658.000000	 99.583526 
657.000000	 99.580755 
656.000000	 99.551126 
655.000000	 99.523730 
654.000000	 99.519002 
653.000000	 99.525557 
652.000000	 99.526083 
651.000000	 99.520521 
650.000000	 99.516069 

