4000.000000	98.837704 
3999.000000	98.839450 
3998.000000	98.840655 
3997.000000	98.841538 
3996.000000	98.841539 
3995.000000	98.839889 
3994.000000	98.837103 
3993.000000	98.835084 
3992.000000	98.835183 
3991.000000	98.836556 
3990.000000	98.837284 
3989.000000	98.837017 
3988.000000	98.837693 
3987.000000	98.841252 
3986.000000	98.847033 
3985.000000	98.851705 
3984.000000	98.851819 
3983.000000	98.846695 
3982.000000	98.839056 
3981.000000	98.832674 
3980.000000	98.829033 
3979.000000	98.826457 
3978.000000	98.822691 
3977.000000	98.818031 
3976.000000	98.815529 
3975.000000	98.818159 
3974.000000	98.826147 
3973.000000	98.836898 
3972.000000	98.846769 
3971.000000	98.852754 
3970.000000	98.853501 
3969.000000	98.849972 
3968.000000	98.845148 
3967.000000	98.842261 
3966.000000	98.842812 
3965.000000	98.846033 
3964.000000	98.849930 
3963.000000	98.852575 
3962.000000	98.852706 
3961.000000	98.850031 
3960.000000	98.845416 
3959.000000	98.840497 
3958.000000	98.836624 
3957.000000	98.834113 
3956.000000	98.832638 
3955.000000	98.832021 
3954.000000	98.832556 
3953.000000	98.834428 
3952.000000	98.836922 
3951.000000	98.838580 
3950.000000	98.838494 
3949.000000	98.837275 
3948.000000	98.836090 
3947.000000	98.834938 
3946.000000	98.832800 
3945.000000	98.829376 
3944.000000	98.825589 
3943.000000	98.822301 
3942.000000	98.819761 
3941.000000	98.818680 
3940.000000	98.820244 
3939.000000	98.824285 
3938.000000	98.828250 
3937.000000	98.829144 
3936.000000	98.826877 
3935.000000	98.824636 
3934.000000	98.825646 
3933.000000	98.829975 
3932.000000	98.834726 
3931.000000	98.836901 
3930.000000	98.835045 
3929.000000	98.829070 
3928.000000	98.820580 
3927.000000	98.813721 
3926.000000	98.813079 
3925.000000	98.818880 
3924.000000	98.826608 
3923.000000	98.832595 
3922.000000	98.837393 
3921.000000	98.842955 
3920.000000	98.848910 
3919.000000	98.853356 
3918.000000	98.855788 
3917.000000	98.857230 
3916.000000	98.858135 
3915.000000	98.858344 
3914.000000	98.858280 
3913.000000	98.858926 
3912.000000	98.860670 
3911.000000	98.863186 
3910.000000	98.866407 
3909.000000	98.870379 
3908.000000	98.874476 
3907.000000	98.876836 
3906.000000	98.875191 
3905.000000	98.867524 
3904.000000	98.853239 
3903.000000	98.835614 
3902.000000	98.821444 
3901.000000	98.816907 
3900.000000	98.822983 
3899.000000	98.835527 
3898.000000	98.849584 
3897.000000	98.862294 
3896.000000	98.871287 
3895.000000	98.873776 
3894.000000	98.868622 
3893.000000	98.858766 
3892.000000	98.848811 
3891.000000	98.840239 
3890.000000	98.831978 
3889.000000	98.823965 
3888.000000	98.819348 
3887.000000	98.821554 
3886.000000	98.827293 
3885.000000	98.829227 
3884.000000	98.826312 
3883.000000	98.824426 
3882.000000	98.828592 
3881.000000	98.836755 
3880.000000	98.842109 
3879.000000	98.842602 
3878.000000	98.842431 
3877.000000	98.845967 
3876.000000	98.854257 
3875.000000	98.863049 
3874.000000	98.864547 
3873.000000	98.855823 
3872.000000	98.844379 
3871.000000	98.840752 
3870.000000	98.844373 
3869.000000	98.846227 
3868.000000	98.844198 
3867.000000	98.845453 
3866.000000	98.855172 
3865.000000	98.867607 
3864.000000	98.871994 
3863.000000	98.866770 
3862.000000	98.859333 
3861.000000	98.855194 
3860.000000	98.854015 
3859.000000	98.852633 
3858.000000	98.848553 
3857.000000	98.841514 
3856.000000	98.836041 
3855.000000	98.841722 
3854.000000	98.857261 
3853.000000	98.867662 
3852.000000	98.869686 
3851.000000	98.871081 
3850.000000	98.874786 
3849.000000	98.878173 
3848.000000	98.877568 
3847.000000	98.872296 
3846.000000	98.864594 
3845.000000	98.857164 
3844.000000	98.851189 
3843.000000	98.846174 
3842.000000	98.842161 
3841.000000	98.842244 
3840.000000	98.850530 
3839.000000	98.865730 
3838.000000	98.880489 
3837.000000	98.888551 
3836.000000	98.890216 
3835.000000	98.890116 
3834.000000	98.893082 
3833.000000	98.900912 
3832.000000	98.910245 
3831.000000	98.915588 
3830.000000	98.914739 
3829.000000	98.910265 
3828.000000	98.906041 
3827.000000	98.902502 
3826.000000	98.896161 
3825.000000	98.885263 
3824.000000	98.874497 
3823.000000	98.872817 
3822.000000	98.881451 
3821.000000	98.886212 
3820.000000	98.877443 
3819.000000	98.864423 
3818.000000	98.863336 
3817.000000	98.878991 
3816.000000	98.895470 
3815.000000	98.895456 
3814.000000	98.882833 
3813.000000	98.872691 
3812.000000	98.871349 
3811.000000	98.873087 
3810.000000	98.870790 
3809.000000	98.866128 
3808.000000	98.865119 
3807.000000	98.865380 
3806.000000	98.858369 
3805.000000	98.842839 
3804.000000	98.828770 
3803.000000	98.829842 
3802.000000	98.845417 
3801.000000	98.858177 
3800.000000	98.859770 
3799.000000	98.858368 
3798.000000	98.863409 
3797.000000	98.874602 
3796.000000	98.883269 
3795.000000	98.883277 
3794.000000	98.876597 
3793.000000	98.868368 
3792.000000	98.861929 
3791.000000	98.859238 
3790.000000	98.861592 
3789.000000	98.867654 
3788.000000	98.873142 
3787.000000	98.875035 
3786.000000	98.874714 
3785.000000	98.875033 
3784.000000	98.875447 
3783.000000	98.873449 
3782.000000	98.869998 
3781.000000	98.870569 
3780.000000	98.878454 
3779.000000	98.889087 
3778.000000	98.894869 
3777.000000	98.893234 
3776.000000	98.887208 
3775.000000	98.880120 
3774.000000	98.872833 
3773.000000	98.866270 
3772.000000	98.863505 
3771.000000	98.865672 
3770.000000	98.867875 
3769.000000	98.865024 
3768.000000	98.859397 
3767.000000	98.857782 
3766.000000	98.862762 
3765.000000	98.869271 
3764.000000	98.870753 
3763.000000	98.867061 
3762.000000	98.863723 
3761.000000	98.865245 
3760.000000	98.871288 
3759.000000	98.879870 
3758.000000	98.890188 
3757.000000	98.899232 
3756.000000	98.901452 
3755.000000	98.894244 
3754.000000	98.882059 
3753.000000	98.873918 
3752.000000	98.876016 
3751.000000	98.886128 
3750.000000	98.896717 
3749.000000	98.901827 
3748.000000	98.900634 
3747.000000	98.899538 
3746.000000	98.909662 
3745.000000	98.926766 
3744.000000	98.928382 
3743.000000	98.909876 
3742.000000	98.888660 
3741.000000	98.877016 
3740.000000	98.872961 
3739.000000	98.867794 
3738.000000	98.858347 
3737.000000	98.848938 
3736.000000	98.843204 
3735.000000	98.840965 
3734.000000	98.843132 
3733.000000	98.850860 
3732.000000	98.859464 
3731.000000	98.861617 
3730.000000	98.855839 
3729.000000	98.847991 
3728.000000	98.844966 
3727.000000	98.847231 
3726.000000	98.849536 
3725.000000	98.849360 
3724.000000	98.849309 
3723.000000	98.851725 
3722.000000	98.855492 
3721.000000	98.858475 
3720.000000	98.859750 
3719.000000	98.859090 
3718.000000	98.855722 
3717.000000	98.847523 
3716.000000	98.832404 
3715.000000	98.810507 
3714.000000	98.785438 
3713.000000	98.763800 
3712.000000	98.750730 
3711.000000	98.744344 
3710.000000	98.736199 
3709.000000	98.718702 
3708.000000	98.691959 
3707.000000	98.662589 
3706.000000	98.637509 
3705.000000	98.619510 
3704.000000	98.606782 
3703.000000	98.594872 
3702.000000	98.579454 
3701.000000	98.559259 
3700.000000	98.536732 
3699.000000	98.515714 
3698.000000	98.498993 
3697.000000	98.486775 
3696.000000	98.477400 
3695.000000	98.470410 
3694.000000	98.466538 
3693.000000	98.465034 
3692.000000	98.463674 
3691.000000	98.461959 
3690.000000	98.460992 
3689.000000	98.459332 
3688.000000	98.454772 
3687.000000	98.448506 
3686.000000	98.444177 
3685.000000	98.444375 
3684.000000	98.447580 
3683.000000	98.448400 
3682.000000	98.442703 
3681.000000	98.430339 
3680.000000	98.411445 
3679.000000	98.385209 
3678.000000	98.355960 
3677.000000	98.336370 
3676.000000	98.329988 
3675.000000	98.322431 
3674.000000	98.303612 
3673.000000	98.278008 
3672.000000	98.255803 
3671.000000	98.242298 
3670.000000	98.230779 
3669.000000	98.214323 
3668.000000	98.196700 
3667.000000	98.182947 
3666.000000	98.171486 
3665.000000	98.156965 
3664.000000	98.135945 
3663.000000	98.109698 
3662.000000	98.082244 
3661.000000	98.055638 
3660.000000	98.028651 
3659.000000	97.999966 
3658.000000	97.971499 
3657.000000	97.946504 
3656.000000	97.925360 
3655.000000	97.906837 
3654.000000	97.890031 
3653.000000	97.873523 
3652.000000	97.854551 
3651.000000	97.828944 
3650.000000	97.794156 
3649.000000	97.755976 
3648.000000	97.725021 
3647.000000	97.704497 
3646.000000	97.689621 
3645.000000	97.676058 
3644.000000	97.663062 
3643.000000	97.651123 
3642.000000	97.640149 
3641.000000	97.629907 
3640.000000	97.620601 
3639.000000	97.610699 
3638.000000	97.595832 
3637.000000	97.572435 
3636.000000	97.542058 
3635.000000	97.510120 
3634.000000	97.479674 
3633.000000	97.449143 
3632.000000	97.416125 
3631.000000	97.382373 
3630.000000	97.352000 
3629.000000	97.323436 
3628.000000	97.295700 
3627.000000	97.276002 
3626.000000	97.270120 
3625.000000	97.275475 
3624.000000	97.283464 
3623.000000	97.285140 
3622.000000	97.278094 
3621.000000	97.268691 
3620.000000	97.266802 
3619.000000	97.277609 
3618.000000	97.299349 
3617.000000	97.327920 
3616.000000	97.361456 
3615.000000	97.399708 
3614.000000	97.439595 
3613.000000	97.475094 
3612.000000	97.503751 
3611.000000	97.529786 
3610.000000	97.557741 
3609.000000	97.585065 
3608.000000	97.604411 
3607.000000	97.613991 
3606.000000	97.621031 
3605.000000	97.633499 
3604.000000	97.653099 
3603.000000	97.676136 
3602.000000	97.698445 
3601.000000	97.717726 
3600.000000	97.732970 
3599.000000	97.744063 
3598.000000	97.751598 
3597.000000	97.756697 
3596.000000	97.761597 
3595.000000	97.769396 
3594.000000	97.781623 
3593.000000	97.796442 
3592.000000	97.809122 
3591.000000	97.815071 
3590.000000	97.813282 
3589.000000	97.807121 
3588.000000	97.800840 
3587.000000	97.796153 
3586.000000	97.793978 
3585.000000	97.796276 
3584.000000	97.804123 
3583.000000	97.815460 
3582.000000	97.825718 
3581.000000	97.831056 
3580.000000	97.830838 
3579.000000	97.826871 
3578.000000	97.820563 
3577.000000	97.811802 
3576.000000	97.800606 
3575.000000	97.788786 
3574.000000	97.778927 
3573.000000	97.772043 
3572.000000	97.766699 
3571.000000	97.760127 
3570.000000	97.750490 
3569.000000	97.738546 
3568.000000	97.727152 
3567.000000	97.718938 
3566.000000	97.715160 
3565.000000	97.715794 
3564.000000	97.719707 
3563.000000	97.725191 
3562.000000	97.730312 
3561.000000	97.733180 
3560.000000	97.732803 
3559.000000	97.730060 
3558.000000	97.727125 
3557.000000	97.724950 
3556.000000	97.721663 
3555.000000	97.714431 
3554.000000	97.702962 
3553.000000	97.690382 
3552.000000	97.680651 
3551.000000	97.675421 
3550.000000	97.673000 
3549.000000	97.669488 
3548.000000	97.661249 
3547.000000	97.647948 
3546.000000	97.633427 
3545.000000	97.622296 
3544.000000	97.615876 
3543.000000	97.612933 
3542.000000	97.613435 
3541.000000	97.619110 
3540.000000	97.629749 
3539.000000	97.640490 
3538.000000	97.644640 
3537.000000	97.639503 
3536.000000	97.629021 
3535.000000	97.620113 
3534.000000	97.616786 
3533.000000	97.618135 
3532.000000	97.621116 
3531.000000	97.624021 
3530.000000	97.626796 
3529.000000	97.628764 
3528.000000	97.627714 
3527.000000	97.622544 
3526.000000	97.615750 
3525.000000	97.611507 
3524.000000	97.611260 
3523.000000	97.612448 
3522.000000	97.611881 
3521.000000	97.609099 
3520.000000	97.605998 
3519.000000	97.604285 
3518.000000	97.604010 
3517.000000	97.603730 
3516.000000	97.601271 
3515.000000	97.594703 
3514.000000	97.583605 
3513.000000	97.569914 
3512.000000	97.557284 
3511.000000	97.549482 
3510.000000	97.548809 
3509.000000	97.554942 
3508.000000	97.564688 
3507.000000	97.573585 
3506.000000	97.578588 
3505.000000	97.579132 
3504.000000	97.575810 
3503.000000	97.569584 
3502.000000	97.563422 
3501.000000	97.562741 
3500.000000	97.570769 
3499.000000	97.582892 
3498.000000	97.587849 
3497.000000	97.577099 
3496.000000	97.553533 
3495.000000	97.529278 
3494.000000	97.514713 
3493.000000	97.510883 
3492.000000	97.512334 
3491.000000	97.514597 
3490.000000	97.517231 
3489.000000	97.520964 
3488.000000	97.524427 
3487.000000	97.524901 
3486.000000	97.521188 
3485.000000	97.514379 
3484.000000	97.506281 
3483.000000	97.498360 
3482.000000	97.492059 
3481.000000	97.488539 
3480.000000	97.486935 
3479.000000	97.483809 
3478.000000	97.476117 
3477.000000	97.465061 
3476.000000	97.455997 
3475.000000	97.453759 
3474.000000	97.458197 
3473.000000	97.464588 
3472.000000	97.467688 
3471.000000	97.464869 
3470.000000	97.456496 
3469.000000	97.444916 
3468.000000	97.433267 
3467.000000	97.423930 
3466.000000	97.417306 
3465.000000	97.412210 
3464.000000	97.407503 
3463.000000	97.403085 
3462.000000	97.399506 
3461.000000	97.397224 
3460.000000	97.396372 
3459.000000	97.396645 
3458.000000	97.397227 
3457.000000	97.397142 
3456.000000	97.395691 
3455.000000	97.392343 
3454.000000	97.386588 
3453.000000	97.378566 
3452.000000	97.369591 
3451.000000	97.361219 
3450.000000	97.353490 
3449.000000	97.344971 
3448.000000	97.335077 
3447.000000	97.325762 
3446.000000	97.320027 
3445.000000	97.318690 
3444.000000	97.319432 
3443.000000	97.319003 
3442.000000	97.315788 
3441.000000	97.310340 
3440.000000	97.304092 
3439.000000	97.297905 
3438.000000	97.291524 
3437.000000	97.284033 
3436.000000	97.275033 
3435.000000	97.265743 
3434.000000	97.258815 
3433.000000	97.256374 
3432.000000	97.257758 
3431.000000	97.259457 
3430.000000	97.257736 
3429.000000	97.251617 
3428.000000	97.243527 
3427.000000	97.236999 
3426.000000	97.233569 
3425.000000	97.231592 
3424.000000	97.227943 
3423.000000	97.221019 
3422.000000	97.212334 
3421.000000	97.205356 
3420.000000	97.202801 
3419.000000	97.204821 
3418.000000	97.209412 
3417.000000	97.214259 
3416.000000	97.218118 
3415.000000	97.220707 
3414.000000	97.221701 
3413.000000	97.220346 
3412.000000	97.216243 
3411.000000	97.210147 
3410.000000	97.203443 
3409.000000	97.196812 
3408.000000	97.189862 
3407.000000	97.182204 
3406.000000	97.174531 
3405.000000	97.168248 
3404.000000	97.164196 
3403.000000	97.161913 
3402.000000	97.160271 
3401.000000	97.158929 
3400.000000	97.158988 
3399.000000	97.161783 
3398.000000	97.166836 
3397.000000	97.171481 
3396.000000	97.172926 
3395.000000	97.170361 
3394.000000	97.164762 
3393.000000	97.157395 
3392.000000	97.149457 
3391.000000	97.142826 
3390.000000	97.140040 
3389.000000	97.143065 
3388.000000	97.152266 
3387.000000	97.166100 
3386.000000	97.181027 
3385.000000	97.192346 
3384.000000	97.196791 
3383.000000	97.195005 
3382.000000	97.190692 
3381.000000	97.187006 
3380.000000	97.184407 
3379.000000	97.182022 
3378.000000	97.179792 
3377.000000	97.178535 
3376.000000	97.178771 
3375.000000	97.180485 
3374.000000	97.183656 
3373.000000	97.188195 
3372.000000	97.193426 
3371.000000	97.198109 
3370.000000	97.201000 
3369.000000	97.201364 
3368.000000	97.199588 
3367.000000	97.197707 
3366.000000	97.198691 
3365.000000	97.204143 
3364.000000	97.212533 
3363.000000	97.220140 
3362.000000	97.223965 
3361.000000	97.223765 
3360.000000	97.221623 
3359.000000	97.219906 
3358.000000	97.219488 
3357.000000	97.219673 
3356.000000	97.219687 
3355.000000	97.219948 
3354.000000	97.221385 
3353.000000	97.223784 
3352.000000	97.225860 
3351.000000	97.227347 
3350.000000	97.230050 
3349.000000	97.235937 
3348.000000	97.244578 
3347.000000	97.253246 
3346.000000	97.259331 
3345.000000	97.262090 
3344.000000	97.262545 
3343.000000	97.262559 
3342.000000	97.263804 
3341.000000	97.266674 
3340.000000	97.269954 
3339.000000	97.272082 
3338.000000	97.272802 
3337.000000	97.273137 
3336.000000	97.273852 
3335.000000	97.274688 
3334.000000	97.275264 
3333.000000	97.275926 
3332.000000	97.277062 
3331.000000	97.277843 
3330.000000	97.276309 
3329.000000	97.271243 
3328.000000	97.264190 
3327.000000	97.259366 
3326.000000	97.260721 
3325.000000	97.268482 
3324.000000	97.278776 
3323.000000	97.287117 
3322.000000	97.292203 
3321.000000	97.296271 
3320.000000	97.302462 
3319.000000	97.312352 
3318.000000	97.325151 
3317.000000	97.337863 
3316.000000	97.346276 
3315.000000	97.347487 
3314.000000	97.342679 
3313.000000	97.337035 
3312.000000	97.336099 
3311.000000	97.341861 
3310.000000	97.351913 
3309.000000	97.361509 
3308.000000	97.366397 
3307.000000	97.365188 
3306.000000	97.360600 
3305.000000	97.358129 
3304.000000	97.361860 
3303.000000	97.370582 
3302.000000	97.378421 
3301.000000	97.379938 
3300.000000	97.374617 
3299.000000	97.366612 
3298.000000	97.361123 
3297.000000	97.361546 
3296.000000	97.368780 
3295.000000	97.381103 
3294.000000	97.394175 
3293.000000	97.403119 
3292.000000	97.406524 
3291.000000	97.408079 
3290.000000	97.412755 
3289.000000	97.421212 
3288.000000	97.429072 
3287.000000	97.431846 
3286.000000	97.429425 
3285.000000	97.425161 
3284.000000	97.421820 
3283.000000	97.419781 
3282.000000	97.418721 
3281.000000	97.419488 
3280.000000	97.423511 
3279.000000	97.430866 
3278.000000	97.439645 
3277.000000	97.447249 
3276.000000	97.451894 
3275.000000	97.452818 
3274.000000	97.449832 
3273.000000	97.443845 
3272.000000	97.437854 
3271.000000	97.435999 
3270.000000	97.440277 
3269.000000	97.448424 
3268.000000	97.455988 
3267.000000	97.460353 
3266.000000	97.462098 
3265.000000	97.463296 
3264.000000	97.466167 
3263.000000	97.472936 
3262.000000	97.484292 
3261.000000	97.496977 
3260.000000	97.505149 
3259.000000	97.506168 
3258.000000	97.503985 
3257.000000	97.504913 
3256.000000	97.510655 
3255.000000	97.517372 
3254.000000	97.521171 
3253.000000	97.522365 
3252.000000	97.524006 
3251.000000	97.528146 
3250.000000	97.534436 
3249.000000	97.541017 
3248.000000	97.545755 
3247.000000	97.547644 
3246.000000	97.548073 
3245.000000	97.549981 
3244.000000	97.554629 
3243.000000	97.559586 
3242.000000	97.561099 
3241.000000	97.558431 
3240.000000	97.554989 
3239.000000	97.555035 
3238.000000	97.560205 
3237.000000	97.569407 
3236.000000	97.580730 
3235.000000	97.592091 
3234.000000	97.600800 
3233.000000	97.604649 
3232.000000	97.604229 
3231.000000	97.602779 
3230.000000	97.602599 
3229.000000	97.602654 
3228.000000	97.601110 
3227.000000	97.599343 
3226.000000	97.601167 
3225.000000	97.607916 
3224.000000	97.616524 
3223.000000	97.623480 
3222.000000	97.628757 
3221.000000	97.634144 
3220.000000	97.639130 
3219.000000	97.641217 
3218.000000	97.640529 
3217.000000	97.641697 
3216.000000	97.649560 
3215.000000	97.663689 
3214.000000	97.678343 
3213.000000	97.687706 
3212.000000	97.690427 
3211.000000	97.689369 
3210.000000	97.688395 
3209.000000	97.690048 
3208.000000	97.695100 
3207.000000	97.702370 
3206.000000	97.708644 
3205.000000	97.710393 
3204.000000	97.707111 
3203.000000	97.702451 
3202.000000	97.700892 
3201.000000	97.703550 
3200.000000	97.708214 
3199.000000	97.712763 
3198.000000	97.716795 
3197.000000	97.720313 
3196.000000	97.723342 
3195.000000	97.727597 
3194.000000	97.735945 
3193.000000	97.748254 
3192.000000	97.759430 
3191.000000	97.764035 
3190.000000	97.762411 
3189.000000	97.760372 
3188.000000	97.763129 
3187.000000	97.771098 
3186.000000	97.781229 
3185.000000	97.790256 
3184.000000	97.796245 
3183.000000	97.798870 
3182.000000	97.799399 
3181.000000	97.799674 
3180.000000	97.800490 
3179.000000	97.801635 
3178.000000	97.803734 
3177.000000	97.808959 
3176.000000	97.819186 
3175.000000	97.834033 
3174.000000	97.851075 
3173.000000	97.867248 
3172.000000	97.879779 
3171.000000	97.886932 
3170.000000	97.889034 
3169.000000	97.888502 
3168.000000	97.887848 
3167.000000	97.887415 
3166.000000	97.885545 
3165.000000	97.881158 
3164.000000	97.875844 
3163.000000	97.873197 
3162.000000	97.876229 
3161.000000	97.885493 
3160.000000	97.899261 
3159.000000	97.914539 
3158.000000	97.927394 
3157.000000	97.933417 
3156.000000	97.930135 
3155.000000	97.919968 
3154.000000	97.909491 
3153.000000	97.904161 
3152.000000	97.904006 
3151.000000	97.905609 
3150.000000	97.907771 
3149.000000	97.913379 
3148.000000	97.925156 
3147.000000	97.940912 
3146.000000	97.954118 
3145.000000	97.959207 
3144.000000	97.956329 
3143.000000	97.951321 
3142.000000	97.951059 
3141.000000	97.958197 
3140.000000	97.969816 
3139.000000	97.980638 
3138.000000	97.987015 
3137.000000	97.988345 
3136.000000	97.986423 
3135.000000	97.984539 
3134.000000	97.985728 
3133.000000	97.989876 
3132.000000	97.993073 
3131.000000	97.991965 
3130.000000	97.988851 
3129.000000	97.990411 
3128.000000	98.000486 
3127.000000	98.015524 
3126.000000	98.028177 
3125.000000	98.034373 
3124.000000	98.035882 
3123.000000	98.036925 
3122.000000	98.039714 
3121.000000	98.043397 
3120.000000	98.046528 
3119.000000	98.049653 
3118.000000	98.054666 
3117.000000	98.061563 
3116.000000	98.067161 
3115.000000	98.068326 
3114.000000	98.065666 
3113.000000	98.062485 
3112.000000	98.060757 
3111.000000	98.060123 
3110.000000	98.060317 
3109.000000	98.061659 
3108.000000	98.062726 
3107.000000	98.060702 
3106.000000	98.055759 
3105.000000	98.052527 
3104.000000	98.054864 
3103.000000	98.060882 
3102.000000	98.065604 
3101.000000	98.067491 
3100.000000	98.070043 
3099.000000	98.077416 
3098.000000	98.090431 
3097.000000	98.106275 
3096.000000	98.119963 
3095.000000	98.126512 
3094.000000	98.124226 
3093.000000	98.116790 
3092.000000	98.111041 
3091.000000	98.111947 
3090.000000	98.119586 
3089.000000	98.129978 
3088.000000	98.137892 
3087.000000	98.140137 
3086.000000	98.138310 
3085.000000	98.138083 
3084.000000	98.143689 
3083.000000	98.152666 
3082.000000	98.157638 
3081.000000	98.153998 
3080.000000	98.144825 
3079.000000	98.137740 
3078.000000	98.138086 
3077.000000	98.145730 
3076.000000	98.157319 
3075.000000	98.170179 
3074.000000	98.183600 
3073.000000	98.196701 
3072.000000	98.205977 
3071.000000	98.206746 
3070.000000	98.198054 
3069.000000	98.185071 
3068.000000	98.174973 
3067.000000	98.170829 
3066.000000	98.171161 
3065.000000	98.174763 
3064.000000	98.182921 
3063.000000	98.195643 
3062.000000	98.208107 
3061.000000	98.213374 
3060.000000	98.208647 
3059.000000	98.197817 
3058.000000	98.187997 
3057.000000	98.184325 
3056.000000	98.187776 
3055.000000	98.196555 
3054.000000	98.208188 
3053.000000	98.219845 
3052.000000	98.227882 
3051.000000	98.229320 
3050.000000	98.224907 
3049.000000	98.219664 
3048.000000	98.218820 
3047.000000	98.223272 
3046.000000	98.229852 
3045.000000	98.235197 
3044.000000	98.238077 
3043.000000	98.238796 
3042.000000	98.238363 
3041.000000	98.238344 
3040.000000	98.239671 
3039.000000	98.241103 
3038.000000	98.240275 
3037.000000	98.236434 
3036.000000	98.230605 
3035.000000	98.223063 
3034.000000	98.212781 
3033.000000	98.200010 
3032.000000	98.187210 
3031.000000	98.176285 
3030.000000	98.167074 
3029.000000	98.160148 
3028.000000	98.158764 
3027.000000	98.165156 
3026.000000	98.175608 
3025.000000	98.181969 
3024.000000	98.178828 
3023.000000	98.168241 
3022.000000	98.157089 
3021.000000	98.150318 
3020.000000	98.146326 
3019.000000	98.138426 
3018.000000	98.121602 
3017.000000	98.098482 
3016.000000	98.077680 
3015.000000	98.065386 
3014.000000	98.059843 
3013.000000	98.054882 
3012.000000	98.047069 
3011.000000	98.037459 
3010.000000	98.028060 
3009.000000	98.019746 
3008.000000	98.013412 
3007.000000	98.010309 
3006.000000	98.010175 
3005.000000	98.010484 
3004.000000	98.007969 
3003.000000	97.999926 
3002.000000	97.984445 
3001.000000	97.961474 
3000.000000	97.934143 
2999.000000	97.907301 
2998.000000	97.884069 
2997.000000	97.865022 
2996.000000	97.850669 
2995.000000	97.842334 
2994.000000	97.839294 
2993.000000	97.836876 
2992.000000	97.829383 
2991.000000	97.814740 
2990.000000	97.795848 
2989.000000	97.778425 
2988.000000	97.767972 
2987.000000	97.767059 
2986.000000	97.773699 
2985.000000	97.782822 
2984.000000	97.790500 
2983.000000	97.796425 
2982.000000	97.801909 
2981.000000	97.806891 
2980.000000	97.810389 
2979.000000	97.812880 
2978.000000	97.816037 
2977.000000	97.819989 
2976.000000	97.822460 
2975.000000	97.821055 
2974.000000	97.815426 
2973.000000	97.807068 
2972.000000	97.798181 
2971.000000	97.791175 
2970.000000	97.788034 
2969.000000	97.789159 
2968.000000	97.793261 
2967.000000	97.799027 
2966.000000	97.806536 
2965.000000	97.816449 
2964.000000	97.828284 
2963.000000	97.840350 
2962.000000	97.851329 
2961.000000	97.861109 
2960.000000	97.869809 
2959.000000	97.876887 
2958.000000	97.881954 
2957.000000	97.885865 
2956.000000	97.889962 
2955.000000	97.894467 
2954.000000	97.899005 
2953.000000	97.904903 
2952.000000	97.915127 
2951.000000	97.930357 
2950.000000	97.946033 
2949.000000	97.955332 
2948.000000	97.955523 
2947.000000	97.950494 
2946.000000	97.947058 
2945.000000	97.949675 
2944.000000	97.958330 
2943.000000	97.969547 
2942.000000	97.978494 
2941.000000	97.981320 
2940.000000	97.977095 
2939.000000	97.968169 
2938.000000	97.958774 
2937.000000	97.953099 
2936.000000	97.953288 
2935.000000	97.957674 
2934.000000	97.961337 
2933.000000	97.960138 
2932.000000	97.954414 
2931.000000	97.947222 
2930.000000	97.939478 
2929.000000	97.929685 
2928.000000	97.919002 
2927.000000	97.913030 
2926.000000	97.915833 
2925.000000	97.924005 
2924.000000	97.929617 
2923.000000	97.928299 
2922.000000	97.922087 
2921.000000	97.915252 
2920.000000	97.910194 
2919.000000	97.907467 
2918.000000	97.907038 
2917.000000	97.908206 
2916.000000	97.909557 
2915.000000	97.910099 
2914.000000	97.910175 
2913.000000	97.911053 
2912.000000	97.913983 
2911.000000	97.919417 
2910.000000	97.926508 
2909.000000	97.933481 
2908.000000	97.938911 
2907.000000	97.942231 
2906.000000	97.942742 
2905.000000	97.939349 
2904.000000	97.932487 
2903.000000	97.925543 
2902.000000	97.923033 
2901.000000	97.927638 
2900.000000	97.939637 
2899.000000	97.957681 
2898.000000	97.978162 
2897.000000	97.995117 
2896.000000	98.003938 
2895.000000	98.005885 
2894.000000	98.006847 
2893.000000	98.011035 
2892.000000	98.017752 
2891.000000	98.024592 
2890.000000	98.031241 
2889.000000	98.038671 
2888.000000	98.046569 
2887.000000	98.053786 
2886.000000	98.060599 
2885.000000	98.068768 
2884.000000	98.079369 
2883.000000	98.091557 
2882.000000	98.103423 
2881.000000	98.113578 
2880.000000	98.122127 
2879.000000	98.130402 
2878.000000	98.139337 
2877.000000	98.148048 
2876.000000	98.154888 
2875.000000	98.160119 
2874.000000	98.166314 
2873.000000	98.175369 
2872.000000	98.186083 
2871.000000	98.195471 
2870.000000	98.201697 
2869.000000	98.205053 
2868.000000	98.207109 
2867.000000	98.209922 
2866.000000	98.215096 
2865.000000	98.222224 
2864.000000	98.228737 
2863.000000	98.232564 
2862.000000	98.234655 
2861.000000	98.237852 
2860.000000	98.243782 
2859.000000	98.252132 
2858.000000	98.262337 
2857.000000	98.274134 
2856.000000	98.286379 
2855.000000	98.297106 
2854.000000	98.305558 
2853.000000	98.313115 
2852.000000	98.321584 
2851.000000	98.331432 
2850.000000	98.342289 
2849.000000	98.354197 
2848.000000	98.367154 
2847.000000	98.379781 
2846.000000	98.389720 
2845.000000	98.395807 
2844.000000	98.399335 
2843.000000	98.402786 
2842.000000	98.407668 
2841.000000	98.414027 
2840.000000	98.421661 
2839.000000	98.430838 
2838.000000	98.441325 
2837.000000	98.451355 
2836.000000	98.458604 
2835.000000	98.462464 
2834.000000	98.464701 
2833.000000	98.467368 
2832.000000	98.470424 
2831.000000	98.472057 
2830.000000	98.471441 
2829.000000	98.470579 
2828.000000	98.472860 
2827.000000	98.479668 
2826.000000	98.488769 
2825.000000	98.496279 
2824.000000	98.500034 
2823.000000	98.500765 
2822.000000	98.500340 
2821.000000	98.499938 
2820.000000	98.500328 
2819.000000	98.502814 
2818.000000	98.508600 
2817.000000	98.517356 
2816.000000	98.527353 
2815.000000	98.536933 
2814.000000	98.545019 
2813.000000	98.550514 
2812.000000	98.552656 
2811.000000	98.552324 
2810.000000	98.551630 
2809.000000	98.551448 
2808.000000	98.550396 
2807.000000	98.547152 
2806.000000	98.542908 
2805.000000	98.540386 
2804.000000	98.540947 
2803.000000	98.543750 
2802.000000	98.547302 
2801.000000	98.550654 
2800.000000	98.553342 
2799.000000	98.555449 
2798.000000	98.557869 
2797.000000	98.561309 
2796.000000	98.564786 
2795.000000	98.566312 
2794.000000	98.565617 
2793.000000	98.565006 
2792.000000	98.566567 
2791.000000	98.569466 
2790.000000	98.571336 
2789.000000	98.571854 
2788.000000	98.573278 
2787.000000	98.577102 
2786.000000	98.581688 
2785.000000	98.584147 
2784.000000	98.583757 
2783.000000	98.582441 
2782.000000	98.582276 
2781.000000	98.583564 
2780.000000	98.585137 
2779.000000	98.585521 
2778.000000	98.583900 
2777.000000	98.581199 
2776.000000	98.580334 
2775.000000	98.583825 
2774.000000	98.590317 
2773.000000	98.594964 
2772.000000	98.594766 
2771.000000	98.592487 
2770.000000	98.593362 
2769.000000	98.598405 
2768.000000	98.603354 
2767.000000	98.604652 
2766.000000	98.604138 
2765.000000	98.606200 
2764.000000	98.611681 
2763.000000	98.616676 
2762.000000	98.617138 
2761.000000	98.613067 
2760.000000	98.607924 
2759.000000	98.605158 
2758.000000	98.606034 
2757.000000	98.609967 
2756.000000	98.615563 
2755.000000	98.620862 
2754.000000	98.623396 
2753.000000	98.621549 
2752.000000	98.616655 
2751.000000	98.612972 
2750.000000	98.614130 
2749.000000	98.619316 
2748.000000	98.623914 
2747.000000	98.624343 
2746.000000	98.621498 
2745.000000	98.619087 
2744.000000	98.619555 
2743.000000	98.622362 
2742.000000	98.625363 
2741.000000	98.626777 
2740.000000	98.626318 
2739.000000	98.625657 
2738.000000	98.627740 
2737.000000	98.634404 
2736.000000	98.644071 
2735.000000	98.652364 
2734.000000	98.655565 
2733.000000	98.653619 
2732.000000	98.649885 
2731.000000	98.648090 
2730.000000	98.649295 
2729.000000	98.651409 
2728.000000	98.651678 
2727.000000	98.649621 
2726.000000	98.647194 
2725.000000	98.646106 
2724.000000	98.645944 
2723.000000	98.645568 
2722.000000	98.645344 
2721.000000	98.646623 
2720.000000	98.649402 
2719.000000	98.652101 
2718.000000	98.653813 
2717.000000	98.655232 
2716.000000	98.656789 
2715.000000	98.657355 
2714.000000	98.656094 
2713.000000	98.654627 
2712.000000	98.655751 
2711.000000	98.660126 
2710.000000	98.665606 
2709.000000	98.670055 
2708.000000	98.673494 
2707.000000	98.676720 
2706.000000	98.678807 
2705.000000	98.677409 
2704.000000	98.671714 
2703.000000	98.664214 
2702.000000	98.659001 
2701.000000	98.658492 
2700.000000	98.662116 
2699.000000	98.667950 
2698.000000	98.674936 
2697.000000	98.682996 
2696.000000	98.691257 
2695.000000	98.697195 
2694.000000	98.698540 
2693.000000	98.696011 
2692.000000	98.693248 
2691.000000	98.693375 
2690.000000	98.696083 
2689.000000	98.698716 
2688.000000	98.699816 
2687.000000	98.700501 
2686.000000	98.702251 
2685.000000	98.704428 
2684.000000	98.704743 
2683.000000	98.701770 
2682.000000	98.696547 
2681.000000	98.692003 
2680.000000	98.691019 
2679.000000	98.694399 
2678.000000	98.700298 
2677.000000	98.706033 
2676.000000	98.710666 
2675.000000	98.714955 
2674.000000	98.718515 
2673.000000	98.718672 
2672.000000	98.713757 
2671.000000	98.706542 
2670.000000	98.702154 
2669.000000	98.702453 
2668.000000	98.704336 
2667.000000	98.704034 
2666.000000	98.701196 
2665.000000	98.697838 
2664.000000	98.694981 
2663.000000	98.692091 
2662.000000	98.689004 
2661.000000	98.686652 
2660.000000	98.685770 
2659.000000	98.686007 
2658.000000	98.686651 
2657.000000	98.687594 
2656.000000	98.689085 
2655.000000	98.690442 
2654.000000	98.689261 
2653.000000	98.682979 
2652.000000	98.672622 
2651.000000	98.664637 
2650.000000	98.666505 
2649.000000	98.678845 
2648.000000	98.693222 
2647.000000	98.699900 
2646.000000	98.697698 
2645.000000	98.694661 
2644.000000	98.698950 
2643.000000	98.710369 
2642.000000	98.720976 
2641.000000	98.722756 
2640.000000	98.714232 
2639.000000	98.700572 
2638.000000	98.688472 
2637.000000	98.681277 
2636.000000	98.678661 
2635.000000	98.679661 
2634.000000	98.684031 
2633.000000	98.690375 
2632.000000	98.695365 
2631.000000	98.696852 
2630.000000	98.696507 
2629.000000	98.697213 
2628.000000	98.698707 
2627.000000	98.698417 
2626.000000	98.696189 
2625.000000	98.694980 
2624.000000	98.696177 
2623.000000	98.697344 
2622.000000	98.696258 
2621.000000	98.694646 
2620.000000	98.695528 
2619.000000	98.698635 
2618.000000	98.701179 
2617.000000	98.702289 
2616.000000	98.703955 
2615.000000	98.707724 
2614.000000	98.712970 
2613.000000	98.718788 
2612.000000	98.725264 
2611.000000	98.731850 
2610.000000	98.736453 
2609.000000	98.737786 
2608.000000	98.737406 
2607.000000	98.737778 
2606.000000	98.739089 
2605.000000	98.739832 
2604.000000	98.740068 
2603.000000	98.741783 
2602.000000	98.745535 
2601.000000	98.749007 
2600.000000	98.750265 
2599.000000	98.750472 
2598.000000	98.751051 
2597.000000	98.749543 
2596.000000	98.741768 
2595.000000	98.728582 
2594.000000	98.717425 
2593.000000	98.715413 
2592.000000	98.722650 
2591.000000	98.733691 
2590.000000	98.743517 
2589.000000	98.749946 
2588.000000	98.752124 
2587.000000	98.750079 
2586.000000	98.745698 
2585.000000	98.741660 
2584.000000	98.738994 
2583.000000	98.737338 
2582.000000	98.737261 
2581.000000	98.740024 
2580.000000	98.744893 
2579.000000	98.749114 
2578.000000	98.751124 
2577.000000	98.751727 
2576.000000	98.751533 
2575.000000	98.749659 
2574.000000	98.746145 
2573.000000	98.743485 
2572.000000	98.744104 
2571.000000	98.747876 
2570.000000	98.753350 
2569.000000	98.759364 
2568.000000	98.763706 
2567.000000	98.762691 
2566.000000	98.755525 
2565.000000	98.748062 
2564.000000	98.748252 
2563.000000	98.756943 
2562.000000	98.766057 
2561.000000	98.767353 
2560.000000	98.760863 
2559.000000	98.752902 
2558.000000	98.747797 
2557.000000	98.744747 
2556.000000	98.742667 
2555.000000	98.744650 
2554.000000	98.754996 
2553.000000	98.772482 
2552.000000	98.788674 
2551.000000	98.793700 
2550.000000	98.783555 
2549.000000	98.762831 
2548.000000	98.742166 
2547.000000	98.732810 
2546.000000	98.740730 
2545.000000	98.763333 
2544.000000	98.791691 
2543.000000	98.816429 
2542.000000	98.831297 
2541.000000	98.832918 
2540.000000	98.821587 
2539.000000	98.804203 
2538.000000	98.792084 
2537.000000	98.791119 
2536.000000	98.795754 
2535.000000	98.797034 
2534.000000	98.794668 
2533.000000	98.795372 
2532.000000	98.800282 
2531.000000	98.801709 
2530.000000	98.794526 
2529.000000	98.783644 
2528.000000	98.776031 
2527.000000	98.771633 
2526.000000	98.768099 
2525.000000	98.769118 
2524.000000	98.779638 
2523.000000	98.795000 
2522.000000	98.803581 
2521.000000	98.801228 
2520.000000	98.795754 
2519.000000	98.794562 
2518.000000	98.794024 
2517.000000	98.785688 
2516.000000	98.769692 
2515.000000	98.757386 
2514.000000	98.760911 
2513.000000	98.781959 
2512.000000	98.810039 
2511.000000	98.830703 
2510.000000	98.836174 
2509.000000	98.828503 
2508.000000	98.812751 
2507.000000	98.790168 
2506.000000	98.761726 
2505.000000	98.735861 
2504.000000	98.724896 
2503.000000	98.730757 
2502.000000	98.739938 
2501.000000	98.737996 
2500.000000	98.726773 
2499.000000	98.722820 
2498.000000	98.739792 
2497.000000	98.776082 
2496.000000	98.818639 
2495.000000	98.854177 
2494.000000	98.875492 
2493.000000	98.880974 
2492.000000	98.872359 
2491.000000	98.854125 
2490.000000	98.833794 
2489.000000	98.820021 
2488.000000	98.817364 
2487.000000	98.822343 
2486.000000	98.826833 
2485.000000	98.826276 
2484.000000	98.822559 
2483.000000	98.818247 
2482.000000	98.811786 
2481.000000	98.801103 
2480.000000	98.788697 
2479.000000	98.778959 
2478.000000	98.772564 
2477.000000	98.768129 
2476.000000	98.768007 
2475.000000	98.776408 
2474.000000	98.790968 
2473.000000	98.801909 
2472.000000	98.802576 
2471.000000	98.796852 
2470.000000	98.792970 
2469.000000	98.793400 
2468.000000	98.794945 
2467.000000	98.796291 
2466.000000	98.800050 
2465.000000	98.807233 
2464.000000	98.814341 
2463.000000	98.817585 
2462.000000	98.816659 
2461.000000	98.812255 
2460.000000	98.802912 
2459.000000	98.788268 
2458.000000	98.774442 
2457.000000	98.771446 
2456.000000	98.782756 
2455.000000	98.799586 
2454.000000	98.808374 
2453.000000	98.803705 
2452.000000	98.792051 
2451.000000	98.783187 
2450.000000	98.780427 
2449.000000	98.780016 
2448.000000	98.777910 
2447.000000	98.775349 
2446.000000	98.778136 
2445.000000	98.790586 
2444.000000	98.808940 
2443.000000	98.821226 
2442.000000	98.817115 
2441.000000	98.800030 
2440.000000	98.786705 
2439.000000	98.791352 
2438.000000	98.811262 
2437.000000	98.830755 
2436.000000	98.837706 
2435.000000	98.832611 
2434.000000	98.822794 
2433.000000	98.813821 
2432.000000	98.808583 
2431.000000	98.809756 
2430.000000	98.818192 
2429.000000	98.829768 
2428.000000	98.837236 
2427.000000	98.835876 
2426.000000	98.826512 
2425.000000	98.813828 
2424.000000	98.803140 
2423.000000	98.798195 
2422.000000	98.800277 
2421.000000	98.808293 
2420.000000	98.819279 
2419.000000	98.828805 
2418.000000	98.832373 
2417.000000	98.828718 
2416.000000	98.821893 
2415.000000	98.817881 
2414.000000	98.818354 
2413.000000	98.819557 
2412.000000	98.817979 
2411.000000	98.814753 
2410.000000	98.813085 
2409.000000	98.813674 
2408.000000	98.814984 
2407.000000	98.816458 
2406.000000	98.818714 
2405.000000	98.821280 
2404.000000	98.822663 
2403.000000	98.822625 
2402.000000	98.822371 
2401.000000	98.822352 
2400.000000	98.821646 
2399.000000	98.819918 
2398.000000	98.818609 
2397.000000	98.819366 
2396.000000	98.821752 
2395.000000	98.822938 
2394.000000	98.819971 
2393.000000	98.812978 
2392.000000	98.806024 
2391.000000	98.803581 
2390.000000	98.805999 
2389.000000	98.810123 
2388.000000	98.814717 
2387.000000	98.822384 
2386.000000	98.834203 
2385.000000	98.845367 
2384.000000	98.850030 
2383.000000	98.849333 
2382.000000	98.850219 
2381.000000	98.855778 
2380.000000	98.860843 
2379.000000	98.859387 
2378.000000	98.853349 
2377.000000	98.851180 
2376.000000	98.859053 
2375.000000	98.875758 
2374.000000	98.894587 
2373.000000	98.906852 
2372.000000	98.904677 
2371.000000	98.885695 
2370.000000	98.857589 
2369.000000	98.835482 
2368.000000	98.831519 
2367.000000	98.846208 
2366.000000	98.870132 
2365.000000	98.892230 
2364.000000	98.905344 
2363.000000	98.906513 
2362.000000	98.896613 
2361.000000	98.882727 
2360.000000	98.876296 
2359.000000	98.882456 
2358.000000	98.893157 
2357.000000	98.895482 
2356.000000	98.889004 
2355.000000	98.887341 
2354.000000	98.899695 
2353.000000	98.917812 
2352.000000	98.924956 
2351.000000	98.915961 
2350.000000	98.899876 
2349.000000	98.887651 
2348.000000	98.884487 
2347.000000	98.889394 
2346.000000	98.898239 
2345.000000	98.904002 
2344.000000	98.901561 
2343.000000	98.892247 
2342.000000	98.881296 
2341.000000	98.873675 
2340.000000	98.871074 
2339.000000	98.874554 
2338.000000	98.884178 
2337.000000	98.896639 
2336.000000	98.904896 
2335.000000	98.904828 
2334.000000	98.900443 
2333.000000	98.900429 
2332.000000	98.907259 
2331.000000	98.914690 
2330.000000	98.915581 
2329.000000	98.909104 
2328.000000	98.898518 
2327.000000	98.883255 
2326.000000	98.861691 
2325.000000	98.836385 
2324.000000	98.816685 
2323.000000	98.811848 
2322.000000	98.823000 
2321.000000	98.841681 
2320.000000	98.854940 
2319.000000	98.855557 
2318.000000	98.846854 
2317.000000	98.839221 
2316.000000	98.839098 
2315.000000	98.843693 
2314.000000	98.846934 
2313.000000	98.848267 
2312.000000	98.851989 
2311.000000	98.858266 
2310.000000	98.861290 
2309.000000	98.857215 
2308.000000	98.850727 
2307.000000	98.848891 
2306.000000	98.852073 
2305.000000	98.854187 
2304.000000	98.852006 
2303.000000	98.849715 
2302.000000	98.853538 
2301.000000	98.864236 
2300.000000	98.876844 
2299.000000	98.885859 
2298.000000	98.889054 
2297.000000	98.886425 
2296.000000	98.878103 
2295.000000	98.863973 
2294.000000	98.846376 
2293.000000	98.831771 
2292.000000	98.828200 
2291.000000	98.838032 
2290.000000	98.853883 
2289.000000	98.863751 
2288.000000	98.861959 
2287.000000	98.853207 
2286.000000	98.845067 
2285.000000	98.838872 
2284.000000	98.830814 
2283.000000	98.820632 
2282.000000	98.815079 
2281.000000	98.821355 
2280.000000	98.839232 
2279.000000	98.861539 
2278.000000	98.880847 
2277.000000	98.893913 
2276.000000	98.900291 
2275.000000	98.899616 
2274.000000	98.892643 
2273.000000	98.884727 
2272.000000	98.885113 
2271.000000	98.899273 
2270.000000	98.921869 
2269.000000	98.940406 
2268.000000	98.947675 
2267.000000	98.948071 
2266.000000	98.949368 
2265.000000	98.950938 
2264.000000	98.944620 
2263.000000	98.926339 
2262.000000	98.902205 
2261.000000	98.882071 
2260.000000	98.870952 
2259.000000	98.868529 
2258.000000	98.873402 
2257.000000	98.884430 
2256.000000	98.899477 
2255.000000	98.916145 
2254.000000	98.933436 
2253.000000	98.951099 
2252.000000	98.967811 
2251.000000	98.981275 
2250.000000	98.989616 
2249.000000	98.992279 
2248.000000	98.990956 
2247.000000	98.990086 
2246.000000	98.994204 
2245.000000	99.002716 
2244.000000	99.008755 
2243.000000	99.005506 
2242.000000	98.993329 
2241.000000	98.979713 
2240.000000	98.973271 
2239.000000	98.978163 
2238.000000	98.991678 
2237.000000	99.005015 
2236.000000	99.009397 
2235.000000	99.005101 
2234.000000	99.002458 
2233.000000	99.009746 
2232.000000	99.021680 
2231.000000	99.025427 
2230.000000	99.017792 
2229.000000	99.010494 
2228.000000	99.016169 
2227.000000	99.034000 
2226.000000	99.052288 
2225.000000	99.061359 
2224.000000	99.060726 
2223.000000	99.056114 
2222.000000	99.052699 
2221.000000	99.049910 
2220.000000	99.041626 
2219.000000	99.024684 
2218.000000	99.008330 
2217.000000	99.008983 
2216.000000	99.030335 
2215.000000	99.054027 
2214.000000	99.058069 
2213.000000	99.042096 
2212.000000	99.025627 
2211.000000	99.022000 
2210.000000	99.024615 
2209.000000	99.021803 
2208.000000	99.014477 
2207.000000	99.011074 
2206.000000	99.012398 
2205.000000	99.012477 
2204.000000	99.012086 
2203.000000	99.019996 
2202.000000	99.037806 
2201.000000	99.052026 
2200.000000	99.048063 
2199.000000	99.028677 
2198.000000	99.012317 
2197.000000	99.013465 
2196.000000	99.029095 
2195.000000	99.045752 
2194.000000	99.055782 
2193.000000	99.062770 
2192.000000	99.072972 
2191.000000	99.086739 
2190.000000	99.100424 
2189.000000	99.112284 
2188.000000	99.121576 
2187.000000	99.123973 
2186.000000	99.114886 
2185.000000	99.099013 
2184.000000	99.090326 
2183.000000	99.098414 
2182.000000	99.118917 
2181.000000	99.140841 
2180.000000	99.158705 
2179.000000	99.172427 
2178.000000	99.180149 
2177.000000	99.178919 
2176.000000	99.169535 
2175.000000	99.152569 
2174.000000	99.122385 
2173.000000	99.076554 
2172.000000	99.032096 
2171.000000	99.019572 
2170.000000	99.053283 
2169.000000	99.112944 
2168.000000	99.162721 
2167.000000	99.185673 
2166.000000	99.192229 
2165.000000	99.198742 
2164.000000	99.208687 
2163.000000	99.217782 
2162.000000	99.229189 
2161.000000	99.255780 
2160.000000	99.306695 
2159.000000	99.373066 
2158.000000	99.428489 
2157.000000	99.447365 
2156.000000	99.425071 
2155.000000	99.379438 
2154.000000	99.334756 
2153.000000	99.305342 
2152.000000	99.290755 
2151.000000	99.282983 
2150.000000	99.276698 
2149.000000	99.273535 
2148.000000	99.277965 
2147.000000	99.289073 
2146.000000	99.296871 
2145.000000	99.289129 
2144.000000	99.263351 
2143.000000	99.230103 
2142.000000	99.203075 
2141.000000	99.187569 
2140.000000	99.179865 
2139.000000	99.175285 
2138.000000	99.173002 
2137.000000	99.173427 
2136.000000	99.174849 
2135.000000	99.174146 
2134.000000	99.169023 
2133.000000	99.159122 
2132.000000	99.146554 
2131.000000	99.134791 
2130.000000	99.124295 
2129.000000	99.109302 
2128.000000	99.082973 
2127.000000	99.048057 
2126.000000	99.019511 
2125.000000	99.012715 
2124.000000	99.029113 
2123.000000	99.055669 
2122.000000	99.077286 
2121.000000	99.086859 
2120.000000	99.084417 
2119.000000	99.071573 
2118.000000	99.050346 
2117.000000	99.026212 
2116.000000	99.008638 
2115.000000	99.005932 
2114.000000	99.018222 
2113.000000	99.035509 
2112.000000	99.044976 
2111.000000	99.042710 
2110.000000	99.037408 
2109.000000	99.040003 
2108.000000	99.050116 
2107.000000	99.056787 
2106.000000	99.053757 
2105.000000	99.049592 
2104.000000	99.058502 
2103.000000	99.082758 
2102.000000	99.108381 
2101.000000	99.118301 
2100.000000	99.107210 
2099.000000	99.084149 
2098.000000	99.064633 
2097.000000	99.061266 
2096.000000	99.077069 
2095.000000	99.103792 
2094.000000	99.127798 
2093.000000	99.140259 
2092.000000	99.141866 
2091.000000	99.137755 
2090.000000	99.131075 
2089.000000	99.123531 
2088.000000	99.118483 
2087.000000	99.118176 
2086.000000	99.118755 
2085.000000	99.114076 
2084.000000	99.106443 
2083.000000	99.107754 
2082.000000	99.124714 
2081.000000	99.146302 
2080.000000	99.153433 
2079.000000	99.142057 
2078.000000	99.129679 
2077.000000	99.135111 
2076.000000	99.156065 
2075.000000	99.172441 
2074.000000	99.169799 
2073.000000	99.152811 
2072.000000	99.135072 
2071.000000	99.122388 
2070.000000	99.111204 
2069.000000	99.099552 
2068.000000	99.092422 
2067.000000	99.095041 
2066.000000	99.105204 
2065.000000	99.115372 
2064.000000	99.121624 
2063.000000	99.128082 
2062.000000	99.141494 
2061.000000	99.162583 
2060.000000	99.184295 
2059.000000	99.199410 
2058.000000	99.208486 
2057.000000	99.217719 
2056.000000	99.228909 
2055.000000	99.235508 
2054.000000	99.232266 
2053.000000	99.226279 
2052.000000	99.232651 
2051.000000	99.258215 
2050.000000	99.293216 
2049.000000	99.320165 
2048.000000	99.328991 
2047.000000	99.321371 
2046.000000	99.304154 
2045.000000	99.285195 
2044.000000	99.273279 
2043.000000	99.274177 
2042.000000	99.284985 
2041.000000	99.296352 
2040.000000	99.301727 
2039.000000	99.302050 
2038.000000	99.302577 
2037.000000	99.309801 
2036.000000	99.329664 
2035.000000	99.360558 
2034.000000	99.386464 
2033.000000	99.387176 
2032.000000	99.363110 
2031.000000	99.342154 
2030.000000	99.352021 
2029.000000	99.388182 
2028.000000	99.417773 
2027.000000	99.414991 
2026.000000	99.383798 
2025.000000	99.345674 
2024.000000	99.316447 
2023.000000	99.301115 
2022.000000	99.301388 
2021.000000	99.315140 
2020.000000	99.330244 
2019.000000	99.331082 
2018.000000	99.315020 
2017.000000	99.296610 
2016.000000	99.291296 
2015.000000	99.298470 
2014.000000	99.303416 
2013.000000	99.291748 
2012.000000	99.262405 
2011.000000	99.233229 
2010.000000	99.234127 
2009.000000	99.284346 
2008.000000	99.369246 
2007.000000	99.446522 
2006.000000	99.482765 
2005.000000	99.479077 
2004.000000	99.457309 
2003.000000	99.431419 
2002.000000	99.402699 
2001.000000	99.374811 
2000.000000	99.355684 
1999.000000	99.343502 
1998.000000	99.323527 
1997.000000	99.284612 
1996.000000	99.233567 
1995.000000	99.190372 
1994.000000	99.174635 
1993.000000	99.195433 
1992.000000	99.243370 
1991.000000	99.290891 
1990.000000	99.310849 
1989.000000	99.300470 
1988.000000	99.284243 
1987.000000	99.290227 
1986.000000	99.324073 
1985.000000	99.366262 
1984.000000	99.391443 
1983.000000	99.389337 
1982.000000	99.370842 
1981.000000	99.357770 
1980.000000	99.363819 
1979.000000	99.384398 
1978.000000	99.405987 
1977.000000	99.421801 
1976.000000	99.431895 
1975.000000	99.431793 
1974.000000	99.415135 
1973.000000	99.388730 
1972.000000	99.370828 
1971.000000	99.369085 
1970.000000	99.371365 
1969.000000	99.363658 
1968.000000	99.347734 
1967.000000	99.335409 
1966.000000	99.334551 
1965.000000	99.348137 
1964.000000	99.376865 
1963.000000	99.412362 
1962.000000	99.435686 
1961.000000	99.434300 
1960.000000	99.415928 
1959.000000	99.395349 
1958.000000	99.374878 
1957.000000	99.350584 
1956.000000	99.330275 
1955.000000	99.327637 
1954.000000	99.338710 
1953.000000	99.339126 
1952.000000	99.311706 
1951.000000	99.267402 
1950.000000	99.233106 
1949.000000	99.225282 
1948.000000	99.239220 
1947.000000	99.259195 
1946.000000	99.272868 
1945.000000	99.276265 
1944.000000	99.269193 
1943.000000	99.250012 
1942.000000	99.219049 
1941.000000	99.186206 
1940.000000	99.166435 
1939.000000	99.164598 
1938.000000	99.170409 
1937.000000	99.172012 
1936.000000	99.171618 
1935.000000	99.180466 
1934.000000	99.200175 
1933.000000	99.219077 
1932.000000	99.229407 
1931.000000	99.236713 
1930.000000	99.247123 
1929.000000	99.255086 
1928.000000	99.249443 
1927.000000	99.228336 
1926.000000	99.200049 
1925.000000	99.173136 
1924.000000	99.151031 
1923.000000	99.133744 
1922.000000	99.120893 
1921.000000	99.113088 
1920.000000	99.112317 
1919.000000	99.120068 
1918.000000	99.130815 
1917.000000	99.131232 
1916.000000	99.112414 
1915.000000	99.079587 
1914.000000	99.048189 
1913.000000	99.032565 
1912.000000	99.036587 
1911.000000	99.051916 
1910.000000	99.063862 
1909.000000	99.060981 
1908.000000	99.043029 
1907.000000	99.022851 
1906.000000	99.016798 
1905.000000	99.030666 
1904.000000	99.052237 
1903.000000	99.058628 
1902.000000	99.036165 
1901.000000	98.994742 
1900.000000	98.959203 
1899.000000	98.946116 
1898.000000	98.950782 
1897.000000	98.957425 
1896.000000	98.958561 
1895.000000	98.960249 
1894.000000	98.970065 
1893.000000	98.986278 
1892.000000	99.001142 
1891.000000	99.009814 
1890.000000	99.012428 
1889.000000	99.010766 
1888.000000	99.007064 
1887.000000	99.004889 
1886.000000	99.007993 
1885.000000	99.016205 
1884.000000	99.022865 
1883.000000	99.018715 
1882.000000	99.000867 
1881.000000	98.977596 
1880.000000	98.961227 
1879.000000	98.955896 
1878.000000	98.953812 
1877.000000	98.945060 
1876.000000	98.931564 
1875.000000	98.927360 
1874.000000	98.942768 
1873.000000	98.971107 
1872.000000	98.993578 
1871.000000	98.996278 
1870.000000	98.981550 
1869.000000	98.964466 
1868.000000	98.956562 
1867.000000	98.954185 
1866.000000	98.946806 
1865.000000	98.931619 
1864.000000	98.916279 
1863.000000	98.910220 
1862.000000	98.915473 
1861.000000	98.925905 
1860.000000	98.934026 
1859.000000	98.937489 
1858.000000	98.939342 
1857.000000	98.944108 
1856.000000	98.954308 
1855.000000	98.969468 
1854.000000	98.986055 
1853.000000	98.999487 
1852.000000	99.005401 
1851.000000	99.003102 
1850.000000	98.997352 
1849.000000	98.994413 
1848.000000	98.996219 
1847.000000	98.998716 
1846.000000	98.996546 
1845.000000	98.987782 
1844.000000	98.974665 
1843.000000	98.962148 
1842.000000	98.954286 
1841.000000	98.951609 
1840.000000	98.952623 
1839.000000	98.956811 
1838.000000	98.964192 
1837.000000	98.973820 
1836.000000	98.982714 
1835.000000	98.987267 
1834.000000	98.987734 
1833.000000	98.989339 
1832.000000	98.995888 
1831.000000	99.004793 
1830.000000	99.007561 
1829.000000	98.998424 
1828.000000	98.982178 
1827.000000	98.967027 
1826.000000	98.957417 
1825.000000	98.954382 
1824.000000	98.957756 
1823.000000	98.966398 
1822.000000	98.976575 
1821.000000	98.982776 
1820.000000	98.981529 
1819.000000	98.974984 
1818.000000	98.968497 
1817.000000	98.966274 
1816.000000	98.969072 
1815.000000	98.973221 
1814.000000	98.973968 
1813.000000	98.969737 
1812.000000	98.965104 
1811.000000	98.967229 
1810.000000	98.976909 
1809.000000	98.987725 
1808.000000	98.993052 
1807.000000	98.990466 
1806.000000	98.981119 
1805.000000	98.967409 
1804.000000	98.951644 
1803.000000	98.935253 
1802.000000	98.922873 
1801.000000	98.922537 
1800.000000	98.937824 
1799.000000	98.960047 
1798.000000	98.973963 
1797.000000	98.972998 
1796.000000	98.964475 
1795.000000	98.959085 
1794.000000	98.960563 
1793.000000	98.964539 
1792.000000	98.966080 
1791.000000	98.965551 
1790.000000	98.964109 
1789.000000	98.960520 
1788.000000	98.955197 
1787.000000	98.951246 
1786.000000	98.950281 
1785.000000	98.950189 
1784.000000	98.949459 
1783.000000	98.949382 
1782.000000	98.953490 
1781.000000	98.960544 
1780.000000	98.963318 
1779.000000	98.957813 
1778.000000	98.948449 
1777.000000	98.943011 
1776.000000	98.943587 
1775.000000	98.947116 
1774.000000	98.954185 
1773.000000	98.969740 
1772.000000	98.989734 
1771.000000	99.001357 
1770.000000	98.998810 
1769.000000	98.987673 
1768.000000	98.979134 
1767.000000	98.979015 
1766.000000	98.982693 
1765.000000	98.982255 
1764.000000	98.977075 
1763.000000	98.974540 
1762.000000	98.981396 
1761.000000	98.993380 
1760.000000	99.001354 
1759.000000	99.000744 
1758.000000	98.993138 
1757.000000	98.984072 
1756.000000	98.977640 
1755.000000	98.975183 
1754.000000	98.975543 
1753.000000	98.977434 
1752.000000	98.980920 
1751.000000	98.986354 
1750.000000	98.990328 
1749.000000	98.988215 
1748.000000	98.979838 
1747.000000	98.968987 
1746.000000	98.959438 
1745.000000	98.950023 
1744.000000	98.939089 
1743.000000	98.930471 
1742.000000	98.929993 
1741.000000	98.938088 
1740.000000	98.949133 
1739.000000	98.955281 
1738.000000	98.953378 
1737.000000	98.943873 
1736.000000	98.928010 
1735.000000	98.910388 
1734.000000	98.895142 
1733.000000	98.885251 
1732.000000	98.884452 
1731.000000	98.891350 
1730.000000	98.901909 
1729.000000	98.911982 
1728.000000	98.917076 
1727.000000	98.913951 
1726.000000	98.902107 
1725.000000	98.883116 
1724.000000	98.864511 
1723.000000	98.856847 
1722.000000	98.861885 
1721.000000	98.870630 
1720.000000	98.874015 
1719.000000	98.873221 
1718.000000	98.872945 
1717.000000	98.868239 
1716.000000	98.854347 
1715.000000	98.836024 
1714.000000	98.820171 
1713.000000	98.810266 
1712.000000	98.805611 
1711.000000	98.802923 
1710.000000	98.799859 
1709.000000	98.795909 
1708.000000	98.789846 
1707.000000	98.781904 
1706.000000	98.775426 
1705.000000	98.773094 
1704.000000	98.772259 
1703.000000	98.764838 
1702.000000	98.746762 
1701.000000	98.728823 
1700.000000	98.723741 
1699.000000	98.727638 
1698.000000	98.724465 
1697.000000	98.706362 
1696.000000	98.683175 
1695.000000	98.667280 
1694.000000	98.659368 
1693.000000	98.650113 
1692.000000	98.633285 
1691.000000	98.611284 
1690.000000	98.590863 
1689.000000	98.577675 
1688.000000	98.568991 
1687.000000	98.556443 
1686.000000	98.533480 
1685.000000	98.504136 
1684.000000	98.479641 
1683.000000	98.464906 
1682.000000	98.455153 
1681.000000	98.443354 
1680.000000	98.429120 
1679.000000	98.415667 
1678.000000	98.403217 
1677.000000	98.389127 
1676.000000	98.374134 
1675.000000	98.361755 
1674.000000	98.354483 
1673.000000	98.348563 
1672.000000	98.338551 
1671.000000	98.323892 
1670.000000	98.307097 
1669.000000	98.290317 
1668.000000	98.275558 
1667.000000	98.263764 
1666.000000	98.252329 
1665.000000	98.236798 
1664.000000	98.218341 
1663.000000	98.203328 
1662.000000	98.195612 
1661.000000	98.191376 
1660.000000	98.183443 
1659.000000	98.170625 
1658.000000	98.157651 
1657.000000	98.145954 
1656.000000	98.129016 
1655.000000	98.103497 
1654.000000	98.082924 
1653.000000	98.075227 
1652.000000	98.072389 
1651.000000	98.073976 
1650.000000	98.074152 
1649.000000	98.066158 
1648.000000	98.051356 
1647.000000	98.035551 
1646.000000	98.024383 
1645.000000	98.021854 
1644.000000	98.027613 
1643.000000	98.036623 
1642.000000	98.044784 
1641.000000	98.050444 
1640.000000	98.051774 
1639.000000	98.047985 
1638.000000	98.039484 
1637.000000	98.030179 
1636.000000	98.023106 
1635.000000	98.017075 
1634.000000	98.014597 
1633.000000	98.018083 
1632.000000	98.025407 
1631.000000	98.032551 
1630.000000	98.036828 
1629.000000	98.039266 
1628.000000	98.043964 
1627.000000	98.052609 
1626.000000	98.063293 
1625.000000	98.073531 
1624.000000	98.083957 
1623.000000	98.096838 
1622.000000	98.113161 
1621.000000	98.131365 
1620.000000	98.146048 
1619.000000	98.153417 
1618.000000	98.157224 
1617.000000	98.167093 
1616.000000	98.185204 
1615.000000	98.204254 
1614.000000	98.218257 
1613.000000	98.227487 
1612.000000	98.236119 
1611.000000	98.246499 
1610.000000	98.258133 
1609.000000	98.270236 
1608.000000	98.282713 
1607.000000	98.294782 
1606.000000	98.306591 
1605.000000	98.319234 
1604.000000	98.332355 
1603.000000	98.345228 
1602.000000	98.357931 
1601.000000	98.370857 
1600.000000	98.384000 
1599.000000	98.397492 
1598.000000	98.412116 
1597.000000	98.427917 
1596.000000	98.443837 
1595.000000	98.458853 
1594.000000	98.472793 
1593.000000	98.485379 
1592.000000	98.495082 
1591.000000	98.500324 
1590.000000	98.502057 
1589.000000	98.503778 
1588.000000	98.508093 
1587.000000	98.514475 
1586.000000	98.519908 
1585.000000	98.522789 
1584.000000	98.522994 
1583.000000	98.522319 
1582.000000	98.524581 
1581.000000	98.531279 
1580.000000	98.538148 
1579.000000	98.540531 
1578.000000	98.541212 
1577.000000	98.549130 
1576.000000	98.565939 
1575.000000	98.581706 
1574.000000	98.591547 
1573.000000	98.595873 
1572.000000	98.595074 
1571.000000	98.593167 
1570.000000	98.596898 
1569.000000	98.608555 
1568.000000	98.621175 
1567.000000	98.627929 
1566.000000	98.628803 
1565.000000	98.628742 
1564.000000	98.629551 
1563.000000	98.630081 
1562.000000	98.628867 
1561.000000	98.628817 
1560.000000	98.635700 
1559.000000	98.645698 
1558.000000	98.643106 
1557.000000	98.639482 
1556.000000	98.642454 
1555.000000	98.646696 
1554.000000	98.650428 
1553.000000	98.650990 
1552.000000	98.645009 
1551.000000	98.634534 
1550.000000	98.627790 
1549.000000	98.630765 
1548.000000	98.638723 
1547.000000	98.640884 
1546.000000	98.632233 
1545.000000	98.617961 
1544.000000	98.606722 
1543.000000	98.602757 
1542.000000	98.605217 
1541.000000	98.614577 
1540.000000	98.628168 
1539.000000	98.635448 
1538.000000	98.637512 
1537.000000	98.640288 
1536.000000	98.642797 
1535.000000	98.642650 
1534.000000	98.641004 
1533.000000	98.639600 
1532.000000	98.639986 
1531.000000	98.642261 
1530.000000	98.642854 
1529.000000	98.639919 
1528.000000	98.637459 
1527.000000	98.641551 
1526.000000	98.653380 
1525.000000	98.666516 
1524.000000	98.673697 
1523.000000	98.675008 
1522.000000	98.676372 
1521.000000	98.679346 
1520.000000	98.680124 
1519.000000	98.676541 
1518.000000	98.670440 
1517.000000	98.666520 
1516.000000	98.667968 
1515.000000	98.673681 
1514.000000	98.681517 
1513.000000	98.689141 
1512.000000	98.694275 
1511.000000	98.694041 
1510.000000	98.685975 
1509.000000	98.672018 
1508.000000	98.665166 
1507.000000	98.680590 
1506.000000	98.701073 
1505.000000	98.706661 
1504.000000	98.703320 
1503.000000	98.699556 
1502.000000	98.698494 
1501.000000	98.701148 
1500.000000	98.707421 
1499.000000	98.717434 
1498.000000	98.729878 
1497.000000	98.739010 
1496.000000	98.741495 
1495.000000	98.741601 
1494.000000	98.743227 
1493.000000	98.743664 
1492.000000	98.738026 
1491.000000	98.724445 
1490.000000	98.705841 
1489.000000	98.687990 
1488.000000	98.676561 
1487.000000	98.672900 
1486.000000	98.672508 
1485.000000	98.672152 
1484.000000	98.670857 
1483.000000	98.669096 
1482.000000	98.667953 
1481.000000	98.667122 
1480.000000	98.665363 
1479.000000	98.661451 
1478.000000	98.655162 
1477.000000	98.647188 
1476.000000	98.639853 
1475.000000	98.634207 
1474.000000	98.630396 
1473.000000	98.627841 
1472.000000	98.623007 
1471.000000	98.613942 
1470.000000	98.603146 
1469.000000	98.594173 
1468.000000	98.589585 
1467.000000	98.588539 
1466.000000	98.586703 
1465.000000	98.580731 
1464.000000	98.571677 
1463.000000	98.564707 
1462.000000	98.561032 
1461.000000	98.556161 
1460.000000	98.544208 
1459.000000	98.523135 
1458.000000	98.498977 
1457.000000	98.481674 
1456.000000	98.474175 
1455.000000	98.471053 
1454.000000	98.465959 
1453.000000	98.457344 
1452.000000	98.448943 
1451.000000	98.444898 
1450.000000	98.445105 
1449.000000	98.445476 
1448.000000	98.443852 
1447.000000	98.440788 
1446.000000	98.438401 
1445.000000	98.436903 
1444.000000	98.433650 
1443.000000	98.428081 
1442.000000	98.422752 
1441.000000	98.420639 
1440.000000	98.420565 
1439.000000	98.417847 
1438.000000	98.407422 
1437.000000	98.389581 
1436.000000	98.373000 
1435.000000	98.365766 
1434.000000	98.365144 
1433.000000	98.364144 
1432.000000	98.360991 
1431.000000	98.359006 
1430.000000	98.361319 
1429.000000	98.366430 
1428.000000	98.371060 
1427.000000	98.371873 
1426.000000	98.367772 
1425.000000	98.361635 
1424.000000	98.358097 
1423.000000	98.359282 
1422.000000	98.360220 
1421.000000	98.352557 
1420.000000	98.332915 
1419.000000	98.310170 
1418.000000	98.296898 
1417.000000	98.293306 
1416.000000	98.292076 
1415.000000	98.289772 
1414.000000	98.286109 
1413.000000	98.279736 
1412.000000	98.269705 
1411.000000	98.259516 
1410.000000	98.254339 
1409.000000	98.254279 
1408.000000	98.255774 
1407.000000	98.256499 
1406.000000	98.259094 
1405.000000	98.269858 
1404.000000	98.291173 
1403.000000	98.317781 
1402.000000	98.340993 
1401.000000	98.356084 
1400.000000	98.365135 
1399.000000	98.372974 
1398.000000	98.378803 
1397.000000	98.374746 
1396.000000	98.356712 
1395.000000	98.335122 
1394.000000	98.330928 
1393.000000	98.354044 
1392.000000	98.393541 
1391.000000	98.431301 
1390.000000	98.455600 
1389.000000	98.464461 
1388.000000	98.463088 
1387.000000	98.458416 
1386.000000	98.454871 
1385.000000	98.454508 
1384.000000	98.458306 
1383.000000	98.466062 
1382.000000	98.475024 
1381.000000	98.481907 
1380.000000	98.486669 
1379.000000	98.491603 
1378.000000	98.497082 
1377.000000	98.500700 
1376.000000	98.501864 
1375.000000	98.505039 
1374.000000	98.516184 
1373.000000	98.534864 
1372.000000	98.554721 
1371.000000	98.571268 
1370.000000	98.585871 
1369.000000	98.602379 
1368.000000	98.621193 
1367.000000	98.638366 
1366.000000	98.649392 
1365.000000	98.652489 
1364.000000	98.649792 
1363.000000	98.647197 
1362.000000	98.650755 
1361.000000	98.661529 
1360.000000	98.675795 
1359.000000	98.689581 
1358.000000	98.701294 
1357.000000	98.710768 
1356.000000	98.717923 
1355.000000	98.723216 
1354.000000	98.728075 
1353.000000	98.732887 
1352.000000	98.736236 
1351.000000	98.736380 
1350.000000	98.734131 
1349.000000	98.732906 
1348.000000	98.735420 
1347.000000	98.742030 
1346.000000	98.751173 
1345.000000	98.759674 
1344.000000	98.763075 
1343.000000	98.758234 
1342.000000	98.746480 
1341.000000	98.733371 
1340.000000	98.724587 
1339.000000	98.722144 
1338.000000	98.724951 
1337.000000	98.731649 
1336.000000	98.740944 
1335.000000	98.750301 
1334.000000	98.756847 
1333.000000	98.759874 
1332.000000	98.761159 
1331.000000	98.762237 
1330.000000	98.762420 
1329.000000	98.760154 
1328.000000	98.755729 
1327.000000	98.751161 
1326.000000	98.747617 
1325.000000	98.744159 
1324.000000	98.739646 
1323.000000	98.734967 
1322.000000	98.731661 
1321.000000	98.729010 
1320.000000	98.724629 
1319.000000	98.718297 
1318.000000	98.712957 
1317.000000	98.710806 
1316.000000	98.710404 
1315.000000	98.709220 
1314.000000	98.707461 
1313.000000	98.707538 
1312.000000	98.710423 
1311.000000	98.714225 
1310.000000	98.716487 
1309.000000	98.716321 
1308.000000	98.714115 
1307.000000	98.709852 
1306.000000	98.702677 
1305.000000	98.692463 
1304.000000	98.681726 
1303.000000	98.675242 
1302.000000	98.675964 
1301.000000	98.680873 
1300.000000	98.682435 
1299.000000	98.675606 
1298.000000	98.662822 
1297.000000	98.651069 
1296.000000	98.644531 
1295.000000	98.641327 
1294.000000	98.637165 
1293.000000	98.630491 
1292.000000	98.623214 
1291.000000	98.617170 
1290.000000	98.611148 
1289.000000	98.601887 
1288.000000	98.587581 
1287.000000	98.569694 
1286.000000	98.551429 
1285.000000	98.535391 
1284.000000	98.523008 
1283.000000	98.514764 
1282.000000	98.509568 
1281.000000	98.504660 
1280.000000	98.497288 
1279.000000	98.486198 
1278.000000	98.471043 
1277.000000	98.451615 
1276.000000	98.429248 
1275.000000	98.408010 
1274.000000	98.392277 
1273.000000	98.382827 
1272.000000	98.376515 
1271.000000	98.369485 
1270.000000	98.359522 
1269.000000	98.345940 
1268.000000	98.328965 
1267.000000	98.309314 
1266.000000	98.287254 
1265.000000	98.262714 
1264.000000	98.237760 
1263.000000	98.217502 
1262.000000	98.205669 
1261.000000	98.199807 
1260.000000	98.193522 
1259.000000	98.183164 
1258.000000	98.169652 
1257.000000	98.154244 
1256.000000	98.136234 
1255.000000	98.115410 
1254.000000	98.093554 
1253.000000	98.072479 
1252.000000	98.053052 
1251.000000	98.036663 
1250.000000	98.024766 
1249.000000	98.016334 
1248.000000	98.008546 
1247.000000	98.000269 
1246.000000	97.991194 
1245.000000	97.977034 
1244.000000	97.950988 
1243.000000	97.913412 
1242.000000	97.875875 
1241.000000	97.850573 
1240.000000	97.837476 
1239.000000	97.825704 
1238.000000	97.806117 
1237.000000	97.778518 
1236.000000	97.747116 
1235.000000	97.713803 
1234.000000	97.677859 
1233.000000	97.639412 
1232.000000	97.600531 
1231.000000	97.563249 
1230.000000	97.527735 
1229.000000	97.492608 
1228.000000	97.456674 
1227.000000	97.419907 
1226.000000	97.382389 
1225.000000	97.342568 
1224.000000	97.297278 
1223.000000	97.243619 
1222.000000	97.180648 
1221.000000	97.109945 
1220.000000	97.035604 
1219.000000	96.962786 
1218.000000	96.893595 
1217.000000	96.823515 
1216.000000	96.743913 
1215.000000	96.649866 
1214.000000	96.545397 
1213.000000	96.440268 
1212.000000	96.341544 
1211.000000	96.248159 
1210.000000	96.153412 
1209.000000	96.052613 
1208.000000	95.947511 
1207.000000	95.842596 
1206.000000	95.738890 
1205.000000	95.634525 
1204.000000	95.530572 
1203.000000	95.431204 
1202.000000	95.336350 
1201.000000	95.238911 
1200.000000	95.132622 
1199.000000	95.019509 
1198.000000	94.906706 
1197.000000	94.799002 
1196.000000	94.697340 
1195.000000	94.600559 
1194.000000	94.504132 
1193.000000	94.400276 
1192.000000	94.284332 
1191.000000	94.159768 
1190.000000	94.033551 
1189.000000	93.908626 
1188.000000	93.784365 
1187.000000	93.661371 
1186.000000	93.540793 
1185.000000	93.420457 
1184.000000	93.296354 
1183.000000	93.167362 
1182.000000	93.035259 
1181.000000	92.901244 
1180.000000	92.765334 
1179.000000	92.627732 
1178.000000	92.487940 
1177.000000	92.344081 
1176.000000	92.195438 
1175.000000	92.043557 
1174.000000	91.888766 
1173.000000	91.728421 
1172.000000	91.561132 
1171.000000	91.389744 
1170.000000	91.217561 
1169.000000	91.044756 
1168.000000	90.871358 
1167.000000	90.701381 
1166.000000	90.542972 
1165.000000	90.408959 
1164.000000	90.318267 
1163.000000	90.289050 
1162.000000	90.324123 
1161.000000	90.405384 
1160.000000	90.503832 
1159.000000	90.591389 
1158.000000	90.645320 
1157.000000	90.651406 
1156.000000	90.608685 
1155.000000	90.527801 
1154.000000	90.421244 
1153.000000	90.296900 
1152.000000	90.160955 
1151.000000	90.020511 
1150.000000	89.879411 
1149.000000	89.736107 
1148.000000	89.589260 
1147.000000	89.441587 
1146.000000	89.295626 
1145.000000	89.150422 
1144.000000	89.005188 
1143.000000	88.861522 
1142.000000	88.719419 
1141.000000	88.575840 
1140.000000	88.429305 
1139.000000	88.280812 
1138.000000	88.128806 
1137.000000	87.969627 
1136.000000	87.804976 
1135.000000	87.642043 
1134.000000	87.483264 
1133.000000	87.322375 
1132.000000	87.153390 
1131.000000	86.977048 
1130.000000	86.795972 
1129.000000	86.610259 
1128.000000	86.420702 
1127.000000	86.229945 
1126.000000	86.038109 
1125.000000	85.843497 
1124.000000	85.648442 
1123.000000	85.456685 
1122.000000	85.264420 
1121.000000	85.063216 
1120.000000	84.853079 
1119.000000	84.643122 
1118.000000	84.438543 
1117.000000	84.237692 
1116.000000	84.042860 
1115.000000	83.861142 
1114.000000	83.691874 
1113.000000	83.525641 
1112.000000	83.358762 
1111.000000	83.196301 
1110.000000	83.038290 
1109.000000	82.876450 
1108.000000	82.707866 
1107.000000	82.538386 
1106.000000	82.368912 
1105.000000	82.192405 
1104.000000	82.008441 
1103.000000	81.826721 
1102.000000	81.652265 
1101.000000	81.481116 
1100.000000	81.313625 
1099.000000	81.155905 
1098.000000	81.004129 
1097.000000	80.844479 
1096.000000	80.674118 
1095.000000	80.505591 
1094.000000	80.344702 
1093.000000	80.181261 
1092.000000	80.008583 
1091.000000	79.834869 
1090.000000	79.667389 
1089.000000	79.502262 
1088.000000	79.338591 
1087.000000	79.186324 
1086.000000	79.050484 
1085.000000	78.922323 
1084.000000	78.794470 
1083.000000	78.670218 
1082.000000	78.550224 
1081.000000	78.425384 
1080.000000	78.291479 
1079.000000	78.156949 
1078.000000	78.028376 
1077.000000	77.901420 
1076.000000	77.772119 
1075.000000	77.642409 
1074.000000	77.508221 
1073.000000	77.356662 
1072.000000	77.180359 
1071.000000	76.980289 
1070.000000	76.751584 
1069.000000	76.484691 
1068.000000	76.186430 
1067.000000	75.882175 
1066.000000	75.589508 
1065.000000	75.305502 
1064.000000	75.025114 
1063.000000	74.752576 
1062.000000	74.487246 
1061.000000	74.218084 
1060.000000	73.941739 
1059.000000	73.669139 
1058.000000	73.406268 
1057.000000	73.144834 
1056.000000	72.877392 
1055.000000	72.602898 
1054.000000	72.311931 
1053.000000	71.988106 
1052.000000	71.633391 
1051.000000	71.270889 
1050.000000	70.912300 
1049.000000	70.546026 
1048.000000	70.166618 
1047.000000	69.787445 
1046.000000	69.413273 
1045.000000	69.028067 
1044.000000	68.621681 
1043.000000	68.205629 
1042.000000	67.792344 
1041.000000	67.380117 
1040.000000	66.968738 
1039.000000	66.569164 
1038.000000	66.187230 
1037.000000	65.817915 
1036.000000	65.464652 
1035.000000	65.143058 
1034.000000	64.856671 
1033.000000	64.590013 
1032.000000	64.333038 
1031.000000	64.091091 
1030.000000	63.865953 
1029.000000	63.651886 
1028.000000	63.456402 
1027.000000	63.298308 
1026.000000	63.176194 
1025.000000	63.063367 
1024.000000	62.941835 
1023.000000	62.817436 
1022.000000	62.695816 
1021.000000	62.569792 
1020.000000	62.438062 
1019.000000	62.310579 
1018.000000	62.186632 
1017.000000	62.051686 
1016.000000	61.903499 
1015.000000	61.757713 
1014.000000	61.621152 
1013.000000	61.483723 
1012.000000	61.342474 
1011.000000	61.208328 
1010.000000	61.082836 
1009.000000	60.954264 
1008.000000	60.823890 
1007.000000	60.711142 
1006.000000	60.625433 
1005.000000	60.556503 
1004.000000	60.497719 
1003.000000	60.454192 
1002.000000	60.423569 
1001.000000	60.394757 
1000.000000	60.370550 
999.000000	 60.366315 
998.000000	 60.382449 
997.000000	 60.403694 
996.000000	 60.427938 
995.000000	 60.467707 
994.000000	 60.520248 
993.000000	 60.565678 
992.000000	 60.599887 
991.000000	 60.641232 
990.000000	 60.699856 
989.000000	 60.768478 
988.000000	 60.847768 
987.000000	 60.951100 
986.000000	 61.078372 
985.000000	 61.214348 
984.000000	 61.359156 
983.000000	 61.531999 
982.000000	 61.738692 
981.000000	 61.963748 
980.000000	 62.199944 
979.000000	 62.456948 
978.000000	 62.735419 
977.000000	 63.022279 
976.000000	 63.318506 
975.000000	 63.642844 
974.000000	 64.000248 
973.000000	 64.373501 
972.000000	 64.752578 
971.000000	 65.145182 
970.000000	 65.551486 
969.000000	 65.955513 
968.000000	 66.349872 
967.000000	 66.744562 
966.000000	 67.144001 
965.000000	 67.538659 
964.000000	 67.925377 
963.000000	 68.312140 
962.000000	 68.696398 
961.000000	 69.062345 
960.000000	 69.406537 
959.000000	 69.743650 
958.000000	 70.080071 
957.000000	 70.404020 
956.000000	 70.708992 
955.000000	 71.004821 
954.000000	 71.296783 
953.000000	 71.573924 
952.000000	 71.827053 
951.000000	 72.060321 
950.000000	 72.277454 
949.000000	 72.474193 
948.000000	 72.651854 
947.000000	 72.821547 
946.000000	 72.987523 
945.000000	 73.141559 
944.000000	 73.279270 
943.000000	 73.406099 
942.000000	 73.522499 
941.000000	 73.620321 
940.000000	 73.700073 
939.000000	 73.776301 
938.000000	 73.860367 
937.000000	 73.952120 
936.000000	 74.051447 
935.000000	 74.161308 
934.000000	 74.275681 
933.000000	 74.382131 
932.000000	 74.481131 
931.000000	 74.586812 
930.000000	 74.704969 
929.000000	 74.826529 
928.000000	 74.945111 
927.000000	 75.063036 
926.000000	 75.176916 
925.000000	 75.275982 
924.000000	 75.359197 
923.000000	 75.436681 
922.000000	 75.510236 
921.000000	 75.569894 
920.000000	 75.613532 
919.000000	 75.652094 
918.000000	 75.691112 
917.000000	 75.724646 
916.000000	 75.752030 
915.000000	 75.783686 
914.000000	 75.827098 
913.000000	 75.885196 
912.000000	 75.971584 
911.000000	 76.106697 
910.000000	 76.292806 
909.000000	 76.511636 
908.000000	 76.751635 
907.000000	 77.018821 
906.000000	 77.317604 
905.000000	 77.641783 
904.000000	 77.989112 
903.000000	 78.364354 
902.000000	 78.762254 
901.000000	 79.165860 
900.000000	 79.566222 
899.000000	 79.966238 
898.000000	 80.361977 
897.000000	 80.738751 
896.000000	 81.090193 
895.000000	 81.424541 
894.000000	 81.748047 
893.000000	 82.058112 
892.000000	 82.356184 
891.000000	 82.650466 
890.000000	 82.940374 
889.000000	 83.213300 
888.000000	 83.462287 
887.000000	 83.693790 
886.000000	 83.913832 
885.000000	 84.120237 
884.000000	 84.313692 
883.000000	 84.503466 
882.000000	 84.696141 
881.000000	 84.889728 
880.000000	 85.083510 
879.000000	 85.282350 
878.000000	 85.486804 
877.000000	 85.689829 
876.000000	 85.887034 
875.000000	 86.080206 
874.000000	 86.269474 
873.000000	 86.453529 
872.000000	 86.638552 
871.000000	 86.834468 
870.000000	 87.040494 
869.000000	 87.245875 
868.000000	 87.445945 
867.000000	 87.645954 
866.000000	 87.848088 
865.000000	 88.046241 
864.000000	 88.235725 
863.000000	 88.418187 
862.000000	 88.594999 
861.000000	 88.764504 
860.000000	 88.926901 
859.000000	 89.083759 
858.000000	 89.232776 
857.000000	 89.371235 
856.000000	 89.503213 
855.000000	 89.633536 
854.000000	 89.755725 
853.000000	 89.857048 
852.000000	 89.935768 
851.000000	 90.002714 
850.000000	 90.065600 
849.000000	 90.123140 
848.000000	 90.175259 
847.000000	 90.225924 
846.000000	 90.272068 
845.000000	 90.301399 
844.000000	 90.306166 
843.000000	 90.289530 
842.000000	 90.254254 
841.000000	 90.195226 
840.000000	 90.108901 
839.000000	 90.001521 
838.000000	 89.881716 
837.000000	 89.752001 
836.000000	 89.613731 
835.000000	 89.474559 
834.000000	 89.345446 
833.000000	 89.234590 
832.000000	 89.146910 
831.000000	 89.083254 
830.000000	 89.038557 
829.000000	 89.009030 
828.000000	 89.002221 
827.000000	 89.029350 
826.000000	 89.086285 
825.000000	 89.155334 
824.000000	 89.227803 
823.000000	 89.308298 
822.000000	 89.393555 
821.000000	 89.465667 
820.000000	 89.511910 
819.000000	 89.536075 
818.000000	 89.545907 
817.000000	 89.541556 
816.000000	 89.519084 
815.000000	 89.472589 
814.000000	 89.387667 
813.000000	 89.243567 
812.000000	 89.028098 
811.000000	 88.742270 
810.000000	 88.385839 
809.000000	 87.948056 
808.000000	 87.419336 
807.000000	 86.803704 
806.000000	 86.114250 
805.000000	 85.367924 
804.000000	 84.594633 
803.000000	 83.840687 
802.000000	 83.150533 
801.000000	 82.552001 
800.000000	 82.065898 
799.000000	 81.714891 
798.000000	 81.511066 
797.000000	 81.446009 
796.000000	 81.499800 
795.000000	 81.646848 
794.000000	 81.851421 
793.000000	 82.076224 
792.000000	 82.300089 
791.000000	 82.512499 
790.000000	 82.691482 
789.000000	 82.806764 
788.000000	 82.847221 
787.000000	 82.825377 
786.000000	 82.749431 
785.000000	 82.609394 
784.000000	 82.399088 
783.000000	 82.136164 
782.000000	 81.852112 
781.000000	 81.577045 
780.000000	 81.342010 
779.000000	 81.179756 
778.000000	 81.111092 
777.000000	 81.139950 
776.000000	 81.264388 
775.000000	 81.476049 
774.000000	 81.746145 
773.000000	 82.032202 
772.000000	 82.305832 
771.000000	 82.559871 
770.000000	 82.787359 
769.000000	 82.972200 
768.000000	 83.105350 
767.000000	 83.193927 
766.000000	 83.249055 
765.000000	 83.278581 
764.000000	 83.294449 
763.000000	 83.310506 
762.000000	 83.327766 
761.000000	 83.337468 
760.000000	 83.343190 
759.000000	 83.363052 
758.000000	 83.404553 
757.000000	 83.454610 
756.000000	 83.501507 
755.000000	 83.550843 
754.000000	 83.612892 
753.000000	 83.689218 
752.000000	 83.778000 
751.000000	 83.877682 
750.000000	 83.979015 
749.000000	 84.067909 
748.000000	 84.143229 
747.000000	 84.220606 
746.000000	 84.314688 
745.000000	 84.428949 
744.000000	 84.563802 
743.000000	 84.719531 
742.000000	 84.889178 
741.000000	 85.064057 
740.000000	 85.248237 
739.000000	 85.451764 
738.000000	 85.667762 
737.000000	 85.873156 
736.000000	 86.054959 
735.000000	 86.219612 
734.000000	 86.373548 
733.000000	 86.511301 
732.000000	 86.626811 
731.000000	 86.719679 
730.000000	 86.785752 
729.000000	 86.818816 
728.000000	 86.827535 
727.000000	 86.834994 
726.000000	 86.855222 
725.000000	 86.884773 
724.000000	 86.922337 
723.000000	 86.979190 
722.000000	 87.062117 
721.000000	 87.160960 
720.000000	 87.261433 
719.000000	 87.357580 
718.000000	 87.444998 
717.000000	 87.516314 
716.000000	 87.572048 
715.000000	 87.623639 
714.000000	 87.677847 
713.000000	 87.728703 
712.000000	 87.769995 
711.000000	 87.802930 
710.000000	 87.825802 
709.000000	 87.829455 
708.000000	 87.809204 
707.000000	 87.769036 
706.000000	 87.709247 
705.000000	 87.622857 
704.000000	 87.508457 
703.000000	 87.369899 
702.000000	 87.194833 
701.000000	 86.950064 
700.000000	 86.610287 
699.000000	 86.183436 
698.000000	 85.706833 
697.000000	 85.235163 
696.000000	 84.836852 
695.000000	 84.578169 
694.000000	 84.490689 
693.000000	 84.559560 
692.000000	 84.743366 
691.000000	 84.991068 
690.000000	 85.245819 
689.000000	 85.461442 
688.000000	 85.628562 
687.000000	 85.768530 
686.000000	 85.894911 
685.000000	 86.001588 
684.000000	 86.090578 
683.000000	 86.182459 
682.000000	 86.289901 
681.000000	 86.402226 
680.000000	 86.504318 
679.000000	 86.592482 
678.000000	 86.666570 
677.000000	 86.729055 
676.000000	 86.795484 
675.000000	 86.881759 
674.000000	 86.980581 
673.000000	 87.069647 
672.000000	 87.144399 
671.000000	 87.217712 
670.000000	 87.289067 
669.000000	 87.336009 
668.000000	 87.349896 
667.000000	 87.373492 
666.000000	 87.444743 
665.000000	 87.537760 
664.000000	 87.614786 
663.000000	 87.672714 
662.000000	 87.720117 
661.000000	 87.754657 
660.000000	 87.772806 
659.000000	 87.785761 
658.000000	 87.796418 
657.000000	 87.781962 
656.000000	 87.726182 
655.000000	 87.654981 
654.000000	 87.609606 
653.000000	 87.587732 
652.000000	 87.545774 
651.000000	 87.463276 
650.000000	 87.376955 

