4000.000000	99.355390 
3999.000000	99.354856 
3998.000000	99.354033 
3997.000000	99.352816 
3996.000000	99.351368 
3995.000000	99.350098 
3994.000000	99.349451 
3993.000000	99.349630 
3992.000000	99.350403 
3991.000000	99.351157 
3990.000000	99.351368 
3989.000000	99.351068 
3988.000000	99.350798 
3987.000000	99.351102 
3986.000000	99.352054 
3985.000000	99.353202 
3984.000000	99.353915 
3983.000000	99.353794 
3982.000000	99.352851 
3981.000000	99.351430 
3980.000000	99.349910 
3979.000000	99.348477 
3978.000000	99.347220 
3977.000000	99.346354 
3976.000000	99.346202 
3975.000000	99.346881 
3974.000000	99.348097 
3973.000000	99.349243 
3972.000000	99.349754 
3971.000000	99.349470 
3970.000000	99.348689 
3969.000000	99.347914 
3968.000000	99.347483 
3967.000000	99.347337 
3966.000000	99.347157 
3965.000000	99.346720 
3964.000000	99.346040 
3963.000000	99.345201 
3962.000000	99.344207 
3961.000000	99.343070 
3960.000000	99.341968 
3959.000000	99.341223 
3958.000000	99.341043 
3957.000000	99.341325 
3956.000000	99.341719 
3955.000000	99.341880 
3954.000000	99.341698 
3953.000000	99.341263 
3952.000000	99.340705 
3951.000000	99.340098 
3950.000000	99.339468 
3949.000000	99.338900 
3948.000000	99.338533 
3947.000000	99.338403 
3946.000000	99.338363 
3945.000000	99.338266 
3944.000000	99.338137 
3943.000000	99.338045 
3942.000000	99.337981 
3941.000000	99.337893 
3940.000000	99.337716 
3939.000000	99.337331 
3938.000000	99.336585 
3937.000000	99.335439 
3936.000000	99.334172 
3935.000000	99.333326 
3934.000000	99.333424 
3933.000000	99.334607 
3932.000000	99.336422 
3931.000000	99.337942 
3930.000000	99.338340 
3929.000000	99.337459 
3928.000000	99.335860 
3927.000000	99.334413 
3926.000000	99.333803 
3925.000000	99.334135 
3924.000000	99.334868 
3923.000000	99.335278 
3922.000000	99.334994 
3921.000000	99.334211 
3920.000000	99.333429 
3919.000000	99.333074 
3918.000000	99.333357 
3917.000000	99.334259 
3916.000000	99.335575 
3915.000000	99.336964 
3914.000000	99.338161 
3913.000000	99.339044 
3912.000000	99.339549 
3911.000000	99.339744 
3910.000000	99.339818 
3909.000000	99.339944 
3908.000000	99.340062 
3907.000000	99.339680 
3906.000000	99.338124 
3905.000000	99.335017 
3904.000000	99.330676 
3903.000000	99.326291 
3902.000000	99.323398 
3901.000000	99.322918 
3900.000000	99.324724 
3899.000000	99.327635 
3898.000000	99.330149 
3897.000000	99.331418 
3896.000000	99.331382 
3895.000000	99.330421 
3894.000000	99.329100 
3893.000000	99.327981 
3892.000000	99.327409 
3891.000000	99.327301 
3890.000000	99.327251 
3889.000000	99.326866 
3888.000000	99.326166 
3887.000000	99.325643 
3886.000000	99.325731 
3885.000000	99.326218 
3884.000000	99.326485 
3883.000000	99.326337 
3882.000000	99.326259 
3881.000000	99.326790 
3880.000000	99.327856 
3879.000000	99.328839 
3878.000000	99.329336 
3877.000000	99.329537 
3876.000000	99.329878 
3875.000000	99.330443 
3874.000000	99.330865 
3873.000000	99.330870 
3872.000000	99.330674 
3871.000000	99.330722 
3870.000000	99.331161 
3869.000000	99.331781 
3868.000000	99.332347 
3867.000000	99.332824 
3866.000000	99.333288 
3865.000000	99.333777 
3864.000000	99.334288 
3863.000000	99.334824 
3862.000000	99.335388 
3861.000000	99.335977 
3860.000000	99.336585 
3859.000000	99.337203 
3858.000000	99.337820 
3857.000000	99.338428 
3856.000000	99.339023 
3855.000000	99.339607 
3854.000000	99.340183 
3853.000000	99.340753 
3852.000000	99.341317 
3851.000000	99.341878 
3850.000000	99.342437 
3849.000000	99.342998 
3848.000000	99.343563 
3847.000000	99.344134 
3846.000000	99.344707 
3845.000000	99.345277 
3844.000000	99.345842 
3843.000000	99.346406 
3842.000000	99.346979 
3841.000000	99.347561 
3840.000000	99.348134 
3839.000000	99.348669 
3838.000000	99.349140 
3837.000000	99.349534 
3836.000000	99.349853 
3835.000000	99.350130 
3834.000000	99.350429 
3833.000000	99.350830 
3832.000000	99.351362 
3831.000000	99.351923 
3830.000000	99.352323 
3829.000000	99.352445 
3828.000000	99.352365 
3827.000000	99.352314 
3826.000000	99.352453 
3825.000000	99.352724 
3824.000000	99.352996 
3823.000000	99.353350 
3822.000000	99.353975 
3821.000000	99.354724 
3820.000000	99.355167 
3819.000000	99.355147 
3818.000000	99.354898 
3817.000000	99.354790 
3816.000000	99.354831 
3815.000000	99.354530 
3814.000000	99.353553 
3813.000000	99.352249 
3812.000000	99.351354 
3811.000000	99.351288 
3810.000000	99.351893 
3809.000000	99.352702 
3808.000000	99.353419 
3807.000000	99.353999 
3806.000000	99.354268 
3805.000000	99.353911 
3804.000000	99.352937 
3803.000000	99.351976 
3802.000000	99.351718 
3801.000000	99.351928 
3800.000000	99.351650 
3799.000000	99.350387 
3798.000000	99.348536 
3797.000000	99.346964 
3796.000000	99.346135 
3795.000000	99.345772 
3794.000000	99.345305 
3793.000000	99.344529 
3792.000000	99.343707 
3791.000000	99.343189 
3790.000000	99.343064 
3789.000000	99.343172 
3788.000000	99.343331 
3787.000000	99.343416 
3786.000000	99.343372 
3785.000000	99.343218 
3784.000000	99.343000 
3783.000000	99.342689 
3782.000000	99.342322 
3781.000000	99.342258 
3780.000000	99.342940 
3779.000000	99.344241 
3778.000000	99.345320 
3777.000000	99.345327 
3776.000000	99.344126 
3775.000000	99.342343 
3774.000000	99.340643 
3773.000000	99.339203 
3772.000000	99.338115 
3771.000000	99.337675 
3770.000000	99.337662 
3769.000000	99.337142 
3768.000000	99.335717 
3767.000000	99.334255 
3766.000000	99.333965 
3765.000000	99.334778 
3764.000000	99.335032 
3763.000000	99.333213 
3762.000000	99.329943 
3761.000000	99.327710 
3760.000000	99.328251 
3759.000000	99.330958 
3758.000000	99.334091 
3757.000000	99.336725 
3756.000000	99.338859 
3755.000000	99.340804 
3754.000000	99.343154 
3753.000000	99.346752 
3752.000000	99.351414 
3751.000000	99.354840 
3750.000000	99.355234 
3749.000000	99.353371 
3748.000000	99.350416 
3747.000000	99.346603 
3746.000000	99.342899 
3745.000000	99.340989 
3744.000000	99.340829 
3743.000000	99.339682 
3742.000000	99.335454 
3741.000000	99.329109 
3740.000000	99.322815 
3739.000000	99.317427 
3738.000000	99.312921 
3737.000000	99.309723 
3736.000000	99.308045 
3735.000000	99.306629 
3734.000000	99.304262 
3733.000000	99.302192 
3732.000000	99.302664 
3731.000000	99.305494 
3730.000000	99.307985 
3729.000000	99.308186 
3728.000000	99.307319 
3727.000000	99.307876 
3726.000000	99.309806 
3725.000000	99.310335 
3724.000000	99.307977 
3723.000000	99.304595 
3722.000000	99.302926 
3721.000000	99.303687 
3720.000000	99.305024 
3719.000000	99.304751 
3718.000000	99.302559 
3717.000000	99.299421 
3716.000000	99.295775 
3715.000000	99.291406 
3714.000000	99.286990 
3713.000000	99.284522 
3712.000000	99.284693 
3711.000000	99.285433 
3710.000000	99.284254 
3709.000000	99.280372 
3708.000000	99.274584 
3707.000000	99.268092 
3706.000000	99.261781 
3705.000000	99.256049 
3704.000000	99.250751 
3703.000000	99.245092 
3702.000000	99.237760 
3701.000000	99.228086 
3700.000000	99.216731 
3699.000000	99.205001 
3698.000000	99.194403 
3697.000000	99.186365 
3696.000000	99.181439 
3695.000000	99.179133 
3694.000000	99.178656 
3693.000000	99.179210 
3692.000000	99.179258 
3691.000000	99.176379 
3690.000000	99.169020 
3689.000000	99.158960 
3688.000000	99.150169 
3687.000000	99.144147 
3686.000000	99.139565 
3685.000000	99.135930 
3684.000000	99.134403 
3683.000000	99.135733 
3682.000000	99.138592 
3681.000000	99.140100 
3680.000000	99.137585 
3679.000000	99.129534 
3678.000000	99.116728 
3677.000000	99.104231 
3676.000000	99.098808 
3675.000000	99.101549 
3674.000000	99.106504 
3673.000000	99.107690 
3672.000000	99.104675 
3671.000000	99.102317 
3670.000000	99.104156 
3669.000000	99.108266 
3668.000000	99.111375 
3667.000000	99.113023 
3666.000000	99.114676 
3665.000000	99.117201 
3664.000000	99.119881 
3663.000000	99.121731 
3662.000000	99.122729 
3661.000000	99.123244 
3660.000000	99.123254 
3659.000000	99.123016 
3658.000000	99.124461 
3657.000000	99.130107 
3656.000000	99.139631 
3655.000000	99.149110 
3654.000000	99.154658 
3653.000000	99.155953 
3652.000000	99.155779 
3651.000000	99.156988 
3650.000000	99.159390 
3649.000000	99.161256 
3648.000000	99.163481 
3647.000000	99.168145 
3646.000000	99.175156 
3645.000000	99.182983 
3644.000000	99.190648 
3643.000000	99.198283 
3642.000000	99.206502 
3641.000000	99.215378 
3640.000000	99.224303 
3639.000000	99.232198 
3638.000000	99.237912 
3637.000000	99.241042 
3636.000000	99.242524 
3635.000000	99.243982 
3634.000000	99.245725 
3633.000000	99.246202 
3632.000000	99.244319 
3631.000000	99.241696 
3630.000000	99.241812 
3629.000000	99.244897 
3628.000000	99.247049 
3627.000000	99.246654 
3626.000000	99.246380 
3625.000000	99.249367 
3624.000000	99.255868 
3623.000000	99.263079 
3622.000000	99.268013 
3621.000000	99.270470 
3620.000000	99.272305 
3619.000000	99.274327 
3618.000000	99.275586 
3617.000000	99.275442 
3616.000000	99.274782 
3615.000000	99.275258 
3614.000000	99.277276 
3613.000000	99.279281 
3612.000000	99.279580 
3611.000000	99.278328 
3610.000000	99.277366 
3609.000000	99.278147 
3608.000000	99.280189 
3607.000000	99.282262 
3606.000000	99.284422 
3605.000000	99.287758 
3604.000000	99.292703 
3603.000000	99.298203 
3602.000000	99.302525 
3601.000000	99.304824 
3600.000000	99.305395 
3599.000000	99.304860 
3598.000000	99.303775 
3597.000000	99.302572 
3596.000000	99.301706 
3595.000000	99.301625 
3594.000000	99.302300 
3593.000000	99.303215 
3592.000000	99.303694 
3591.000000	99.303125 
3590.000000	99.301446 
3589.000000	99.299348 
3588.000000	99.297729 
3587.000000	99.296914 
3586.000000	99.296968 
3585.000000	99.298177 
3584.000000	99.300912 
3583.000000	99.304910 
3582.000000	99.309099 
3581.000000	99.312164 
3580.000000	99.313454 
3579.000000	99.313208 
3578.000000	99.312080 
3577.000000	99.310773 
3576.000000	99.309892 
3575.000000	99.309914 
3574.000000	99.310896 
3573.000000	99.312291 
3572.000000	99.313278 
3571.000000	99.313215 
3570.000000	99.311822 
3569.000000	99.309427 
3568.000000	99.307024 
3567.000000	99.305579 
3566.000000	99.305344 
3565.000000	99.306005 
3564.000000	99.307405 
3563.000000	99.309829 
3562.000000	99.313368 
3561.000000	99.317254 
3560.000000	99.320257 
3559.000000	99.321735 
3558.000000	99.322099 
3557.000000	99.322285 
3556.000000	99.322908 
3555.000000	99.323885 
3554.000000	99.324685 
3553.000000	99.324661 
3552.000000	99.323420 
3551.000000	99.321108 
3550.000000	99.318308 
3549.000000	99.315779 
3548.000000	99.314329 
3547.000000	99.314515 
3546.000000	99.316207 
3545.000000	99.318364 
3544.000000	99.319798 
3543.000000	99.320373 
3542.000000	99.321149 
3541.000000	99.323133 
3540.000000	99.326093 
3539.000000	99.328617 
3538.000000	99.329516 
3537.000000	99.328876 
3536.000000	99.327826 
3535.000000	99.327417 
3534.000000	99.327830 
3533.000000	99.328690 
3532.000000	99.329690 
3531.000000	99.330740 
3530.000000	99.331654 
3529.000000	99.332026 
3528.000000	99.331614 
3527.000000	99.330704 
3526.000000	99.329911 
3525.000000	99.329646 
3524.000000	99.329846 
3523.000000	99.330165 
3522.000000	99.330340 
3521.000000	99.330354 
3520.000000	99.330400 
3519.000000	99.330712 
3518.000000	99.331394 
3517.000000	99.332311 
3516.000000	99.333145 
3515.000000	99.333630 
3514.000000	99.333679 
3513.000000	99.333366 
3512.000000	99.332852 
3511.000000	99.332323 
3510.000000	99.331964 
3509.000000	99.331891 
3508.000000	99.332117 
3507.000000	99.332589 
3506.000000	99.333234 
3505.000000	99.333951 
3504.000000	99.334588 
3503.000000	99.335046 
3502.000000	99.335426 
3501.000000	99.335968 
3500.000000	99.336801 
3499.000000	99.337754 
3498.000000	99.338431 
3497.000000	99.338562 
3496.000000	99.338211 
3495.000000	99.337738 
3494.000000	99.337551 
3493.000000	99.337787 
3492.000000	99.338326 
3491.000000	99.338941 
3490.000000	99.339507 
3489.000000	99.340072 
3488.000000	99.340701 
3487.000000	99.341348 
3486.000000	99.341889 
3485.000000	99.342256 
3484.000000	99.342513 
3483.000000	99.342782 
3482.000000	99.343124 
3481.000000	99.343512 
3480.000000	99.343907 
3479.000000	99.344300 
3478.000000	99.344684 
3477.000000	99.345044 
3476.000000	99.345411 
3475.000000	99.345892 
3474.000000	99.346560 
3473.000000	99.347345 
3472.000000	99.348029 
3471.000000	99.348452 
3470.000000	99.348645 
3469.000000	99.348805 
3468.000000	99.349103 
3467.000000	99.349524 
3466.000000	99.349942 
3465.000000	99.350273 
3464.000000	99.350541 
3463.000000	99.350809 
3462.000000	99.351095 
3461.000000	99.351375 
3460.000000	99.351639 
3459.000000	99.351924 
3458.000000	99.352256 
3457.000000	99.352583 
3456.000000	99.352788 
3455.000000	99.352778 
3454.000000	99.352576 
3453.000000	99.352365 
3452.000000	99.352343 
3451.000000	99.352566 
3450.000000	99.352896 
3449.000000	99.353120 
3448.000000	99.353133 
3447.000000	99.353006 
3446.000000	99.352912 
3445.000000	99.352983 
3444.000000	99.353238 
3443.000000	99.353572 
3442.000000	99.353781 
3441.000000	99.353680 
3440.000000	99.353254 
3439.000000	99.352698 
3438.000000	99.352214 
3437.000000	99.351786 
3436.000000	99.351297 
3435.000000	99.350858 
3434.000000	99.350882 
3433.000000	99.351708 
3432.000000	99.353129 
3431.000000	99.354446 
3430.000000	99.355109 
3429.000000	99.355204 
3428.000000	99.355271 
3427.000000	99.355592 
3426.000000	99.355736 
3425.000000	99.354972 
3424.000000	99.353132 
3423.000000	99.350886 
3422.000000	99.349114 
3421.000000	99.348164 
3420.000000	99.347882 
3419.000000	99.348144 
3418.000000	99.349026 
3417.000000	99.350440 
3416.000000	99.351951 
3415.000000	99.353114 
3414.000000	99.353804 
3413.000000	99.354140 
3412.000000	99.354234 
3411.000000	99.354145 
3410.000000	99.353956 
3409.000000	99.353719 
3408.000000	99.353331 
3407.000000	99.352577 
3406.000000	99.351391 
3405.000000	99.350024 
3404.000000	99.348923 
3403.000000	99.348391 
3402.000000	99.348395 
3401.000000	99.348749 
3400.000000	99.349433 
3399.000000	99.350617 
3398.000000	99.352320 
3397.000000	99.354158 
3396.000000	99.355511 
3395.000000	99.355968 
3394.000000	99.355530 
3393.000000	99.354513 
3392.000000	99.353360 
3391.000000	99.352497 
3390.000000	99.352200 
3389.000000	99.352497 
3388.000000	99.353159 
3387.000000	99.353839 
3386.000000	99.354312 
3385.000000	99.354606 
3384.000000	99.354865 
3383.000000	99.355092 
3382.000000	99.355095 
3381.000000	99.354750 
3380.000000	99.354223 
3379.000000	99.353862 
3378.000000	99.353848 
3377.000000	99.354064 
3376.000000	99.354259 
3375.000000	99.354284 
3374.000000	99.354182 
3373.000000	99.354079 
3372.000000	99.354049 
3371.000000	99.354076 
3370.000000	99.354107 
3369.000000	99.354104 
3368.000000	99.354072 
3367.000000	99.354041 
3366.000000	99.354033 
3365.000000	99.354044 
3364.000000	99.354048 
3363.000000	99.354023 
3362.000000	99.353967 
3361.000000	99.353887 
3360.000000	99.353793 
3359.000000	99.353687 
3358.000000	99.353569 
3357.000000	99.353443 
3356.000000	99.353316 
3355.000000	99.353193 
3354.000000	99.353075 
3353.000000	99.352954 
3352.000000	99.352824 
3351.000000	99.352688 
3350.000000	99.352558 
3349.000000	99.352452 
3348.000000	99.352384 
3347.000000	99.352345 
3346.000000	99.352298 
3345.000000	99.352190 
3344.000000	99.352002 
3343.000000	99.351774 
3342.000000	99.351583 
3341.000000	99.351454 
3340.000000	99.351302 
3339.000000	99.350997 
3338.000000	99.350551 
3337.000000	99.350180 
3336.000000	99.350143 
3335.000000	99.350501 
3334.000000	99.351031 
3333.000000	99.351451 
3332.000000	99.351673 
3331.000000	99.351805 
3330.000000	99.351924 
3329.000000	99.351906 
3328.000000	99.351582 
3327.000000	99.350978 
3326.000000	99.350299 
3325.000000	99.349671 
3324.000000	99.349016 
3323.000000	99.348264 
3322.000000	99.347592 
3321.000000	99.347324 
3320.000000	99.347579 
3319.000000	99.348095 
3318.000000	99.348468 
3317.000000	99.348527 
3316.000000	99.348353 
3315.000000	99.348063 
3314.000000	99.347710 
3313.000000	99.347375 
3312.000000	99.347190 
3311.000000	99.347179 
3310.000000	99.347150 
3309.000000	99.346879 
3308.000000	99.346369 
3307.000000	99.345826 
3306.000000	99.345423 
3305.000000	99.345176 
3304.000000	99.345062 
3303.000000	99.345111 
3302.000000	99.345298 
3301.000000	99.345397 
3300.000000	99.345096 
3299.000000	99.344284 
3298.000000	99.343160 
3297.000000	99.342107 
3296.000000	99.341377 
3295.000000	99.340935 
3294.000000	99.340580 
3293.000000	99.340181 
3292.000000	99.339795 
3291.000000	99.339530 
3290.000000	99.339337 
3289.000000	99.339032 
3288.000000	99.338509 
3287.000000	99.337842 
3286.000000	99.337185 
3285.000000	99.336614 
3284.000000	99.336105 
3283.000000	99.335635 
3282.000000	99.335250 
3281.000000	99.335014 
3280.000000	99.334921 
3279.000000	99.334869 
3278.000000	99.334713 
3277.000000	99.334369 
3276.000000	99.333852 
3275.000000	99.333251 
3274.000000	99.332692 
3273.000000	99.332257 
3272.000000	99.331959 
3271.000000	99.331768 
3270.000000	99.331642 
3269.000000	99.331535 
3268.000000	99.331386 
3267.000000	99.331135 
3266.000000	99.330732 
3265.000000	99.330155 
3264.000000	99.329475 
3263.000000	99.328900 
3262.000000	99.328663 
3261.000000	99.328802 
3260.000000	99.329076 
3259.000000	99.329168 
3258.000000	99.328961 
3257.000000	99.328567 
3256.000000	99.328139 
3255.000000	99.327669 
3254.000000	99.327020 
3253.000000	99.326174 
3252.000000	99.325453 
3251.000000	99.325360 
3250.000000	99.326104 
3249.000000	99.327310 
3248.000000	99.328308 
3247.000000	99.328653 
3246.000000	99.328269 
3245.000000	99.327270 
3244.000000	99.325915 
3243.000000	99.324638 
3242.000000	99.323811 
3241.000000	99.323412 
3240.000000	99.323174 
3239.000000	99.323142 
3238.000000	99.323805 
3237.000000	99.325549 
3236.000000	99.328141 
3235.000000	99.330789 
3234.000000	99.332562 
3233.000000	99.332822 
3232.000000	99.331528 
3231.000000	99.329333 
3230.000000	99.327209 
3229.000000	99.325675 
3228.000000	99.324502 
3227.000000	99.323198 
3226.000000	99.321554 
3225.000000	99.319658 
3224.000000	99.317701 
3223.000000	99.316013 
3222.000000	99.315071 
3221.000000	99.315129 
3220.000000	99.315860 
3219.000000	99.316578 
3218.000000	99.316915 
3217.000000	99.317178 
3216.000000	99.317982 
3215.000000	99.319556 
3214.000000	99.321428 
3213.000000	99.322706 
3212.000000	99.322721 
3211.000000	99.321401 
3210.000000	99.319214 
3209.000000	99.316899 
3208.000000	99.315167 
3207.000000	99.314420 
3206.000000	99.314579 
3205.000000	99.315168 
3204.000000	99.315661 
3203.000000	99.315823 
3202.000000	99.315692 
3201.000000	99.315368 
3200.000000	99.314929 
3199.000000	99.314480 
3198.000000	99.314133 
3197.000000	99.313937 
3196.000000	99.313891 
3195.000000	99.313983 
3194.000000	99.314147 
3193.000000	99.314232 
3192.000000	99.314103 
3191.000000	99.313744 
3190.000000	99.313240 
3189.000000	99.312690 
3188.000000	99.312195 
3187.000000	99.311868 
3186.000000	99.311772 
3185.000000	99.311833 
3184.000000	99.311857 
3183.000000	99.311690 
3182.000000	99.311346 
3181.000000	99.310982 
3180.000000	99.310776 
3179.000000	99.310831 
3178.000000	99.311098 
3177.000000	99.311329 
3176.000000	99.311238 
3175.000000	99.310773 
3174.000000	99.310217 
3173.000000	99.309876 
3172.000000	99.309665 
3171.000000	99.309237 
3170.000000	99.308492 
3169.000000	99.307786 
3168.000000	99.307530 
3167.000000	99.307743 
3166.000000	99.308091 
3165.000000	99.308254 
3164.000000	99.308178 
3163.000000	99.307997 
3162.000000	99.307876 
3161.000000	99.307935 
3160.000000	99.308185 
3159.000000	99.308454 
3158.000000	99.308387 
3157.000000	99.307648 
3156.000000	99.306217 
3155.000000	99.304484 
3154.000000	99.302914 
3153.000000	99.301614 
3152.000000	99.300393 
3151.000000	99.299262 
3150.000000	99.298585 
3149.000000	99.298628 
3148.000000	99.299222 
3147.000000	99.300074 
3146.000000	99.301162 
3145.000000	99.302526 
3144.000000	99.303857 
3143.000000	99.304664 
3142.000000	99.304810 
3141.000000	99.304592 
3140.000000	99.304326 
3139.000000	99.304072 
3138.000000	99.303782 
3137.000000	99.303495 
3136.000000	99.303329 
3135.000000	99.303391 
3134.000000	99.303692 
3133.000000	99.304050 
3132.000000	99.304130 
3131.000000	99.303736 
3130.000000	99.303049 
3129.000000	99.302496 
3128.000000	99.302447 
3127.000000	99.303074 
3126.000000	99.304304 
3125.000000	99.305635 
3124.000000	99.306209 
3123.000000	99.305427 
3122.000000	99.303514 
3121.000000	99.301431 
3120.000000	99.300057 
3119.000000	99.299551 
3118.000000	99.299567 
3117.000000	99.299755 
3116.000000	99.299980 
3115.000000	99.300238 
3114.000000	99.300548 
3113.000000	99.300842 
3112.000000	99.300920 
3111.000000	99.300606 
3110.000000	99.300013 
3109.000000	99.299511 
3108.000000	99.299315 
3107.000000	99.299226 
3106.000000	99.298887 
3105.000000	99.298227 
3104.000000	99.297499 
3103.000000	99.296938 
3102.000000	99.296572 
3101.000000	99.296385 
3100.000000	99.296492 
3099.000000	99.297040 
3098.000000	99.298028 
3097.000000	99.299313 
3096.000000	99.300689 
3095.000000	99.301842 
3094.000000	99.302335 
3093.000000	99.301834 
3092.000000	99.300457 
3091.000000	99.298823 
3090.000000	99.297597 
3089.000000	99.297010 
3088.000000	99.296852 
3087.000000	99.296795 
3086.000000	99.296686 
3085.000000	99.296616 
3084.000000	99.296727 
3083.000000	99.296843 
3082.000000	99.296350 
3081.000000	99.294715 
3080.000000	99.292353 
3079.000000	99.290754 
3078.000000	99.291455 
3077.000000	99.294774 
3076.000000	99.299492 
3075.000000	99.303620 
3074.000000	99.305423 
3073.000000	99.304167 
3072.000000	99.300490 
3071.000000	99.296095 
3070.000000	99.292558 
3069.000000	99.290136 
3068.000000	99.288007 
3067.000000	99.285867 
3066.000000	99.284917 
3065.000000	99.286639 
3064.000000	99.290566 
3063.000000	99.293917 
3062.000000	99.293960 
3061.000000	99.290504 
3060.000000	99.285728 
3059.000000	99.281861 
3058.000000	99.279753 
3057.000000	99.279643 
3056.000000	99.282000 
3055.000000	99.286569 
3054.000000	99.291206 
3053.000000	99.292984 
3052.000000	99.290670 
3051.000000	99.285523 
3050.000000	99.279813 
3049.000000	99.275290 
3048.000000	99.272737 
3047.000000	99.271591 
3046.000000	99.269546 
3045.000000	99.263927 
3044.000000	99.254596 
3043.000000	99.244919 
3042.000000	99.238807 
3041.000000	99.237000 
3040.000000	99.236862 
3039.000000	99.235284 
3038.000000	99.230848 
3037.000000	99.223655 
3036.000000	99.214314 
3035.000000	99.203475 
3034.000000	99.191655 
3033.000000	99.179086 
3032.000000	99.165984 
3031.000000	99.152904 
3030.000000	99.140196 
3029.000000	99.127436 
3028.000000	99.114263 
3027.000000	99.101539 
3026.000000	99.090592 
3025.000000	99.081080 
3024.000000	99.070588 
3023.000000	99.056920 
3022.000000	99.040171 
3021.000000	99.021967 
3020.000000	99.003177 
3019.000000	98.983225 
3018.000000	98.961673 
3017.000000	98.939593 
3016.000000	98.918723 
3015.000000	98.899412 
3014.000000	98.880143 
3013.000000	98.859452 
3012.000000	98.837852 
3011.000000	98.817180 
3010.000000	98.798172 
3009.000000	98.779546 
3008.000000	98.759677 
3007.000000	98.738369 
3006.000000	98.716513 
3005.000000	98.694669 
3004.000000	98.672778 
3003.000000	98.650906 
3002.000000	98.629505 
3001.000000	98.608980 
3000.000000	98.589478 
2999.000000	98.571068 
2998.000000	98.553900 
2997.000000	98.538397 
2996.000000	98.525168 
2995.000000	98.513535 
2994.000000	98.499446 
2993.000000	98.476373 
2992.000000	98.440730 
2991.000000	98.397076 
2990.000000	98.356733 
2989.000000	98.330306 
2988.000000	98.321698 
2987.000000	98.328145 
2986.000000	98.343518 
2985.000000	98.360984 
2984.000000	98.374490 
2983.000000	98.380499 
2982.000000	98.379341 
2981.000000	98.374477 
2980.000000	98.369866 
2979.000000	98.367608 
2978.000000	98.367390 
2977.000000	98.367450 
2976.000000	98.366029 
2975.000000	98.362474 
2974.000000	98.357619 
2973.000000	98.353591 
2972.000000	98.353119 
2971.000000	98.358206 
2970.000000	98.368658 
2969.000000	98.382003 
2968.000000	98.395574 
2967.000000	98.408775 
2966.000000	98.422785 
2965.000000	98.438194 
2964.000000	98.453844 
2963.000000	98.468160 
2962.000000	98.480727 
2961.000000	98.492001 
2960.000000	98.502177 
2959.000000	98.511072 
2958.000000	98.518833 
2957.000000	98.526128 
2956.000000	98.533694 
2955.000000	98.542161 
2954.000000	98.552225 
2953.000000	98.564458 
2952.000000	98.578701 
2951.000000	98.593712 
2950.000000	98.607570 
2949.000000	98.618571 
2948.000000	98.625887 
2947.000000	98.629635 
2946.000000	98.630874 
2945.000000	98.631826 
2944.000000	98.635321 
2943.000000	98.642847 
2942.000000	98.652678 
2941.000000	98.660670 
2940.000000	98.663781 
2939.000000	98.662881 
2938.000000	98.661656 
2937.000000	98.662995 
2936.000000	98.666936 
2935.000000	98.671572 
2934.000000	98.674986 
2933.000000	98.676370 
2932.000000	98.676180 
2931.000000	98.675337 
2930.000000	98.673993 
2929.000000	98.671416 
2928.000000	98.667459 
2927.000000	98.663276 
2926.000000	98.659635 
2925.000000	98.655361 
2924.000000	98.649033 
2923.000000	98.641760 
2922.000000	98.636332 
2921.000000	98.633426 
2920.000000	98.630576 
2919.000000	98.625586 
2918.000000	98.619248 
2917.000000	98.613507 
2916.000000	98.608254 
2915.000000	98.601510 
2914.000000	98.592368 
2913.000000	98.582494 
2912.000000	98.574774 
2911.000000	98.571070 
2910.000000	98.571059 
2909.000000	98.572573 
2908.000000	98.573098 
2907.000000	98.571258 
2906.000000	98.566564 
2905.000000	98.557884 
2904.000000	98.543785 
2903.000000	98.525660 
2902.000000	98.510336 
2901.000000	98.506441 
2900.000000	98.517845 
2899.000000	98.540442 
2898.000000	98.564816 
2897.000000	98.582751 
2896.000000	98.591743 
2895.000000	98.594757 
2894.000000	98.596889 
2893.000000	98.601781 
2892.000000	98.609885 
2891.000000	98.619172 
2890.000000	98.627260 
2889.000000	98.633086 
2888.000000	98.636959 
2887.000000	98.639718 
2886.000000	98.642315 
2885.000000	98.646038 
2884.000000	98.652504 
2883.000000	98.662864 
2882.000000	98.676910 
2881.000000	98.693096 
2880.000000	98.709507 
2879.000000	98.724844 
2878.000000	98.738668 
2877.000000	98.751180 
2876.000000	98.762957 
2875.000000	98.774556 
2874.000000	98.785938 
2873.000000	98.796371 
2872.000000	98.805164 
2871.000000	98.812472 
2870.000000	98.819281 
2869.000000	98.826954 
2868.000000	98.837017 
2867.000000	98.850696 
2866.000000	98.867713 
2865.000000	98.885602 
2864.000000	98.901274 
2863.000000	98.913663 
2862.000000	98.924294 
2861.000000	98.935165 
2860.000000	98.946956 
2859.000000	98.959598 
2858.000000	98.973350 
2857.000000	98.988206 
2856.000000	99.002863 
2855.000000	99.015493 
2854.000000	99.025644 
2853.000000	99.034728 
2852.000000	99.044368 
2851.000000	99.054869 
2850.000000	99.065500 
2849.000000	99.075545 
2848.000000	99.084654 
2847.000000	99.092752 
2846.000000	99.100108 
2845.000000	99.107257 
2844.000000	99.114336 
2843.000000	99.120636 
2842.000000	99.125322 
2841.000000	99.128757 
2840.000000	99.132693 
2839.000000	99.138737 
2838.000000	99.146721 
2837.000000	99.154861 
2836.000000	99.161374 
2835.000000	99.165678 
2834.000000	99.168268 
2833.000000	99.170046 
2832.000000	99.171833 
2831.000000	99.173936 
2830.000000	99.175878 
2829.000000	99.176951 
2828.000000	99.177335 
2827.000000	99.178323 
2826.000000	99.181116 
2825.000000	99.185620 
2824.000000	99.190668 
2823.000000	99.195026 
2822.000000	99.197977 
2821.000000	99.199506 
2820.000000	99.200494 
2819.000000	99.202244 
2818.000000	99.205157 
2817.000000	99.208211 
2816.000000	99.210324 
2815.000000	99.211819 
2814.000000	99.213708 
2813.000000	99.215887 
2812.000000	99.217179 
2811.000000	99.217227 
2810.000000	99.217322 
2809.000000	99.218960 
2808.000000	99.222235 
2807.000000	99.225966 
2806.000000	99.228830 
2805.000000	99.230076 
2804.000000	99.229767 
2803.000000	99.228814 
2802.000000	99.228422 
2801.000000	99.229096 
2800.000000	99.230349 
2799.000000	99.231491 
2798.000000	99.232274 
2797.000000	99.232627 
2796.000000	99.232370 
2795.000000	99.231676 
2794.000000	99.231418 
2793.000000	99.232442 
2792.000000	99.234537 
2791.000000	99.236581 
2790.000000	99.237759 
2789.000000	99.238344 
2788.000000	99.239193 
2787.000000	99.240688 
2786.000000	99.242359 
2785.000000	99.243462 
2784.000000	99.243731 
2783.000000	99.243510 
2782.000000	99.243350 
2781.000000	99.243625 
2780.000000	99.244460 
2779.000000	99.245775 
2778.000000	99.247285 
2777.000000	99.248646 
2776.000000	99.249727 
2775.000000	99.250651 
2774.000000	99.251528 
2773.000000	99.252278 
2772.000000	99.252844 
2771.000000	99.253424 
2770.000000	99.254295 
2769.000000	99.255431 
2768.000000	99.256484 
2767.000000	99.257171 
2766.000000	99.257534 
2765.000000	99.257786 
2764.000000	99.257997 
2763.000000	99.258053 
2762.000000	99.257864 
2761.000000	99.257551 
2760.000000	99.257437 
2759.000000	99.257829 
2758.000000	99.258787 
2757.000000	99.260066 
2756.000000	99.261280 
2755.000000	99.262163 
2754.000000	99.262656 
2753.000000	99.262873 
2752.000000	99.263067 
2751.000000	99.263537 
2750.000000	99.264426 
2749.000000	99.265595 
2748.000000	99.266708 
2747.000000	99.267528 
2746.000000	99.268075 
2745.000000	99.268503 
2744.000000	99.268908 
2743.000000	99.269282 
2742.000000	99.269642 
2741.000000	99.270082 
2740.000000	99.270669 
2739.000000	99.271352 
2738.000000	99.272024 
2737.000000	99.272675 
2736.000000	99.273407 
2735.000000	99.274269 
2734.000000	99.275114 
2733.000000	99.275725 
2732.000000	99.276053 
2731.000000	99.276246 
2730.000000	99.276489 
2729.000000	99.276838 
2728.000000	99.277283 
2727.000000	99.277825 
2726.000000	99.278453 
2725.000000	99.279104 
2724.000000	99.279728 
2723.000000	99.280352 
2722.000000	99.281029 
2721.000000	99.281747 
2720.000000	99.282426 
2719.000000	99.283007 
2718.000000	99.283500 
2717.000000	99.283959 
2716.000000	99.284439 
2715.000000	99.284956 
2714.000000	99.285495 
2713.000000	99.286032 
2712.000000	99.286549 
2711.000000	99.287047 
2710.000000	99.287537 
2709.000000	99.288025 
2708.000000	99.288506 
2707.000000	99.288969 
2706.000000	99.289404 
2705.000000	99.289813 
2704.000000	99.290215 
2703.000000	99.290637 
2702.000000	99.291081 
2701.000000	99.291532 
2700.000000	99.291966 
2699.000000	99.292377 
2698.000000	99.292780 
2697.000000	99.293183 
2696.000000	99.293576 
2695.000000	99.293947 
2694.000000	99.294303 
2693.000000	99.294662 
2692.000000	99.295036 
2691.000000	99.295427 
2690.000000	99.295822 
2689.000000	99.296206 
2688.000000	99.296572 
2687.000000	99.296937 
2686.000000	99.297329 
2685.000000	99.297752 
2684.000000	99.298197 
2683.000000	99.298646 
2682.000000	99.299084 
2681.000000	99.299496 
2680.000000	99.299874 
2679.000000	99.300231 
2678.000000	99.300607 
2677.000000	99.301039 
2676.000000	99.301535 
2675.000000	99.302071 
2674.000000	99.302613 
2673.000000	99.303125 
2672.000000	99.303592 
2671.000000	99.304025 
2670.000000	99.304457 
2669.000000	99.304909 
2668.000000	99.305379 
2667.000000	99.305860 
2666.000000	99.306352 
2665.000000	99.306857 
2664.000000	99.307368 
2663.000000	99.307882 
2662.000000	99.308400 
2661.000000	99.308925 
2660.000000	99.309457 
2659.000000	99.309995 
2658.000000	99.310537 
2657.000000	99.311082 
2656.000000	99.311631 
2655.000000	99.312184 
2654.000000	99.312746 
2653.000000	99.313317 
2652.000000	99.313897 
2651.000000	99.314483 
2650.000000	99.315068 
2649.000000	99.315645 
2648.000000	99.316207 
2647.000000	99.316755 
2646.000000	99.317296 
2645.000000	99.317839 
2644.000000	99.318384 
2643.000000	99.318927 
2642.000000	99.319459 
2641.000000	99.319978 
2640.000000	99.320489 
2639.000000	99.321000 
2638.000000	99.321518 
2637.000000	99.322038 
2636.000000	99.322551 
2635.000000	99.323050 
2634.000000	99.323531 
2633.000000	99.324000 
2632.000000	99.324464 
2631.000000	99.324929 
2630.000000	99.325396 
2629.000000	99.325862 
2628.000000	99.326318 
2627.000000	99.326758 
2626.000000	99.327172 
2625.000000	99.327564 
2624.000000	99.327954 
2623.000000	99.328360 
2622.000000	99.328775 
2621.000000	99.329180 
2620.000000	99.329561 
2619.000000	99.329927 
2618.000000	99.330285 
2617.000000	99.330617 
2616.000000	99.330898 
2615.000000	99.331145 
2614.000000	99.331435 
2613.000000	99.331829 
2612.000000	99.332272 
2611.000000	99.332624 
2610.000000	99.332800 
2609.000000	99.332847 
2608.000000	99.332873 
2607.000000	99.332965 
2606.000000	99.333181 
2605.000000	99.333555 
2604.000000	99.334054 
2603.000000	99.334522 
2602.000000	99.334726 
2601.000000	99.334575 
2600.000000	99.334306 
2599.000000	99.334333 
2598.000000	99.334792 
2597.000000	99.335264 
2596.000000	99.335158 
2595.000000	99.334345 
2594.000000	99.333254 
2593.000000	99.332395 
2592.000000	99.331904 
2591.000000	99.331661 
2590.000000	99.331599 
2589.000000	99.331748 
2588.000000	99.332034 
2587.000000	99.332219 
2586.000000	99.332116 
2585.000000	99.331808 
2584.000000	99.331579 
2583.000000	99.331556 
2582.000000	99.331488 
2581.000000	99.331014 
2580.000000	99.330177 
2579.000000	99.329486 
2578.000000	99.329334 
2577.000000	99.329495 
2576.000000	99.329386 
2575.000000	99.328769 
2574.000000	99.327964 
2573.000000	99.327443 
2572.000000	99.327421 
2571.000000	99.327856 
2570.000000	99.328510 
2569.000000	99.328992 
2568.000000	99.328982 
2567.000000	99.328514 
2566.000000	99.327938 
2565.000000	99.327542 
2564.000000	99.327358 
2563.000000	99.327342 
2562.000000	99.327487 
2561.000000	99.327664 
2560.000000	99.327589 
2559.000000	99.327091 
2558.000000	99.326287 
2557.000000	99.325471 
2556.000000	99.324982 
2555.000000	99.325161 
2554.000000	99.326153 
2553.000000	99.327542 
2552.000000	99.328484 
2551.000000	99.328574 
2550.000000	99.328266 
2549.000000	99.328214 
2548.000000	99.328370 
2547.000000	99.328180 
2546.000000	99.327448 
2545.000000	99.326553 
2544.000000	99.325921 
2543.000000	99.325604 
2542.000000	99.325280 
2541.000000	99.324530 
2540.000000	99.323293 
2539.000000	99.322175 
2538.000000	99.321962 
2537.000000	99.322610 
2536.000000	99.323049 
2535.000000	99.322353 
2534.000000	99.320798 
2533.000000	99.319378 
2532.000000	99.318534 
2531.000000	99.317923 
2530.000000	99.317378 
2529.000000	99.317360 
2528.000000	99.318202 
2527.000000	99.319381 
2526.000000	99.319928 
2525.000000	99.319598 
2524.000000	99.319251 
2523.000000	99.319894 
2522.000000	99.321477 
2521.000000	99.322860 
2520.000000	99.322997 
2519.000000	99.321870 
2518.000000	99.320203 
2517.000000	99.318598 
2516.000000	99.317242 
2515.000000	99.316256 
2514.000000	99.315813 
2513.000000	99.315935 
2512.000000	99.316587 
2511.000000	99.317914 
2510.000000	99.319942 
2509.000000	99.322128 
2508.000000	99.323719 
2507.000000	99.324574 
2506.000000	99.325078 
2505.000000	99.325315 
2504.000000	99.324906 
2503.000000	99.323817 
2502.000000	99.322717 
2501.000000	99.322269 
2500.000000	99.322468 
2499.000000	99.322978 
2498.000000	99.323691 
2497.000000	99.324596 
2496.000000	99.325393 
2495.000000	99.325675 
2494.000000	99.325400 
2493.000000	99.324894 
2492.000000	99.324465 
2491.000000	99.324233 
2490.000000	99.324272 
2489.000000	99.324687 
2488.000000	99.325523 
2487.000000	99.326665 
2486.000000	99.327762 
2485.000000	99.328262 
2484.000000	99.327796 
2483.000000	99.326530 
2482.000000	99.325129 
2481.000000	99.324225 
2480.000000	99.323912 
2479.000000	99.323907 
2478.000000	99.323913 
2477.000000	99.323827 
2476.000000	99.323688 
2475.000000	99.323571 
2474.000000	99.323506 
2473.000000	99.323445 
2472.000000	99.323297 
2471.000000	99.323026 
2470.000000	99.322677 
2469.000000	99.322325 
2468.000000	99.322010 
2467.000000	99.321731 
2466.000000	99.321457 
2465.000000	99.321155 
2464.000000	99.320818 
2463.000000	99.320468 
2462.000000	99.320135 
2461.000000	99.319831 
2460.000000	99.319544 
2459.000000	99.319251 
2458.000000	99.318939 
2457.000000	99.318611 
2456.000000	99.318272 
2455.000000	99.317926 
2454.000000	99.317572 
2453.000000	99.317208 
2452.000000	99.316832 
2451.000000	99.316442 
2450.000000	99.316037 
2449.000000	99.315622 
2448.000000	99.315202 
2447.000000	99.314785 
2446.000000	99.314375 
2445.000000	99.313978 
2444.000000	99.313595 
2443.000000	99.313228 
2442.000000	99.312876 
2441.000000	99.312540 
2440.000000	99.312220 
2439.000000	99.311913 
2438.000000	99.311617 
2437.000000	99.311324 
2436.000000	99.311029 
2435.000000	99.310727 
2434.000000	99.310418 
2433.000000	99.310103 
2432.000000	99.309787 
2431.000000	99.309480 
2430.000000	99.309187 
2429.000000	99.308897 
2428.000000	99.308576 
2427.000000	99.308194 
2426.000000	99.307764 
2425.000000	99.307332 
2424.000000	99.306940 
2423.000000	99.306607 
2422.000000	99.306344 
2421.000000	99.306148 
2420.000000	99.305963 
2419.000000	99.305663 
2418.000000	99.305150 
2417.000000	99.304470 
2416.000000	99.303814 
2415.000000	99.303333 
2414.000000	99.303001 
2413.000000	99.302662 
2412.000000	99.302206 
2411.000000	99.301659 
2410.000000	99.301091 
2409.000000	99.300526 
2408.000000	99.299994 
2407.000000	99.299585 
2406.000000	99.299368 
2405.000000	99.299324 
2404.000000	99.299450 
2403.000000	99.299794 
2402.000000	99.300241 
2401.000000	99.300407 
2400.000000	99.299977 
2399.000000	99.299061 
2398.000000	99.298053 
2397.000000	99.297166 
2396.000000	99.296404 
2395.000000	99.295865 
2394.000000	99.295650 
2393.000000	99.295571 
2392.000000	99.295312 
2391.000000	99.294904 
2390.000000	99.294647 
2389.000000	99.294589 
2388.000000	99.294515 
2387.000000	99.294478 
2386.000000	99.294798 
2385.000000	99.295461 
2384.000000	99.296012 
2383.000000	99.296213 
2382.000000	99.296323 
2381.000000	99.296521 
2380.000000	99.296517 
2379.000000	99.296068 
2378.000000	99.295556 
2377.000000	99.295583 
2376.000000	99.296218 
2375.000000	99.296960 
2374.000000	99.297325 
2373.000000	99.297231 
2372.000000	99.296858 
2371.000000	99.296416 
2370.000000	99.296093 
2369.000000	99.296065 
2368.000000	99.296467 
2367.000000	99.297335 
2366.000000	99.298509 
2365.000000	99.299675 
2364.000000	99.300596 
2363.000000	99.301274 
2362.000000	99.301826 
2361.000000	99.302263 
2360.000000	99.302576 
2359.000000	99.302854 
2358.000000	99.303247 
2357.000000	99.303810 
2356.000000	99.304557 
2355.000000	99.305536 
2354.000000	99.306558 
2353.000000	99.307325 
2352.000000	99.307760 
2351.000000	99.308125 
2350.000000	99.308769 
2349.000000	99.309721 
2348.000000	99.310792 
2347.000000	99.311699 
2346.000000	99.312396 
2345.000000	99.313120 
2344.000000	99.314027 
2343.000000	99.315054 
2342.000000	99.315920 
2341.000000	99.316561 
2340.000000	99.317191 
2339.000000	99.318149 
2338.000000	99.319434 
2337.000000	99.320558 
2336.000000	99.320985 
2335.000000	99.320713 
2334.000000	99.320307 
2333.000000	99.320472 
2332.000000	99.321471 
2331.000000	99.322911 
2330.000000	99.324168 
2329.000000	99.324971 
2328.000000	99.325873 
2327.000000	99.327499 
2326.000000	99.329881 
2325.000000	99.332235 
2324.000000	99.333625 
2323.000000	99.334078 
2322.000000	99.334454 
2321.000000	99.335446 
2320.000000	99.336489 
2319.000000	99.336687 
2318.000000	99.336016 
2317.000000	99.335271 
2316.000000	99.335013 
2315.000000	99.335074 
2314.000000	99.335239 
2313.000000	99.335670 
2312.000000	99.336592 
2311.000000	99.337719 
2310.000000	99.338458 
2309.000000	99.338492 
2308.000000	99.338025 
2307.000000	99.337497 
2306.000000	99.337235 
2305.000000	99.337347 
2304.000000	99.337776 
2303.000000	99.338398 
2302.000000	99.339052 
2301.000000	99.339579 
2300.000000	99.339947 
2299.000000	99.340295 
2298.000000	99.340740 
2297.000000	99.341069 
2296.000000	99.340894 
2295.000000	99.340167 
2294.000000	99.339485 
2293.000000	99.339591 
2292.000000	99.340658 
2291.000000	99.342175 
2290.000000	99.343366 
2289.000000	99.343804 
2288.000000	99.343585 
2287.000000	99.343113 
2286.000000	99.342724 
2285.000000	99.342374 
2284.000000	99.341759 
2283.000000	99.340797 
2282.000000	99.339841 
2281.000000	99.339335 
2280.000000	99.339328 
2279.000000	99.339501 
2278.000000	99.339523 
2277.000000	99.339328 
2276.000000	99.339006 
2275.000000	99.338598 
2274.000000	99.338097 
2273.000000	99.337529 
2272.000000	99.337010 
2271.000000	99.336680 
2270.000000	99.336585 
2269.000000	99.336605 
2268.000000	99.336509 
2267.000000	99.336138 
2266.000000	99.335538 
2265.000000	99.334885 
2264.000000	99.334241 
2263.000000	99.333484 
2262.000000	99.332538 
2261.000000	99.331570 
2260.000000	99.330888 
2259.000000	99.330638 
2258.000000	99.330641 
2257.000000	99.330586 
2256.000000	99.330306 
2255.000000	99.329856 
2254.000000	99.329385 
2253.000000	99.328978 
2252.000000	99.328620 
2251.000000	99.328253 
2250.000000	99.327835 
2249.000000	99.327345 
2248.000000	99.326794 
2247.000000	99.326249 
2246.000000	99.325776 
2245.000000	99.325396 
2244.000000	99.325069 
2243.000000	99.324775 
2242.000000	99.324526 
2241.000000	99.324328 
2240.000000	99.324162 
2239.000000	99.324015 
2238.000000	99.323863 
2237.000000	99.323667 
2236.000000	99.323408 
2235.000000	99.323112 
2234.000000	99.322818 
2233.000000	99.322547 
2232.000000	99.322296 
2231.000000	99.322060 
2230.000000	99.321838 
2229.000000	99.321635 
2228.000000	99.321460 
2227.000000	99.321321 
2226.000000	99.321217 
2225.000000	99.321146 
2224.000000	99.321103 
2223.000000	99.321079 
2222.000000	99.321056 
2221.000000	99.321017 
2220.000000	99.320955 
2219.000000	99.320877 
2218.000000	99.320799 
2217.000000	99.320739 
2216.000000	99.320698 
2215.000000	99.320661 
2214.000000	99.320610 
2213.000000	99.320534 
2212.000000	99.320440 
2211.000000	99.320345 
2210.000000	99.320267 
2209.000000	99.320222 
2208.000000	99.320216 
2207.000000	99.320253 
2206.000000	99.320331 
2205.000000	99.320407 
2204.000000	99.320414 
2203.000000	99.320446 
2202.000000	99.320822 
2201.000000	99.321665 
2200.000000	99.322446 
2199.000000	99.322432 
2198.000000	99.321465 
2197.000000	99.320196 
2196.000000	99.319475 
2195.000000	99.319639 
2194.000000	99.320320 
2193.000000	99.320824 
2192.000000	99.320698 
2191.000000	99.320121 
2190.000000	99.319976 
2189.000000	99.321299 
2188.000000	99.324133 
2187.000000	99.326714 
2186.000000	99.326430 
2185.000000	99.322163 
2184.000000	99.315702 
2183.000000	99.310350 
2182.000000	99.307758 
2181.000000	99.306948 
2180.000000	99.306509 
2179.000000	99.306788 
2178.000000	99.308947 
2177.000000	99.312681 
2176.000000	99.316073 
2175.000000	99.317466 
2174.000000	99.316464 
2173.000000	99.313678 
2172.000000	99.310931 
2171.000000	99.311340 
2170.000000	99.317280 
2169.000000	99.327425 
2168.000000	99.336810 
2167.000000	99.341104 
2166.000000	99.340072 
2165.000000	99.336807 
2164.000000	99.334737 
2163.000000	99.335490 
2162.000000	99.338099 
2161.000000	99.338830 
2160.000000	99.333068 
2159.000000	99.319401 
2158.000000	99.301886 
2157.000000	99.286925 
2156.000000	99.277875 
2155.000000	99.274328 
2154.000000	99.275186 
2153.000000	99.280015 
2152.000000	99.287512 
2151.000000	99.294398 
2150.000000	99.297283 
2149.000000	99.296004 
2148.000000	99.294334 
2147.000000	99.296186 
2146.000000	99.300940 
2145.000000	99.303735 
2144.000000	99.301099 
2143.000000	99.294955 
2142.000000	99.290052 
2141.000000	99.288336 
2140.000000	99.287733 
2139.000000	99.286005 
2138.000000	99.283676 
2137.000000	99.282664 
2136.000000	99.283677 
2135.000000	99.285985 
2134.000000	99.288768 
2133.000000	99.291711 
2132.000000	99.294624 
2131.000000	99.297021 
2130.000000	99.297955 
2129.000000	99.296388 
2128.000000	99.292331 
2127.000000	99.287575 
2126.000000	99.284491 
2125.000000	99.283990 
2124.000000	99.285357 
2123.000000	99.287784 
2122.000000	99.291143 
2121.000000	99.295032 
2120.000000	99.298220 
2119.000000	99.299752 
2118.000000	99.299987 
2117.000000	99.300090 
2116.000000	99.300905 
2115.000000	99.302455 
2114.000000	99.304251 
2113.000000	99.305618 
2112.000000	99.306009 
2111.000000	99.305421 
2110.000000	99.304559 
2109.000000	99.304319 
2108.000000	99.304823 
2107.000000	99.305204 
2106.000000	99.304612 
2105.000000	99.303269 
2104.000000	99.302333 
2103.000000	99.302667 
2102.000000	99.303899 
2101.000000	99.304826 
2100.000000	99.304770 
2099.000000	99.304153 
2098.000000	99.303837 
2097.000000	99.304186 
2096.000000	99.304928 
2095.000000	99.305649 
2094.000000	99.306175 
2093.000000	99.306554 
2092.000000	99.306901 
2091.000000	99.307334 
2090.000000	99.307915 
2089.000000	99.308543 
2088.000000	99.308975 
2087.000000	99.308970 
2086.000000	99.308431 
2085.000000	99.307528 
2084.000000	99.306766 
2083.000000	99.306734 
2082.000000	99.307618 
2081.000000	99.308956 
2080.000000	99.309976 
2079.000000	99.310387 
2078.000000	99.310586 
2077.000000	99.311067 
2076.000000	99.311762 
2075.000000	99.312118 
2074.000000	99.311665 
2073.000000	99.310350 
2072.000000	99.308637 
2071.000000	99.307281 
2070.000000	99.306798 
2069.000000	99.307013 
2068.000000	99.307192 
2067.000000	99.306750 
2066.000000	99.305735 
2065.000000	99.304768 
2064.000000	99.304648 
2063.000000	99.305814 
2062.000000	99.307849 
2061.000000	99.309500 
2060.000000	99.309781 
2059.000000	99.308933 
2058.000000	99.308139 
2057.000000	99.308227 
2056.000000	99.308938 
2055.000000	99.309598 
2054.000000	99.310038 
2053.000000	99.310523 
2052.000000	99.311116 
2051.000000	99.311541 
2050.000000	99.311518 
2049.000000	99.310957 
2048.000000	99.310026 
2047.000000	99.309232 
2046.000000	99.309126 
2045.000000	99.309621 
2044.000000	99.309830 
2043.000000	99.309024 
2042.000000	99.307493 
2041.000000	99.306179 
2040.000000	99.305517 
2039.000000	99.305075 
2038.000000	99.304257 
2037.000000	99.302982 
2036.000000	99.301654 
2035.000000	99.300634 
2034.000000	99.299790 
2033.000000	99.298685 
2032.000000	99.297232 
2031.000000	99.295976 
2030.000000	99.295452 
2029.000000	99.295503 
2028.000000	99.295370 
2027.000000	99.294582 
2026.000000	99.293390 
2025.000000	99.292337 
2024.000000	99.291699 
2023.000000	99.291419 
2022.000000	99.291285 
2021.000000	99.290939 
2020.000000	99.289938 
2019.000000	99.288177 
2018.000000	99.286186 
2017.000000	99.284624 
2016.000000	99.283556 
2015.000000	99.282837 
2014.000000	99.282746 
2013.000000	99.283417 
2012.000000	99.284143 
2011.000000	99.284074 
2010.000000	99.283410 
2009.000000	99.283085 
2008.000000	99.283344 
2007.000000	99.283447 
2006.000000	99.282850 
2005.000000	99.281859 
2004.000000	99.281015 
2003.000000	99.280507 
2002.000000	99.280242 
2001.000000	99.279802 
2000.000000	99.278380 
1999.000000	99.275448 
1998.000000	99.271557 
1997.000000	99.268092 
1996.000000	99.266224 
1995.000000	99.266477 
1994.000000	99.268834 
1993.000000	99.272467 
1992.000000	99.275602 
1991.000000	99.276647 
1990.000000	99.275447 
1989.000000	99.273049 
1988.000000	99.270755 
1987.000000	99.269841 
1986.000000	99.271482 
1985.000000	99.276036 
1984.000000	99.282303 
1983.000000	99.288053 
1982.000000	99.291289 
1981.000000	99.290840 
1980.000000	99.286857 
1979.000000	99.281312 
1978.000000	99.277027 
1977.000000	99.274945 
1976.000000	99.273167 
1975.000000	99.269624 
1974.000000	99.264899 
1973.000000	99.261510 
1972.000000	99.260931 
1971.000000	99.262355 
1970.000000	99.264053 
1969.000000	99.265214 
1968.000000	99.266268 
1967.000000	99.267771 
1966.000000	99.269350 
1965.000000	99.269933 
1964.000000	99.268927 
1963.000000	99.266770 
1962.000000	99.264248 
1961.000000	99.261767 
1960.000000	99.259530 
1959.000000	99.257837 
1958.000000	99.256670 
1957.000000	99.255399 
1956.000000	99.253501 
1955.000000	99.251245 
1954.000000	99.249175 
1953.000000	99.247407 
1952.000000	99.246031 
1951.000000	99.245722 
1950.000000	99.247097 
1949.000000	99.249613 
1948.000000	99.251773 
1947.000000	99.252565 
1946.000000	99.251906 
1945.000000	99.249952 
1944.000000	99.247012 
1943.000000	99.244095 
1942.000000	99.242488 
1941.000000	99.242329 
1940.000000	99.242632 
1939.000000	99.242605 
1938.000000	99.242275 
1937.000000	99.241943 
1936.000000	99.241674 
1935.000000	99.241388 
1934.000000	99.241095 
1933.000000	99.240870 
1932.000000	99.240738 
1931.000000	99.240739 
1930.000000	99.240958 
1929.000000	99.241354 
1928.000000	99.241704 
1927.000000	99.241826 
1926.000000	99.241735 
1925.000000	99.241561 
1924.000000	99.241426 
1923.000000	99.241397 
1922.000000	99.241482 
1921.000000	99.241649 
1920.000000	99.241853 
1919.000000	99.242070 
1918.000000	99.242293 
1917.000000	99.242524 
1916.000000	99.242765 
1915.000000	99.243020 
1914.000000	99.243297 
1913.000000	99.243592 
1912.000000	99.243892 
1911.000000	99.244181 
1910.000000	99.244450 
1909.000000	99.244692 
1908.000000	99.244906 
1907.000000	99.245094 
1906.000000	99.245261 
1905.000000	99.245410 
1904.000000	99.245539 
1903.000000	99.245649 
1902.000000	99.245749 
1901.000000	99.245854 
1900.000000	99.245973 
1899.000000	99.246102 
1898.000000	99.246260 
1897.000000	99.246469 
1896.000000	99.246719 
1895.000000	99.246969 
1894.000000	99.247212 
1893.000000	99.247503 
1892.000000	99.247867 
1891.000000	99.248226 
1890.000000	99.248479 
1889.000000	99.248640 
1888.000000	99.248824 
1887.000000	99.249146 
1886.000000	99.249617 
1885.000000	99.250055 
1884.000000	99.250147 
1883.000000	99.249798 
1882.000000	99.249297 
1881.000000	99.248999 
1880.000000	99.249049 
1879.000000	99.249483 
1878.000000	99.250188 
1877.000000	99.250643 
1876.000000	99.250312 
1875.000000	99.249621 
1874.000000	99.249901 
1873.000000	99.251739 
1872.000000	99.253910 
1871.000000	99.254629 
1870.000000	99.253485 
1869.000000	99.251465 
1868.000000	99.249071 
1867.000000	99.245890 
1866.000000	99.242226 
1865.000000	99.239240 
1864.000000	99.237886 
1863.000000	99.238810 
1862.000000	99.242470 
1861.000000	99.248219 
1860.000000	99.253604 
1859.000000	99.256382 
1858.000000	99.257018 
1857.000000	99.257688 
1856.000000	99.259487 
1855.000000	99.261803 
1854.000000	99.263747 
1853.000000	99.264775 
1852.000000	99.264375 
1851.000000	99.262294 
1850.000000	99.259178 
1849.000000	99.256375 
1848.000000	99.254813 
1847.000000	99.254569 
1846.000000	99.255344 
1845.000000	99.256407 
1844.000000	99.256465 
1843.000000	99.255336 
1842.000000	99.254701 
1841.000000	99.255951 
1840.000000	99.258846 
1839.000000	99.262167 
1838.000000	99.264876 
1837.000000	99.266664 
1836.000000	99.267654 
1835.000000	99.268280 
1834.000000	99.269070 
1833.000000	99.270195 
1832.000000	99.271304 
1831.000000	99.271673 
1830.000000	99.271003 
1829.000000	99.270205 
1828.000000	99.270543 
1827.000000	99.272107 
1826.000000	99.273866 
1825.000000	99.274933 
1824.000000	99.275242 
1823.000000	99.275171 
1822.000000	99.274883 
1821.000000	99.274020 
1820.000000	99.272109 
1819.000000	99.269348 
1818.000000	99.266992 
1817.000000	99.266380 
1816.000000	99.267369 
1815.000000	99.268600 
1814.000000	99.269334 
1813.000000	99.270161 
1812.000000	99.271958 
1811.000000	99.274663 
1810.000000	99.277601 
1809.000000	99.280225 
1808.000000	99.281869 
1807.000000	99.281934 
1806.000000	99.280745 
1805.000000	99.279522 
1804.000000	99.279122 
1803.000000	99.279287 
1802.000000	99.279421 
1801.000000	99.279566 
1800.000000	99.279975 
1799.000000	99.280480 
1798.000000	99.280868 
1797.000000	99.281121 
1796.000000	99.281282 
1795.000000	99.281526 
1794.000000	99.282076 
1793.000000	99.282876 
1792.000000	99.283515 
1791.000000	99.283730 
1790.000000	99.283798 
1789.000000	99.284151 
1788.000000	99.284903 
1787.000000	99.285848 
1786.000000	99.286674 
1785.000000	99.287130 
1784.000000	99.287166 
1783.000000	99.286998 
1782.000000	99.286968 
1781.000000	99.287222 
1780.000000	99.287601 
1779.000000	99.287893 
1778.000000	99.288123 
1777.000000	99.288455 
1776.000000	99.288941 
1775.000000	99.289526 
1774.000000	99.290146 
1773.000000	99.290734 
1772.000000	99.291197 
1771.000000	99.291502 
1770.000000	99.291704 
1769.000000	99.291895 
1768.000000	99.292141 
1767.000000	99.292441 
1766.000000	99.292757 
1765.000000	99.293077 
1764.000000	99.293431 
1763.000000	99.293841 
1762.000000	99.294301 
1761.000000	99.294778 
1760.000000	99.295246 
1759.000000	99.295687 
1758.000000	99.296087 
1757.000000	99.296445 
1756.000000	99.296778 
1755.000000	99.297104 
1754.000000	99.297401 
1753.000000	99.297632 
1752.000000	99.297860 
1751.000000	99.298291 
1750.000000	99.299025 
1749.000000	99.299885 
1748.000000	99.300615 
1747.000000	99.301146 
1746.000000	99.301527 
1745.000000	99.301848 
1744.000000	99.302204 
1743.000000	99.302638 
1742.000000	99.303119 
1741.000000	99.303617 
1740.000000	99.304103 
1739.000000	99.304526 
1738.000000	99.304862 
1737.000000	99.305141 
1736.000000	99.305376 
1735.000000	99.305509 
1734.000000	99.305451 
1733.000000	99.305394 
1732.000000	99.305676 
1731.000000	99.306348 
1730.000000	99.307213 
1729.000000	99.307969 
1728.000000	99.308479 
1727.000000	99.308838 
1726.000000	99.309166 
1725.000000	99.309444 
1724.000000	99.309636 
1723.000000	99.309857 
1722.000000	99.310314 
1721.000000	99.311066 
1720.000000	99.311945 
1719.000000	99.312601 
1718.000000	99.312710 
1717.000000	99.312414 
1716.000000	99.312103 
1715.000000	99.311884 
1714.000000	99.311812 
1713.000000	99.311926 
1712.000000	99.312106 
1711.000000	99.312277 
1710.000000	99.312519 
1709.000000	99.312910 
1708.000000	99.313386 
1707.000000	99.313840 
1706.000000	99.314345 
1705.000000	99.314967 
1704.000000	99.315353 
1703.000000	99.315075 
1702.000000	99.314097 
1701.000000	99.313257 
1700.000000	99.313388 
1699.000000	99.314059 
1698.000000	99.314569 
1697.000000	99.315150 
1696.000000	99.316157 
1695.000000	99.317337 
1694.000000	99.318336 
1693.000000	99.319097 
1692.000000	99.319540 
1691.000000	99.319712 
1690.000000	99.319920 
1689.000000	99.320367 
1688.000000	99.320767 
1687.000000	99.320675 
1686.000000	99.320262 
1685.000000	99.320511 
1684.000000	99.321722 
1683.000000	99.323031 
1682.000000	99.323983 
1681.000000	99.324618 
1680.000000	99.325248 
1679.000000	99.326067 
1678.000000	99.326975 
1677.000000	99.327806 
1676.000000	99.328654 
1675.000000	99.329708 
1674.000000	99.330799 
1673.000000	99.331662 
1672.000000	99.332305 
1671.000000	99.333085 
1670.000000	99.334244 
1669.000000	99.335321 
1668.000000	99.336111 
1667.000000	99.336960 
1666.000000	99.337598 
1665.000000	99.337486 
1664.000000	99.336908 
1663.000000	99.337102 
1662.000000	99.338861 
1661.000000	99.341244 
1660.000000	99.342782 
1659.000000	99.343443 
1658.000000	99.344385 
1657.000000	99.345463 
1656.000000	99.345305 
1655.000000	99.343119 
1654.000000	99.341479 
1653.000000	99.341419 
1652.000000	99.340980 
1651.000000	99.341134 
1650.000000	99.341315 
1649.000000	99.340334 
1648.000000	99.338720 
1647.000000	99.337119 
1646.000000	99.335796 
1645.000000	99.335746 
1644.000000	99.337581 
1643.000000	99.340499 
1642.000000	99.343287 
1641.000000	99.345374 
1640.000000	99.346529 
1639.000000	99.346697 
1638.000000	99.346201 
1637.000000	99.345894 
1636.000000	99.345754 
1635.000000	99.345151 
1634.000000	99.345226 
1633.000000	99.346755 
1632.000000	99.348664 
1631.000000	99.349943 
1630.000000	99.350387 
1629.000000	99.350116 
1628.000000	99.349465 
1627.000000	99.349138 
1626.000000	99.349778 
1625.000000	99.351429 
1624.000000	99.353571 
1623.000000	99.355390 
1622.000000	99.356393 
1621.000000	99.356433 
1620.000000	99.355392 
1619.000000	99.353752 
1618.000000	99.353092 
1617.000000	99.353951 
1616.000000	99.354605 
1615.000000	99.354244 
1614.000000	99.353193 
1613.000000	99.351313 
1612.000000	99.348946 
1611.000000	99.346989 
1610.000000	99.345907 
1609.000000	99.345367 
1608.000000	99.344998 
1607.000000	99.344805 
1606.000000	99.344490 
1605.000000	99.343733 
1604.000000	99.343154 
1603.000000	99.343902 
1602.000000	99.346048 
1601.000000	99.348200 
1600.000000	99.349389 
1599.000000	99.350233 
1598.000000	99.351496 
1597.000000	99.352905 
1596.000000	99.353857 
1595.000000	99.354472 
1594.000000	99.355121 
1593.000000	99.355464 
1592.000000	99.355024 
1591.000000	99.354224 
1590.000000	99.353897 
1589.000000	99.354084 
1588.000000	99.354315 
1587.000000	99.354596 
1586.000000	99.355020 
1585.000000	99.355056 
1584.000000	99.354186 
1583.000000	99.352805 
1582.000000	99.351868 
1581.000000	99.351742 
1580.000000	99.352019 
1579.000000	99.352283 
1578.000000	99.352508 
1577.000000	99.352717 
1576.000000	99.352723 
1575.000000	99.352688 
1574.000000	99.352820 
1573.000000	99.352900 
1572.000000	99.352800 
1571.000000	99.352660 
1570.000000	99.352598 
1569.000000	99.352565 
1568.000000	99.352503 
1567.000000	99.352410 
1566.000000	99.352297 
1565.000000	99.352170 
1564.000000	99.352023 
1563.000000	99.351854 
1562.000000	99.351665 
1561.000000	99.351451 
1560.000000	99.351210 
1559.000000	99.350939 
1558.000000	99.350640 
1557.000000	99.350326 
1556.000000	99.350001 
1555.000000	99.349663 
1554.000000	99.349311 
1553.000000	99.348945 
1552.000000	99.348564 
1551.000000	99.348171 
1550.000000	99.347764 
1549.000000	99.347341 
1548.000000	99.346900 
1547.000000	99.346438 
1546.000000	99.345952 
1545.000000	99.345448 
1544.000000	99.344932 
1543.000000	99.344414 
1542.000000	99.343905 
1541.000000	99.343414 
1540.000000	99.342935 
1539.000000	99.342460 
1538.000000	99.341988 
1537.000000	99.341522 
1536.000000	99.341060 
1535.000000	99.340599 
1534.000000	99.340134 
1533.000000	99.339679 
1532.000000	99.339253 
1531.000000	99.338771 
1530.000000	99.338189 
1529.000000	99.337595 
1528.000000	99.337033 
1527.000000	99.336424 
1526.000000	99.335752 
1525.000000	99.335112 
1524.000000	99.334492 
1523.000000	99.333840 
1522.000000	99.333442 
1521.000000	99.333435 
1520.000000	99.333123 
1519.000000	99.331859 
1518.000000	99.329930 
1517.000000	99.328257 
1516.000000	99.327247 
1515.000000	99.326478 
1514.000000	99.325630 
1513.000000	99.324766 
1512.000000	99.323882 
1511.000000	99.322553 
1510.000000	99.320465 
1509.000000	99.317955 
1508.000000	99.316882 
1507.000000	99.318588 
1506.000000	99.320017 
1505.000000	99.319024 
1504.000000	99.317330 
1503.000000	99.315998 
1502.000000	99.315279 
1501.000000	99.315974 
1500.000000	99.318182 
1499.000000	99.320907 
1498.000000	99.322522 
1497.000000	99.322970 
1496.000000	99.322825 
1495.000000	99.321309 
1494.000000	99.317594 
1493.000000	99.312201 
1492.000000	99.306329 
1491.000000	99.301238 
1490.000000	99.297765 
1489.000000	99.295873 
1488.000000	99.293984 
1487.000000	99.290936 
1486.000000	99.288113 
1485.000000	99.286786 
1484.000000	99.286597 
1483.000000	99.286639 
1482.000000	99.286049 
1481.000000	99.284370 
1480.000000	99.281625 
1479.000000	99.278369 
1478.000000	99.275463 
1477.000000	99.273514 
1476.000000	99.272090 
1475.000000	99.269878 
1474.000000	99.267190 
1473.000000	99.266861 
1472.000000	99.269847 
1471.000000	99.272804 
1470.000000	99.273365 
1469.000000	99.272596 
1468.000000	99.272018 
1467.000000	99.271867 
1466.000000	99.271933 
1465.000000	99.272285 
1464.000000	99.272646 
1463.000000	99.272595 
1462.000000	99.272597 
1461.000000	99.273501 
1460.000000	99.274935 
1459.000000	99.274956 
1458.000000	99.270186 
1457.000000	99.259178 
1456.000000	99.246382 
1455.000000	99.236715 
1454.000000	99.230922 
1453.000000	99.228790 
1452.000000	99.229096 
1451.000000	99.229868 
1450.000000	99.230579 
1449.000000	99.233404 
1448.000000	99.239100 
1447.000000	99.244341 
1446.000000	99.246318 
1445.000000	99.246516 
1444.000000	99.247179 
1443.000000	99.247802 
1442.000000	99.247274 
1441.000000	99.246535 
1440.000000	99.247671 
1439.000000	99.251193 
1438.000000	99.254655 
1437.000000	99.254516 
1436.000000	99.249806 
1435.000000	99.242383 
1434.000000	99.234855 
1433.000000	99.229875 
1432.000000	99.228433 
1431.000000	99.229369 
1430.000000	99.229899 
1429.000000	99.228037 
1428.000000	99.223772 
1427.000000	99.217650 
1426.000000	99.209956 
1425.000000	99.201111 
1424.000000	99.193258 
1423.000000	99.187837 
1422.000000	99.182658 
1421.000000	99.174684 
1420.000000	99.163332 
1419.000000	99.150211 
1418.000000	99.135835 
1417.000000	99.120017 
1416.000000	99.104125 
1415.000000	99.089160 
1414.000000	99.073914 
1413.000000	99.057045 
1412.000000	99.040121 
1411.000000	99.026383 
1410.000000	99.016282 
1409.000000	99.008270 
1408.000000	99.002268 
1407.000000	98.999095 
1406.000000	98.998336 
1405.000000	98.999553 
1404.000000	99.004354 
1403.000000	99.013047 
1402.000000	99.022359 
1401.000000	99.029371 
1400.000000	99.034417 
1399.000000	99.038516 
1398.000000	99.037939 
1397.000000	99.025919 
1396.000000	99.001459 
1395.000000	98.975818 
1394.000000	98.965497 
1393.000000	98.976349 
1392.000000	99.001248 
1391.000000	99.028540 
1390.000000	99.049204 
1389.000000	99.059497 
1388.000000	99.060383 
1387.000000	99.055740 
1386.000000	99.049586 
1385.000000	99.044403 
1384.000000	99.041433 
1383.000000	99.040902 
1382.000000	99.042343 
1381.000000	99.045803 
1380.000000	99.051768 
1379.000000	99.060000 
1378.000000	99.069029 
1377.000000	99.077339 
1376.000000	99.085035 
1375.000000	99.093844 
1374.000000	99.104877 
1373.000000	99.116799 
1372.000000	99.127524 
1371.000000	99.137211 
1370.000000	99.147713 
1369.000000	99.159425 
1368.000000	99.171341 
1367.000000	99.182806 
1366.000000	99.193886 
1365.000000	99.204378 
1364.000000	99.212958 
1363.000000	99.218752 
1362.000000	99.223325 
1361.000000	99.228966 
1360.000000	99.235936 
1359.000000	99.243275 
1358.000000	99.250758 
1357.000000	99.258777 
1356.000000	99.267065 
1355.000000	99.274546 
1354.000000	99.280557 
1353.000000	99.285590 
1352.000000	99.289444 
1351.000000	99.290998 
1350.000000	99.291282 
1349.000000	99.292459 
1348.000000	99.295248 
1347.000000	99.299103 
1346.000000	99.303925 
1345.000000	99.309551 
1344.000000	99.314497 
1343.000000	99.317158 
1342.000000	99.317838 
1341.000000	99.317953 
1340.000000	99.317872 
1339.000000	99.317136 
1338.000000	99.316101 
1337.000000	99.316018 
1336.000000	99.317359 
1335.000000	99.319206 
1334.000000	99.321013 
1333.000000	99.323661 
1332.000000	99.327712 
1331.000000	99.332002 
1330.000000	99.334696 
1329.000000	99.334978 
1328.000000	99.333371 
1327.000000	99.331125 
1326.000000	99.329347 
1325.000000	99.328044 
1324.000000	99.327247 
1323.000000	99.327662 
1322.000000	99.329414 
1321.000000	99.330949 
1320.000000	99.330425 
1319.000000	99.327978 
1318.000000	99.325621 
1317.000000	99.324908 
1316.000000	99.325394 
1315.000000	99.325591 
1314.000000	99.324676 
1313.000000	99.323245 
1312.000000	99.322629 
1311.000000	99.323716 
1310.000000	99.326273 
1309.000000	99.329143 
1308.000000	99.330884 
1307.000000	99.330528 
1306.000000	99.328180 
1305.000000	99.324911 
1304.000000	99.322688 
1303.000000	99.323353 
1302.000000	99.327146 
1301.000000	99.332190 
1300.000000	99.335766 
1299.000000	99.336213 
1298.000000	99.333811 
1297.000000	99.330359 
1296.000000	99.327894 
1295.000000	99.327543 
1294.000000	99.328912 
1293.000000	99.330546 
1292.000000	99.330999 
1291.000000	99.329461 
1290.000000	99.325941 
1289.000000	99.321423 
1288.000000	99.317553 
1287.000000	99.315222 
1286.000000	99.313323 
1285.000000	99.309915 
1284.000000	99.304799 
1283.000000	99.299988 
1282.000000	99.297057 
1281.000000	99.295135 
1280.000000	99.292447 
1279.000000	99.288504 
1278.000000	99.283653 
1277.000000	99.277694 
1276.000000	99.270150 
1275.000000	99.261600 
1274.000000	99.253529 
1273.000000	99.246949 
1272.000000	99.241868 
1271.000000	99.237574 
1270.000000	99.232644 
1269.000000	99.225363 
1268.000000	99.215398 
1267.000000	99.204545 
1266.000000	99.194680 
1265.000000	99.185705 
1264.000000	99.176596 
1263.000000	99.167461 
1262.000000	99.159008 
1261.000000	99.150743 
1260.000000	99.141706 
1259.000000	99.132726 
1258.000000	99.125746 
1257.000000	99.121191 
1256.000000	99.117849 
1255.000000	99.115184 
1254.000000	99.113666 
1253.000000	99.112663 
1252.000000	99.110390 
1251.000000	99.106990 
1250.000000	99.105594 
1249.000000	99.108968 
1248.000000	99.116581 
1247.000000	99.125576 
1246.000000	99.132692 
1245.000000	99.134521 
1244.000000	99.128636 
1243.000000	99.117365 
1242.000000	99.109054 
1241.000000	99.111677 
1240.000000	99.124991 
1239.000000	99.140328 
1238.000000	99.148840 
1237.000000	99.148796 
1236.000000	99.143989 
1235.000000	99.137960 
1234.000000	99.131559 
1233.000000	99.124883 
1232.000000	99.119112 
1231.000000	99.115754 
1230.000000	99.115100 
1229.000000	99.116082 
1228.000000	99.117479 
1227.000000	99.119240 
1226.000000	99.122624 
1225.000000	99.128670 
1224.000000	99.136485 
1223.000000	99.143720 
1222.000000	99.149149 
1221.000000	99.154083 
1220.000000	99.160663 
1219.000000	99.169441 
1218.000000	99.179161 
1217.000000	99.188308 
1216.000000	99.196084 
1215.000000	99.202468 
1214.000000	99.208340 
1213.000000	99.215211 
1212.000000	99.223673 
1211.000000	99.232090 
1210.000000	99.237979 
1209.000000	99.240803 
1208.000000	99.242435 
1207.000000	99.244732 
1206.000000	99.247726 
1205.000000	99.250621 
1204.000000	99.253368 
1203.000000	99.256269 
1202.000000	99.258610 
1201.000000	99.258862 
1200.000000	99.256520 
1199.000000	99.253117 
1198.000000	99.251150 
1197.000000	99.252015 
1196.000000	99.254964 
1195.000000	99.258029 
1194.000000	99.259678 
1193.000000	99.259449 
1192.000000	99.257568 
1191.000000	99.254794 
1190.000000	99.252601 
1189.000000	99.252733 
1188.000000	99.255973 
1187.000000	99.261337 
1186.000000	99.266633 
1185.000000	99.269865 
1184.000000	99.270126 
1183.000000	99.267697 
1182.000000	99.263870 
1181.000000	99.260475 
1180.000000	99.258964 
1179.000000	99.259664 
1178.000000	99.261748 
1177.000000	99.263799 
1176.000000	99.264577 
1175.000000	99.263727 
1174.000000	99.262075 
1173.000000	99.260970 
1172.000000	99.261146 
1171.000000	99.262345 
1170.000000	99.263912 
1169.000000	99.265253 
1168.000000	99.265548 
1167.000000	99.263661 
1166.000000	99.259084 
1165.000000	99.252924 
1164.000000	99.247452 
1163.000000	99.244387 
1162.000000	99.243710 
1161.000000	99.244043 
1160.000000	99.244015 
1159.000000	99.243499 
1158.000000	99.243723 
1157.000000	99.245913 
1156.000000	99.249531 
1155.000000	99.252116 
1154.000000	99.251315 
1153.000000	99.247003 
1152.000000	99.241233 
1151.000000	99.236405 
1150.000000	99.233753 
1149.000000	99.233039 
1148.000000	99.232815 
1147.000000	99.230905 
1146.000000	99.225647 
1145.000000	99.217411 
1144.000000	99.208753 
1143.000000	99.202560 
1142.000000	99.199769 
1141.000000	99.198927 
1140.000000	99.197897 
1139.000000	99.195716 
1138.000000	99.192795 
1137.000000	99.189821 
1136.000000	99.186963 
1135.000000	99.184110 
1134.000000	99.181306 
1133.000000	99.178530 
1132.000000	99.175359 
1131.000000	99.171385 
1130.000000	99.166884 
1129.000000	99.162632 
1128.000000	99.158871 
1127.000000	99.154750 
1126.000000	99.149029 
1125.000000	99.141324 
1124.000000	99.132614 
1123.000000	99.124411 
1122.000000	99.117206 
1121.000000	99.109793 
1120.000000	99.100496 
1119.000000	99.089002 
1118.000000	99.076422 
1117.000000	99.063405 
1116.000000	99.048926 
1115.000000	99.031550 
1114.000000	99.011250 
1113.000000	98.989215 
1112.000000	98.966624 
1111.000000	98.944716 
1110.000000	98.925038 
1109.000000	98.908267 
1108.000000	98.893051 
1107.000000	98.876845 
1106.000000	98.858461 
1105.000000	98.839063 
1104.000000	98.820107 
1103.000000	98.801631 
1102.000000	98.783488 
1101.000000	98.767531 
1100.000000	98.756236 
1099.000000	98.748566 
1098.000000	98.740445 
1097.000000	98.729031 
1096.000000	98.715636 
1095.000000	98.702505 
1094.000000	98.687966 
1093.000000	98.667005 
1092.000000	98.636775 
1091.000000	98.599670 
1090.000000	98.560262 
1089.000000	98.520559 
1088.000000	98.479687 
1087.000000	98.437471 
1086.000000	98.396391 
1085.000000	98.359376 
1084.000000	98.326510 
1083.000000	98.294669 
1082.000000	98.260560 
1081.000000	98.224089 
1080.000000	98.188626 
1079.000000	98.157993 
1078.000000	98.133658 
1077.000000	98.115122 
1076.000000	98.101998 
1075.000000	98.094524 
1074.000000	98.092862 
1073.000000	98.096990 
1072.000000	98.105503 
1071.000000	98.111833 
1070.000000	98.103532 
1069.000000	98.071444 
1068.000000	98.022710 
1067.000000	97.981171 
1066.000000	97.969557 
1065.000000	97.991471 
1064.000000	98.031244 
1063.000000	98.067972 
1062.000000	98.087776 
1061.000000	98.085492 
1060.000000	98.062940 
1059.000000	98.030157 
1058.000000	98.003411 
1057.000000	97.994893 
1056.000000	98.003165 
1055.000000	98.015486 
1054.000000	98.020013 
1053.000000	98.015293 
1052.000000	98.008586 
1051.000000	98.007310 
1050.000000	98.013145 
1049.000000	98.022967 
1048.000000	98.033592 
1047.000000	98.044819 
1046.000000	98.058227 
1045.000000	98.074124 
1044.000000	98.091093 
1043.000000	98.108790 
1042.000000	98.129208 
1041.000000	98.153239 
1040.000000	98.177456 
1039.000000	98.197706 
1038.000000	98.216026 
1037.000000	98.240214 
1036.000000	98.275043 
1035.000000	98.316972 
1034.000000	98.359068 
1033.000000	98.397366 
1032.000000	98.428814 
1031.000000	98.446982 
1030.000000	98.447077 
1029.000000	98.436014 
1028.000000	98.431919 
1027.000000	98.449321 
1026.000000	98.486653 
1025.000000	98.529789 
1024.000000	98.565526 
1023.000000	98.589535 
1022.000000	98.604264 
1021.000000	98.613906 
1020.000000	98.622018 
1019.000000	98.631208 
1018.000000	98.642533 
1017.000000	98.655352 
1016.000000	98.668642 
1015.000000	98.682352 
1014.000000	98.697358 
1013.000000	98.714324 
1012.000000	98.732634 
1011.000000	98.750438 
1010.000000	98.766069 
1009.000000	98.779673 
1008.000000	98.793087 
1007.000000	98.807894 
1006.000000	98.823998 
1005.000000	98.840366 
1004.000000	98.856528 
1003.000000	98.872673 
1002.000000	98.888692 
1001.000000	98.904070 
1000.000000	98.918704 
999.000000	 98.932904 
998.000000	 98.946309 
997.000000	 98.957665 
996.000000	 98.966515 
995.000000	 98.974738 
994.000000	 98.985350 
993.000000	 98.999387 
992.000000	 99.014453 
991.000000	 99.026760 
990.000000	 99.034471 
989.000000	 99.038931 
988.000000	 99.043113 
987.000000	 99.049296 
986.000000	 99.057815 
985.000000	 99.067244 
984.000000	 99.075677 
983.000000	 99.082391 
982.000000	 99.088190 
981.000000	 99.094383 
980.000000	 99.101657 
979.000000	 99.109613 
978.000000	 99.117406 
977.000000	 99.124723 
976.000000	 99.132002 
975.000000	 99.139828 
974.000000	 99.148172 
973.000000	 99.156255 
972.000000	 99.163228 
971.000000	 99.168990 
970.000000	 99.174274 
969.000000	 99.179989 
968.000000	 99.186716 
967.000000	 99.194646 
966.000000	 99.203226 
965.000000	 99.210678 
964.000000	 99.214892 
963.000000	 99.215678 
962.000000	 99.215564 
961.000000	 99.217363 
960.000000	 99.221264 
959.000000	 99.225280 
958.000000	 99.228011 
957.000000	 99.229681 
956.000000	 99.230821 
955.000000	 99.231716 
954.000000	 99.233406 
953.000000	 99.237475 
952.000000	 99.243913 
951.000000	 99.250325 
950.000000	 99.254253 
949.000000	 99.255494 
948.000000	 99.255558 
947.000000	 99.255959 
946.000000	 99.257771 
945.000000	 99.261760 
944.000000	 99.267593 
943.000000	 99.273251 
942.000000	 99.276311 
941.000000	 99.275839 
940.000000	 99.272680 
939.000000	 99.268457 
938.000000	 99.264791 
937.000000	 99.262717 
936.000000	 99.261818 
935.000000	 99.260234 
934.000000	 99.256426 
933.000000	 99.250946 
932.000000	 99.245972 
931.000000	 99.243438 
930.000000	 99.244055 
929.000000	 99.247450 
928.000000	 99.252341 
927.000000	 99.256930 
926.000000	 99.260043 
925.000000	 99.261853 
924.000000	 99.262853 
923.000000	 99.262399 
922.000000	 99.259053 
921.000000	 99.252322 
920.000000	 99.243419 
919.000000	 99.234383 
918.000000	 99.226916 
917.000000	 99.221752 
916.000000	 99.218391 
915.000000	 99.215516 
914.000000	 99.212296 
913.000000	 99.209333 
912.000000	 99.207662 
911.000000	 99.206738 
910.000000	 99.204162 
909.000000	 99.197897 
908.000000	 99.188337 
907.000000	 99.177821 
906.000000	 99.168372 
905.000000	 99.160472 
904.000000	 99.154073 
903.000000	 99.150046 
902.000000	 99.149770 
901.000000	 99.153133 
900.000000	 99.157621 
899.000000	 99.160100 
898.000000	 99.159514 
897.000000	 99.157099 
896.000000	 99.153896 
895.000000	 99.149255 
894.000000	 99.142702 
893.000000	 99.136534 
892.000000	 99.135065 
891.000000	 99.140956 
890.000000	 99.152949 
889.000000	 99.167191 
888.000000	 99.180126 
887.000000	 99.189794 
886.000000	 99.195249 
885.000000	 99.196154 
884.000000	 99.193256 
883.000000	 99.188621 
882.000000	 99.184779 
881.000000	 99.183594 
880.000000	 99.186026 
879.000000	 99.192369 
878.000000	 99.201812 
877.000000	 99.211688 
876.000000	 99.218114 
875.000000	 99.218366 
874.000000	 99.212927 
873.000000	 99.205361 
872.000000	 99.200218 
871.000000	 99.200526 
870.000000	 99.206299 
869.000000	 99.214324 
868.000000	 99.220427 
867.000000	 99.223270 
866.000000	 99.225591 
865.000000	 99.231027 
864.000000	 99.240042 
863.000000	 99.249901 
862.000000	 99.258108 
861.000000	 99.264417 
860.000000	 99.269616 
859.000000	 99.274282 
858.000000	 99.279475 
857.000000	 99.286867 
856.000000	 99.296714 
855.000000	 99.306562 
854.000000	 99.313417 
853.000000	 99.316687 
852.000000	 99.318029 
851.000000	 99.318992 
850.000000	 99.320009 
849.000000	 99.321296 
848.000000	 99.323325 
847.000000	 99.326217 
846.000000	 99.329680 
845.000000	 99.333714 
844.000000	 99.338606 
843.000000	 99.343992 
842.000000	 99.348504 
841.000000	 99.350705 
840.000000	 99.350363 
839.000000	 99.349003 
838.000000	 99.349094 
837.000000	 99.351821 
836.000000	 99.355446 
835.000000	 99.356932 
834.000000	 99.355738 
833.000000	 99.354749 
832.000000	 99.356196 
831.000000	 99.357852 
830.000000	 99.355730 
829.000000	 99.349952 
828.000000	 99.345561 
827.000000	 99.346518 
826.000000	 99.350986 
825.000000	 99.353891 
824.000000	 99.353341 
823.000000	 99.352346 
822.000000	 99.354154 
821.000000	 99.357933 
820.000000	 99.360013 
819.000000	 99.358150 
818.000000	 99.353463 
817.000000	 99.349102 
816.000000	 99.347301 
815.000000	 99.347583 
814.000000	 99.347489 
813.000000	 99.345075 
812.000000	 99.340785 
811.000000	 99.336923 
810.000000	 99.335283 
809.000000	 99.335548 
808.000000	 99.336032 
807.000000	 99.335572 
806.000000	 99.334187 
805.000000	 99.331968 
804.000000	 99.328215 
803.000000	 99.322484 
802.000000	 99.316163 
801.000000	 99.311828 
800.000000	 99.310602 
799.000000	 99.311010 
798.000000	 99.310944 
797.000000	 99.310301 
796.000000	 99.310556 
795.000000	 99.312243 
794.000000	 99.314379 
793.000000	 99.316309 
792.000000	 99.318454 
791.000000	 99.320592 
790.000000	 99.320870 
789.000000	 99.317747 
788.000000	 99.312309 
787.000000	 99.307586 
786.000000	 99.305470 
785.000000	 99.305398 
784.000000	 99.305899 
783.000000	 99.306278 
782.000000	 99.306791 
781.000000	 99.307734 
780.000000	 99.308932 
779.000000	 99.309829 
778.000000	 99.309997 
777.000000	 99.310138 
776.000000	 99.312031 
775.000000	 99.316631 
774.000000	 99.322519 
773.000000	 99.326956 
772.000000	 99.328766 
771.000000	 99.329105 
770.000000	 99.329379 
769.000000	 99.329514 
768.000000	 99.328943 
767.000000	 99.328364 
766.000000	 99.329289 
765.000000	 99.332051 
764.000000	 99.335256 
763.000000	 99.337334 
762.000000	 99.338065 
761.000000	 99.338411 
760.000000	 99.339324 
759.000000	 99.340949 
758.000000	 99.342664 
757.000000	 99.343626 
756.000000	 99.343493 
755.000000	 99.342927 
754.000000	 99.343304 
753.000000	 99.345515 
752.000000	 99.349116 
751.000000	 99.352671 
750.000000	 99.355021 
749.000000	 99.355944 
748.000000	 99.355675 
747.000000	 99.354569 
746.000000	 99.353450 
745.000000	 99.353438 
744.000000	 99.354682 
743.000000	 99.355731 
742.000000	 99.354987 
741.000000	 99.352602 
740.000000	 99.350411 
739.000000	 99.349817 
738.000000	 99.350429 
737.000000	 99.351037 
736.000000	 99.351222 
735.000000	 99.351391 
734.000000	 99.351807 
733.000000	 99.352543 
732.000000	 99.353975 
731.000000	 99.356186 
730.000000	 99.358083 
729.000000	 99.358294 
728.000000	 99.356812 
727.000000	 99.354921 
726.000000	 99.353647 
725.000000	 99.353036 
724.000000	 99.352981 
723.000000	 99.353756 
722.000000	 99.355356 
721.000000	 99.357060 
720.000000	 99.357993 
719.000000	 99.357729 
718.000000	 99.356413 
717.000000	 99.354620 
716.000000	 99.353410 
715.000000	 99.353596 
714.000000	 99.354714 
713.000000	 99.355353 
712.000000	 99.354919 
711.000000	 99.354232 
710.000000	 99.354176 
709.000000	 99.354546 
708.000000	 99.354599 
707.000000	 99.354177 
706.000000	 99.353852 
705.000000	 99.354106 
704.000000	 99.354739 
703.000000	 99.355219 
702.000000	 99.355273 
701.000000	 99.355108 
700.000000	 99.355146 
699.000000	 99.355524 
698.000000	 99.355830 
697.000000	 99.355393 
696.000000	 99.353930 
695.000000	 99.351854 
694.000000	 99.349893 
693.000000	 99.348894 
692.000000	 99.349677 
691.000000	 99.352225 
690.000000	 99.355083 
689.000000	 99.356359 
688.000000	 99.355722 
687.000000	 99.354739 
686.000000	 99.354769 
685.000000	 99.355392 
684.000000	 99.355567 
683.000000	 99.355057 
682.000000	 99.354146 
681.000000	 99.353209 
680.000000	 99.353199 
679.000000	 99.355096 
678.000000	 99.357903 
677.000000	 99.358936 
676.000000	 99.357142 
675.000000	 99.354497 
674.000000	 99.353512 
673.000000	 99.354122 
672.000000	 99.353958 
671.000000	 99.351001 
670.000000	 99.344656 
669.000000	 99.336202 
668.000000	 99.330072 
667.000000	 99.329772 
666.000000	 99.334496 
665.000000	 99.341890 
664.000000	 99.348415 
663.000000	 99.351668 
662.000000	 99.352104 
661.000000	 99.352906 
660.000000	 99.356715 
659.000000	 99.362408 
658.000000	 99.365823 
657.000000	 99.364023 
656.000000	 99.357534 
655.000000	 99.350035 
654.000000	 99.346283 
653.000000	 99.347405 
652.000000	 99.349700 
651.000000	 99.349104 
650.000000	 99.346816 

