4000.000000	99.327916 
3999.000000	99.330207 
3998.000000	99.331112 
3997.000000	99.330209 
3996.000000	99.327533 
3995.000000	99.323819 
3994.000000	99.320601 
3993.000000	99.319408 
3992.000000	99.320394 
3991.000000	99.322021 
3990.000000	99.322535 
3989.000000	99.321931 
3988.000000	99.322143 
3987.000000	99.325016 
3986.000000	99.330243 
3985.000000	99.335461 
3984.000000	99.338237 
3983.000000	99.337712 
3982.000000	99.334567 
3981.000000	99.330032 
3980.000000	99.325014 
3979.000000	99.320010 
3978.000000	99.315710 
3977.000000	99.313420 
3976.000000	99.314580 
3975.000000	99.319555 
3974.000000	99.326839 
3973.000000	99.333560 
3972.000000	99.337105 
3971.000000	99.336786 
3970.000000	99.334086 
3969.000000	99.331114 
3968.000000	99.328910 
3967.000000	99.327227 
3966.000000	99.325747 
3965.000000	99.325168 
3964.000000	99.326407 
3963.000000	99.328788 
3962.000000	99.329748 
3961.000000	99.327022 
3960.000000	99.320935 
3959.000000	99.314368 
3958.000000	99.310381 
3957.000000	99.309767 
3956.000000	99.311230 
3955.000000	99.313244 
3954.000000	99.315274 
3953.000000	99.317281 
3952.000000	99.318734 
3951.000000	99.319063 
3950.000000	99.318464 
3949.000000	99.317815 
3948.000000	99.317800 
3947.000000	99.318373 
3946.000000	99.319334 
3945.000000	99.320759 
3944.000000	99.322424 
3943.000000	99.322777 
3942.000000	99.320006 
3941.000000	99.314636 
3940.000000	99.309491 
3939.000000	99.306589 
3938.000000	99.305133 
3937.000000	99.302791 
3936.000000	99.299017 
3935.000000	99.296286 
3934.000000	99.298047 
3933.000000	99.305309 
3932.000000	99.314888 
3931.000000	99.321305 
3930.000000	99.320860 
3929.000000	99.314437 
3928.000000	99.306640 
3927.000000	99.302048 
3926.000000	99.302402 
3925.000000	99.306012 
3924.000000	99.309244 
3923.000000	99.309708 
3922.000000	99.307502 
3921.000000	99.304194 
3920.000000	99.301563 
3919.000000	99.301266 
3918.000000	99.304731 
3917.000000	99.311864 
3916.000000	99.320262 
3915.000000	99.326815 
3914.000000	99.330265 
3913.000000	99.331562 
3912.000000	99.332026 
3911.000000	99.332188 
3910.000000	99.332352 
3909.000000	99.332938 
3908.000000	99.334028 
3907.000000	99.334242 
3906.000000	99.330662 
3905.000000	99.320637 
3904.000000	99.304145 
3903.000000	99.285810 
3902.000000	99.273545 
3901.000000	99.272996 
3900.000000	99.283297 
3899.000000	99.297511 
3898.000000	99.308048 
3897.000000	99.312124 
3896.000000	99.311428 
3895.000000	99.308825 
3894.000000	99.306551 
3893.000000	99.305453 
3892.000000	99.304655 
3891.000000	99.302007 
3890.000000	99.296639 
3889.000000	99.290150 
3888.000000	99.285337 
3887.000000	99.284762 
3886.000000	99.288144 
3885.000000	99.291433 
3884.000000	99.291168 
3883.000000	99.288908 
3882.000000	99.289503 
3881.000000	99.295184 
3880.000000	99.302235 
3879.000000	99.304803 
3878.000000	99.301898 
3877.000000	99.297937 
3876.000000	99.298209 
3875.000000	99.303349 
3874.000000	99.307661 
3873.000000	99.304862 
3872.000000	99.295879 
3871.000000	99.288537 
3870.000000	99.288588 
3869.000000	99.293547 
3868.000000	99.297389 
3867.000000	99.297699 
3866.000000	99.296876 
3865.000000	99.298218 
3864.000000	99.300913 
3863.000000	99.301917 
3862.000000	99.300816 
3861.000000	99.300227 
3860.000000	99.302682 
3859.000000	99.307941 
3858.000000	99.312469 
3857.000000	99.312109 
3856.000000	99.305457 
3855.000000	99.297114 
3854.000000	99.293510 
3853.000000	99.294574 
3852.000000	99.297246 
3851.000000	99.301849 
3850.000000	99.308558 
3849.000000	99.315899 
3848.000000	99.321110 
3847.000000	99.321529 
3846.000000	99.316713 
3845.000000	99.308825 
3844.000000	99.301269 
3843.000000	99.297071 
3842.000000	99.296501 
3841.000000	99.296837 
3840.000000	99.295715 
3839.000000	99.293246 
3838.000000	99.290880 
3837.000000	99.289523 
3836.000000	99.289039 
3835.000000	99.289957 
3834.000000	99.293825 
3833.000000	99.301661 
3832.000000	99.311983 
3831.000000	99.320669 
3830.000000	99.324338 
3829.000000	99.323350 
3828.000000	99.320782 
3827.000000	99.319152 
3826.000000	99.318023 
3825.000000	99.314641 
3824.000000	99.307376 
3823.000000	99.299056 
3822.000000	99.294733 
3821.000000	99.294907 
3820.000000	99.295237 
3819.000000	99.294171 
3818.000000	99.294529 
3817.000000	99.299663 
3816.000000	99.308554 
3815.000000	99.315383 
3814.000000	99.316303 
3813.000000	99.313633 
3812.000000	99.312344 
3811.000000	99.314434 
3810.000000	99.317428 
3809.000000	99.317941 
3808.000000	99.315599 
3807.000000	99.312490 
3806.000000	99.309334 
3805.000000	99.304877 
3804.000000	99.299268 
3803.000000	99.296150 
3802.000000	99.298998 
3801.000000	99.305335 
3800.000000	99.309620 
3799.000000	99.310209 
3798.000000	99.309388 
3797.000000	99.309684 
3796.000000	99.311317 
3795.000000	99.313059 
3794.000000	99.314412 
3793.000000	99.315954 
3792.000000	99.318100 
3791.000000	99.320341 
3790.000000	99.321895 
3789.000000	99.322591 
3788.000000	99.322691 
3787.000000	99.322146 
3786.000000	99.320757 
3785.000000	99.318663 
3784.000000	99.316281 
3783.000000	99.313767 
3782.000000	99.311363 
3781.000000	99.310230 
3780.000000	99.311731 
3779.000000	99.315448 
3778.000000	99.319024 
3777.000000	99.320151 
3776.000000	99.318130 
3775.000000	99.314227 
3774.000000	99.310490 
3773.000000	99.308427 
3772.000000	99.308610 
3771.000000	99.310458 
3770.000000	99.311614 
3769.000000	99.309635 
3768.000000	99.305696 
3767.000000	99.303726 
3766.000000	99.305634 
3765.000000	99.308893 
3764.000000	99.309081 
3763.000000	99.304592 
3762.000000	99.298220 
3761.000000	99.294216 
3760.000000	99.294052 
3759.000000	99.295486 
3758.000000	99.296304 
3757.000000	99.296557 
3756.000000	99.296267 
3755.000000	99.294498 
3754.000000	99.291056 
3753.000000	99.287922 
3752.000000	99.287296 
3751.000000	99.287677 
3750.000000	99.286293 
3749.000000	99.284347 
3748.000000	99.284648 
3747.000000	99.287616 
3746.000000	99.292280 
3745.000000	99.297205 
3744.000000	99.299673 
3743.000000	99.298835 
3742.000000	99.296676 
3741.000000	99.294102 
3740.000000	99.289945 
3739.000000	99.282020 
3738.000000	99.271039 
3737.000000	99.263750 
3736.000000	99.267978 
3735.000000	99.283563 
3734.000000	99.300775 
3733.000000	99.310555 
3732.000000	99.311752 
3731.000000	99.308020 
3730.000000	99.302533 
3729.000000	99.296674 
3728.000000	99.292080 
3727.000000	99.290320 
3726.000000	99.290204 
3725.000000	99.288877 
3724.000000	99.286153 
3723.000000	99.285470 
3722.000000	99.289060 
3721.000000	99.295246 
3720.000000	99.300085 
3719.000000	99.299972 
3718.000000	99.293868 
3717.000000	99.283166 
3716.000000	99.270036 
3715.000000	99.256062 
3714.000000	99.242196 
3713.000000	99.230265 
3712.000000	99.222611 
3711.000000	99.220579 
3710.000000	99.223263 
3709.000000	99.227562 
3708.000000	99.229953 
3707.000000	99.228232 
3706.000000	99.222762 
3705.000000	99.216348 
3704.000000	99.212237 
3703.000000	99.210642 
3702.000000	99.206926 
3701.000000	99.195687 
3700.000000	99.177083 
3699.000000	99.156695 
3698.000000	99.140103 
3697.000000	99.129060 
3696.000000	99.121305 
3695.000000	99.113620 
3694.000000	99.105524 
3693.000000	99.099523 
3692.000000	99.097631 
3691.000000	99.098789 
3690.000000	99.098842 
3689.000000	99.093847 
3688.000000	99.084269 
3687.000000	99.074345 
3686.000000	99.067646 
3685.000000	99.065750 
3684.000000	99.068549 
3683.000000	99.073734 
3682.000000	99.077173 
3681.000000	99.074413 
3680.000000	99.062156 
3679.000000	99.039182 
3678.000000	99.008496 
3677.000000	98.980789 
3676.000000	98.969275 
3675.000000	98.973340 
3674.000000	98.979373 
3673.000000	98.978526 
3672.000000	98.972425 
3671.000000	98.969266 
3670.000000	98.973636 
3669.000000	98.981020 
3668.000000	98.986191 
3667.000000	98.989548 
3666.000000	98.993217 
3665.000000	98.997154 
3664.000000	98.999357 
3663.000000	98.998109 
3662.000000	98.993436 
3661.000000	98.986145 
3660.000000	98.976868 
3659.000000	98.967126 
3658.000000	98.960310 
3657.000000	98.959383 
3656.000000	98.962631 
3655.000000	98.964554 
3654.000000	98.961173 
3653.000000	98.952015 
3652.000000	98.938552 
3651.000000	98.923792 
3650.000000	98.912553 
3649.000000	98.910075 
3648.000000	98.917567 
3647.000000	98.930055 
3646.000000	98.941382 
3645.000000	98.949635 
3644.000000	98.957017 
3643.000000	98.965852 
3642.000000	98.976399 
3641.000000	98.986681 
3640.000000	98.994372 
3639.000000	98.998263 
3638.000000	98.998281 
3637.000000	98.995378 
3636.000000	98.991127 
3635.000000	98.986880 
3634.000000	98.982490 
3633.000000	98.976476 
3632.000000	98.968058 
3631.000000	98.958686 
3630.000000	98.951448 
3629.000000	98.946570 
3628.000000	98.940887 
3627.000000	98.935686 
3626.000000	98.936494 
3625.000000	98.945662 
3624.000000	98.960221 
3623.000000	98.974944 
3622.000000	98.986496 
3621.000000	98.995495 
3620.000000	99.002997 
3619.000000	99.006197 
3618.000000	99.001783 
3617.000000	98.992366 
3616.000000	98.984807 
3615.000000	98.984526 
3614.000000	98.991213 
3613.000000	98.999353 
3612.000000	99.003976 
3611.000000	99.005166 
3610.000000	99.006212 
3609.000000	99.009780 
3608.000000	99.015721 
3607.000000	99.022649 
3606.000000	99.031132 
3605.000000	99.042543 
3604.000000	99.056207 
3603.000000	99.069025 
3602.000000	99.077897 
3601.000000	99.082781 
3600.000000	99.085723 
3599.000000	99.087797 
3598.000000	99.088362 
3597.000000	99.087077 
3596.000000	99.085192 
3595.000000	99.085611 
3594.000000	99.090023 
3593.000000	99.097117 
3592.000000	99.103804 
3591.000000	99.107377 
3590.000000	99.107465 
3589.000000	99.106476 
3588.000000	99.106789 
3587.000000	99.106845 
3586.000000	99.104096 
3585.000000	99.099900 
3584.000000	99.098561 
3583.000000	99.102215 
3582.000000	99.109009 
3581.000000	99.115072 
3580.000000	99.117772 
3579.000000	99.116966 
3578.000000	99.113436 
3577.000000	99.107980 
3576.000000	99.101796 
3575.000000	99.096992 
3574.000000	99.095307 
3573.000000	99.096265 
3572.000000	99.097712 
3571.000000	99.097905 
3570.000000	99.096317 
3569.000000	99.093559 
3568.000000	99.090931 
3567.000000	99.088908 
3566.000000	99.087009 
3565.000000	99.085749 
3564.000000	99.086954 
3563.000000	99.092117 
3562.000000	99.100911 
3561.000000	99.110653 
3560.000000	99.117774 
3559.000000	99.120194 
3558.000000	99.118849 
3557.000000	99.116735 
3556.000000	99.116550 
3555.000000	99.118680 
3554.000000	99.121162 
3553.000000	99.120995 
3552.000000	99.116414 
3551.000000	99.108627 
3550.000000	99.100775 
3549.000000	99.095247 
3548.000000	99.092637 
3547.000000	99.092276 
3546.000000	99.093204 
3545.000000	99.094124 
3544.000000	99.093825 
3543.000000	99.092457 
3542.000000	99.092106 
3541.000000	99.094922 
3540.000000	99.100982 
3539.000000	99.107977 
3538.000000	99.113377 
3537.000000	99.116529 
3536.000000	99.118435 
3535.000000	99.120168 
3534.000000	99.121628 
3533.000000	99.122303 
3532.000000	99.122203 
3531.000000	99.121764 
3530.000000	99.120585 
3529.000000	99.117140 
3528.000000	99.110674 
3527.000000	99.103260 
3526.000000	99.098735 
3525.000000	99.099157 
3524.000000	99.102774 
3523.000000	99.105861 
3522.000000	99.106504 
3521.000000	99.105801 
3520.000000	99.105882 
3519.000000	99.107614 
3518.000000	99.110328 
3517.000000	99.112886 
3516.000000	99.114333 
3515.000000	99.114191 
3514.000000	99.112488 
3513.000000	99.109772 
3512.000000	99.106866 
3511.000000	99.104435 
3510.000000	99.102520 
3509.000000	99.100693 
3508.000000	99.098789 
3507.000000	99.097436 
3506.000000	99.097772 
3505.000000	99.100458 
3504.000000	99.105181 
3503.000000	99.111268 
3502.000000	99.118595 
3501.000000	99.127005 
3500.000000	99.134661 
3499.000000	99.138119 
3498.000000	99.134916 
3497.000000	99.126227 
3496.000000	99.116130 
3495.000000	99.108216 
3494.000000	99.103457 
3493.000000	99.101141 
3492.000000	99.100806 
3491.000000	99.102574 
3490.000000	99.106275 
3489.000000	99.111059 
3488.000000	99.115722 
3487.000000	99.118934 
3486.000000	99.119613 
3485.000000	99.117821 
3484.000000	99.115134 
3483.000000	99.113508 
3482.000000	99.113369 
3481.000000	99.113416 
3480.000000	99.112527 
3479.000000	99.111031 
3478.000000	99.109612 
3477.000000	99.107952 
3476.000000	99.105620 
3475.000000	99.103967 
3474.000000	99.105591 
3473.000000	99.111124 
3472.000000	99.117614 
3471.000000	99.121255 
3470.000000	99.121245 
3469.000000	99.119782 
3468.000000	99.118654 
3467.000000	99.117236 
3466.000000	99.114361 
3465.000000	99.110745 
3464.000000	99.108376 
3463.000000	99.108190 
3462.000000	99.109401 
3461.000000	99.110954 
3460.000000	99.112489 
3459.000000	99.113832 
3458.000000	99.114558 
3457.000000	99.114290 
3456.000000	99.112926 
3455.000000	99.110514 
3454.000000	99.107276 
3453.000000	99.104135 
3452.000000	99.102285 
3451.000000	99.102007 
3450.000000	99.102243 
3449.000000	99.101724 
3448.000000	99.100127 
3447.000000	99.097960 
3446.000000	99.095907 
3445.000000	99.094912 
3444.000000	99.096241 
3443.000000	99.100226 
3442.000000	99.104783 
3441.000000	99.106152 
3440.000000	99.102060 
3439.000000	99.094020 
3438.000000	99.086053 
3437.000000	99.081206 
3436.000000	99.079622 
3435.000000	99.079883 
3434.000000	99.081234 
3433.000000	99.084117 
3432.000000	99.088543 
3431.000000	99.092934 
3430.000000	99.095160 
3429.000000	99.094765 
3428.000000	99.093687 
3427.000000	99.094133 
3426.000000	99.095869 
3425.000000	99.096175 
3424.000000	99.092746 
3423.000000	99.086195 
3422.000000	99.079368 
3421.000000	99.074666 
3420.000000	99.072790 
3419.000000	99.073540 
3418.000000	99.076453 
3417.000000	99.080301 
3416.000000	99.083117 
3415.000000	99.083663 
3414.000000	99.082666 
3413.000000	99.082013 
3412.000000	99.082852 
3411.000000	99.084783 
3410.000000	99.086569 
3409.000000	99.087111 
3408.000000	99.085882 
3407.000000	99.082968 
3406.000000	99.079001 
3405.000000	99.074870 
3404.000000	99.071392 
3403.000000	99.069222 
3402.000000	99.068834 
3401.000000	99.070508 
3400.000000	99.074182 
3399.000000	99.079292 
3398.000000	99.084598 
3397.000000	99.088340 
3396.000000	99.088994 
3395.000000	99.086135 
3394.000000	99.080529 
3393.000000	99.073495 
3392.000000	99.066518 
3391.000000	99.061361 
3390.000000	99.059932 
3389.000000	99.063346 
3388.000000	99.071021 
3387.000000	99.080911 
3386.000000	99.090751 
3385.000000	99.099096 
3384.000000	99.105272 
3383.000000	99.108642 
3382.000000	99.108161 
3381.000000	99.103068 
3380.000000	99.094285 
3379.000000	99.085091 
3378.000000	99.079547 
3377.000000	99.079445 
3376.000000	99.082816 
3375.000000	99.085850 
3374.000000	99.086337 
3373.000000	99.084980 
3372.000000	99.083698 
3371.000000	99.083447 
3370.000000	99.083854 
3369.000000	99.084115 
3368.000000	99.083711 
3367.000000	99.082727 
3366.000000	99.082031 
3365.000000	99.082751 
3364.000000	99.085018 
3363.000000	99.087530 
3362.000000	99.088906 
3361.000000	99.089108 
3360.000000	99.088864 
3359.000000	99.088131 
3358.000000	99.086278 
3357.000000	99.083931 
3356.000000	99.083381 
3355.000000	99.086279 
3354.000000	99.091393 
3353.000000	99.095457 
3352.000000	99.096101 
3351.000000	99.093628 
3350.000000	99.090330 
3349.000000	99.088620 
3348.000000	99.089633 
3347.000000	99.092622 
3346.000000	99.095328 
3345.000000	99.095525 
3344.000000	99.092886 
3343.000000	99.089455 
3342.000000	99.087754 
3341.000000	99.088273 
3340.000000	99.089020 
3339.000000	99.087826 
3338.000000	99.084931 
3337.000000	99.082871 
3336.000000	99.083799 
3335.000000	99.087366 
3334.000000	99.091503 
3333.000000	99.094740 
3332.000000	99.097151 
3331.000000	99.099303 
3330.000000	99.101096 
3329.000000	99.101996 
3328.000000	99.101946 
3327.000000	99.101512 
3326.000000	99.101043 
3325.000000	99.099945 
3324.000000	99.097092 
3323.000000	99.092346 
3322.000000	99.087580 
3321.000000	99.085552 
3320.000000	99.087315 
3319.000000	99.091136 
3318.000000	99.094467 
3317.000000	99.096409 
3316.000000	99.097380 
3315.000000	99.097213 
3314.000000	99.095390 
3313.000000	99.093293 
3312.000000	99.094155 
3311.000000	99.099489 
3310.000000	99.106621 
3309.000000	99.111109 
3308.000000	99.110992 
3307.000000	99.107684 
3306.000000	99.103619 
3305.000000	99.100640 
3304.000000	99.100215 
3303.000000	99.103009 
3302.000000	99.107446 
3301.000000	99.109966 
3300.000000	99.107827 
3299.000000	99.101538 
3298.000000	99.094334 
3297.000000	99.089680 
3296.000000	99.089104 
3295.000000	99.091568 
3294.000000	99.094497 
3293.000000	99.095952 
3292.000000	99.096286 
3291.000000	99.097283 
3290.000000	99.099547 
3289.000000	99.101451 
3288.000000	99.101042 
3287.000000	99.098340 
3286.000000	99.095148 
3285.000000	99.092941 
3284.000000	99.091596 
3283.000000	99.090178 
3282.000000	99.088514 
3281.000000	99.087702 
3280.000000	99.089071 
3279.000000	99.092621 
3278.000000	99.096625 
3277.000000	99.098947 
3276.000000	99.098598 
3275.000000	99.095893 
3274.000000	99.091595 
3273.000000	99.086735 
3272.000000	99.083071 
3271.000000	99.082557 
3270.000000	99.085652 
3269.000000	99.090529 
3268.000000	99.094353 
3267.000000	99.095181 
3266.000000	99.092793 
3265.000000	99.088578 
3264.000000	99.085060 
3263.000000	99.084800 
3262.000000	99.088812 
3261.000000	99.095755 
3260.000000	99.102836 
3259.000000	99.107452 
3258.000000	99.108294 
3257.000000	99.105690 
3256.000000	99.101249 
3255.000000	99.096741 
3254.000000	99.092990 
3253.000000	99.090172 
3252.000000	99.088965 
3251.000000	99.090482 
3250.000000	99.094656 
3249.000000	99.099581 
3248.000000	99.103136 
3247.000000	99.104642 
3246.000000	99.104408 
3245.000000	99.102496 
3244.000000	99.099024 
3243.000000	99.095191 
3242.000000	99.092699 
3241.000000	99.092019 
3240.000000	99.092259 
3239.000000	99.093025 
3238.000000	99.095603 
3237.000000	99.101619 
3236.000000	99.110712 
3235.000000	99.119910 
3234.000000	99.125406 
3233.000000	99.125142 
3232.000000	99.120118 
3231.000000	99.113615 
3230.000000	99.109081 
3229.000000	99.108199 
3228.000000	99.110084 
3227.000000	99.111818 
3226.000000	99.110318 
3225.000000	99.104890 
3224.000000	99.098366 
3223.000000	99.094997 
3222.000000	99.096608 
3221.000000	99.100953 
3220.000000	99.104055 
3219.000000	99.103788 
3218.000000	99.101210 
3217.000000	99.099308 
3216.000000	99.101020 
3215.000000	99.107452 
3214.000000	99.116721 
3213.000000	99.124689 
3212.000000	99.127780 
3211.000000	99.125394 
3210.000000	99.119574 
3209.000000	99.112975 
3208.000000	99.107742 
3207.000000	99.105394 
3206.000000	99.106226 
3205.000000	99.108601 
3204.000000	99.110039 
3203.000000	99.109614 
3202.000000	99.108756 
3201.000000	99.109413 
3200.000000	99.111985 
3199.000000	99.115262 
3198.000000	99.117814 
3197.000000	99.119065 
3196.000000	99.119456 
3195.000000	99.119920 
3194.000000	99.120997 
3193.000000	99.122236 
3192.000000	99.122621 
3191.000000	99.121639 
3190.000000	99.119733 
3189.000000	99.117779 
3188.000000	99.116427 
3187.000000	99.115795 
3186.000000	99.115434 
3185.000000	99.114604 
3184.000000	99.113091 
3183.000000	99.111665 
3182.000000	99.111303 
3181.000000	99.112177 
3180.000000	99.113990 
3179.000000	99.116964 
3178.000000	99.121356 
3177.000000	99.125969 
3176.000000	99.128641 
3175.000000	99.128883 
3174.000000	99.128769 
3173.000000	99.130067 
3172.000000	99.131416 
3171.000000	99.129961 
3170.000000	99.125504 
3169.000000	99.121344 
3168.000000	99.120555 
3167.000000	99.122816 
3166.000000	99.125733 
3165.000000	99.128082 
3164.000000	99.130401 
3163.000000	99.132886 
3162.000000	99.134427 
3161.000000	99.134257 
3160.000000	99.133436 
3159.000000	99.133610 
3158.000000	99.134657 
3157.000000	99.134531 
3156.000000	99.131638 
3155.000000	99.126634 
3154.000000	99.121547 
3153.000000	99.117640 
3152.000000	99.114677 
3151.000000	99.112042 
3150.000000	99.109912 
3149.000000	99.109263 
3148.000000	99.111124 
3147.000000	99.115898 
3146.000000	99.122956 
3145.000000	99.130604 
3144.000000	99.136696 
3143.000000	99.139692 
3142.000000	99.139432 
3141.000000	99.137128 
3140.000000	99.134605 
3139.000000	99.133187 
3138.000000	99.132837 
3137.000000	99.132482 
3136.000000	99.131487 
3135.000000	99.130749 
3134.000000	99.131838 
3133.000000	99.135009 
3132.000000	99.138510 
3131.000000	99.140149 
3130.000000	99.139241 
3129.000000	99.136998 
3128.000000	99.135541 
3127.000000	99.136792 
3126.000000	99.141481 
3125.000000	99.148169 
3124.000000	99.153334 
3123.000000	99.153492 
3122.000000	99.148078 
3121.000000	99.140169 
3120.000000	99.134075 
3119.000000	99.132214 
3118.000000	99.134037 
3117.000000	99.137422 
3116.000000	99.140718 
3115.000000	99.143628 
3114.000000	99.146526 
3113.000000	99.149214 
3112.000000	99.150521 
3111.000000	99.149419 
3110.000000	99.146451 
3109.000000	99.143601 
3108.000000	99.142319 
3107.000000	99.141964 
3106.000000	99.140680 
3105.000000	99.137840 
3104.000000	99.135162 
3103.000000	99.135152 
3102.000000	99.138780 
3101.000000	99.144843 
3100.000000	99.151285 
3099.000000	99.156593 
3098.000000	99.160066 
3097.000000	99.161548 
3096.000000	99.161443 
3095.000000	99.160547 
3094.000000	99.159297 
3093.000000	99.157319 
3092.000000	99.154191 
3091.000000	99.150666 
3090.000000	99.148530 
3089.000000	99.148899 
3088.000000	99.150906 
3087.000000	99.152546 
3086.000000	99.152752 
3085.000000	99.152186 
3084.000000	99.151761 
3083.000000	99.150928 
3082.000000	99.148303 
3081.000000	99.144155 
3080.000000	99.141387 
3079.000000	99.143130 
3078.000000	99.149489 
3077.000000	99.157363 
3076.000000	99.163429 
3075.000000	99.166581 
3074.000000	99.167392 
3073.000000	99.166429 
3072.000000	99.163857 
3071.000000	99.160042 
3070.000000	99.155528 
3069.000000	99.150486 
3068.000000	99.145094 
3067.000000	99.140644 
3066.000000	99.139579 
3065.000000	99.143771 
3064.000000	99.152510 
3063.000000	99.162107 
3062.000000	99.167780 
3061.000000	99.166762 
3060.000000	99.160372 
3059.000000	99.153002 
3058.000000	99.148653 
3057.000000	99.148429 
3056.000000	99.151044 
3055.000000	99.154796 
3054.000000	99.158229 
3053.000000	99.159740 
3052.000000	99.158060 
3051.000000	99.153550 
3050.000000	99.148325 
3049.000000	99.144769 
3048.000000	99.143972 
3047.000000	99.145160 
3046.000000	99.145921 
3045.000000	99.143435 
3044.000000	99.136956 
3043.000000	99.129418 
3042.000000	99.125436 
3041.000000	99.126722 
3040.000000	99.129890 
3039.000000	99.129436 
3038.000000	99.122633 
3037.000000	99.111164 
3036.000000	99.098534 
3035.000000	99.086844 
3034.000000	99.076198 
3033.000000	99.066255 
3032.000000	99.057340 
3031.000000	99.049754 
3030.000000	99.042676 
3029.000000	99.034666 
3028.000000	99.025448 
3027.000000	99.016486 
3026.000000	99.009192 
3025.000000	99.002834 
3024.000000	98.994986 
3023.000000	98.983985 
3022.000000	98.970219 
3021.000000	98.954799 
3020.000000	98.937903 
3019.000000	98.919072 
3018.000000	98.898786 
3017.000000	98.878863 
3016.000000	98.861013 
3015.000000	98.845196 
3014.000000	98.829772 
3013.000000	98.813403 
3012.000000	98.796640 
3011.000000	98.781205 
3010.000000	98.767571 
3009.000000	98.753809 
3008.000000	98.737346 
3007.000000	98.717636 
3006.000000	98.696571 
3005.000000	98.676348 
3004.000000	98.657491 
3003.000000	98.639014 
3002.000000	98.619955 
3001.000000	98.600481 
3000.000000	98.581802 
2999.000000	98.565298 
2998.000000	98.551771 
2997.000000	98.541346 
2996.000000	98.533590 
2995.000000	98.526669 
2994.000000	98.516131 
2993.000000	98.496037 
2992.000000	98.463524 
2991.000000	98.422944 
2990.000000	98.384676 
2989.000000	98.359020 
2988.000000	98.350628 
2987.000000	98.357598 
2986.000000	98.373955 
2985.000000	98.392616 
2984.000000	98.407690 
2983.000000	98.416215 
2982.000000	98.418502 
2981.000000	98.416847 
2980.000000	98.413883 
2979.000000	98.411748 
2978.000000	98.411490 
2977.000000	98.412281 
2976.000000	98.411659 
2975.000000	98.407617 
2974.000000	98.400853 
2973.000000	98.394726 
2972.000000	98.392898 
2971.000000	98.396972 
2970.000000	98.406007 
2969.000000	98.417901 
2968.000000	98.431258 
2967.000000	98.446132 
2966.000000	98.462931 
2965.000000	98.480776 
2964.000000	98.497489 
2963.000000	98.511398 
2962.000000	98.522676 
2961.000000	98.532514 
2960.000000	98.541460 
2959.000000	98.549231 
2958.000000	98.555919 
2957.000000	98.562541 
2956.000000	98.570119 
2955.000000	98.578788 
2954.000000	98.588197 
2953.000000	98.598417 
2952.000000	98.609817 
2951.000000	98.622014 
2950.000000	98.633519 
2949.000000	98.642854 
2948.000000	98.649745 
2947.000000	98.654867 
2946.000000	98.658734 
2945.000000	98.661656 
2944.000000	98.664674 
2943.000000	98.669305 
2942.000000	98.675484 
2941.000000	98.680531 
2940.000000	98.681475 
2939.000000	98.678658 
2938.000000	98.676166 
2937.000000	98.678276 
2936.000000	98.685695 
2935.000000	98.695187 
2934.000000	98.702359 
2933.000000	98.704679 
2932.000000	98.702584 
2931.000000	98.698324 
2930.000000	98.694025 
2929.000000	98.690752 
2928.000000	98.688815 
2927.000000	98.687885 
2926.000000	98.686428 
2925.000000	98.682200 
2924.000000	98.674586 
2923.000000	98.665945 
2922.000000	98.659396 
2921.000000	98.655415 
2920.000000	98.651835 
2919.000000	98.646949 
2918.000000	98.641197 
2917.000000	98.635504 
2916.000000	98.629464 
2915.000000	98.622009 
2914.000000	98.613150 
2913.000000	98.604343 
2912.000000	98.597548 
2911.000000	98.594079 
2910.000000	98.593550 
2909.000000	98.593623 
2908.000000	98.591500 
2907.000000	98.586139 
2906.000000	98.578186 
2905.000000	98.567644 
2904.000000	98.553155 
2903.000000	98.535143 
2902.000000	98.518974 
2901.000000	98.513563 
2900.000000	98.524329 
2899.000000	98.548626 
2898.000000	98.576727 
2897.000000	98.598090 
2896.000000	98.607926 
2895.000000	98.609224 
2894.000000	98.609062 
2893.000000	98.612586 
2892.000000	98.620131 
2891.000000	98.628908 
2890.000000	98.636215 
2889.000000	98.640802 
2888.000000	98.642673 
2887.000000	98.642924 
2886.000000	98.643585 
2885.000000	98.646658 
2884.000000	98.653176 
2883.000000	98.663305 
2882.000000	98.676787 
2881.000000	98.692666 
2880.000000	98.709037 
2879.000000	98.724061 
2878.000000	98.737282 
2877.000000	98.749495 
2876.000000	98.761303 
2875.000000	98.772311 
2874.000000	98.781686 
2873.000000	98.789063 
2872.000000	98.794784 
2871.000000	98.799536 
2870.000000	98.803985 
2869.000000	98.808864 
2868.000000	98.815435 
2867.000000	98.825342 
2866.000000	98.839190 
2865.000000	98.855227 
2864.000000	98.870285 
2863.000000	98.882450 
2862.000000	98.892202 
2861.000000	98.900815 
2860.000000	98.908807 
2859.000000	98.916603 
2858.000000	98.925392 
2857.000000	98.935922 
2856.000000	98.947026 
2855.000000	98.956753 
2854.000000	98.964796 
2853.000000	98.972720 
2852.000000	98.981910 
2851.000000	98.992356 
2850.000000	99.003399 
2849.000000	99.014488 
2848.000000	99.024895 
2847.000000	99.033622 
2846.000000	99.040141 
2845.000000	99.044658 
2844.000000	99.047409 
2843.000000	99.048401 
2842.000000	99.048385 
2841.000000	99.049512 
2840.000000	99.054201 
2839.000000	99.063041 
2838.000000	99.073932 
2837.000000	99.083366 
2836.000000	99.088867 
2835.000000	99.090642 
2834.000000	99.091034 
2833.000000	99.092246 
2832.000000	99.094478 
2831.000000	99.096252 
2830.000000	99.096280 
2829.000000	99.094762 
2828.000000	99.093238 
2827.000000	99.093647 
2826.000000	99.097318 
2825.000000	99.104006 
2824.000000	99.111565 
2823.000000	99.117062 
2822.000000	99.118823 
2821.000000	99.117656 
2820.000000	99.116090 
2819.000000	99.116322 
2818.000000	99.118555 
2817.000000	99.121094 
2816.000000	99.122183 
2815.000000	99.121841 
2814.000000	99.121605 
2813.000000	99.122494 
2812.000000	99.123953 
2811.000000	99.125270 
2810.000000	99.127181 
2809.000000	99.130936 
2808.000000	99.136041 
2807.000000	99.140169 
2806.000000	99.141552 
2805.000000	99.140641 
2804.000000	99.139165 
2803.000000	99.138410 
2802.000000	99.138681 
2801.000000	99.139601 
2800.000000	99.140354 
2799.000000	99.140240 
2798.000000	99.139457 
2797.000000	99.138842 
2796.000000	99.138477 
2795.000000	99.137323 
2794.000000	99.134910 
2793.000000	99.132732 
2792.000000	99.132947 
2791.000000	99.135966 
2790.000000	99.140257 
2789.000000	99.144414 
2788.000000	99.148357 
2787.000000	99.152193 
2786.000000	99.154832 
2785.000000	99.154599 
2784.000000	99.151118 
2783.000000	99.146082 
2782.000000	99.142118 
2781.000000	99.140963 
2780.000000	99.142556 
2779.000000	99.145513 
2778.000000	99.148361 
2777.000000	99.150518 
2776.000000	99.152380 
2775.000000	99.154595 
2774.000000	99.157244 
2773.000000	99.159703 
2772.000000	99.161360 
2771.000000	99.162409 
2770.000000	99.163601 
2769.000000	99.165083 
2768.000000	99.165989 
2767.000000	99.165798 
2766.000000	99.165687 
2765.000000	99.167328 
2764.000000	99.170072 
2763.000000	99.170563 
2762.000000	99.166294 
2761.000000	99.158915 
2760.000000	99.152832 
2759.000000	99.150783 
2758.000000	99.152000 
2757.000000	99.154671 
2756.000000	99.158408 
2755.000000	99.163388 
2754.000000	99.168330 
2753.000000	99.171094 
2752.000000	99.171207 
2751.000000	99.170518 
2750.000000	99.170977 
2749.000000	99.172535 
2748.000000	99.173657 
2747.000000	99.173289 
2746.000000	99.171753 
2745.000000	99.169946 
2744.000000	99.168292 
2743.000000	99.166679 
2742.000000	99.165182 
2741.000000	99.164431 
2740.000000	99.165019 
2739.000000	99.166696 
2738.000000	99.168632 
2737.000000	99.170615 
2736.000000	99.173367 
2735.000000	99.177097 
2734.000000	99.180289 
2733.000000	99.180933 
2732.000000	99.178981 
2731.000000	99.176580 
2730.000000	99.175568 
2729.000000	99.175655 
2728.000000	99.175602 
2727.000000	99.175202 
2726.000000	99.175035 
2725.000000	99.174952 
2724.000000	99.174249 
2723.000000	99.173416 
2722.000000	99.174290 
2721.000000	99.177765 
2720.000000	99.182174 
2719.000000	99.184830 
2718.000000	99.184802 
2717.000000	99.183422 
2716.000000	99.182343 
2715.000000	99.181992 
2714.000000	99.182065 
2713.000000	99.182605 
2712.000000	99.183909 
2711.000000	99.185780 
2710.000000	99.187694 
2709.000000	99.189686 
2708.000000	99.192254 
2707.000000	99.195017 
2706.000000	99.196264 
2705.000000	99.194766 
2704.000000	99.191841 
2703.000000	99.190487 
2702.000000	99.192129 
2701.000000	99.195020 
2700.000000	99.196559 
2699.000000	99.196552 
2698.000000	99.197199 
2697.000000	99.199953 
2696.000000	99.203408 
2695.000000	99.204746 
2694.000000	99.202806 
2693.000000	99.199185 
2692.000000	99.196484 
2691.000000	99.195808 
2690.000000	99.196085 
2689.000000	99.195667 
2688.000000	99.194391 
2687.000000	99.193828 
2686.000000	99.195527 
2685.000000	99.199300 
2684.000000	99.203463 
2683.000000	99.206394 
2682.000000	99.207473 
2681.000000	99.206731 
2680.000000	99.204340 
2679.000000	99.200764 
2678.000000	99.197076 
2677.000000	99.194724 
2676.000000	99.194824 
2675.000000	99.197459 
2674.000000	99.201373 
2673.000000	99.204427 
2672.000000	99.204865 
2671.000000	99.202507 
2670.000000	99.198714 
2669.000000	99.195171 
2668.000000	99.192769 
2667.000000	99.191514 
2666.000000	99.191137 
2665.000000	99.191524 
2664.000000	99.192603 
2663.000000	99.194031 
2662.000000	99.195264 
2661.000000	99.196210 
2660.000000	99.197672 
2659.000000	99.200603 
2658.000000	99.204700 
2657.000000	99.208274 
2656.000000	99.209892 
2655.000000	99.209655 
2654.000000	99.208395 
2653.000000	99.206456 
2652.000000	99.204379 
2651.000000	99.204108 
2650.000000	99.207520 
2649.000000	99.213266 
2648.000000	99.216911 
2647.000000	99.215665 
2646.000000	99.212098 
2645.000000	99.211513 
2644.000000	99.215618 
2643.000000	99.220064 
2642.000000	99.218746 
2641.000000	99.210145 
2640.000000	99.199188 
2639.000000	99.193105 
2638.000000	99.195369 
2637.000000	99.203026 
2636.000000	99.209553 
2635.000000	99.210424 
2634.000000	99.206299 
2633.000000	99.201487 
2632.000000	99.199964 
2631.000000	99.202685 
2630.000000	99.207601 
2629.000000	99.211486 
2628.000000	99.212372 
2627.000000	99.211233 
2626.000000	99.211171 
2625.000000	99.214196 
2624.000000	99.218877 
2623.000000	99.221786 
2622.000000	99.221140 
2621.000000	99.218148 
2620.000000	99.214800 
2619.000000	99.211528 
2618.000000	99.207793 
2617.000000	99.204209 
2616.000000	99.202837 
2615.000000	99.205092 
2614.000000	99.209939 
2613.000000	99.214569 
2612.000000	99.216822 
2611.000000	99.216891 
2610.000000	99.216770 
2609.000000	99.218227 
2608.000000	99.221384 
2607.000000	99.225123 
2606.000000	99.228566 
2605.000000	99.231859 
2604.000000	99.235474 
2603.000000	99.239030 
2602.000000	99.241220 
2601.000000	99.241176 
2600.000000	99.239753 
2599.000000	99.238940 
2598.000000	99.239593 
2597.000000	99.239988 
2596.000000	99.237201 
2595.000000	99.230173 
2594.000000	99.221151 
2593.000000	99.213927 
2592.000000	99.210860 
2591.000000	99.211590 
2590.000000	99.214021 
2589.000000	99.215929 
2588.000000	99.215947 
2587.000000	99.214051 
2586.000000	99.211706 
2585.000000	99.211115 
2584.000000	99.213480 
2583.000000	99.217739 
2582.000000	99.221410 
2581.000000	99.222988 
2580.000000	99.223212 
2579.000000	99.223608 
2578.000000	99.224151 
2577.000000	99.223085 
2576.000000	99.219021 
2575.000000	99.212499 
2574.000000	99.205412 
2573.000000	99.199813 
2572.000000	99.197612 
2571.000000	99.200167 
2570.000000	99.206905 
2569.000000	99.214823 
2568.000000	99.220588 
2567.000000	99.223079 
2566.000000	99.223013 
2565.000000	99.220689 
2564.000000	99.215814 
2563.000000	99.209708 
2562.000000	99.205740 
2561.000000	99.206105 
2560.000000	99.208933 
2559.000000	99.209967 
2558.000000	99.207189 
2557.000000	99.203123 
2556.000000	99.202437 
2555.000000	99.207527 
2554.000000	99.216306 
2553.000000	99.223959 
2552.000000	99.226846 
2551.000000	99.224901 
2550.000000	99.220566 
2549.000000	99.216115 
2548.000000	99.212549 
2547.000000	99.210327 
2546.000000	99.209784 
2545.000000	99.210495 
2544.000000	99.211239 
2543.000000	99.211014 
2542.000000	99.209518 
2541.000000	99.206750 
2540.000000	99.203336 
2539.000000	99.201342 
2538.000000	99.202962 
2537.000000	99.207388 
2536.000000	99.210521 
2535.000000	99.209378 
2534.000000	99.205614 
2533.000000	99.202825 
2532.000000	99.201393 
2531.000000	99.198708 
2530.000000	99.194491 
2529.000000	99.192650 
2528.000000	99.195937 
2527.000000	99.200868 
2526.000000	99.200886 
2525.000000	99.194364 
2524.000000	99.187178 
2523.000000	99.186605 
2522.000000	99.194111 
2521.000000	99.204770 
2520.000000	99.212204 
2519.000000	99.212765 
2518.000000	99.206254 
2517.000000	99.195251 
2516.000000	99.184262 
2515.000000	99.177603 
2514.000000	99.176712 
2513.000000	99.180081 
2512.000000	99.186163 
2511.000000	99.194955 
2510.000000	99.205722 
2509.000000	99.214893 
2508.000000	99.218718 
2507.000000	99.217661 
2506.000000	99.215834 
2505.000000	99.215627 
2504.000000	99.214971 
2503.000000	99.210952 
2502.000000	99.204459 
2501.000000	99.199673 
2500.000000	99.199792 
2499.000000	99.204467 
2498.000000	99.210781 
2497.000000	99.215519 
2496.000000	99.216733 
2495.000000	99.214572 
2494.000000	99.210930 
2493.000000	99.207757 
2492.000000	99.205576 
2491.000000	99.203962 
2490.000000	99.203310 
2489.000000	99.205617 
2488.000000	99.213168 
2487.000000	99.225900 
2486.000000	99.239436 
2485.000000	99.246343 
2484.000000	99.241438 
2483.000000	99.227079 
2482.000000	99.212186 
2481.000000	99.204679 
2480.000000	99.205020 
2479.000000	99.207653 
2478.000000	99.207555 
2477.000000	99.204127 
2476.000000	99.199826 
2475.000000	99.197299 
2474.000000	99.197937 
2473.000000	99.201205 
2472.000000	99.204600 
2471.000000	99.205603 
2470.000000	99.204444 
2469.000000	99.204048 
2468.000000	99.206611 
2467.000000	99.211061 
2466.000000	99.214448 
2465.000000	99.215069 
2464.000000	99.213620 
2463.000000	99.211954 
2462.000000	99.211391 
2461.000000	99.211759 
2460.000000	99.211543 
2459.000000	99.209416 
2458.000000	99.206015 
2457.000000	99.203600 
2456.000000	99.203512 
2455.000000	99.204737 
2454.000000	99.205578 
2453.000000	99.205767 
2452.000000	99.205719 
2451.000000	99.204447 
2450.000000	99.200062 
2449.000000	99.192711 
2448.000000	99.185646 
2447.000000	99.182602 
2446.000000	99.184748 
2445.000000	99.190544 
2444.000000	99.197507 
2443.000000	99.203204 
2442.000000	99.205392 
2441.000000	99.203026 
2440.000000	99.197804 
2439.000000	99.193675 
2438.000000	99.193635 
2437.000000	99.196819 
2436.000000	99.199283 
2435.000000	99.197992 
2434.000000	99.193928 
2433.000000	99.191270 
2432.000000	99.193702 
2431.000000	99.201423 
2430.000000	99.210970 
2429.000000	99.217315 
2428.000000	99.216739 
2427.000000	99.209088 
2426.000000	99.198031 
2425.000000	99.188693 
2424.000000	99.184515 
2423.000000	99.186292 
2422.000000	99.193536 
2421.000000	99.204905 
2420.000000	99.216593 
2419.000000	99.222303 
2418.000000	99.217657 
2417.000000	99.204941 
2416.000000	99.191741 
2415.000000	99.184158 
2414.000000	99.182478 
2413.000000	99.183459 
2412.000000	99.184799 
2411.000000	99.186212 
2410.000000	99.187864 
2409.000000	99.189714 
2408.000000	99.191810 
2407.000000	99.193724 
2406.000000	99.194207 
2405.000000	99.192869 
2404.000000	99.191650 
2403.000000	99.192763 
2402.000000	99.195280 
2401.000000	99.195612 
2400.000000	99.191822 
2399.000000	99.185936 
2398.000000	99.181474 
2397.000000	99.180076 
2396.000000	99.181198 
2395.000000	99.183583 
2394.000000	99.185794 
2393.000000	99.186360 
2392.000000	99.184785 
2391.000000	99.182038 
2390.000000	99.179163 
2389.000000	99.176130 
2388.000000	99.173017 
2387.000000	99.171361 
2386.000000	99.172620 
2385.000000	99.175460 
2384.000000	99.176604 
2383.000000	99.175113 
2382.000000	99.174384 
2381.000000	99.178377 
2380.000000	99.186524 
2379.000000	99.194328 
2378.000000	99.199686 
2377.000000	99.206056 
2376.000000	99.216952 
2375.000000	99.228905 
2374.000000	99.233807 
2373.000000	99.227947 
2372.000000	99.215442 
2371.000000	99.202872 
2370.000000	99.194101 
2369.000000	99.190339 
2368.000000	99.190793 
2367.000000	99.193090 
2366.000000	99.196802 
2365.000000	99.204729 
2364.000000	99.216519 
2363.000000	99.223976 
2362.000000	99.218474 
2361.000000	99.202537 
2360.000000	99.186213 
2359.000000	99.174939 
2358.000000	99.169531 
2357.000000	99.170464 
2356.000000	99.178397 
2355.000000	99.191537 
2354.000000	99.211530 
2353.000000	99.234352 
2352.000000	99.246952 
2351.000000	99.240478 
2350.000000	99.218643 
2349.000000	99.193029 
2348.000000	99.174721 
2347.000000	99.173293 
2346.000000	99.188582 
2345.000000	99.205086 
2344.000000	99.208938 
2343.000000	99.200674 
2342.000000	99.191778 
2341.000000	99.187670 
2340.000000	99.187504 
2339.000000	99.190252 
2338.000000	99.197526 
2337.000000	99.207809 
2336.000000	99.210799 
2335.000000	99.201452 
2334.000000	99.188245 
2333.000000	99.185326 
2332.000000	99.191208 
2331.000000	99.197420 
2330.000000	99.196890 
2329.000000	99.192888 
2328.000000	99.185835 
2327.000000	99.179411 
2326.000000	99.176262 
2325.000000	99.176428 
2324.000000	99.175148 
2323.000000	99.172122 
2322.000000	99.173093 
2321.000000	99.180067 
2320.000000	99.184439 
2319.000000	99.179579 
2318.000000	99.168081 
2317.000000	99.160874 
2316.000000	99.161287 
2315.000000	99.167392 
2314.000000	99.173443 
2313.000000	99.179404 
2312.000000	99.184585 
2311.000000	99.189968 
2310.000000	99.193365 
2309.000000	99.193618 
2308.000000	99.189488 
2307.000000	99.184614 
2306.000000	99.182744 
2305.000000	99.185411 
2304.000000	99.189631 
2303.000000	99.194289 
2302.000000	99.199605 
2301.000000	99.206267 
2300.000000	99.212078 
2299.000000	99.216793 
2298.000000	99.220469 
2297.000000	99.222901 
2296.000000	99.220964 
2295.000000	99.215178 
2294.000000	99.210484 
2293.000000	99.212605 
2292.000000	99.220831 
2291.000000	99.230042 
2290.000000	99.236091 
2289.000000	99.238151 
2288.000000	99.236964 
2287.000000	99.233767 
2286.000000	99.230751 
2285.000000	99.229045 
2284.000000	99.227772 
2283.000000	99.225978 
2282.000000	99.225862 
2281.000000	99.230409 
2280.000000	99.239024 
2279.000000	99.247320 
2278.000000	99.251982 
2277.000000	99.253330 
2276.000000	99.252940 
2275.000000	99.251458 
2274.000000	99.249104 
2273.000000	99.246598 
2272.000000	99.244224 
2271.000000	99.241934 
2270.000000	99.240057 
2269.000000	99.238738 
2268.000000	99.236731 
2267.000000	99.233137 
2266.000000	99.229773 
2265.000000	99.229349 
2264.000000	99.231015 
2263.000000	99.230599 
2262.000000	99.226146 
2261.000000	99.220605 
2260.000000	99.218037 
2259.000000	99.219119 
2258.000000	99.222276 
2257.000000	99.227003 
2256.000000	99.233867 
2255.000000	99.241422 
2254.000000	99.245507 
2253.000000	99.243071 
2252.000000	99.235952 
2251.000000	99.229975 
2250.000000	99.229556 
2249.000000	99.234042 
2248.000000	99.238903 
2247.000000	99.241027 
2246.000000	99.240656 
2245.000000	99.239673 
2244.000000	99.239293 
2243.000000	99.239777 
2242.000000	99.240769 
2241.000000	99.241655 
2240.000000	99.243208 
2239.000000	99.248710 
2238.000000	99.260581 
2237.000000	99.274865 
2236.000000	99.282359 
2235.000000	99.277779 
2234.000000	99.265934 
2233.000000	99.256425 
2232.000000	99.253736 
2231.000000	99.254633 
2230.000000	99.253457 
2229.000000	99.247148 
2228.000000	99.236452 
2227.000000	99.225323 
2226.000000	99.218655 
2225.000000	99.218291 
2224.000000	99.221829 
2223.000000	99.226830 
2222.000000	99.233605 
2221.000000	99.241073 
2220.000000	99.243456 
2219.000000	99.237051 
2218.000000	99.229002 
2217.000000	99.232379 
2216.000000	99.250591 
2215.000000	99.271998 
2214.000000	99.282449 
2213.000000	99.278854 
2212.000000	99.267813 
2211.000000	99.255747 
2210.000000	99.245615 
2209.000000	99.240423 
2208.000000	99.242886 
2207.000000	99.250154 
2206.000000	99.253532 
2205.000000	99.247055 
2204.000000	99.235541 
2203.000000	99.231443 
2202.000000	99.242542 
2201.000000	99.262989 
2200.000000	99.277579 
2199.000000	99.275841 
2198.000000	99.261598 
2197.000000	99.248228 
2196.000000	99.245331 
2195.000000	99.251525 
2194.000000	99.259486 
2193.000000	99.264550 
2192.000000	99.267189 
2191.000000	99.270275 
2190.000000	99.277210 
2189.000000	99.290803 
2188.000000	99.309215 
2187.000000	99.322458 
2186.000000	99.317805 
2185.000000	99.292644 
2184.000000	99.260023 
2183.000000	99.237512 
2182.000000	99.231503 
2181.000000	99.235435 
2180.000000	99.241869 
2179.000000	99.250707 
2178.000000	99.264019 
2177.000000	99.278260 
2176.000000	99.285961 
2175.000000	99.282942 
2174.000000	99.270965 
2173.000000	99.255991 
2172.000000	99.247080 
2171.000000	99.253508 
2170.000000	99.276792 
2169.000000	99.305593 
2168.000000	99.323926 
2167.000000	99.325800 
2166.000000	99.318319 
2165.000000	99.311296 
2164.000000	99.309247 
2163.000000	99.313505 
2162.000000	99.323740 
2161.000000	99.332559 
2160.000000	99.325603 
2159.000000	99.295692 
2158.000000	99.254068 
2157.000000	99.219557 
2156.000000	99.199579 
2155.000000	99.189835 
2154.000000	99.187705 
2153.000000	99.195944 
2152.000000	99.213569 
2151.000000	99.230827 
2150.000000	99.237506 
2149.000000	99.234371 
2148.000000	99.233118 
2147.000000	99.243716 
2146.000000	99.262635 
2145.000000	99.274976 
2144.000000	99.269372 
2143.000000	99.249775 
2142.000000	99.230702 
2141.000000	99.221664 
2140.000000	99.219101 
2139.000000	99.214515 
2138.000000	99.206914 
2137.000000	99.203466 
2136.000000	99.208896 
2135.000000	99.218352 
2134.000000	99.222687 
2133.000000	99.219023 
2132.000000	99.213650 
2131.000000	99.214163 
2130.000000	99.220429 
2129.000000	99.224640 
2128.000000	99.220102 
2127.000000	99.208566 
2126.000000	99.198201 
2125.000000	99.195797 
2124.000000	99.202212 
2123.000000	99.213874 
2122.000000	99.225794 
2121.000000	99.233423 
2120.000000	99.235029 
2119.000000	99.233539 
2118.000000	99.233862 
2117.000000	99.237219 
2116.000000	99.239831 
2115.000000	99.238050 
2114.000000	99.232704 
2113.000000	99.227193 
2112.000000	99.223694 
2111.000000	99.223322 
2110.000000	99.227777 
2109.000000	99.237373 
2108.000000	99.247844 
2107.000000	99.252201 
2106.000000	99.246877 
2105.000000	99.235190 
2104.000000	99.224525 
2103.000000	99.220517 
2102.000000	99.223200 
2101.000000	99.227328 
2100.000000	99.226733 
2099.000000	99.219813 
2098.000000	99.211240 
2097.000000	99.207772 
2096.000000	99.212215 
2095.000000	99.221659 
2094.000000	99.230804 
2093.000000	99.235941 
2092.000000	99.236385 
2091.000000	99.233869 
2090.000000	99.231388 
2089.000000	99.231575 
2088.000000	99.234476 
2087.000000	99.236426 
2086.000000	99.232490 
2085.000000	99.222113 
2084.000000	99.212457 
2083.000000	99.213411 
2082.000000	99.227490 
2081.000000	99.246161 
2080.000000	99.258417 
2079.000000	99.261932 
2078.000000	99.263402 
2077.000000	99.269309 
2076.000000	99.279427 
2075.000000	99.288562 
2074.000000	99.290807 
2073.000000	99.282421 
2072.000000	99.265125 
2071.000000	99.247379 
2070.000000	99.238480 
2069.000000	99.239547 
2068.000000	99.242626 
2067.000000	99.239791 
2066.000000	99.230535 
2065.000000	99.220260 
2064.000000	99.215171 
2063.000000	99.219172 
2062.000000	99.230931 
2061.000000	99.241931 
2060.000000	99.242919 
2059.000000	99.235689 
2058.000000	99.233542 
2057.000000	99.245710 
2056.000000	99.265461 
2055.000000	99.278720 
2054.000000	99.281178 
2053.000000	99.280945 
2052.000000	99.286043 
2051.000000	99.295508 
2050.000000	99.303103 
2049.000000	99.305089 
2048.000000	99.303133 
2047.000000	99.302083 
2046.000000	99.305831 
2045.000000	99.313219 
2044.000000	99.317466 
2043.000000	99.312074 
2042.000000	99.298076 
2041.000000	99.283712 
2040.000000	99.276481 
2039.000000	99.277515 
2038.000000	99.283601 
2037.000000	99.291145 
2036.000000	99.296587 
2035.000000	99.295215 
2034.000000	99.282910 
2033.000000	99.261294 
2032.000000	99.240772 
2031.000000	99.234955 
2030.000000	99.248489 
2029.000000	99.270371 
2028.000000	99.282782 
2027.000000	99.277746 
2026.000000	99.262185 
2025.000000	99.247799 
2024.000000	99.240924 
2023.000000	99.242547 
2022.000000	99.251263 
2021.000000	99.262170 
2020.000000	99.267843 
2019.000000	99.265399 
2018.000000	99.259910 
2017.000000	99.257567 
2016.000000	99.258436 
2015.000000	99.259629 
2014.000000	99.261102 
2013.000000	99.263278 
2012.000000	99.263425 
2011.000000	99.260031 
2010.000000	99.257803 
2009.000000	99.262520 
2008.000000	99.272423 
2007.000000	99.280275 
2006.000000	99.282540 
2005.000000	99.281246 
2004.000000	99.278255 
2003.000000	99.273075 
2002.000000	99.265523 
2001.000000	99.255861 
2000.000000	99.243172 
1999.000000	99.227548 
1998.000000	99.212868 
1997.000000	99.203732 
1996.000000	99.200762 
1995.000000	99.201958 
1994.000000	99.207177 
1993.000000	99.217588 
1992.000000	99.230949 
1991.000000	99.241081 
1990.000000	99.243073 
1989.000000	99.237022 
1988.000000	99.228500 
1987.000000	99.227349 
1986.000000	99.242305 
1985.000000	99.272033 
1984.000000	99.302838 
1983.000000	99.319344 
1982.000000	99.317092 
1981.000000	99.302922 
1980.000000	99.285967 
1979.000000	99.271950 
1978.000000	99.263266 
1977.000000	99.258085 
1976.000000	99.250097 
1975.000000	99.234978 
1974.000000	99.217642 
1973.000000	99.208451 
1972.000000	99.211488 
1971.000000	99.220748 
1970.000000	99.229022 
1969.000000	99.236753 
1968.000000	99.249653 
1967.000000	99.269155 
1966.000000	99.288104 
1965.000000	99.296450 
1964.000000	99.289983 
1963.000000	99.273443 
1962.000000	99.256660 
1961.000000	99.247517 
1960.000000	99.246763 
1959.000000	99.248724 
1958.000000	99.246962 
1957.000000	99.239549 
1956.000000	99.229489 
1955.000000	99.220249 
1954.000000	99.211322 
1953.000000	99.199518 
1952.000000	99.185063 
1951.000000	99.174533 
1950.000000	99.175436 
1949.000000	99.188066 
1948.000000	99.204630 
1947.000000	99.216440 
1946.000000	99.219183 
1945.000000	99.212006 
1944.000000	99.196820 
1943.000000	99.180535 
1942.000000	99.172315 
1941.000000	99.173177 
1940.000000	99.173702 
1939.000000	99.166411 
1938.000000	99.155754 
1937.000000	99.152897 
1936.000000	99.162190 
1935.000000	99.176146 
1934.000000	99.183848 
1933.000000	99.181263 
1932.000000	99.173069 
1931.000000	99.167706 
1930.000000	99.171836 
1929.000000	99.185563 
1928.000000	99.200882 
1927.000000	99.207382 
1926.000000	99.200750 
1925.000000	99.184999 
1924.000000	99.168132 
1923.000000	99.157009 
1922.000000	99.155140 
1921.000000	99.161441 
1920.000000	99.170931 
1919.000000	99.178369 
1918.000000	99.181806 
1917.000000	99.182403 
1916.000000	99.181602 
1915.000000	99.181063 
1914.000000	99.183215 
1913.000000	99.188441 
1912.000000	99.192882 
1911.000000	99.192187 
1910.000000	99.187204 
1909.000000	99.182596 
1908.000000	99.180485 
1907.000000	99.179801 
1906.000000	99.180747 
1905.000000	99.184345 
1904.000000	99.187740 
1903.000000	99.184718 
1902.000000	99.172613 
1901.000000	99.155496 
1900.000000	99.140439 
1899.000000	99.132695 
1898.000000	99.133705 
1897.000000	99.140459 
1896.000000	99.146546 
1895.000000	99.147394 
1894.000000	99.145379 
1893.000000	99.146265 
1892.000000	99.151371 
1891.000000	99.156816 
1890.000000	99.159469 
1889.000000	99.160608 
1888.000000	99.162760 
1887.000000	99.166452 
1886.000000	99.170540 
1885.000000	99.172807 
1884.000000	99.170789 
1883.000000	99.164614 
1882.000000	99.158482 
1881.000000	99.156689 
1880.000000	99.158754 
1879.000000	99.160164 
1878.000000	99.157007 
1877.000000	99.148812 
1876.000000	99.138764 
1875.000000	99.132822 
1874.000000	99.136498 
1873.000000	99.148985 
1872.000000	99.161349 
1871.000000	99.163755 
1870.000000	99.154720 
1869.000000	99.141825 
1868.000000	99.131116 
1867.000000	99.121250 
1866.000000	99.111040 
1865.000000	99.103593 
1864.000000	99.103096 
1863.000000	99.111758 
1862.000000	99.128498 
1861.000000	99.147422 
1860.000000	99.159199 
1859.000000	99.158913 
1858.000000	99.152213 
1857.000000	99.149171 
1856.000000	99.152997 
1855.000000	99.159356 
1854.000000	99.164397 
1853.000000	99.168023 
1852.000000	99.170265 
1851.000000	99.169427 
1850.000000	99.165272 
1849.000000	99.160279 
1848.000000	99.156929 
1847.000000	99.155959 
1846.000000	99.157910 
1845.000000	99.162380 
1844.000000	99.165145 
1843.000000	99.162009 
1842.000000	99.155669 
1841.000000	99.152017 
1840.000000	99.153453 
1839.000000	99.157875 
1838.000000	99.162245 
1837.000000	99.165652 
1836.000000	99.168385 
1835.000000	99.170124 
1834.000000	99.170518 
1833.000000	99.170425 
1832.000000	99.171639 
1831.000000	99.174480 
1830.000000	99.177236 
1829.000000	99.178773 
1828.000000	99.179988 
1827.000000	99.180997 
1826.000000	99.180363 
1825.000000	99.178163 
1824.000000	99.176278 
1823.000000	99.175102 
1822.000000	99.173062 
1821.000000	99.168810 
1820.000000	99.162470 
1819.000000	99.155192 
1818.000000	99.149181 
1817.000000	99.146940 
1816.000000	99.148056 
1815.000000	99.149120 
1814.000000	99.148762 
1813.000000	99.150408 
1812.000000	99.158243 
1811.000000	99.170734 
1810.000000	99.182598 
1809.000000	99.191527 
1808.000000	99.196849 
1807.000000	99.196343 
1806.000000	99.189501 
1805.000000	99.180179 
1804.000000	99.172607 
1803.000000	99.167035 
1802.000000	99.162220 
1801.000000	99.160044 
1800.000000	99.161655 
1799.000000	99.163589 
1798.000000	99.163440 
1797.000000	99.163369 
1796.000000	99.165600 
1795.000000	99.169088 
1794.000000	99.171142 
1793.000000	99.170382 
1792.000000	99.167905 
1791.000000	99.165147 
1790.000000	99.163680 
1789.000000	99.165779 
1788.000000	99.171884 
1787.000000	99.179090 
1786.000000	99.183400 
1785.000000	99.183105 
1784.000000	99.178994 
1783.000000	99.173576 
1782.000000	99.170103 
1781.000000	99.170212 
1780.000000	99.171113 
1779.000000	99.168466 
1778.000000	99.162709 
1777.000000	99.158508 
1776.000000	99.159060 
1775.000000	99.164417 
1774.000000	99.173276 
1773.000000	99.183260 
1772.000000	99.190536 
1771.000000	99.192049 
1770.000000	99.188203 
1769.000000	99.181650 
1768.000000	99.176240 
1767.000000	99.174138 
1766.000000	99.174557 
1765.000000	99.176326 
1764.000000	99.178810 
1763.000000	99.181088 
1762.000000	99.182003 
1761.000000	99.182268 
1760.000000	99.183646 
1759.000000	99.186005 
1758.000000	99.187792 
1757.000000	99.188385 
1756.000000	99.188338 
1755.000000	99.187111 
1754.000000	99.182121 
1753.000000	99.172179 
1752.000000	99.162365 
1751.000000	99.162827 
1750.000000	99.175860 
1749.000000	99.191142 
1748.000000	99.199706 
1747.000000	99.201129 
1746.000000	99.198592 
1745.000000	99.194601 
1744.000000	99.191834 
1743.000000	99.192375 
1742.000000	99.194726 
1741.000000	99.195865 
1740.000000	99.195023 
1739.000000	99.193589 
1738.000000	99.192146 
1737.000000	99.189890 
1736.000000	99.185462 
1735.000000	99.177298 
1734.000000	99.167192 
1733.000000	99.161837 
1732.000000	99.165178 
1731.000000	99.175130 
1730.000000	99.186502 
1729.000000	99.193291 
1728.000000	99.193639 
1727.000000	99.190850 
1726.000000	99.188060 
1725.000000	99.185106 
1724.000000	99.181400 
1723.000000	99.179362 
1722.000000	99.182294 
1721.000000	99.191062 
1720.000000	99.203059 
1719.000000	99.212396 
1718.000000	99.211966 
1717.000000	99.203269 
1716.000000	99.193273 
1715.000000	99.183316 
1714.000000	99.174494 
1713.000000	99.169909 
1712.000000	99.169680 
1711.000000	99.171386 
1710.000000	99.173009 
1709.000000	99.174148 
1708.000000	99.174988 
1707.000000	99.175402 
1706.000000	99.177067 
1705.000000	99.181906 
1704.000000	99.185902 
1703.000000	99.180563 
1702.000000	99.163150 
1701.000000	99.143628 
1700.000000	99.138096 
1699.000000	99.142355 
1698.000000	99.145554 
1697.000000	99.149210 
1696.000000	99.156897 
1695.000000	99.163663 
1694.000000	99.165211 
1693.000000	99.163533 
1692.000000	99.159758 
1691.000000	99.153831 
1690.000000	99.146968 
1689.000000	99.141698 
1688.000000	99.138461 
1687.000000	99.134533 
1686.000000	99.129144 
1685.000000	99.125475 
1684.000000	99.126051 
1683.000000	99.127110 
1682.000000	99.126477 
1681.000000	99.123368 
1680.000000	99.120045 
1679.000000	99.118696 
1678.000000	99.119077 
1677.000000	99.119179 
1676.000000	99.117918 
1675.000000	99.117064 
1674.000000	99.117452 
1673.000000	99.117890 
1672.000000	99.117718 
1671.000000	99.118501 
1670.000000	99.121324 
1669.000000	99.123402 
1668.000000	99.122209 
1667.000000	99.119236 
1666.000000	99.115020 
1665.000000	99.109123 
1664.000000	99.103073 
1663.000000	99.100571 
1662.000000	99.103419 
1661.000000	99.108419 
1660.000000	99.111056 
1659.000000	99.111597 
1658.000000	99.113076 
1657.000000	99.115507 
1656.000000	99.113926 
1655.000000	99.106067 
1654.000000	99.097040 
1653.000000	99.092589 
1652.000000	99.089491 
1651.000000	99.089954 
1650.000000	99.088635 
1649.000000	99.082712 
1648.000000	99.072594 
1647.000000	99.061751 
1646.000000	99.054440 
1645.000000	99.054147 
1644.000000	99.059735 
1643.000000	99.066719 
1642.000000	99.071683 
1641.000000	99.074094 
1640.000000	99.074740 
1639.000000	99.074305 
1638.000000	99.073188 
1637.000000	99.071730 
1636.000000	99.069420 
1635.000000	99.067222 
1634.000000	99.068913 
1633.000000	99.073874 
1632.000000	99.078389 
1631.000000	99.081008 
1630.000000	99.081945 
1629.000000	99.081056 
1628.000000	99.078172 
1627.000000	99.075579 
1626.000000	99.076406 
1625.000000	99.080995 
1624.000000	99.086532 
1623.000000	99.090612 
1622.000000	99.093881 
1621.000000	99.097219 
1620.000000	99.099216 
1619.000000	99.098894 
1618.000000	99.097735 
1617.000000	99.097182 
1616.000000	99.096395 
1615.000000	99.096000 
1614.000000	99.096497 
1613.000000	99.096224 
1612.000000	99.094736 
1611.000000	99.093070 
1610.000000	99.091937 
1609.000000	99.090384 
1608.000000	99.087969 
1607.000000	99.086880 
1606.000000	99.088671 
1605.000000	99.091769 
1604.000000	99.094310 
1603.000000	99.097279 
1602.000000	99.101768 
1601.000000	99.105669 
1600.000000	99.106915 
1599.000000	99.107505 
1598.000000	99.110758 
1597.000000	99.116896 
1596.000000	99.123743 
1595.000000	99.129942 
1594.000000	99.134828 
1593.000000	99.136332 
1592.000000	99.133254 
1591.000000	99.128940 
1590.000000	99.128762 
1589.000000	99.133544 
1588.000000	99.139506 
1587.000000	99.144285 
1586.000000	99.148147 
1585.000000	99.150086 
1584.000000	99.147867 
1583.000000	99.142290 
1582.000000	99.138387 
1581.000000	99.139538 
1580.000000	99.144315 
1579.000000	99.149857 
1578.000000	99.154827 
1577.000000	99.157025 
1576.000000	99.153916 
1575.000000	99.150570 
1574.000000	99.153331 
1573.000000	99.158388 
1572.000000	99.160152 
1571.000000	99.158669 
1570.000000	99.158333 
1569.000000	99.160571 
1568.000000	99.162936 
1567.000000	99.164448 
1566.000000	99.165026 
1565.000000	99.164588 
1564.000000	99.164017 
1563.000000	99.164799 
1562.000000	99.166871 
1561.000000	99.166233 
1560.000000	99.158558 
1559.000000	99.149238 
1558.000000	99.147878 
1557.000000	99.152663 
1556.000000	99.156337 
1555.000000	99.156556 
1554.000000	99.154630 
1553.000000	99.152122 
1552.000000	99.150221 
1551.000000	99.150294 
1550.000000	99.153773 
1549.000000	99.159163 
1548.000000	99.162743 
1547.000000	99.162123 
1546.000000	99.157507 
1545.000000	99.151875 
1544.000000	99.148896 
1543.000000	99.149509 
1542.000000	99.153703 
1541.000000	99.161232 
1540.000000	99.163978 
1539.000000	99.156460 
1538.000000	99.149888 
1537.000000	99.149547 
1536.000000	99.151091 
1535.000000	99.150996 
1534.000000	99.149984 
1533.000000	99.149841 
1532.000000	99.148955 
1531.000000	99.145234 
1530.000000	99.141060 
1529.000000	99.140280 
1528.000000	99.142182 
1527.000000	99.142785 
1526.000000	99.140724 
1525.000000	99.138928 
1524.000000	99.138800 
1523.000000	99.139050 
1522.000000	99.140240 
1521.000000	99.144197 
1520.000000	99.146901 
1519.000000	99.143471 
1518.000000	99.135175 
1517.000000	99.128010 
1516.000000	99.125584 
1515.000000	99.125913 
1514.000000	99.126336 
1513.000000	99.126772 
1512.000000	99.127948 
1511.000000	99.128421 
1510.000000	99.125072 
1509.000000	99.117421 
1508.000000	99.111401 
1507.000000	99.113632 
1506.000000	99.117747 
1505.000000	99.118687 
1504.000000	99.119345 
1503.000000	99.120031 
1502.000000	99.121373 
1501.000000	99.124713 
1500.000000	99.130315 
1499.000000	99.135709 
1498.000000	99.137363 
1497.000000	99.137254 
1496.000000	99.139981 
1495.000000	99.141687 
1494.000000	99.135358 
1493.000000	99.121155 
1492.000000	99.104943 
1491.000000	99.093433 
1490.000000	99.089786 
1489.000000	99.092375 
1488.000000	99.095579 
1487.000000	99.094743 
1486.000000	99.092021 
1485.000000	99.091098 
1484.000000	99.092080 
1483.000000	99.093042 
1482.000000	99.091751 
1481.000000	99.087590 
1480.000000	99.081928 
1479.000000	99.076616 
1478.000000	99.073082 
1477.000000	99.071514 
1476.000000	99.069619 
1475.000000	99.062784 
1474.000000	99.051988 
1473.000000	99.047015 
1472.000000	99.053741 
1471.000000	99.062975 
1470.000000	99.066298 
1469.000000	99.065834 
1468.000000	99.066497 
1467.000000	99.068701 
1466.000000	99.069668 
1465.000000	99.068468 
1464.000000	99.066559 
1463.000000	99.065261 
1462.000000	99.064914 
1461.000000	99.066235 
1460.000000	99.068866 
1459.000000	99.069592 
1458.000000	99.061515 
1457.000000	99.042618 
1456.000000	99.023326 
1455.000000	99.011164 
1454.000000	99.004133 
1453.000000	99.000539 
1452.000000	98.999943 
1451.000000	99.000941 
1450.000000	99.002224 
1449.000000	99.005171 
1448.000000	99.011202 
1447.000000	99.017137 
1446.000000	99.019290 
1445.000000	99.019405 
1444.000000	99.020831 
1443.000000	99.023339 
1442.000000	99.023968 
1441.000000	99.021752 
1440.000000	99.019521 
1439.000000	99.019923 
1438.000000	99.020540 
1437.000000	99.017034 
1436.000000	99.010472 
1435.000000	99.004281 
1434.000000	98.999425 
1433.000000	98.996784 
1432.000000	98.997020 
1431.000000	98.999807 
1430.000000	99.002763 
1429.000000	99.003654 
1428.000000	99.002805 
1427.000000	99.000653 
1426.000000	98.996014 
1425.000000	98.987768 
1424.000000	98.979004 
1423.000000	98.974289 
1422.000000	98.971677 
1421.000000	98.965537 
1420.000000	98.953794 
1419.000000	98.939693 
1418.000000	98.923491 
1417.000000	98.903400 
1416.000000	98.883015 
1415.000000	98.865926 
1414.000000	98.850392 
1413.000000	98.832465 
1412.000000	98.813370 
1411.000000	98.798704 
1410.000000	98.789499 
1409.000000	98.782327 
1408.000000	98.776611 
1407.000000	98.774525 
1406.000000	98.776801 
1405.000000	98.783330 
1404.000000	98.795941 
1403.000000	98.813653 
1402.000000	98.829447 
1401.000000	98.838374 
1400.000000	98.843485 
1399.000000	98.850601 
1398.000000	98.854610 
1397.000000	98.841495 
1396.000000	98.807151 
1395.000000	98.768979 
1394.000000	98.753679 
1393.000000	98.770477 
1392.000000	98.808546 
1391.000000	98.851285 
1390.000000	98.885389 
1389.000000	98.903844 
1388.000000	98.906692 
1387.000000	98.899527 
1386.000000	98.888440 
1385.000000	98.877602 
1384.000000	98.870355 
1383.000000	98.868803 
1382.000000	98.872163 
1381.000000	98.878431 
1380.000000	98.886462 
1379.000000	98.895932 
1378.000000	98.905886 
1377.000000	98.914729 
1376.000000	98.922555 
1375.000000	98.931922 
1374.000000	98.944598 
1373.000000	98.958080 
1372.000000	98.969213 
1371.000000	98.979349 
1370.000000	98.992532 
1369.000000	99.008776 
1368.000000	99.024651 
1367.000000	99.038163 
1366.000000	99.049848 
1365.000000	99.060167 
1364.000000	99.067837 
1363.000000	99.072382 
1362.000000	99.076228 
1361.000000	99.081057 
1360.000000	99.085350 
1359.000000	99.087946 
1358.000000	99.090834 
1357.000000	99.096553 
1356.000000	99.104759 
1355.000000	99.112676 
1354.000000	99.118323 
1353.000000	99.121727 
1352.000000	99.122620 
1351.000000	99.120226 
1350.000000	99.116835 
1349.000000	99.115401 
1348.000000	99.116845 
1347.000000	99.120356 
1346.000000	99.125560 
1345.000000	99.131986 
1344.000000	99.137908 
1343.000000	99.141544 
1342.000000	99.143003 
1341.000000	99.143192 
1340.000000	99.141918 
1339.000000	99.138867 
1338.000000	99.135357 
1337.000000	99.133660 
1336.000000	99.134722 
1335.000000	99.137290 
1334.000000	99.139721 
1333.000000	99.141712 
1332.000000	99.143656 
1331.000000	99.145452 
1330.000000	99.146385 
1329.000000	99.145378 
1328.000000	99.142035 
1327.000000	99.137729 
1326.000000	99.135045 
1325.000000	99.134671 
1324.000000	99.135753 
1323.000000	99.137708 
1322.000000	99.140010 
1321.000000	99.140902 
1320.000000	99.138767 
1319.000000	99.134826 
1318.000000	99.132408 
1317.000000	99.133059 
1316.000000	99.134768 
1315.000000	99.134651 
1314.000000	99.132094 
1313.000000	99.128903 
1312.000000	99.126870 
1311.000000	99.125994 
1310.000000	99.125239 
1309.000000	99.124279 
1308.000000	99.123968 
1307.000000	99.124891 
1306.000000	99.126356 
1305.000000	99.126628 
1304.000000	99.125354 
1303.000000	99.124093 
1302.000000	99.124390 
1301.000000	99.125833 
1300.000000	99.126633 
1299.000000	99.125317 
1298.000000	99.121486 
1297.000000	99.115773 
1296.000000	99.109676 
1295.000000	99.105333 
1294.000000	99.104140 
1293.000000	99.105415 
1292.000000	99.106586 
1291.000000	99.104738 
1290.000000	99.098638 
1289.000000	99.089933 
1288.000000	99.082024 
1287.000000	99.076909 
1286.000000	99.073089 
1285.000000	99.067650 
1284.000000	99.060200 
1283.000000	99.053123 
1282.000000	99.048062 
1281.000000	99.043979 
1280.000000	99.039216 
1279.000000	99.033844 
1278.000000	99.028569 
1277.000000	99.022878 
1276.000000	99.015631 
1275.000000	99.007092 
1274.000000	98.998823 
1273.000000	98.991824 
1272.000000	98.985627 
1271.000000	98.978762 
1270.000000	98.969479 
1269.000000	98.956985 
1268.000000	98.942880 
1267.000000	98.930280 
1266.000000	98.920330 
1265.000000	98.911000 
1264.000000	98.900184 
1263.000000	98.888194 
1262.000000	98.876115 
1261.000000	98.863848 
1260.000000	98.851621 
1259.000000	98.841610 
1258.000000	98.835161 
1257.000000	98.830131 
1256.000000	98.823423 
1255.000000	98.815039 
1254.000000	98.807087 
1253.000000	98.799872 
1252.000000	98.791936 
1251.000000	98.783881 
1250.000000	98.779005 
1249.000000	98.779573 
1248.000000	98.784752 
1247.000000	98.792121 
1246.000000	98.798156 
1245.000000	98.797394 
1244.000000	98.785378 
1243.000000	98.765208 
1242.000000	98.748700 
1241.000000	98.747117 
1240.000000	98.760350 
1239.000000	98.776685 
1238.000000	98.783218 
1237.000000	98.775572 
1236.000000	98.758063 
1235.000000	98.737174 
1234.000000	98.716624 
1233.000000	98.697503 
1232.000000	98.680547 
1231.000000	98.666461 
1230.000000	98.654486 
1229.000000	98.642463 
1228.000000	98.629141 
1227.000000	98.615751 
1226.000000	98.604531 
1225.000000	98.595803 
1224.000000	98.587074 
1223.000000	98.575127 
1222.000000	98.558864 
1221.000000	98.540155 
1220.000000	98.521982 
1219.000000	98.505683 
1218.000000	98.489772 
1217.000000	98.471560 
1216.000000	98.449773 
1215.000000	98.425328 
1214.000000	98.399975 
1213.000000	98.374771 
1212.000000	98.349543 
1211.000000	98.322813 
1210.000000	98.292613 
1209.000000	98.258620 
1208.000000	98.223395 
1207.000000	98.190391 
1206.000000	98.160774 
1205.000000	98.133149 
1204.000000	98.105790 
1203.000000	98.077453 
1202.000000	98.046440 
1201.000000	98.011314 
1200.000000	97.973165 
1199.000000	97.935318 
1198.000000	97.899989 
1197.000000	97.866919 
1196.000000	97.835504 
1195.000000	97.805756 
1194.000000	97.776316 
1193.000000	97.743951 
1192.000000	97.706829 
1191.000000	97.666910 
1190.000000	97.627912 
1189.000000	97.592173 
1188.000000	97.560050 
1187.000000	97.530237 
1186.000000	97.499464 
1185.000000	97.463934 
1184.000000	97.422489 
1183.000000	97.377183 
1182.000000	97.330414 
1181.000000	97.283401 
1180.000000	97.237767 
1179.000000	97.195439 
1178.000000	97.155240 
1177.000000	97.112305 
1176.000000	97.063176 
1175.000000	97.009579 
1174.000000	96.955424 
1173.000000	96.902128 
1172.000000	96.849176 
1171.000000	96.797151 
1170.000000	96.747256 
1169.000000	96.699047 
1168.000000	96.651113 
1167.000000	96.603449 
1166.000000	96.557932 
1165.000000	96.518137 
1164.000000	96.490199 
1163.000000	96.481428 
1162.000000	96.494801 
1161.000000	96.524762 
1160.000000	96.559546 
1159.000000	96.587357 
1158.000000	96.600804 
1157.000000	96.597917 
1156.000000	96.580681 
1155.000000	96.552110 
1154.000000	96.513964 
1153.000000	96.467635 
1152.000000	96.416727 
1151.000000	96.366590 
1150.000000	96.320453 
1149.000000	96.277551 
1148.000000	96.235475 
1147.000000	96.192326 
1146.000000	96.146421 
1145.000000	96.096846 
1144.000000	96.045601 
1143.000000	95.996825 
1142.000000	95.952263 
1141.000000	95.909244 
1140.000000	95.864043 
1139.000000	95.815252 
1138.000000	95.763328 
1137.000000	95.709598 
1136.000000	95.656725 
1135.000000	95.607354 
1134.000000	95.560815 
1133.000000	95.513411 
1132.000000	95.462896 
1131.000000	95.410224 
1130.000000	95.356304 
1129.000000	95.300076 
1128.000000	95.240856 
1127.000000	95.179612 
1126.000000	95.116981 
1125.000000	95.053056 
1124.000000	94.989837 
1123.000000	94.930166 
1122.000000	94.872978 
1121.000000	94.813523 
1120.000000	94.749919 
1119.000000	94.685623 
1118.000000	94.623638 
1117.000000	94.562268 
1116.000000	94.498901 
1115.000000	94.434289 
1114.000000	94.370522 
1113.000000	94.307922 
1112.000000	94.246410 
1111.000000	94.187198 
1110.000000	94.130776 
1109.000000	94.075394 
1108.000000	94.019247 
1107.000000	93.961670 
1106.000000	93.901983 
1105.000000	93.840098 
1104.000000	93.778406 
1103.000000	93.719772 
1102.000000	93.663886 
1101.000000	93.608994 
1100.000000	93.557011 
1099.000000	93.510006 
1098.000000	93.465149 
1097.000000	93.417498 
1096.000000	93.367945 
1095.000000	93.321213 
1094.000000	93.275855 
1093.000000	93.224064 
1092.000000	93.162878 
1091.000000	93.097914 
1090.000000	93.033667 
1089.000000	92.967560 
1088.000000	92.897033 
1087.000000	92.825774 
1086.000000	92.758889 
1085.000000	92.697129 
1084.000000	92.638969 
1083.000000	92.583222 
1082.000000	92.527274 
1081.000000	92.468411 
1080.000000	92.409184 
1079.000000	92.355923 
1078.000000	92.310187 
1077.000000	92.267737 
1076.000000	92.227315 
1075.000000	92.193125 
1074.000000	92.166453 
1073.000000	92.141610 
1072.000000	92.111148 
1071.000000	92.066962 
1070.000000	91.996122 
1069.000000	91.888220 
1068.000000	91.753398 
1067.000000	91.624082 
1066.000000	91.529710 
1065.000000	91.472998 
1064.000000	91.434651 
1063.000000	91.393219 
1062.000000	91.334585 
1061.000000	91.251544 
1060.000000	91.146365 
1059.000000	91.033430 
1058.000000	90.931620 
1057.000000	90.851109 
1056.000000	90.787635 
1055.000000	90.726663 
1054.000000	90.652477 
1053.000000	90.558794 
1052.000000	90.453696 
1051.000000	90.350826 
1050.000000	90.254923 
1049.000000	90.161475 
1048.000000	90.069373 
1047.000000	89.983741 
1046.000000	89.905020 
1045.000000	89.825478 
1044.000000	89.739715 
1043.000000	89.651001 
1042.000000	89.564332 
1041.000000	89.479902 
1040.000000	89.397068 
1039.000000	89.319336 
1038.000000	89.251910 
1037.000000	89.198049 
1036.000000	89.159064 
1035.000000	89.133390 
1034.000000	89.115068 
1033.000000	89.097387 
1032.000000	89.076799 
1031.000000	89.049307 
1030.000000	89.008546 
1029.000000	88.956919 
1028.000000	88.914671 
1027.000000	88.904727 
1026.000000	88.927033 
1025.000000	88.958330 
1024.000000	88.977845 
1023.000000	88.982456 
1022.000000	88.977042 
1021.000000	88.963879 
1020.000000	88.946041 
1019.000000	88.929824 
1018.000000	88.917226 
1017.000000	88.903515 
1016.000000	88.886544 
1015.000000	88.871380 
1014.000000	88.862394 
1013.000000	88.857652 
1012.000000	88.853795 
1011.000000	88.849742 
1010.000000	88.844125 
1009.000000	88.836642 
1008.000000	88.833209 
1007.000000	88.841566 
1006.000000	88.860210 
1005.000000	88.879997 
1004.000000	88.897844 
1003.000000	88.919559 
1002.000000	88.947510 
1001.000000	88.975596 
1000.000000	88.999577 
999.000000	 89.022920 
998.000000	 89.048741 
997.000000	 89.074822 
996.000000	 89.100880 
995.000000	 89.132560 
994.000000	 89.173297 
993.000000	 89.218767 
992.000000	 89.263374 
991.000000	 89.306268 
990.000000	 89.348171 
989.000000	 89.388701 
988.000000	 89.429692 
987.000000	 89.475099 
986.000000	 89.525334 
985.000000	 89.577792 
984.000000	 89.634394 
983.000000	 89.701296 
982.000000	 89.779050 
981.000000	 89.860451 
980.000000	 89.940639 
979.000000	 90.022296 
978.000000	 90.108702 
977.000000	 90.199106 
976.000000	 90.293636 
975.000000	 90.395296 
974.000000	 90.503563 
973.000000	 90.612507 
972.000000	 90.718529 
971.000000	 90.824015 
970.000000	 90.930567 
969.000000	 91.035000 
968.000000	 91.135441 
967.000000	 91.235448 
966.000000	 91.338108 
965.000000	 91.440848 
964.000000	 91.539757 
963.000000	 91.634830 
962.000000	 91.727626 
961.000000	 91.817498 
960.000000	 91.903265 
959.000000	 91.985471 
958.000000	 92.064604 
957.000000	 92.140116 
956.000000	 92.213086 
955.000000	 92.286434 
954.000000	 92.360409 
953.000000	 92.430886 
952.000000	 92.493941 
951.000000	 92.549419 
950.000000	 92.598980 
949.000000	 92.643921 
948.000000	 92.686260 
947.000000	 92.728707 
946.000000	 92.771867 
945.000000	 92.813989 
944.000000	 92.854045 
943.000000	 92.891876 
942.000000	 92.925108 
941.000000	 92.950298 
940.000000	 92.968543 
939.000000	 92.986136 
938.000000	 93.007830 
937.000000	 93.032489 
936.000000	 93.056619 
935.000000	 93.078750 
934.000000	 93.098953 
933.000000	 93.117584 
932.000000	 93.136400 
931.000000	 93.158144 
930.000000	 93.183461 
929.000000	 93.210526 
928.000000	 93.238263 
927.000000	 93.266983 
926.000000	 93.295410 
925.000000	 93.320480 
924.000000	 93.340776 
923.000000	 93.356991 
922.000000	 93.368537 
921.000000	 93.373411 
920.000000	 93.372428 
919.000000	 93.370187 
918.000000	 93.370579 
917.000000	 93.374128 
916.000000	 93.380316 
915.000000	 93.389280 
914.000000	 93.400787 
913.000000	 93.415194 
912.000000	 93.436039 
911.000000	 93.467751 
910.000000	 93.509697 
909.000000	 93.556223 
908.000000	 93.603700 
907.000000	 93.654249 
906.000000	 93.711928 
905.000000	 93.778614 
904.000000	 93.854038 
903.000000	 93.936308 
902.000000	 94.021837 
901.000000	 94.107965 
900.000000	 94.195812 
899.000000	 94.287500 
898.000000	 94.380790 
897.000000	 94.469431 
896.000000	 94.548583 
895.000000	 94.617641 
894.000000	 94.679512 
893.000000	 94.740425 
892.000000	 94.808373 
891.000000	 94.886735 
890.000000	 94.969664 
889.000000	 95.047859 
888.000000	 95.118046 
887.000000	 95.182498 
886.000000	 95.240853 
885.000000	 95.288919 
884.000000	 95.326496 
883.000000	 95.360303 
882.000000	 95.396451 
881.000000	 95.434560 
880.000000	 95.472644 
879.000000	 95.513947 
878.000000	 95.564370 
877.000000	 95.624119 
876.000000	 95.685038 
875.000000	 95.736559 
874.000000	 95.774191 
873.000000	 95.803482 
872.000000	 95.836132 
871.000000	 95.880749 
870.000000	 95.935892 
869.000000	 95.991946 
868.000000	 96.039628 
867.000000	 96.076933 
866.000000	 96.110010 
865.000000	 96.148789 
864.000000	 96.200298 
863.000000	 96.263627 
862.000000	 96.330743 
861.000000	 96.392827 
860.000000	 96.445701 
859.000000	 96.490227 
858.000000	 96.530557 
857.000000	 96.572599 
856.000000	 96.620398 
855.000000	 96.671253 
854.000000	 96.716604 
853.000000	 96.750383 
852.000000	 96.774799 
851.000000	 96.796013 
850.000000	 96.816682 
849.000000	 96.835642 
848.000000	 96.852515 
847.000000	 96.868534 
846.000000	 96.883693 
845.000000	 96.896890 
844.000000	 96.908793 
843.000000	 96.921025 
842.000000	 96.931656 
841.000000	 96.934398 
840.000000	 96.924326 
839.000000	 96.903595 
838.000000	 96.880125 
837.000000	 96.860071 
836.000000	 96.842025 
835.000000	 96.819924 
834.000000	 96.792379 
833.000000	 96.766772 
832.000000	 96.750567 
831.000000	 96.740165 
830.000000	 96.725089 
829.000000	 96.705275 
828.000000	 96.696230 
827.000000	 96.710213 
826.000000	 96.738238 
825.000000	 96.760773 
824.000000	 96.772640 
823.000000	 96.785079 
822.000000	 96.804485 
821.000000	 96.822645 
820.000000	 96.829939 
819.000000	 96.826995 
818.000000	 96.820176 
817.000000	 96.813050 
816.000000	 96.805030 
815.000000	 96.792399 
814.000000	 96.767241 
813.000000	 96.719944 
812.000000	 96.646860 
811.000000	 96.552961 
810.000000	 96.443727 
809.000000	 96.316431 
808.000000	 96.162401 
807.000000	 95.976073 
806.000000	 95.759805 
805.000000	 95.522782 
804.000000	 95.279452 
803.000000	 95.047350 
802.000000	 94.841115 
801.000000	 94.667721 
800.000000	 94.528898 
799.000000	 94.426294 
798.000000	 94.362671 
797.000000	 94.340190 
796.000000	 94.357961 
795.000000	 94.408257 
794.000000	 94.475959 
793.000000	 94.546024 
792.000000	 94.610741 
791.000000	 94.666111 
790.000000	 94.704491 
789.000000	 94.717989 
788.000000	 94.708162 
787.000000	 94.684536 
786.000000	 94.652022 
785.000000	 94.606029 
784.000000	 94.542241 
783.000000	 94.465447 
782.000000	 94.385947 
781.000000	 94.312641 
780.000000	 94.252697 
779.000000	 94.212681 
778.000000	 94.195916 
777.000000	 94.202601 
776.000000	 94.234604 
775.000000	 94.294636 
774.000000	 94.377805 
773.000000	 94.469563 
772.000000	 94.555926 
771.000000	 94.631924 
770.000000	 94.697645 
769.000000	 94.751108 
768.000000	 94.789782 
767.000000	 94.816321 
766.000000	 94.837694 
765.000000	 94.858626 
764.000000	 94.878485 
763.000000	 94.893967 
762.000000	 94.903168 
761.000000	 94.908350 
760.000000	 94.916494 
759.000000	 94.935278 
758.000000	 94.965544 
757.000000	 94.998662 
756.000000	 95.024128 
755.000000	 95.040322 
754.000000	 95.056573 
753.000000	 95.084143 
752.000000	 95.125760 
751.000000	 95.173049 
750.000000	 95.212696 
749.000000	 95.235901 
748.000000	 95.244401 
747.000000	 95.249507 
746.000000	 95.265096 
745.000000	 95.298395 
744.000000	 95.344674 
743.000000	 95.391470 
742.000000	 95.430335 
741.000000	 95.464577 
740.000000	 95.504200 
739.000000	 95.554258 
738.000000	 95.610212 
737.000000	 95.663625 
736.000000	 95.709253 
735.000000	 95.747640 
734.000000	 95.784683 
733.000000	 95.827642 
732.000000	 95.877098 
731.000000	 95.922493 
730.000000	 95.950069 
729.000000	 95.955412 
728.000000	 95.947679 
727.000000	 95.940719 
726.000000	 95.940914 
725.000000	 95.948023 
724.000000	 95.963158 
723.000000	 95.988783 
722.000000	 96.022109 
721.000000	 96.054797 
720.000000	 96.080661 
719.000000	 96.099774 
718.000000	 96.114513 
717.000000	 96.126897 
716.000000	 96.139850 
715.000000	 96.156388 
714.000000	 96.175799 
713.000000	 96.192770 
712.000000	 96.203185 
711.000000	 96.208777 
710.000000	 96.214620 
709.000000	 96.221581 
708.000000	 96.223290 
707.000000	 96.213095 
706.000000	 96.189648 
705.000000	 96.157932 
704.000000	 96.124919 
703.000000	 96.089491 
702.000000	 96.040853 
701.000000	 95.968680 
700.000000	 95.869209 
699.000000	 95.745630 
698.000000	 95.604780 
697.000000	 95.459770 
696.000000	 95.333512 
695.000000	 95.246886 
694.000000	 95.209237 
693.000000	 95.220632 
692.000000	 95.274896 
691.000000	 95.359683 
690.000000	 95.453451 
689.000000	 95.534760 
688.000000	 95.596338 
687.000000	 95.642966 
686.000000	 95.682641 
685.000000	 95.720724 
684.000000	 95.757054 
683.000000	 95.788939 
682.000000	 95.817044 
681.000000	 95.848168 
680.000000	 95.887027 
679.000000	 95.927207 
678.000000	 95.954533 
677.000000	 95.954825 
676.000000	 95.934974 
675.000000	 95.926462 
674.000000	 95.954489 
673.000000	 96.013897 
672.000000	 96.088808 
671.000000	 96.182032 
670.000000	 96.313205 
669.000000	 96.466621 
668.000000	 96.519391 
667.000000	 96.410885 
666.000000	 96.291369 
665.000000	 96.225836 
664.000000	 96.188892 
663.000000	 96.166336 
662.000000	 96.161553 
661.000000	 96.174125 
660.000000	 96.197322 
659.000000	 96.220703 
658.000000	 96.224235 
657.000000	 96.183349 
656.000000	 96.108477 
655.000000	 96.048861 
654.000000	 96.027777 
653.000000	 96.011605 
652.000000	 95.969572 
651.000000	 95.918456 
650.000000	 95.889214 

