4000.000000	99.531747 
3999.000000	99.531789 
3998.000000	99.531486 
3997.000000	99.530646 
3996.000000	99.529141 
3995.000000	99.527351 
3994.000000	99.526247 
3993.000000	99.526695 
3992.000000	99.528486 
3991.000000	99.530160 
3990.000000	99.530147 
3989.000000	99.528426 
3988.000000	99.526954 
3987.000000	99.528050 
3986.000000	99.532082 
3985.000000	99.536791 
3984.000000	99.538966 
3983.000000	99.536851 
3982.000000	99.531217 
3981.000000	99.524561 
3980.000000	99.519298 
3979.000000	99.516564 
3978.000000	99.516423 
3977.000000	99.518661 
3976.000000	99.523086 
3975.000000	99.529166 
3974.000000	99.535737 
3973.000000	99.541249 
3972.000000	99.544310 
3971.000000	99.544283 
3970.000000	99.541557 
3969.000000	99.537280 
3968.000000	99.532835 
3967.000000	99.529234 
3966.000000	99.526891 
3965.000000	99.525948 
3964.000000	99.526329 
3963.000000	99.527235 
3962.000000	99.527020 
3961.000000	99.524310 
3960.000000	99.519466 
3959.000000	99.514795 
3958.000000	99.512707 
3957.000000	99.513478 
3956.000000	99.515396 
3955.000000	99.516841 
3954.000000	99.517867 
3953.000000	99.519425 
3952.000000	99.521567 
3951.000000	99.523258 
3950.000000	99.523631 
3949.000000	99.523122 
3948.000000	99.523034 
3947.000000	99.523965 
3946.000000	99.525271 
3945.000000	99.525926 
3944.000000	99.525513 
3943.000000	99.524026 
3942.000000	99.521758 
3941.000000	99.519516 
3940.000000	99.517994 
3939.000000	99.516722 
3938.000000	99.514177 
3937.000000	99.509290 
3936.000000	99.503327 
3935.000000	99.499772 
3934.000000	99.502109 
3933.000000	99.510836 
3932.000000	99.522176 
3931.000000	99.530133 
3930.000000	99.530698 
3929.000000	99.524757 
3928.000000	99.517123 
3927.000000	99.512757 
3926.000000	99.513742 
3925.000000	99.518309 
3924.000000	99.522576 
3923.000000	99.524180 
3922.000000	99.523647 
3921.000000	99.522950 
3920.000000	99.523394 
3919.000000	99.524939 
3918.000000	99.527056 
3917.000000	99.529284 
3916.000000	99.531148 
3915.000000	99.532261 
3914.000000	99.532934 
3913.000000	99.534009 
3912.000000	99.535789 
3911.000000	99.537886 
3910.000000	99.539906 
3909.000000	99.541766 
3908.000000	99.543248 
3907.000000	99.542951 
3906.000000	99.538378 
3905.000000	99.527524 
3904.000000	99.510997 
3903.000000	99.493569 
3902.000000	99.482181 
3901.000000	99.481195 
3900.000000	99.489722 
3899.000000	99.502425 
3898.000000	99.513542 
3897.000000	99.520317 
3896.000000	99.522702 
3895.000000	99.521693 
3894.000000	99.518543 
3893.000000	99.514440 
3892.000000	99.510320 
3891.000000	99.506693 
3890.000000	99.503885 
3889.000000	99.501763 
3888.000000	99.500180 
3887.000000	99.499843 
3886.000000	99.501062 
3885.000000	99.502267 
3884.000000	99.501532 
3883.000000	99.499091 
3882.000000	99.497121 
3881.000000	99.497069 
3880.000000	99.498256 
3879.000000	99.499269 
3878.000000	99.500121 
3877.000000	99.502214 
3876.000000	99.507072 
3875.000000	99.513824 
3874.000000	99.518258 
3873.000000	99.516384 
3872.000000	99.509259 
3871.000000	99.502577 
3870.000000	99.501013 
3869.000000	99.504213 
3868.000000	99.508749 
3867.000000	99.512453 
3866.000000	99.516160 
3865.000000	99.520840 
3864.000000	99.524148 
3863.000000	99.523300 
3862.000000	99.519324 
3861.000000	99.516314 
3860.000000	99.517499 
3859.000000	99.522583 
3858.000000	99.527688 
3857.000000	99.527884 
3856.000000	99.520492 
3855.000000	99.509417 
3854.000000	99.502803 
3853.000000	99.504334 
3852.000000	99.511662 
3851.000000	99.520728 
3850.000000	99.528001 
3849.000000	99.532511 
3848.000000	99.534565 
3847.000000	99.534633 
3846.000000	99.533147 
3845.000000	99.530577 
3844.000000	99.528087 
3843.000000	99.527833 
3842.000000	99.530772 
3841.000000	99.535116 
3840.000000	99.537727 
3839.000000	99.536511 
3838.000000	99.531878 
3837.000000	99.526053 
3836.000000	99.520954 
3835.000000	99.517877 
3834.000000	99.518162 
3833.000000	99.522926 
3832.000000	99.531361 
3831.000000	99.539811 
3830.000000	99.544135 
3829.000000	99.542922 
3828.000000	99.538444 
3827.000000	99.534796 
3826.000000	99.534315 
3825.000000	99.535630 
3824.000000	99.535647 
3823.000000	99.533515 
3822.000000	99.530859 
3821.000000	99.528581 
3820.000000	99.526808 
3819.000000	99.526620 
3818.000000	99.528748 
3817.000000	99.533073 
3816.000000	99.537655 
3815.000000	99.538988 
3814.000000	99.535703 
3813.000000	99.530570 
3812.000000	99.527857 
3811.000000	99.529118 
3810.000000	99.531940 
3809.000000	99.533190 
3808.000000	99.532895 
3807.000000	99.533576 
3806.000000	99.535896 
3805.000000	99.537414 
3804.000000	99.536102 
3803.000000	99.533489 
3802.000000	99.532433 
3801.000000	99.532758 
3800.000000	99.532113 
3799.000000	99.529487 
3798.000000	99.526226 
3797.000000	99.524613 
3796.000000	99.525215 
3795.000000	99.526376 
3794.000000	99.526250 
3793.000000	99.524617 
3792.000000	99.522720 
3791.000000	99.521801 
3790.000000	99.522155 
3789.000000	99.523347 
3788.000000	99.524777 
3787.000000	99.525828 
3786.000000	99.526082 
3785.000000	99.525528 
3784.000000	99.524568 
3783.000000	99.523663 
3782.000000	99.523378 
3781.000000	99.524540 
3780.000000	99.527259 
3779.000000	99.529990 
3778.000000	99.530739 
3777.000000	99.528927 
3776.000000	99.525683 
3775.000000	99.522995 
3774.000000	99.521892 
3773.000000	99.521489 
3772.000000	99.520317 
3771.000000	99.518144 
3770.000000	99.515770 
3769.000000	99.513954 
3768.000000	99.513156 
3767.000000	99.513262 
3766.000000	99.513600 
3765.000000	99.513366 
3764.000000	99.511946 
3763.000000	99.509391 
3762.000000	99.507060 
3761.000000	99.506997 
3760.000000	99.509587 
3759.000000	99.513021 
3758.000000	99.516091 
3757.000000	99.519672 
3756.000000	99.524645 
3755.000000	99.530458 
3754.000000	99.535630 
3753.000000	99.538523 
3752.000000	99.536999 
3751.000000	99.529363 
3750.000000	99.518863 
3749.000000	99.512206 
3748.000000	99.511365 
3747.000000	99.512784 
3746.000000	99.513218 
3745.000000	99.512785 
3744.000000	99.513242 
3743.000000	99.514880 
3742.000000	99.515823 
3741.000000	99.514249 
3740.000000	99.509630 
3739.000000	99.502304 
3738.000000	99.495026 
3737.000000	99.493037 
3736.000000	99.498394 
3735.000000	99.505641 
3734.000000	99.507472 
3733.000000	99.503705 
3732.000000	99.500104 
3731.000000	99.500307 
3730.000000	99.502492 
3729.000000	99.503180 
3728.000000	99.502051 
3727.000000	99.501520 
3726.000000	99.502596 
3725.000000	99.503551 
3724.000000	99.502908 
3723.000000	99.501643 
3722.000000	99.501539 
3721.000000	99.503416 
3720.000000	99.506209 
3719.000000	99.507583 
3718.000000	99.506171 
3717.000000	99.502508 
3716.000000	99.497996 
3715.000000	99.493624 
3714.000000	99.489948 
3713.000000	99.487821 
3712.000000	99.487233 
3711.000000	99.487183 
3710.000000	99.487037 
3709.000000	99.486397 
3708.000000	99.484585 
3707.000000	99.481095 
3706.000000	99.476426 
3705.000000	99.472090 
3704.000000	99.469627 
3703.000000	99.468820 
3702.000000	99.466806 
3701.000000	99.460622 
3700.000000	99.450504 
3699.000000	99.439287 
3698.000000	99.429924 
3697.000000	99.423815 
3696.000000	99.420087 
3695.000000	99.416828 
3694.000000	99.413538 
3693.000000	99.411735 
3692.000000	99.412466 
3691.000000	99.414118 
3690.000000	99.412946 
3689.000000	99.407232 
3688.000000	99.399649 
3687.000000	99.393107 
3686.000000	99.387704 
3685.000000	99.383553 
3684.000000	99.382166 
3683.000000	99.384366 
3682.000000	99.388531 
3681.000000	99.391068 
3680.000000	99.388426 
3679.000000	99.378346 
3678.000000	99.361664 
3677.000000	99.344982 
3676.000000	99.337070 
3675.000000	99.338709 
3674.000000	99.342782 
3673.000000	99.343298 
3672.000000	99.340253 
3671.000000	99.339804 
3670.000000	99.346063 
3669.000000	99.355414 
3668.000000	99.362855 
3667.000000	99.367563 
3666.000000	99.371167 
3665.000000	99.374848 
3664.000000	99.378119 
3663.000000	99.379891 
3662.000000	99.379915 
3661.000000	99.378420 
3660.000000	99.375260 
3659.000000	99.370521 
3658.000000	99.366078 
3657.000000	99.364735 
3656.000000	99.366800 
3655.000000	99.369214 
3654.000000	99.368805 
3653.000000	99.365351 
3652.000000	99.361357 
3651.000000	99.359468 
3650.000000	99.359521 
3649.000000	99.360256 
3648.000000	99.363069 
3647.000000	99.369265 
3646.000000	99.377164 
3645.000000	99.384799 
3644.000000	99.392464 
3643.000000	99.401796 
3642.000000	99.413681 
3641.000000	99.426575 
3640.000000	99.437462 
3639.000000	99.443983 
3638.000000	99.445680 
3637.000000	99.443986 
3636.000000	99.441102 
3635.000000	99.438585 
3634.000000	99.436105 
3633.000000	99.431998 
3632.000000	99.425808 
3631.000000	99.420359 
3630.000000	99.420432 
3629.000000	99.426018 
3628.000000	99.431049 
3627.000000	99.432911 
3626.000000	99.434243 
3625.000000	99.437693 
3624.000000	99.443160 
3623.000000	99.448389 
3622.000000	99.451719 
3621.000000	99.454402 
3620.000000	99.458051 
3619.000000	99.460545 
3618.000000	99.458218 
3617.000000	99.451341 
3616.000000	99.444184 
3615.000000	99.441445 
3614.000000	99.444098 
3613.000000	99.448526 
3612.000000	99.450756 
3611.000000	99.450517 
3610.000000	99.450119 
3609.000000	99.450879 
3608.000000	99.451455 
3607.000000	99.450647 
3606.000000	99.450397 
3605.000000	99.453610 
3604.000000	99.460834 
3603.000000	99.469916 
3602.000000	99.478195 
3601.000000	99.484645 
3600.000000	99.488963 
3599.000000	99.490056 
3598.000000	99.486934 
3597.000000	99.480431 
3596.000000	99.473374 
3595.000000	99.469422 
3594.000000	99.470299 
3593.000000	99.474702 
3592.000000	99.479417 
3591.000000	99.481146 
3590.000000	99.478857 
3589.000000	99.474780 
3588.000000	99.472104 
3587.000000	99.471141 
3586.000000	99.470513 
3585.000000	99.470299 
3584.000000	99.472148 
3583.000000	99.476591 
3582.000000	99.481959 
3581.000000	99.485500 
3580.000000	99.485692 
3579.000000	99.483090 
3578.000000	99.478988 
3577.000000	99.474575 
3576.000000	99.471128 
3575.000000	99.470260 
3574.000000	99.472631 
3573.000000	99.476671 
3572.000000	99.479759 
3571.000000	99.480566 
3570.000000	99.479652 
3569.000000	99.478642 
3568.000000	99.478668 
3567.000000	99.479087 
3566.000000	99.478787 
3565.000000	99.478286 
3564.000000	99.479136 
3563.000000	99.482379 
3562.000000	99.487588 
3561.000000	99.492645 
3560.000000	99.495169 
3559.000000	99.494437 
3558.000000	99.492005 
3557.000000	99.490179 
3556.000000	99.490193 
3555.000000	99.491670 
3554.000000	99.493513 
3553.000000	99.494514 
3552.000000	99.493866 
3551.000000	99.491776 
3550.000000	99.489200 
3549.000000	99.486918 
3548.000000	99.485414 
3547.000000	99.484973 
3546.000000	99.485612 
3545.000000	99.486326 
3544.000000	99.485612 
3543.000000	99.483391 
3542.000000	99.482058 
3541.000000	99.484465 
3540.000000	99.491077 
3539.000000	99.499164 
3538.000000	99.505214 
3537.000000	99.507757 
3536.000000	99.507849 
3535.000000	99.507272 
3534.000000	99.506698 
3533.000000	99.506069 
3532.000000	99.505745 
3531.000000	99.506591 
3530.000000	99.508351 
3529.000000	99.508854 
3528.000000	99.506020 
3527.000000	99.500758 
3526.000000	99.496592 
3525.000000	99.495988 
3524.000000	99.497867 
3523.000000	99.499354 
3522.000000	99.499470 
3521.000000	99.499776 
3520.000000	99.501914 
3519.000000	99.505769 
3518.000000	99.510193 
3517.000000	99.514191 
3516.000000	99.516708 
3515.000000	99.516404 
3514.000000	99.512589 
3513.000000	99.506485 
3512.000000	99.500759 
3511.000000	99.497502 
3510.000000	99.496658 
3509.000000	99.496784 
3508.000000	99.497123 
3507.000000	99.498563 
3506.000000	99.502451 
3505.000000	99.508359 
3504.000000	99.513298 
3503.000000	99.514021 
3502.000000	99.510641 
3501.000000	99.507044 
3500.000000	99.507011 
3499.000000	99.510538 
3498.000000	99.514197 
3497.000000	99.514684 
3496.000000	99.511537 
3495.000000	99.506749 
3494.000000	99.502642 
3493.000000	99.500351 
3492.000000	99.499816 
3491.000000	99.500502 
3490.000000	99.502087 
3489.000000	99.504649 
3488.000000	99.508117 
3487.000000	99.511591 
3486.000000	99.513724 
3485.000000	99.513929 
3484.000000	99.512763 
3483.000000	99.511137 
3482.000000	99.509600 
3481.000000	99.508735 
3480.000000	99.509503 
3479.000000	99.512123 
3478.000000	99.514812 
3477.000000	99.514925 
3476.000000	99.512026 
3475.000000	99.509244 
3474.000000	99.510424 
3473.000000	99.515768 
3472.000000	99.521248 
3471.000000	99.522809 
3470.000000	99.520450 
3469.000000	99.517518 
3468.000000	99.516723 
3467.000000	99.517948 
3466.000000	99.519895 
3465.000000	99.522292 
3464.000000	99.525456 
3463.000000	99.528513 
3462.000000	99.529449 
3461.000000	99.527332 
3460.000000	99.523766 
3459.000000	99.521821 
3458.000000	99.523542 
3457.000000	99.528126 
3456.000000	99.532253 
3455.000000	99.532532 
3454.000000	99.528321 
3453.000000	99.522423 
3452.000000	99.518522 
3451.000000	99.518065 
3450.000000	99.519752 
3449.000000	99.521706 
3448.000000	99.523202 
3447.000000	99.524314 
3446.000000	99.524922 
3445.000000	99.524913 
3444.000000	99.524798 
3443.000000	99.525146 
3442.000000	99.525408 
3441.000000	99.524097 
3440.000000	99.520644 
3439.000000	99.516542 
3438.000000	99.514014 
3437.000000	99.513656 
3436.000000	99.514071 
3435.000000	99.513990 
3434.000000	99.514040 
3433.000000	99.515990 
3432.000000	99.520234 
3431.000000	99.524834 
3430.000000	99.527301 
3429.000000	99.527123 
3428.000000	99.526127 
3427.000000	99.526180 
3426.000000	99.526944 
3425.000000	99.526212 
3424.000000	99.522412 
3423.000000	99.516363 
3422.000000	99.510459 
3421.000000	99.506570 
3420.000000	99.505207 
3419.000000	99.506272 
3418.000000	99.509633 
3417.000000	99.514664 
3416.000000	99.519879 
3415.000000	99.523524 
3414.000000	99.524581 
3413.000000	99.523231 
3412.000000	99.520784 
3411.000000	99.519139 
3410.000000	99.519530 
3409.000000	99.521198 
3408.000000	99.521641 
3407.000000	99.518983 
3406.000000	99.514195 
3405.000000	99.510425 
3404.000000	99.509997 
3403.000000	99.512401 
3402.000000	99.515285 
3401.000000	99.517141 
3400.000000	99.518545 
3399.000000	99.520989 
3398.000000	99.524846 
3397.000000	99.528659 
3396.000000	99.530279 
3395.000000	99.528534 
3394.000000	99.523828 
3393.000000	99.517522 
3392.000000	99.511158 
3391.000000	99.506187 
3390.000000	99.503939 
3389.000000	99.505202 
3388.000000	99.509702 
3387.000000	99.516217 
3386.000000	99.523325 
3385.000000	99.529844 
3384.000000	99.534534 
3383.000000	99.535885 
3382.000000	99.532819 
3381.000000	99.525862 
3380.000000	99.517466 
3379.000000	99.510969 
3378.000000	99.508798 
3377.000000	99.511139 
3376.000000	99.515962 
3375.000000	99.520446 
3374.000000	99.522834 
3373.000000	99.523317 
3372.000000	99.523295 
3371.000000	99.523797 
3370.000000	99.524538 
3369.000000	99.524390 
3368.000000	99.522866 
3367.000000	99.521128 
3366.000000	99.521206 
3365.000000	99.523750 
3364.000000	99.526805 
3363.000000	99.527577 
3362.000000	99.525517 
3361.000000	99.522774 
3360.000000	99.521218 
3359.000000	99.520031 
3358.000000	99.517317 
3357.000000	99.513530 
3356.000000	99.511722 
3355.000000	99.513923 
3354.000000	99.518337 
3353.000000	99.520951 
3352.000000	99.519403 
3351.000000	99.514862 
3350.000000	99.510605 
3349.000000	99.509346 
3348.000000	99.511553 
3347.000000	99.515327 
3346.000000	99.517695 
3345.000000	99.516745 
3344.000000	99.513141 
3343.000000	99.509567 
3342.000000	99.508146 
3341.000000	99.508309 
3340.000000	99.507450 
3339.000000	99.504025 
3338.000000	99.499750 
3337.000000	99.498178 
3336.000000	99.500946 
3335.000000	99.505995 
3334.000000	99.509912 
3333.000000	99.511466 
3332.000000	99.512157 
3331.000000	99.513603 
3330.000000	99.515403 
3329.000000	99.515937 
3328.000000	99.514622 
3327.000000	99.512595 
3326.000000	99.511206 
3325.000000	99.510351 
3324.000000	99.508613 
3323.000000	99.505223 
3322.000000	99.501555 
3321.000000	99.500141 
3320.000000	99.501989 
3319.000000	99.505343 
3318.000000	99.507581 
3317.000000	99.507880 
3316.000000	99.507354 
3315.000000	99.507207 
3314.000000	99.507921 
3313.000000	99.510043 
3312.000000	99.514077 
3311.000000	99.518916 
3310.000000	99.521625 
3309.000000	99.519947 
3308.000000	99.514535 
3307.000000	99.508014 
3306.000000	99.502507 
3305.000000	99.498922 
3304.000000	99.497849 
3303.000000	99.499562 
3302.000000	99.502920 
3301.000000	99.505332 
3300.000000	99.504462 
3299.000000	99.499986 
3298.000000	99.493870 
3297.000000	99.489160 
3296.000000	99.487889 
3295.000000	99.489500 
3294.000000	99.491581 
3293.000000	99.492709 
3292.000000	99.494096 
3291.000000	99.497442 
3290.000000	99.501593 
3289.000000	99.502993 
3288.000000	99.499829 
3287.000000	99.494503 
3286.000000	99.491131 
3285.000000	99.491220 
3284.000000	99.492552 
3283.000000	99.491961 
3282.000000	99.488638 
3281.000000	99.484879 
3280.000000	99.484089 
3279.000000	99.487800 
3278.000000	99.494115 
3277.000000	99.498987 
3276.000000	99.499276 
3275.000000	99.494936 
3274.000000	99.488647 
3273.000000	99.483724 
3272.000000	99.482044 
3271.000000	99.483097 
3270.000000	99.484558 
3269.000000	99.484189 
3268.000000	99.481526 
3267.000000	99.477667 
3266.000000	99.473728 
3265.000000	99.470300 
3264.000000	99.468384 
3263.000000	99.469613 
3262.000000	99.474639 
3261.000000	99.481767 
3260.000000	99.488066 
3259.000000	99.491642 
3258.000000	99.492325 
3257.000000	99.490510 
3256.000000	99.486263 
3255.000000	99.479857 
3254.000000	99.472745 
3253.000000	99.467646 
3252.000000	99.467319 
3251.000000	99.472621 
3250.000000	99.481230 
3249.000000	99.488646 
3248.000000	99.491218 
3247.000000	99.488508 
3246.000000	99.482802 
3245.000000	99.476748 
3244.000000	99.471899 
3243.000000	99.468954 
3242.000000	99.468211 
3241.000000	99.469342 
3240.000000	99.471435 
3239.000000	99.473936 
3238.000000	99.477432 
3237.000000	99.483058 
3236.000000	99.490925 
3235.000000	99.499170 
3234.000000	99.504710 
3233.000000	99.505239 
3232.000000	99.500862 
3231.000000	99.494051 
3230.000000	99.487990 
3229.000000	99.484767 
3228.000000	99.484573 
3227.000000	99.485872 
3226.000000	99.486237 
3225.000000	99.483802 
3224.000000	99.478697 
3223.000000	99.473099 
3222.000000	99.469430 
3221.000000	99.468328 
3220.000000	99.468423 
3219.000000	99.467975 
3218.000000	99.466615 
3217.000000	99.465745 
3216.000000	99.467513 
3215.000000	99.472966 
3214.000000	99.480652 
3213.000000	99.487139 
3212.000000	99.489453 
3211.000000	99.487251 
3210.000000	99.482670 
3209.000000	99.478381 
3208.000000	99.475885 
3207.000000	99.474982 
3206.000000	99.474107 
3205.000000	99.471507 
3204.000000	99.467032 
3203.000000	99.462794 
3202.000000	99.461286 
3201.000000	99.462698 
3200.000000	99.464768 
3199.000000	99.465322 
3198.000000	99.464201 
3197.000000	99.462666 
3196.000000	99.462013 
3195.000000	99.463171 
3194.000000	99.466409 
3193.000000	99.470334 
3192.000000	99.471881 
3191.000000	99.468683 
3190.000000	99.461571 
3189.000000	99.454030 
3188.000000	99.449194 
3187.000000	99.447915 
3186.000000	99.449408 
3185.000000	99.452621 
3184.000000	99.456638 
3183.000000	99.460557 
3182.000000	99.463736 
3181.000000	99.466164 
3180.000000	99.468339 
3179.000000	99.470682 
3178.000000	99.472886 
3177.000000	99.473759 
3176.000000	99.472191 
3175.000000	99.468702 
3174.000000	99.465589 
3173.000000	99.464673 
3172.000000	99.465015 
3171.000000	99.463857 
3170.000000	99.460117 
3169.000000	99.456021 
3168.000000	99.454697 
3167.000000	99.456884 
3166.000000	99.460694 
3165.000000	99.463958 
3164.000000	99.465784 
3163.000000	99.466072 
3162.000000	99.464811 
3161.000000	99.462458 
3160.000000	99.460364 
3159.000000	99.459991 
3158.000000	99.461517 
3157.000000	99.463434 
3156.000000	99.463647 
3155.000000	99.460964 
3154.000000	99.455658 
3153.000000	99.448909 
3152.000000	99.442036 
3151.000000	99.436271 
3150.000000	99.432794 
3149.000000	99.432341 
3148.000000	99.434653 
3147.000000	99.438619 
3146.000000	99.443106 
3145.000000	99.447462 
3144.000000	99.451257 
3143.000000	99.453994 
3142.000000	99.455382 
3141.000000	99.455634 
3140.000000	99.455184 
3139.000000	99.454298 
3138.000000	99.453124 
3137.000000	99.451979 
3136.000000	99.451404 
3135.000000	99.452050 
3134.000000	99.454326 
3133.000000	99.457560 
3132.000000	99.459493 
3131.000000	99.457673 
3130.000000	99.452151 
3129.000000	99.446256 
3128.000000	99.443842 
3127.000000	99.445941 
3126.000000	99.450649 
3125.000000	99.455604 
3124.000000	99.459390 
3123.000000	99.460927 
3122.000000	99.459377 
3121.000000	99.455443 
3120.000000	99.451606 
3119.000000	99.450065 
3118.000000	99.450831 
3117.000000	99.452450 
3116.000000	99.454056 
3115.000000	99.455882 
3114.000000	99.458031 
3113.000000	99.459587 
3112.000000	99.459177 
3111.000000	99.456236 
3110.000000	99.451770 
3109.000000	99.447957 
3108.000000	99.446510 
3107.000000	99.447062 
3106.000000	99.447410 
3105.000000	99.445809 
3104.000000	99.442845 
3103.000000	99.440672 
3102.000000	99.440677 
3101.000000	99.442321 
3100.000000	99.444158 
3099.000000	99.445410 
3098.000000	99.446437 
3097.000000	99.448090 
3096.000000	99.450755 
3095.000000	99.453813 
3094.000000	99.456064 
3093.000000	99.456874 
3092.000000	99.456787 
3091.000000	99.456806 
3090.000000	99.457180 
3089.000000	99.457164 
3088.000000	99.455804 
3087.000000	99.452737 
3086.000000	99.448550 
3085.000000	99.444669 
3084.000000	99.442490 
3083.000000	99.441997 
3082.000000	99.441517 
3081.000000	99.439594 
3080.000000	99.437073 
3079.000000	99.436578 
3078.000000	99.439862 
3077.000000	99.446158 
3076.000000	99.453001 
3075.000000	99.457842 
3074.000000	99.458961 
3073.000000	99.456173 
3072.000000	99.451365 
3071.000000	99.447524 
3070.000000	99.446254 
3069.000000	99.446400 
3068.000000	99.445614 
3067.000000	99.443151 
3066.000000	99.440775 
3065.000000	99.441081 
3064.000000	99.445062 
3063.000000	99.450870 
3062.000000	99.454676 
3061.000000	99.453265 
3060.000000	99.446587 
3059.000000	99.437930 
3058.000000	99.431525 
3057.000000	99.430021 
3056.000000	99.433638 
3055.000000	99.440513 
3054.000000	99.447315 
3053.000000	99.450555 
3052.000000	99.448598 
3051.000000	99.442617 
3050.000000	99.435447 
3049.000000	99.429873 
3048.000000	99.427831 
3047.000000	99.429753 
3046.000000	99.433450 
3045.000000	99.434618 
3044.000000	99.430406 
3043.000000	99.422735 
3042.000000	99.416866 
3041.000000	99.416278 
3040.000000	99.419695 
3039.000000	99.423121 
3038.000000	99.423516 
3037.000000	99.420056 
3036.000000	99.413093 
3035.000000	99.403317 
3034.000000	99.391792 
3033.000000	99.379942 
3032.000000	99.369123 
3031.000000	99.360243 
3030.000000	99.353586 
3029.000000	99.348752 
3028.000000	99.344919 
3027.000000	99.341293 
3026.000000	99.337201 
3025.000000	99.331782 
3024.000000	99.324177 
3023.000000	99.314419 
3022.000000	99.303725 
3021.000000	99.293279 
3020.000000	99.282822 
3019.000000	99.271002 
3018.000000	99.257273 
3017.000000	99.242868 
3016.000000	99.229458 
3015.000000	99.217109 
3014.000000	99.204356 
3013.000000	99.190483 
3012.000000	99.177034 
3011.000000	99.166236 
3010.000000	99.158085 
3009.000000	99.149904 
3008.000000	99.139029 
3007.000000	99.125237 
3006.000000	99.110130 
3005.000000	99.094918 
3004.000000	99.079748 
3003.000000	99.064826 
3002.000000	99.051011 
3001.000000	99.038897 
3000.000000	99.027976 
2999.000000	99.017293 
2998.000000	99.006841 
2997.000000	98.997933 
2996.000000	98.991940 
2995.000000	98.988148 
2994.000000	98.982625 
2993.000000	98.969955 
2992.000000	98.947431 
2991.000000	98.918209 
2990.000000	98.890034 
2989.000000	98.870418 
2988.000000	98.862604 
2987.000000	98.865267 
2986.000000	98.874621 
2985.000000	98.886367 
2984.000000	98.896762 
2983.000000	98.903574 
2982.000000	98.906684 
2981.000000	98.907522 
2980.000000	98.907655 
2979.000000	98.907810 
2978.000000	98.907931 
2977.000000	98.907639 
2976.000000	98.906544 
2975.000000	98.904511 
2974.000000	98.902059 
2973.000000	98.900528 
2972.000000	98.901557 
2971.000000	98.906052 
2970.000000	98.913497 
2969.000000	98.922405 
2968.000000	98.931575 
2967.000000	98.940918 
2966.000000	98.950981 
2965.000000	98.961848 
2964.000000	98.972748 
2963.000000	98.982741 
2962.000000	98.991540 
2961.000000	98.999560 
2960.000000	99.007262 
2959.000000	99.014606 
2958.000000	99.021089 
2957.000000	99.026193 
2956.000000	99.029805 
2955.000000	99.032415 
2954.000000	99.035236 
2953.000000	99.039990 
2952.000000	99.047931 
2951.000000	99.058456 
2950.000000	99.068913 
2949.000000	99.076502 
2948.000000	99.080511 
2947.000000	99.082396 
2946.000000	99.083817 
2945.000000	99.085437 
2944.000000	99.087672 
2943.000000	99.091282 
2942.000000	99.096195 
2941.000000	99.100493 
2940.000000	99.102088 
2939.000000	99.101624 
2938.000000	99.102637 
2937.000000	99.108146 
2936.000000	99.117341 
2935.000000	99.125950 
2934.000000	99.129859 
2933.000000	99.128341 
2932.000000	99.124139 
2931.000000	99.120593 
2930.000000	99.118860 
2929.000000	99.118001 
2928.000000	99.117194 
2927.000000	99.116678 
2926.000000	99.116248 
2925.000000	99.114287 
2924.000000	99.109605 
2923.000000	99.103377 
2922.000000	99.097681 
2921.000000	99.092415 
2920.000000	99.085424 
2919.000000	99.075876 
2918.000000	99.066012 
2917.000000	99.058844 
2916.000000	99.055095 
2915.000000	99.052986 
2914.000000	99.050208 
2913.000000	99.045492 
2912.000000	99.039138 
2911.000000	99.032829 
2910.000000	99.028488 
2909.000000	99.026598 
2908.000000	99.025614 
2907.000000	99.023267 
2906.000000	99.017963 
2905.000000	99.009013 
2904.000000	98.996558 
2903.000000	98.982487 
2902.000000	98.971013 
2901.000000	98.967539 
2900.000000	98.974755 
2899.000000	98.990678 
2898.000000	99.009135 
2897.000000	99.023221 
2896.000000	99.029577 
2895.000000	99.030286 
2894.000000	99.030502 
2893.000000	99.033821 
2892.000000	99.040072 
2891.000000	99.046985 
2890.000000	99.052654 
2889.000000	99.055915 
2888.000000	99.055887 
2887.000000	99.052876 
2886.000000	99.049389 
2885.000000	99.048832 
2884.000000	99.052919 
2883.000000	99.061071 
2882.000000	99.072076 
2881.000000	99.085164 
2880.000000	99.099222 
2879.000000	99.112245 
2878.000000	99.122485 
2877.000000	99.129879 
2876.000000	99.135826 
2875.000000	99.141772 
2874.000000	99.148253 
2873.000000	99.154923 
2872.000000	99.160994 
2871.000000	99.165726 
2870.000000	99.168970 
2869.000000	99.171639 
2868.000000	99.175641 
2867.000000	99.182936 
2866.000000	99.193989 
2865.000000	99.206888 
2864.000000	99.218396 
2863.000000	99.226333 
2862.000000	99.230898 
2861.000000	99.233716 
2860.000000	99.236319 
2859.000000	99.240040 
2858.000000	99.246358 
2857.000000	99.255843 
2856.000000	99.266662 
2855.000000	99.275483 
2854.000000	99.280544 
2853.000000	99.283314 
2852.000000	99.286771 
2851.000000	99.292605 
2850.000000	99.300421 
2849.000000	99.308783 
2848.000000	99.316205 
2847.000000	99.321551 
2846.000000	99.324565 
2845.000000	99.326258 
2844.000000	99.328178 
2843.000000	99.331052 
2842.000000	99.334450 
2841.000000	99.337929 
2840.000000	99.342037 
2839.000000	99.347660 
2838.000000	99.354392 
2837.000000	99.359966 
2836.000000	99.361828 
2835.000000	99.359518 
2834.000000	99.355368 
2833.000000	99.352590 
2832.000000	99.352577 
2831.000000	99.354249 
2830.000000	99.355823 
2829.000000	99.356708 
2828.000000	99.357525 
2827.000000	99.358948 
2826.000000	99.361184 
2825.000000	99.364222 
2824.000000	99.367766 
2823.000000	99.370794 
2822.000000	99.371985 
2821.000000	99.371074 
2820.000000	99.369425 
2819.000000	99.368791 
2818.000000	99.369728 
2817.000000	99.371650 
2816.000000	99.374147 
2815.000000	99.377426 
2814.000000	99.381173 
2813.000000	99.383735 
2812.000000	99.383380 
2811.000000	99.380470 
2810.000000	99.377776 
2809.000000	99.378124 
2808.000000	99.381777 
2807.000000	99.386376 
2806.000000	99.389289 
2805.000000	99.389683 
2804.000000	99.388455 
2803.000000	99.386834 
2802.000000	99.385578 
2801.000000	99.385190 
2800.000000	99.386075 
2799.000000	99.388071 
2798.000000	99.390000 
2797.000000	99.390130 
2796.000000	99.387456 
2795.000000	99.382833 
2794.000000	99.378898 
2793.000000	99.378377 
2792.000000	99.381783 
2791.000000	99.386650 
2790.000000	99.389576 
2789.000000	99.389355 
2788.000000	99.387923 
2787.000000	99.388021 
2786.000000	99.390275 
2785.000000	99.392806 
2784.000000	99.393330 
2783.000000	99.391160 
2782.000000	99.387470 
2781.000000	99.384288 
2780.000000	99.383283 
2779.000000	99.384862 
2778.000000	99.388003 
2777.000000	99.391167 
2776.000000	99.393542 
2775.000000	99.395335 
2774.000000	99.396927 
2773.000000	99.398248 
2772.000000	99.399183 
2771.000000	99.400158 
2770.000000	99.401785 
2769.000000	99.403960 
2768.000000	99.405768 
2767.000000	99.406447 
2766.000000	99.406241 
2765.000000	99.406037 
2764.000000	99.406144 
2763.000000	99.405690 
2762.000000	99.403523 
2761.000000	99.399679 
2760.000000	99.395619 
2759.000000	99.392877 
2758.000000	99.391870 
2757.000000	99.392300 
2756.000000	99.394093 
2755.000000	99.397105 
2754.000000	99.400131 
2753.000000	99.401400 
2752.000000	99.400554 
2751.000000	99.399396 
2750.000000	99.400005 
2749.000000	99.402583 
2748.000000	99.405694 
2747.000000	99.408128 
2746.000000	99.409639 
2745.000000	99.410099 
2744.000000	99.409017 
2743.000000	99.406362 
2742.000000	99.403262 
2741.000000	99.401292 
2740.000000	99.401159 
2739.000000	99.402344 
2738.000000	99.403943 
2737.000000	99.405571 
2736.000000	99.407374 
2735.000000	99.409299 
2734.000000	99.410660 
2733.000000	99.410689 
2732.000000	99.409474 
2731.000000	99.408002 
2730.000000	99.407124 
2729.000000	99.406754 
2728.000000	99.406365 
2727.000000	99.405927 
2726.000000	99.405930 
2725.000000	99.406660 
2724.000000	99.408062 
2723.000000	99.410325 
2722.000000	99.413913 
2721.000000	99.418533 
2720.000000	99.422463 
2719.000000	99.423617 
2718.000000	99.421529 
2717.000000	99.417964 
2716.000000	99.415337 
2715.000000	99.414550 
2714.000000	99.414602 
2713.000000	99.414157 
2712.000000	99.413134 
2711.000000	99.412682 
2710.000000	99.413973 
2709.000000	99.417265 
2708.000000	99.421637 
2707.000000	99.425095 
2706.000000	99.425347 
2705.000000	99.421608 
2704.000000	99.416014 
2703.000000	99.412442 
2702.000000	99.413240 
2701.000000	99.417303 
2700.000000	99.421742 
2699.000000	99.424981 
2698.000000	99.427618 
2697.000000	99.430529 
2696.000000	99.433059 
2695.000000	99.433473 
2694.000000	99.430932 
2693.000000	99.426636 
2692.000000	99.422885 
2691.000000	99.421000 
2690.000000	99.420349 
2689.000000	99.419642 
2688.000000	99.418873 
2687.000000	99.419279 
2686.000000	99.421347 
2685.000000	99.423850 
2684.000000	99.425471 
2683.000000	99.426593 
2682.000000	99.428391 
2681.000000	99.430453 
2680.000000	99.430525 
2679.000000	99.427098 
2678.000000	99.421652 
2677.000000	99.417862 
2676.000000	99.418606 
2675.000000	99.423676 
2674.000000	99.430084 
2673.000000	99.434425 
2672.000000	99.435161 
2671.000000	99.432877 
2670.000000	99.428836 
2669.000000	99.423982 
2668.000000	99.419463 
2667.000000	99.417057 
2666.000000	99.417974 
2665.000000	99.421302 
2664.000000	99.424437 
2663.000000	99.425305 
2662.000000	99.423996 
2661.000000	99.422494 
2660.000000	99.423158 
2659.000000	99.427018 
2658.000000	99.432789 
2657.000000	99.437711 
2656.000000	99.439991 
2655.000000	99.440276 
2654.000000	99.440309 
2653.000000	99.440814 
2652.000000	99.441723 
2651.000000	99.443696 
2650.000000	99.447363 
2649.000000	99.450830 
2648.000000	99.450200 
2647.000000	99.444085 
2646.000000	99.436464 
2645.000000	99.433327 
2644.000000	99.436556 
2643.000000	99.442189 
2642.000000	99.444638 
2641.000000	99.441960 
2640.000000	99.437052 
2639.000000	99.434446 
2638.000000	99.436202 
2637.000000	99.440610 
2636.000000	99.444600 
2635.000000	99.446875 
2634.000000	99.448095 
2633.000000	99.448565 
2632.000000	99.447383 
2631.000000	99.444498 
2630.000000	99.442104 
2629.000000	99.442530 
2628.000000	99.445312 
2627.000000	99.447653 
2626.000000	99.447523 
2625.000000	99.445212 
2624.000000	99.442132 
2623.000000	99.439417 
2622.000000	99.437766 
2621.000000	99.437431 
2620.000000	99.437767 
2619.000000	99.437519 
2618.000000	99.436011 
2617.000000	99.433831 
2616.000000	99.432320 
2615.000000	99.432804 
2614.000000	99.436040 
2613.000000	99.441569 
2612.000000	99.447579 
2611.000000	99.452217 
2610.000000	99.455246 
2609.000000	99.457757 
2608.000000	99.460251 
2607.000000	99.462015 
2606.000000	99.462753 
2605.000000	99.463681 
2604.000000	99.466013 
2603.000000	99.468939 
2602.000000	99.470244 
2601.000000	99.468949 
2600.000000	99.466531 
2599.000000	99.465238 
2598.000000	99.465537 
2597.000000	99.465473 
2596.000000	99.462469 
2595.000000	99.455845 
2594.000000	99.447702 
2593.000000	99.441285 
2592.000000	99.438389 
2591.000000	99.438591 
2590.000000	99.440848 
2589.000000	99.444895 
2588.000000	99.450338 
2587.000000	99.455171 
2586.000000	99.456842 
2585.000000	99.455214 
2584.000000	99.453270 
2583.000000	99.453877 
2582.000000	99.456476 
2581.000000	99.457954 
2580.000000	99.456449 
2579.000000	99.453226 
2578.000000	99.450718 
2577.000000	99.449754 
2576.000000	99.449244 
2575.000000	99.447976 
2574.000000	99.446096 
2573.000000	99.444942 
2572.000000	99.445665 
2571.000000	99.447901 
2570.000000	99.449823 
2569.000000	99.449866 
2568.000000	99.448414 
2567.000000	99.447258 
2566.000000	99.447432 
2565.000000	99.448396 
2564.000000	99.449542 
2563.000000	99.451448 
2562.000000	99.454759 
2561.000000	99.458349 
2560.000000	99.459504 
2559.000000	99.455918 
2558.000000	99.447455 
2557.000000	99.436856 
2556.000000	99.429265 
2555.000000	99.429679 
2554.000000	99.438852 
2553.000000	99.451489 
2552.000000	99.459849 
2551.000000	99.459798 
2550.000000	99.453078 
2549.000000	99.444195 
2548.000000	99.436441 
2547.000000	99.430987 
2546.000000	99.428149 
2545.000000	99.428197 
2544.000000	99.431097 
2543.000000	99.435854 
2542.000000	99.439963 
2541.000000	99.440018 
2540.000000	99.434328 
2539.000000	99.425407 
2538.000000	99.418520 
2537.000000	99.416649 
2536.000000	99.417701 
2535.000000	99.417742 
2534.000000	99.415990 
2533.000000	99.414855 
2532.000000	99.415475 
2531.000000	99.415764 
2530.000000	99.413967 
2529.000000	99.412151 
2528.000000	99.413648 
2527.000000	99.417505 
2526.000000	99.418266 
2525.000000	99.412617 
2524.000000	99.404524 
2523.000000	99.401707 
2522.000000	99.407563 
2521.000000	99.418299 
2520.000000	99.427594 
2519.000000	99.431676 
2518.000000	99.429511 
2517.000000	99.421182 
2516.000000	99.408770 
2515.000000	99.397569 
2514.000000	99.393435 
2513.000000	99.398125 
2512.000000	99.408198 
2511.000000	99.418461 
2510.000000	99.425619 
2509.000000	99.429212 
2508.000000	99.430745 
2507.000000	99.432120 
2506.000000	99.433609 
2505.000000	99.433154 
2504.000000	99.428717 
2503.000000	99.421242 
2502.000000	99.414028 
2501.000000	99.409301 
2500.000000	99.406936 
2499.000000	99.406505 
2498.000000	99.408409 
2497.000000	99.412107 
2496.000000	99.414997 
2495.000000	99.414562 
2494.000000	99.410756 
2493.000000	99.405388 
2492.000000	99.400288 
2491.000000	99.397231 
2490.000000	99.398571 
2489.000000	99.406194 
2488.000000	99.419673 
2487.000000	99.435908 
2486.000000	99.450019 
2485.000000	99.456523 
2484.000000	99.451659 
2483.000000	99.436729 
2482.000000	99.418786 
2481.000000	99.406100 
2480.000000	99.402141 
2479.000000	99.404244 
2478.000000	99.407523 
2477.000000	99.409038 
2476.000000	99.408815 
2475.000000	99.408657 
2474.000000	99.410475 
2473.000000	99.414568 
2472.000000	99.418866 
2471.000000	99.420531 
2470.000000	99.418737 
2469.000000	99.415416 
2468.000000	99.413136 
2467.000000	99.412839 
2466.000000	99.413787 
2465.000000	99.414841 
2464.000000	99.415273 
2463.000000	99.414928 
2462.000000	99.414204 
2461.000000	99.413698 
2460.000000	99.413486 
2459.000000	99.412969 
2458.000000	99.411689 
2457.000000	99.410035 
2456.000000	99.408872 
2455.000000	99.408790 
2454.000000	99.409973 
2453.000000	99.412354 
2452.000000	99.415144 
2451.000000	99.416340 
2450.000000	99.413653 
2449.000000	99.406692 
2448.000000	99.398147 
2447.000000	99.392259 
2446.000000	99.391810 
2445.000000	99.396356 
2444.000000	99.402856 
2443.000000	99.407500 
2442.000000	99.407390 
2441.000000	99.401984 
2440.000000	99.394068 
2439.000000	99.388733 
2438.000000	99.389767 
2437.000000	99.396215 
2436.000000	99.402984 
2435.000000	99.405516 
2434.000000	99.403878 
2433.000000	99.402314 
2432.000000	99.405142 
2431.000000	99.412962 
2430.000000	99.421865 
2429.000000	99.425802 
2428.000000	99.420802 
2427.000000	99.408386 
2426.000000	99.394985 
2425.000000	99.387105 
2424.000000	99.386706 
2423.000000	99.391525 
2422.000000	99.399085 
2421.000000	99.408480 
2420.000000	99.417937 
2419.000000	99.423059 
2418.000000	99.419988 
2417.000000	99.409997 
2416.000000	99.399018 
2415.000000	99.392211 
2414.000000	99.390321 
2413.000000	99.391319 
2412.000000	99.393471 
2411.000000	99.395619 
2410.000000	99.396153 
2409.000000	99.393907 
2408.000000	99.389852 
2407.000000	99.386443 
2406.000000	99.385339 
2405.000000	99.386676 
2404.000000	99.389996 
2403.000000	99.394357 
2402.000000	99.397711 
2401.000000	99.397881 
2400.000000	99.394590 
2399.000000	99.389463 
2398.000000	99.384158 
2397.000000	99.379926 
2396.000000	99.378701 
2395.000000	99.382086 
2394.000000	99.388303 
2393.000000	99.392356 
2392.000000	99.390956 
2391.000000	99.385951 
2390.000000	99.381463 
2389.000000	99.379282 
2388.000000	99.379011 
2387.000000	99.381056 
2386.000000	99.386151 
2385.000000	99.392015 
2384.000000	99.393746 
2383.000000	99.389064 
2382.000000	99.381439 
2381.000000	99.376537 
2380.000000	99.376525 
2379.000000	99.379195 
2378.000000	99.381973 
2377.000000	99.384607 
2376.000000	99.387601 
2375.000000	99.389861 
2374.000000	99.389403 
2373.000000	99.385867 
2372.000000	99.380891 
2371.000000	99.376566 
2370.000000	99.374435 
2369.000000	99.375480 
2368.000000	99.379396 
2367.000000	99.384531 
2366.000000	99.389778 
2365.000000	99.395425 
2364.000000	99.400911 
2363.000000	99.403740 
2362.000000	99.400714 
2361.000000	99.391289 
2360.000000	99.378936 
2359.000000	99.367197 
2358.000000	99.358736 
2357.000000	99.355554 
2356.000000	99.358742 
2355.000000	99.368966 
2354.000000	99.384354 
2353.000000	99.397910 
2352.000000	99.400145 
2351.000000	99.389333 
2350.000000	99.374279 
2349.000000	99.364639 
2348.000000	99.365269 
2347.000000	99.374749 
2346.000000	99.386376 
2345.000000	99.392413 
2344.000000	99.390461 
2343.000000	99.386795 
2342.000000	99.385952 
2341.000000	99.386968 
2340.000000	99.387599 
2339.000000	99.389129 
2338.000000	99.394800 
2337.000000	99.402347 
2336.000000	99.404629 
2335.000000	99.398396 
2334.000000	99.390264 
2333.000000	99.388088 
2332.000000	99.391661 
2331.000000	99.393990 
2330.000000	99.392075 
2329.000000	99.387425 
2328.000000	99.385597 
2327.000000	99.391102 
2326.000000	99.404763 
2325.000000	99.419816 
2324.000000	99.425620 
2323.000000	99.419825 
2322.000000	99.410262 
2321.000000	99.405566 
2320.000000	99.404297 
2319.000000	99.400495 
2318.000000	99.394086 
2317.000000	99.390675 
2316.000000	99.393397 
2315.000000	99.398578 
2314.000000	99.402263 
2313.000000	99.404329 
2312.000000	99.407843 
2311.000000	99.413079 
2310.000000	99.417516 
2309.000000	99.417567 
2308.000000	99.413126 
2307.000000	99.407323 
2306.000000	99.404658 
2305.000000	99.406797 
2304.000000	99.412465 
2303.000000	99.418970 
2302.000000	99.424427 
2301.000000	99.427655 
2300.000000	99.429266 
2299.000000	99.431481 
2298.000000	99.436166 
2297.000000	99.441402 
2296.000000	99.442816 
2295.000000	99.438728 
2294.000000	99.432982 
2293.000000	99.430967 
2292.000000	99.434279 
2291.000000	99.440570 
2290.000000	99.446926 
2289.000000	99.451602 
2288.000000	99.453616 
2287.000000	99.452997 
2286.000000	99.450801 
2285.000000	99.447347 
2284.000000	99.441472 
2283.000000	99.433507 
2282.000000	99.427687 
2281.000000	99.428438 
2280.000000	99.434344 
2279.000000	99.438921 
2278.000000	99.438144 
2277.000000	99.434524 
2276.000000	99.432728 
2275.000000	99.433812 
2274.000000	99.435826 
2273.000000	99.437916 
2272.000000	99.441228 
2271.000000	99.446138 
2270.000000	99.450580 
2269.000000	99.451602 
2268.000000	99.447975 
2267.000000	99.441359 
2266.000000	99.435214 
2265.000000	99.432159 
2264.000000	99.431918 
2263.000000	99.431929 
2262.000000	99.430322 
2261.000000	99.428123 
2260.000000	99.428267 
2259.000000	99.432563 
2258.000000	99.439660 
2257.000000	99.446365 
2256.000000	99.451116 
2255.000000	99.455616 
2254.000000	99.462168 
2253.000000	99.469696 
2252.000000	99.473898 
2251.000000	99.471566 
2250.000000	99.463682 
2249.000000	99.454174 
2248.000000	99.446805 
2247.000000	99.444439 
2246.000000	99.448235 
2245.000000	99.456028 
2244.000000	99.462175 
2243.000000	99.461394 
2242.000000	99.453407 
2241.000000	99.443523 
2240.000000	99.438938 
2239.000000	99.444211 
2238.000000	99.458324 
2237.000000	99.474351 
2236.000000	99.483187 
2235.000000	99.479981 
2234.000000	99.467648 
2233.000000	99.453953 
2232.000000	99.445542 
2231.000000	99.444393 
2230.000000	99.447651 
2229.000000	99.449301 
2228.000000	99.443958 
2227.000000	99.431634 
2226.000000	99.418392 
2225.000000	99.411032 
2224.000000	99.411929 
2223.000000	99.419735 
2222.000000	99.431953 
2221.000000	99.443705 
2220.000000	99.447213 
2219.000000	99.438776 
2218.000000	99.426543 
2217.000000	99.425628 
2216.000000	99.442270 
2215.000000	99.466136 
2214.000000	99.480957 
2213.000000	99.480194 
2212.000000	99.469815 
2211.000000	99.459018 
2210.000000	99.453322 
2209.000000	99.455205 
2208.000000	99.464415 
2207.000000	99.474657 
2206.000000	99.474808 
2205.000000	99.459323 
2204.000000	99.437044 
2203.000000	99.424879 
2202.000000	99.431216 
2201.000000	99.448058 
2200.000000	99.460797 
2199.000000	99.463076 
2198.000000	99.459638 
2197.000000	99.457535 
2196.000000	99.459170 
2195.000000	99.463641 
2194.000000	99.469976 
2193.000000	99.476423 
2192.000000	99.479463 
2191.000000	99.477142 
2190.000000	99.472960 
2189.000000	99.473530 
2188.000000	99.480663 
2187.000000	99.486722 
2186.000000	99.480110 
2185.000000	99.457233 
2184.000000	99.428594 
2183.000000	99.410398 
2182.000000	99.409104 
2181.000000	99.416098 
2180.000000	99.419049 
2179.000000	99.415865 
2178.000000	99.414306 
2177.000000	99.420512 
2176.000000	99.432223 
2175.000000	99.442532 
2174.000000	99.446229 
2173.000000	99.442902 
2172.000000	99.438428 
2171.000000	99.443452 
2170.000000	99.464963 
2169.000000	99.496928 
2168.000000	99.523461 
2167.000000	99.534147 
2166.000000	99.533071 
2165.000000	99.531191 
2164.000000	99.534174 
2163.000000	99.540650 
2162.000000	99.547195 
2161.000000	99.548775 
2160.000000	99.537132 
2159.000000	99.506372 
2158.000000	99.461049 
2157.000000	99.413535 
2156.000000	99.373556 
2155.000000	99.345438 
2154.000000	99.333042 
2153.000000	99.339538 
2152.000000	99.361301 
2151.000000	99.387281 
2150.000000	99.407241 
2149.000000	99.419474 
2148.000000	99.429409 
2147.000000	99.441077 
2146.000000	99.450739 
2145.000000	99.449413 
2144.000000	99.432412 
2143.000000	99.406159 
2142.000000	99.384196 
2141.000000	99.375722 
2140.000000	99.378743 
2139.000000	99.384998 
2138.000000	99.389419 
2137.000000	99.392526 
2136.000000	99.395188 
2135.000000	99.395105 
2134.000000	99.390278 
2133.000000	99.383781 
2132.000000	99.381815 
2131.000000	99.386209 
2130.000000	99.390731 
2129.000000	99.386892 
2128.000000	99.373751 
2127.000000	99.360223 
2126.000000	99.356575 
2125.000000	99.364862 
2124.000000	99.379066 
2123.000000	99.392927 
2122.000000	99.404408 
2121.000000	99.413054 
2120.000000	99.417455 
2119.000000	99.417520 
2118.000000	99.416622 
2117.000000	99.418655 
2116.000000	99.423759 
2115.000000	99.428799 
2114.000000	99.431320 
2113.000000	99.431173 
2112.000000	99.428886 
2111.000000	99.424700 
2110.000000	99.419809 
2109.000000	99.416697 
2108.000000	99.416508 
2107.000000	99.416384 
2106.000000	99.411188 
2105.000000	99.399406 
2104.000000	99.386952 
2103.000000	99.383034 
2102.000000	99.390947 
2101.000000	99.403985 
2100.000000	99.411973 
2099.000000	99.410964 
2098.000000	99.405071 
2097.000000	99.400352 
2096.000000	99.399745 
2095.000000	99.403315 
2094.000000	99.409643 
2093.000000	99.415732 
2092.000000	99.418610 
2091.000000	99.418769 
2090.000000	99.419937 
2089.000000	99.423714 
2088.000000	99.425862 
2087.000000	99.420018 
2086.000000	99.404860 
2085.000000	99.386990 
2084.000000	99.376933 
2083.000000	99.381555 
2082.000000	99.398507 
2081.000000	99.417515 
2080.000000	99.429232 
2079.000000	99.433821 
2078.000000	99.439410 
2077.000000	99.451801 
2076.000000	99.467316 
2075.000000	99.475941 
2074.000000	99.469470 
2073.000000	99.447232 
2072.000000	99.417629 
2071.000000	99.394541 
2070.000000	99.388185 
2069.000000	99.396356 
2068.000000	99.406080 
2067.000000	99.406096 
2066.000000	99.396810 
2065.000000	99.388231 
2064.000000	99.390420 
2063.000000	99.405959 
2062.000000	99.427738 
2061.000000	99.442345 
2060.000000	99.440496 
2059.000000	99.427218 
2058.000000	99.417890 
2057.000000	99.421384 
2056.000000	99.431110 
2055.000000	99.436148 
2054.000000	99.436353 
2053.000000	99.440343 
2052.000000	99.451377 
2051.000000	99.462250 
2050.000000	99.464244 
2049.000000	99.456521 
2048.000000	99.445855 
2047.000000	99.439925 
2046.000000	99.441890 
2045.000000	99.448299 
2044.000000	99.451095 
2043.000000	99.445016 
2042.000000	99.434192 
2041.000000	99.428360 
2040.000000	99.431059 
2039.000000	99.435105 
2038.000000	99.431843 
2037.000000	99.421854 
2036.000000	99.413508 
2035.000000	99.411625 
2034.000000	99.411076 
2033.000000	99.403900 
2032.000000	99.391567 
2031.000000	99.385886 
2030.000000	99.395163 
2029.000000	99.412041 
2028.000000	99.419679 
2027.000000	99.410181 
2026.000000	99.392138 
2025.000000	99.379885 
2024.000000	99.380326 
2023.000000	99.391582 
2022.000000	99.407998 
2021.000000	99.422061 
2020.000000	99.426599 
2019.000000	99.420670 
2018.000000	99.410791 
2017.000000	99.402585 
2016.000000	99.394404 
2015.000000	99.383935 
2014.000000	99.376142 
2013.000000	99.377342 
2012.000000	99.384586 
2011.000000	99.388705 
2010.000000	99.387135 
2009.000000	99.386706 
2008.000000	99.393139 
2007.000000	99.404491 
2006.000000	99.416468 
2005.000000	99.427645 
2004.000000	99.436583 
2003.000000	99.438926 
2002.000000	99.430980 
2001.000000	99.413698 
2000.000000	99.391277 
1999.000000	99.367729 
1998.000000	99.346599 
1997.000000	99.332367 
1996.000000	99.329689 
1995.000000	99.340387 
1994.000000	99.360947 
1993.000000	99.382715 
1992.000000	99.395926 
1991.000000	99.395695 
1990.000000	99.384368 
1989.000000	99.368467 
1988.000000	99.355557 
1987.000000	99.352961 
1986.000000	99.364903 
1985.000000	99.388543 
1984.000000	99.414790 
1983.000000	99.434654 
1982.000000	99.443534 
1981.000000	99.439945 
1980.000000	99.424960 
1979.000000	99.405093 
1978.000000	99.390760 
1977.000000	99.386347 
1976.000000	99.384419 
1975.000000	99.375118 
1974.000000	99.358949 
1973.000000	99.345591 
1972.000000	99.342284 
1971.000000	99.348199 
1970.000000	99.359283 
1969.000000	99.373291 
1968.000000	99.388488 
1967.000000	99.400998 
1966.000000	99.406753 
1965.000000	99.405158 
1964.000000	99.398980 
1963.000000	99.391552 
1962.000000	99.385429 
1961.000000	99.382561 
1960.000000	99.383341 
1959.000000	99.384778 
1958.000000	99.381618 
1957.000000	99.371542 
1956.000000	99.358789 
1955.000000	99.349873 
1954.000000	99.345009 
1953.000000	99.336860 
1952.000000	99.320395 
1951.000000	99.301960 
1950.000000	99.294630 
1949.000000	99.304373 
1948.000000	99.323862 
1947.000000	99.340717 
1946.000000	99.347838 
1945.000000	99.344448 
1944.000000	99.332101 
1943.000000	99.314350 
1942.000000	99.298073 
1941.000000	99.289364 
1940.000000	99.288441 
1939.000000	99.291605 
1938.000000	99.296546 
1937.000000	99.303849 
1936.000000	99.314233 
1935.000000	99.325601 
1934.000000	99.333251 
1933.000000	99.333516 
1932.000000	99.327751 
1931.000000	99.322692 
1930.000000	99.325489 
1929.000000	99.336544 
1928.000000	99.348129 
1927.000000	99.351846 
1926.000000	99.346131 
1925.000000	99.335089 
1924.000000	99.323137 
1923.000000	99.313232 
1922.000000	99.308475 
1921.000000	99.310691 
1920.000000	99.317374 
1919.000000	99.322914 
1918.000000	99.323419 
1917.000000	99.319818 
1916.000000	99.316319 
1915.000000	99.317154 
1914.000000	99.323972 
1913.000000	99.333873 
1912.000000	99.340539 
1911.000000	99.339851 
1910.000000	99.334117 
1909.000000	99.328802 
1908.000000	99.326574 
1907.000000	99.327583 
1906.000000	99.333070 
1905.000000	99.343244 
1904.000000	99.352580 
1903.000000	99.352139 
1902.000000	99.338120 
1901.000000	99.315865 
1900.000000	99.295762 
1899.000000	99.286315 
1898.000000	99.289779 
1897.000000	99.301182 
1896.000000	99.311573 
1895.000000	99.315650 
1894.000000	99.316849 
1893.000000	99.322095 
1892.000000	99.332573 
1891.000000	99.342476 
1890.000000	99.345508 
1889.000000	99.340984 
1888.000000	99.333499 
1887.000000	99.328291 
1886.000000	99.327563 
1885.000000	99.329469 
1884.000000	99.329780 
1883.000000	99.325915 
1882.000000	99.319357 
1881.000000	99.313393 
1880.000000	99.310128 
1879.000000	99.310127 
1878.000000	99.312614 
1877.000000	99.314905 
1876.000000	99.314364 
1875.000000	99.312811 
1874.000000	99.316174 
1873.000000	99.326859 
1872.000000	99.338642 
1871.000000	99.342474 
1870.000000	99.336252 
1869.000000	99.326159 
1868.000000	99.316882 
1867.000000	99.306723 
1866.000000	99.294507 
1865.000000	99.282935 
1864.000000	99.275609 
1863.000000	99.274643 
1862.000000	99.280500 
1861.000000	99.291494 
1860.000000	99.303403 
1859.000000	99.312471 
1858.000000	99.319018 
1857.000000	99.325465 
1856.000000	99.332097 
1855.000000	99.337649 
1854.000000	99.341800 
1853.000000	99.344413 
1852.000000	99.344248 
1851.000000	99.340512 
1850.000000	99.335122 
1849.000000	99.331101 
1848.000000	99.329176 
1847.000000	99.327942 
1846.000000	99.326837 
1845.000000	99.325747 
1844.000000	99.322567 
1843.000000	99.316437 
1842.000000	99.311936 
1841.000000	99.313721 
1840.000000	99.321314 
1839.000000	99.330260 
1838.000000	99.336551 
1837.000000	99.339596 
1836.000000	99.341050 
1835.000000	99.342234 
1834.000000	99.343168 
1833.000000	99.343447 
1832.000000	99.343716 
1831.000000	99.344900 
1830.000000	99.346639 
1829.000000	99.347589 
1828.000000	99.347822 
1827.000000	99.348114 
1826.000000	99.348577 
1825.000000	99.349496 
1824.000000	99.350627 
1823.000000	99.350425 
1822.000000	99.347180 
1821.000000	99.340148 
1820.000000	99.330526 
1819.000000	99.321515 
1818.000000	99.317081 
1817.000000	99.318793 
1816.000000	99.323186 
1815.000000	99.325280 
1814.000000	99.324685 
1813.000000	99.325842 
1812.000000	99.332394 
1811.000000	99.342434 
1810.000000	99.352179 
1809.000000	99.361179 
1808.000000	99.368874 
1807.000000	99.371348 
1806.000000	99.366121 
1805.000000	99.356587 
1804.000000	99.348860 
1803.000000	99.346144 
1802.000000	99.348015 
1801.000000	99.352928 
1800.000000	99.356957 
1799.000000	99.355121 
1798.000000	99.347866 
1797.000000	99.341266 
1796.000000	99.340221 
1795.000000	99.344744 
1794.000000	99.351794 
1793.000000	99.357903 
1792.000000	99.360374 
1791.000000	99.358091 
1790.000000	99.353252 
1789.000000	99.349923 
1788.000000	99.350628 
1787.000000	99.355268 
1786.000000	99.361812 
1785.000000	99.366868 
1784.000000	99.366703 
1783.000000	99.361241 
1782.000000	99.354993 
1781.000000	99.352504 
1780.000000	99.352494 
1779.000000	99.349843 
1778.000000	99.343862 
1777.000000	99.339042 
1776.000000	99.338862 
1775.000000	99.343365 
1774.000000	99.351511 
1773.000000	99.361990 
1772.000000	99.370708 
1771.000000	99.372753 
1770.000000	99.368364 
1769.000000	99.361228 
1768.000000	99.355694 
1767.000000	99.353754 
1766.000000	99.354340 
1765.000000	99.356182 
1764.000000	99.358419 
1763.000000	99.360114 
1762.000000	99.360493 
1761.000000	99.360628 
1760.000000	99.362650 
1759.000000	99.366280 
1758.000000	99.368898 
1757.000000	99.368959 
1756.000000	99.367587 
1755.000000	99.366313 
1754.000000	99.363966 
1753.000000	99.358301 
1752.000000	99.351614 
1751.000000	99.351790 
1750.000000	99.362227 
1749.000000	99.375776 
1748.000000	99.384107 
1747.000000	99.384975 
1746.000000	99.380660 
1745.000000	99.374516 
1744.000000	99.369673 
1743.000000	99.367587 
1742.000000	99.366886 
1741.000000	99.366359 
1740.000000	99.367356 
1739.000000	99.371445 
1738.000000	99.376846 
1737.000000	99.379237 
1736.000000	99.374446 
1735.000000	99.361957 
1734.000000	99.349245 
1733.000000	99.346565 
1732.000000	99.356075 
1731.000000	99.370818 
1730.000000	99.381841 
1729.000000	99.383364 
1728.000000	99.376902 
1727.000000	99.369400 
1726.000000	99.366116 
1725.000000	99.367152 
1724.000000	99.369692 
1723.000000	99.372670 
1722.000000	99.377478 
1721.000000	99.384695 
1720.000000	99.391530 
1719.000000	99.393094 
1718.000000	99.386799 
1717.000000	99.378220 
1716.000000	99.373850 
1715.000000	99.371777 
1714.000000	99.369411 
1713.000000	99.368189 
1712.000000	99.369402 
1711.000000	99.372591 
1710.000000	99.376391 
1709.000000	99.379180 
1708.000000	99.379421 
1707.000000	99.376841 
1706.000000	99.375429 
1705.000000	99.380007 
1704.000000	99.387326 
1703.000000	99.387249 
1702.000000	99.374634 
1701.000000	99.359135 
1700.000000	99.357437 
1699.000000	99.366066 
1698.000000	99.373813 
1697.000000	99.377691 
1696.000000	99.379287 
1695.000000	99.379190 
1694.000000	99.379658 
1693.000000	99.381847 
1692.000000	99.382481 
1691.000000	99.379737 
1690.000000	99.375800 
1689.000000	99.373830 
1688.000000	99.373479 
1687.000000	99.371098 
1686.000000	99.365987 
1685.000000	99.363245 
1684.000000	99.365547 
1683.000000	99.367172 
1682.000000	99.368272 
1681.000000	99.369162 
1680.000000	99.370203 
1679.000000	99.371960 
1678.000000	99.373579 
1677.000000	99.373477 
1676.000000	99.371485 
1675.000000	99.369546 
1674.000000	99.368536 
1673.000000	99.368519 
1672.000000	99.369331 
1671.000000	99.372256 
1670.000000	99.378022 
1669.000000	99.382814 
1668.000000	99.383739 
1667.000000	99.382557 
1666.000000	99.379503 
1665.000000	99.373878 
1664.000000	99.368164 
1663.000000	99.367556 
1662.000000	99.373189 
1661.000000	99.380067 
1660.000000	99.383157 
1659.000000	99.382915 
1658.000000	99.383659 
1657.000000	99.387448 
1656.000000	99.390681 
1655.000000	99.390806 
1654.000000	99.392265 
1653.000000	99.392095 
1652.000000	99.382143 
1651.000000	99.378201 
1650.000000	99.378377 
1649.000000	99.375229 
1648.000000	99.368082 
1647.000000	99.360083 
1646.000000	99.352547 
1645.000000	99.348868 
1644.000000	99.351396 
1643.000000	99.357598 
1642.000000	99.363988 
1641.000000	99.369076 
1640.000000	99.372532 
1639.000000	99.374125 
1638.000000	99.374223 
1637.000000	99.374098 
1636.000000	99.373120 
1635.000000	99.368613 
1634.000000	99.364811 
1633.000000	99.365324 
1632.000000	99.367431 
1631.000000	99.369049 
1630.000000	99.370034 
1629.000000	99.369777 
1628.000000	99.367164 
1627.000000	99.363707 
1626.000000	99.362893 
1625.000000	99.366350 
1624.000000	99.372168 
1623.000000	99.376786 
1622.000000	99.378766 
1621.000000	99.379541 
1620.000000	99.379452 
1619.000000	99.378123 
1618.000000	99.377299 
1617.000000	99.378424 
1616.000000	99.378885 
1615.000000	99.377430 
1614.000000	99.374529 
1613.000000	99.369535 
1612.000000	99.363672 
1611.000000	99.359270 
1610.000000	99.356482 
1609.000000	99.353106 
1608.000000	99.348320 
1607.000000	99.344240 
1606.000000	99.342409 
1605.000000	99.342402 
1604.000000	99.344018 
1603.000000	99.348062 
1602.000000	99.353711 
1601.000000	99.357642 
1600.000000	99.357947 
1599.000000	99.356555 
1598.000000	99.356143 
1597.000000	99.357146 
1596.000000	99.358963 
1595.000000	99.361919 
1594.000000	99.366067 
1593.000000	99.369349 
1592.000000	99.369873 
1591.000000	99.368944 
1590.000000	99.369341 
1589.000000	99.371190 
1588.000000	99.372532 
1587.000000	99.373016 
1586.000000	99.373469 
1585.000000	99.372975 
1584.000000	99.370135 
1583.000000	99.365885 
1582.000000	99.363357 
1581.000000	99.363873 
1580.000000	99.365691 
1579.000000	99.366901 
1578.000000	99.368013 
1577.000000	99.369915 
1576.000000	99.370505 
1575.000000	99.369863 
1574.000000	99.371462 
1573.000000	99.372686 
1572.000000	99.369660 
1571.000000	99.364732 
1570.000000	99.364314 
1569.000000	99.368868 
1568.000000	99.373713 
1567.000000	99.376603 
1566.000000	99.377335 
1565.000000	99.376746 
1564.000000	99.376459 
1563.000000	99.376916 
1562.000000	99.376130 
1561.000000	99.371044 
1560.000000	99.364264 
1559.000000	99.364291 
1558.000000	99.364968 
1557.000000	99.367722 
1556.000000	99.373447 
1555.000000	99.376612 
1554.000000	99.375065 
1553.000000	99.371064 
1552.000000	99.368753 
1551.000000	99.370533 
1550.000000	99.376082 
1549.000000	99.381252 
1548.000000	99.382080 
1547.000000	99.378578 
1546.000000	99.373421 
1545.000000	99.370370 
1544.000000	99.370792 
1543.000000	99.372005 
1542.000000	99.372934 
1541.000000	99.375824 
1540.000000	99.375754 
1539.000000	99.367448 
1538.000000	99.362088 
1537.000000	99.363942 
1536.000000	99.366154 
1535.000000	99.365070 
1534.000000	99.364143 
1533.000000	99.366241 
1532.000000	99.367583 
1531.000000	99.364688 
1530.000000	99.359846 
1529.000000	99.357704 
1528.000000	99.359410 
1527.000000	99.362485 
1526.000000	99.364806 
1525.000000	99.366890 
1524.000000	99.368988 
1523.000000	99.370507 
1522.000000	99.373108 
1521.000000	99.377518 
1520.000000	99.378816 
1519.000000	99.373970 
1518.000000	99.365083 
1517.000000	99.357395 
1516.000000	99.353413 
1515.000000	99.351250 
1514.000000	99.349310 
1513.000000	99.347862 
1512.000000	99.347700 
1511.000000	99.348331 
1510.000000	99.347830 
1509.000000	99.346327 
1508.000000	99.349298 
1507.000000	99.358635 
1506.000000	99.358573 
1505.000000	99.349158 
1504.000000	99.343791 
1503.000000	99.342677 
1502.000000	99.343154 
1501.000000	99.345366 
1500.000000	99.350200 
1499.000000	99.356610 
1498.000000	99.361809 
1497.000000	99.365707 
1496.000000	99.369607 
1495.000000	99.371063 
1494.000000	99.366891 
1493.000000	99.357275 
1492.000000	99.345201 
1491.000000	99.335723 
1490.000000	99.332486 
1489.000000	99.333578 
1488.000000	99.332711 
1487.000000	99.326730 
1486.000000	99.320201 
1485.000000	99.317946 
1484.000000	99.319616 
1483.000000	99.321986 
1482.000000	99.322015 
1481.000000	99.318830 
1480.000000	99.313492 
1479.000000	99.307760 
1478.000000	99.303675 
1477.000000	99.302843 
1476.000000	99.304143 
1475.000000	99.302909 
1474.000000	99.298177 
1473.000000	99.296604 
1472.000000	99.302088 
1471.000000	99.308112 
1470.000000	99.309877 
1469.000000	99.309507 
1468.000000	99.310582 
1467.000000	99.313792 
1466.000000	99.317462 
1465.000000	99.320007 
1464.000000	99.320443 
1463.000000	99.319378 
1462.000000	99.318747 
1461.000000	99.320352 
1460.000000	99.324202 
1459.000000	99.327946 
1458.000000	99.326650 
1457.000000	99.316588 
1456.000000	99.301861 
1455.000000	99.290572 
1454.000000	99.284316 
1453.000000	99.281381 
1452.000000	99.280168 
1451.000000	99.279005 
1450.000000	99.277741 
1449.000000	99.279394 
1448.000000	99.286313 
1447.000000	99.294974 
1446.000000	99.299869 
1445.000000	99.300364 
1444.000000	99.298574 
1443.000000	99.295651 
1442.000000	99.292371 
1441.000000	99.290240 
1440.000000	99.290615 
1439.000000	99.293129 
1438.000000	99.295286 
1437.000000	99.295207 
1436.000000	99.292962 
1435.000000	99.288776 
1434.000000	99.283852 
1433.000000	99.280701 
1432.000000	99.280760 
1431.000000	99.283366 
1430.000000	99.285412 
1429.000000	99.284663 
1428.000000	99.282273 
1427.000000	99.279909 
1426.000000	99.277167 
1425.000000	99.272945 
1424.000000	99.268676 
1423.000000	99.266203 
1422.000000	99.263134 
1421.000000	99.255901 
1420.000000	99.245247 
1419.000000	99.235987 
1418.000000	99.227463 
1417.000000	99.216143 
1416.000000	99.203740 
1415.000000	99.192640 
1414.000000	99.181774 
1413.000000	99.168572 
1412.000000	99.153672 
1411.000000	99.140650 
1410.000000	99.130595 
1409.000000	99.122512 
1408.000000	99.117364 
1407.000000	99.116672 
1406.000000	99.119505 
1405.000000	99.124364 
1404.000000	99.132203 
1403.000000	99.142566 
1402.000000	99.150715 
1401.000000	99.153758 
1400.000000	99.155179 
1399.000000	99.160041 
1398.000000	99.164001 
1397.000000	99.156050 
1396.000000	99.133000 
1395.000000	99.106711 
1394.000000	99.094716 
1393.000000	99.103313 
1392.000000	99.127031 
1391.000000	99.156206 
1390.000000	99.181670 
1389.000000	99.197196 
1388.000000	99.200911 
1387.000000	99.195296 
1386.000000	99.184678 
1385.000000	99.173725 
1384.000000	99.166414 
1383.000000	99.164448 
1382.000000	99.166687 
1381.000000	99.171372 
1380.000000	99.177473 
1379.000000	99.184026 
1378.000000	99.189449 
1377.000000	99.192736 
1376.000000	99.195567 
1375.000000	99.201758 
1374.000000	99.212835 
1373.000000	99.224824 
1372.000000	99.233235 
1371.000000	99.238943 
1370.000000	99.246608 
1369.000000	99.257973 
1368.000000	99.270792 
1367.000000	99.282221 
1366.000000	99.291191 
1365.000000	99.297972 
1364.000000	99.302622 
1363.000000	99.305427 
1362.000000	99.307584 
1361.000000	99.309666 
1360.000000	99.311135 
1359.000000	99.312247 
1358.000000	99.314815 
1357.000000	99.319968 
1356.000000	99.326342 
1355.000000	99.331489 
1354.000000	99.334671 
1353.000000	99.336878 
1352.000000	99.337730 
1351.000000	99.335361 
1350.000000	99.330897 
1349.000000	99.327465 
1348.000000	99.327402 
1347.000000	99.330881 
1346.000000	99.336992 
1345.000000	99.343950 
1344.000000	99.349306 
1343.000000	99.351569 
1342.000000	99.351665 
1341.000000	99.351345 
1340.000000	99.350766 
1339.000000	99.349053 
1338.000000	99.346586 
1337.000000	99.345205 
1336.000000	99.345895 
1335.000000	99.347624 
1334.000000	99.349330 
1333.000000	99.351491 
1332.000000	99.354500 
1331.000000	99.356958 
1330.000000	99.356928 
1329.000000	99.354063 
1328.000000	99.350158 
1327.000000	99.347722 
1326.000000	99.348258 
1325.000000	99.350647 
1324.000000	99.353079 
1323.000000	99.354926 
1322.000000	99.356121 
1321.000000	99.355872 
1320.000000	99.353476 
1319.000000	99.349826 
1318.000000	99.346733 
1317.000000	99.345017 
1316.000000	99.343993 
1315.000000	99.342695 
1314.000000	99.340840 
1313.000000	99.339028 
1312.000000	99.338320 
1311.000000	99.339436 
1310.000000	99.342019 
1309.000000	99.344590 
1308.000000	99.345523 
1307.000000	99.344074 
1306.000000	99.341132 
1305.000000	99.338439 
1304.000000	99.338076 
1303.000000	99.341139 
1302.000000	99.346682 
1301.000000	99.352148 
1300.000000	99.355275 
1299.000000	99.355338 
1298.000000	99.352815 
1297.000000	99.348710 
1296.000000	99.344304 
1295.000000	99.341262 
1294.000000	99.340891 
1293.000000	99.343040 
1292.000000	99.345659 
1291.000000	99.345719 
1290.000000	99.341608 
1289.000000	99.335157 
1288.000000	99.330336 
1287.000000	99.329132 
1286.000000	99.329375 
1285.000000	99.327799 
1284.000000	99.324307 
1283.000000	99.321358 
1282.000000	99.319969 
1281.000000	99.318644 
1280.000000	99.316205 
1279.000000	99.313392 
1278.000000	99.310634 
1277.000000	99.306426 
1276.000000	99.299200 
1275.000000	99.289949 
1274.000000	99.281583 
1273.000000	99.276334 
1272.000000	99.274411 
1271.000000	99.274103 
1270.000000	99.272482 
1269.000000	99.267432 
1268.000000	99.260038 
1267.000000	99.253636 
1266.000000	99.249318 
1265.000000	99.244247 
1264.000000	99.235713 
1263.000000	99.224845 
1262.000000	99.214611 
1261.000000	99.205953 
1260.000000	99.198181 
1259.000000	99.191872 
1258.000000	99.188187 
1257.000000	99.186269 
1256.000000	99.183812 
1255.000000	99.180067 
1254.000000	99.176208 
1253.000000	99.172960 
1252.000000	99.169926 
1251.000000	99.167602 
1250.000000	99.167967 
1249.000000	99.172398 
1248.000000	99.180345 
1247.000000	99.189904 
1246.000000	99.197747 
1245.000000	99.199013 
1244.000000	99.190432 
1243.000000	99.175317 
1242.000000	99.163556 
1241.000000	99.164011 
1240.000000	99.176713 
1239.000000	99.193082 
1238.000000	99.203358 
1237.000000	99.203414 
1236.000000	99.195373 
1235.000000	99.183726 
1234.000000	99.171735 
1233.000000	99.160714 
1232.000000	99.151363 
1231.000000	99.144519 
1230.000000	99.140215 
1229.000000	99.136936 
1228.000000	99.132974 
1227.000000	99.128644 
1226.000000	99.126243 
1225.000000	99.127138 
1224.000000	99.129378 
1223.000000	99.129054 
1222.000000	99.124235 
1221.000000	99.117170 
1220.000000	99.112304 
1219.000000	99.112201 
1218.000000	99.115283 
1217.000000	99.117375 
1216.000000	99.115316 
1215.000000	99.109208 
1214.000000	99.101780 
1213.000000	99.095838 
1212.000000	99.091950 
1211.000000	99.087889 
1210.000000	99.080668 
1209.000000	99.069749 
1208.000000	99.058070 
1207.000000	99.049256 
1206.000000	99.043949 
1205.000000	99.039488 
1204.000000	99.032801 
1203.000000	99.022552 
1202.000000	99.008760 
1201.000000	98.992085 
1200.000000	98.974407 
1199.000000	98.958870 
1198.000000	98.947701 
1197.000000	98.940257 
1196.000000	98.933972 
1195.000000	98.926641 
1194.000000	98.917177 
1193.000000	98.904855 
1192.000000	98.889244 
1191.000000	98.871092 
1190.000000	98.852585 
1189.000000	98.836431 
1188.000000	98.824599 
1187.000000	98.817130 
1186.000000	98.811522 
1185.000000	98.803891 
1184.000000	98.791510 
1183.000000	98.774287 
1182.000000	98.754070 
1181.000000	98.733374 
1180.000000	98.714881 
1179.000000	98.700609 
1178.000000	98.689985 
1177.000000	98.679418 
1176.000000	98.665299 
1175.000000	98.647379 
1174.000000	98.628415 
1173.000000	98.610803 
1172.000000	98.594885 
1171.000000	98.580257 
1170.000000	98.566912 
1169.000000	98.554534 
1168.000000	98.541972 
1167.000000	98.528360 
1166.000000	98.514395 
1165.000000	98.502129 
1164.000000	98.493861 
1163.000000	98.491210 
1162.000000	98.494402 
1161.000000	98.501780 
1160.000000	98.510301 
1159.000000	98.517194 
1158.000000	98.521225 
1157.000000	98.522027 
1156.000000	98.518418 
1155.000000	98.508318 
1154.000000	98.490952 
1153.000000	98.468697 
1152.000000	98.445938 
1151.000000	98.425959 
1150.000000	98.409214 
1149.000000	98.394338 
1148.000000	98.379754 
1147.000000	98.363773 
1146.000000	98.344455 
1145.000000	98.321175 
1144.000000	98.296366 
1143.000000	98.274428 
1142.000000	98.258182 
1141.000000	98.246821 
1140.000000	98.237174 
1139.000000	98.225920 
1138.000000	98.210728 
1137.000000	98.191081 
1136.000000	98.169059 
1135.000000	98.148324 
1134.000000	98.131078 
1133.000000	98.116172 
1132.000000	98.100634 
1131.000000	98.082509 
1130.000000	98.061847 
1129.000000	98.039699 
1128.000000	98.017007 
1127.000000	97.994255 
1126.000000	97.971676 
1125.000000	97.949779 
1124.000000	97.929461 
1123.000000	97.910960 
1122.000000	97.892811 
1121.000000	97.872962 
1120.000000	97.851223 
1119.000000	97.829444 
1118.000000	97.808737 
1117.000000	97.787693 
1116.000000	97.764292 
1115.000000	97.738649 
1114.000000	97.712703 
1113.000000	97.687703 
1112.000000	97.663365 
1111.000000	97.639571 
1110.000000	97.617481 
1109.000000	97.597905 
1108.000000	97.579221 
1107.000000	97.557896 
1106.000000	97.532154 
1105.000000	97.504471 
1104.000000	97.479087 
1103.000000	97.457420 
1102.000000	97.437797 
1101.000000	97.419530 
1100.000000	97.405165 
1099.000000	97.395392 
1098.000000	97.386745 
1097.000000	97.375534 
1096.000000	97.362642 
1095.000000	97.350891 
1094.000000	97.339049 
1093.000000	97.322257 
1092.000000	97.298027 
1091.000000	97.268101 
1090.000000	97.234075 
1089.000000	97.194964 
1088.000000	97.150677 
1087.000000	97.105218 
1086.000000	97.064369 
1085.000000	97.031253 
1084.000000	97.004840 
1083.000000	96.981208 
1082.000000	96.955924 
1081.000000	96.927143 
1080.000000	96.896964 
1079.000000	96.868543 
1078.000000	96.842268 
1077.000000	96.816705 
1076.000000	96.792623 
1075.000000	96.773239 
1074.000000	96.760371 
1073.000000	96.752371 
1072.000000	96.744507 
1071.000000	96.728062 
1070.000000	96.691243 
1069.000000	96.628069 
1068.000000	96.548986 
1067.000000	96.478120 
1066.000000	96.435354 
1065.000000	96.421438 
1064.000000	96.421119 
1063.000000	96.416869 
1062.000000	96.397779 
1061.000000	96.360421 
1060.000000	96.307708 
1059.000000	96.248105 
1058.000000	96.192554 
1057.000000	96.148982 
1056.000000	96.118052 
1055.000000	96.092822 
1054.000000	96.063074 
1053.000000	96.022822 
1052.000000	95.974975 
1051.000000	95.927541 
1050.000000	95.885373 
1049.000000	95.847900 
1048.000000	95.814025 
1047.000000	95.784437 
1046.000000	95.758141 
1045.000000	95.731113 
1044.000000	95.700673 
1043.000000	95.668990 
1042.000000	95.640541 
1041.000000	95.617305 
1040.000000	95.597767 
1039.000000	95.579924 
1038.000000	95.564387 
1037.000000	95.554565 
1036.000000	95.553606 
1035.000000	95.561162 
1034.000000	95.574004 
1033.000000	95.589169 
1032.000000	95.603668 
1031.000000	95.611357 
1030.000000	95.606024 
1029.000000	95.591322 
1028.000000	95.582976 
1027.000000	95.595040 
1026.000000	95.625133 
1025.000000	95.657825 
1024.000000	95.680986 
1023.000000	95.694020 
1022.000000	95.702123 
1021.000000	95.708859 
1020.000000	95.714959 
1019.000000	95.719389 
1018.000000	95.720108 
1017.000000	95.716877 
1016.000000	95.713747 
1015.000000	95.715950 
1014.000000	95.724448 
1013.000000	95.736235 
1012.000000	95.748931 
1011.000000	95.761635 
1010.000000	95.772696 
1009.000000	95.781114 
1008.000000	95.789667 
1007.000000	95.802565 
1006.000000	95.820384 
1005.000000	95.841045 
1004.000000	95.864672 
1003.000000	95.892599 
1002.000000	95.922196 
1001.000000	95.948158 
1000.000000	95.969430 
999.000000	 95.989946 
998.000000	 96.011658 
997.000000	 96.031714 
996.000000	 96.048267 
995.000000	 96.065034 
994.000000	 96.087761 
993.000000	 96.118532 
992.000000	 96.154478 
991.000000	 96.189497 
990.000000	 96.217097 
989.000000	 96.234986 
988.000000	 96.247936 
987.000000	 96.263717 
986.000000	 96.285878 
985.000000	 96.312785 
984.000000	 96.342910 
983.000000	 96.377045 
982.000000	 96.415153 
981.000000	 96.455162 
980.000000	 96.495783 
979.000000	 96.537008 
978.000000	 96.577286 
977.000000	 96.614094 
976.000000	 96.648431 
975.000000	 96.685202 
974.000000	 96.727552 
973.000000	 96.773729 
972.000000	 96.820720 
971.000000	 96.867876 
970.000000	 96.915569 
969.000000	 96.963188 
968.000000	 97.010033 
967.000000	 97.055592 
966.000000	 97.097421 
965.000000	 97.131554 
964.000000	 97.157394 
963.000000	 97.180458 
962.000000	 97.207888 
961.000000	 97.241801 
960.000000	 97.278182 
959.000000	 97.311058 
958.000000	 97.336729 
957.000000	 97.355648 
956.000000	 97.372222 
955.000000	 97.392265 
954.000000	 97.418841 
953.000000	 97.449992 
952.000000	 97.480626 
951.000000	 97.506246 
950.000000	 97.525124 
949.000000	 97.538222 
948.000000	 97.548129 
947.000000	 97.558064 
946.000000	 97.571204 
945.000000	 97.589769 
944.000000	 97.613017 
943.000000	 97.635484 
942.000000	 97.649376 
941.000000	 97.651448 
940.000000	 97.647175 
939.000000	 97.646016 
938.000000	 97.652176 
937.000000	 97.661397 
936.000000	 97.666737 
935.000000	 97.665878 
934.000000	 97.662916 
933.000000	 97.664746 
932.000000	 97.675564 
931.000000	 97.692728 
930.000000	 97.707580 
929.000000	 97.712642 
928.000000	 97.709146 
927.000000	 97.706511 
926.000000	 97.713703 
925.000000	 97.731464 
924.000000	 97.752247 
923.000000	 97.765885 
922.000000	 97.766115 
921.000000	 97.754676 
920.000000	 97.740196 
919.000000	 97.731250 
918.000000	 97.729184 
917.000000	 97.728586 
916.000000	 97.724793 
915.000000	 97.718927 
914.000000	 97.715151 
913.000000	 97.715566 
912.000000	 97.719565 
911.000000	 97.726369 
910.000000	 97.735916 
909.000000	 97.747793 
908.000000	 97.760932 
907.000000	 97.774498 
906.000000	 97.788443 
905.000000	 97.803331 
904.000000	 97.820051 
903.000000	 97.839778 
902.000000	 97.864144 
901.000000	 97.894981 
900.000000	 97.932477 
899.000000	 97.972715 
898.000000	 98.008539 
897.000000	 98.034829 
896.000000	 98.052619 
895.000000	 98.067026 
894.000000	 98.082143 
893.000000	 98.099364 
892.000000	 98.119389 
891.000000	 98.142968 
890.000000	 98.169362 
889.000000	 98.196332 
888.000000	 98.222198 
887.000000	 98.246051 
886.000000	 98.265540 
885.000000	 98.276893 
884.000000	 98.279102 
883.000000	 98.277145 
882.000000	 98.279020 
881.000000	 98.289124 
880.000000	 98.305541 
879.000000	 98.323948 
878.000000	 98.342865 
877.000000	 98.363469 
876.000000	 98.384164 
875.000000	 98.397730 
874.000000	 98.397044 
873.000000	 98.384271 
872.000000	 98.371918 
871.000000	 98.372496 
870.000000	 98.386967 
869.000000	 98.404479 
868.000000	 98.413831 
867.000000	 98.414844 
866.000000	 98.418638 
865.000000	 98.436814 
864.000000	 98.470136 
863.000000	 98.507580 
862.000000	 98.536076 
861.000000	 98.550383 
860.000000	 98.553922 
859.000000	 98.553626 
858.000000	 98.556886 
857.000000	 98.570471 
856.000000	 98.596254 
855.000000	 98.626761 
854.000000	 98.649713 
853.000000	 98.659668 
852.000000	 98.662037 
851.000000	 98.663974 
850.000000	 98.665516 
849.000000	 98.663111 
848.000000	 98.658271 
847.000000	 98.657510 
846.000000	 98.664574 
845.000000	 98.676983 
844.000000	 98.690185 
843.000000	 98.701258 
842.000000	 98.707963 
841.000000	 98.707699 
840.000000	 98.699776 
839.000000	 98.687668 
838.000000	 98.677178 
837.000000	 98.671688 
836.000000	 98.669447 
835.000000	 98.666378 
834.000000	 98.662134 
833.000000	 98.661719 
832.000000	 98.668407 
831.000000	 98.676393 
830.000000	 98.675894 
829.000000	 98.667143 
828.000000	 98.662900 
827.000000	 98.671954 
826.000000	 98.685284 
825.000000	 98.686694 
824.000000	 98.674411 
823.000000	 98.662883 
822.000000	 98.663865 
821.000000	 98.674931 
820.000000	 98.686937 
819.000000	 98.693748 
818.000000	 98.693196 
817.000000	 98.685596 
816.000000	 98.673810 
815.000000	 98.660458 
814.000000	 98.643318 
813.000000	 98.617445 
812.000000	 98.583399 
811.000000	 98.548878 
810.000000	 98.519308 
809.000000	 98.490051 
808.000000	 98.450739 
807.000000	 98.394599 
806.000000	 98.321577 
805.000000	 98.236048 
804.000000	 98.145949 
803.000000	 98.062444 
802.000000	 97.995094 
801.000000	 97.946096 
800.000000	 97.911031 
799.000000	 97.885178 
798.000000	 97.868279 
797.000000	 97.864149 
796.000000	 97.876441 
795.000000	 97.903896 
794.000000	 97.939608 
793.000000	 97.975572 
792.000000	 98.006317 
791.000000	 98.026710 
790.000000	 98.030150 
789.000000	 98.014486 
788.000000	 97.988559 
787.000000	 97.966444 
786.000000	 97.953477 
785.000000	 97.942531 
784.000000	 97.925668 
783.000000	 97.904006 
782.000000	 97.883212 
781.000000	 97.864894 
780.000000	 97.847578 
779.000000	 97.832973 
778.000000	 97.826186 
777.000000	 97.831108 
776.000000	 97.848675 
775.000000	 97.877380 
774.000000	 97.912163 
773.000000	 97.945381 
772.000000	 97.972825 
771.000000	 97.997017 
770.000000	 98.020897 
769.000000	 98.040411 
768.000000	 98.048447 
767.000000	 98.045648 
766.000000	 98.041790 
765.000000	 98.044639 
764.000000	 98.051719 
763.000000	 98.055438 
762.000000	 98.053161 
761.000000	 98.049248 
760.000000	 98.048975 
759.000000	 98.053374 
758.000000	 98.059448 
757.000000	 98.063601 
756.000000	 98.065219 
755.000000	 98.068353 
754.000000	 98.079111 
753.000000	 98.099496 
752.000000	 98.124104 
751.000000	 98.143930 
750.000000	 98.153258 
749.000000	 98.152407 
748.000000	 98.145639 
747.000000	 98.139245 
746.000000	 98.140571 
745.000000	 98.153792 
744.000000	 98.174090 
743.000000	 98.189342 
742.000000	 98.191474 
741.000000	 98.185085 
740.000000	 98.182503 
739.000000	 98.191842 
738.000000	 98.211760 
737.000000	 98.235084 
736.000000	 98.253668 
735.000000	 98.262424 
734.000000	 98.264669 
733.000000	 98.272382 
732.000000	 98.294459 
731.000000	 98.323421 
730.000000	 98.340221 
729.000000	 98.334715 
728.000000	 98.316790 
727.000000	 98.303952 
726.000000	 98.302429 
725.000000	 98.306639 
724.000000	 98.312440 
723.000000	 98.322129 
722.000000	 98.336838 
721.000000	 98.351244 
720.000000	 98.358102 
719.000000	 98.354447 
718.000000	 98.342403 
717.000000	 98.327525 
716.000000	 98.316712 
715.000000	 98.314078 
714.000000	 98.317574 
713.000000	 98.321644 
712.000000	 98.323143 
711.000000	 98.321957 
710.000000	 98.317458 
709.000000	 98.308405 
708.000000	 98.296627 
707.000000	 98.287420 
706.000000	 98.283714 
705.000000	 98.283692 
704.000000	 98.284053 
703.000000	 98.280406 
702.000000	 98.266204 
701.000000	 98.237124 
700.000000	 98.196108 
699.000000	 98.151146 
698.000000	 98.106093 
697.000000	 98.058656 
696.000000	 98.009003 
695.000000	 97.963756 
694.000000	 97.932320 
693.000000	 97.922645 
692.000000	 97.939173 
691.000000	 97.980088 
690.000000	 98.033244 
689.000000	 98.081434 
688.000000	 98.115272 
687.000000	 98.136929 
686.000000	 98.151543 
685.000000	 98.159528 
684.000000	 98.159492 
683.000000	 98.155512 
682.000000	 98.157241 
681.000000	 98.173131 
680.000000	 98.202413 
679.000000	 98.232171 
678.000000	 98.243610 
677.000000	 98.225559 
676.000000	 98.190494 
675.000000	 98.169012 
674.000000	 98.177605 
673.000000	 98.200977 
672.000000	 98.215097 
671.000000	 98.217980 
670.000000	 98.228587 
669.000000	 98.255216 
668.000000	 98.259831 
667.000000	 98.219716 
666.000000	 98.189186 
665.000000	 98.190722 
664.000000	 98.207550 
663.000000	 98.220298 
662.000000	 98.221142 
661.000000	 98.220228 
660.000000	 98.234178 
659.000000	 98.260954 
658.000000	 98.272299 
657.000000	 98.241469 
656.000000	 98.180295 
655.000000	 98.131270 
654.000000	 98.115063 
653.000000	 98.107707 
652.000000	 98.080921 
651.000000	 98.039830 
650.000000	 98.009343 

