4000.000000	99.522829 
3999.000000	99.526702 
3998.000000	99.528710 
3997.000000	99.527136 
3996.000000	99.522028 
3995.000000	99.515470 
3994.000000	99.510565 
3993.000000	99.509555 
3992.000000	99.512322 
3991.000000	99.516562 
3990.000000	99.519666 
3989.000000	99.520758 
3988.000000	99.521046 
3987.000000	99.522261 
3986.000000	99.524935 
3985.000000	99.528132 
3984.000000	99.530429 
3983.000000	99.530854 
3982.000000	99.529198 
3981.000000	99.525881 
3980.000000	99.521495 
3979.000000	99.516569 
3978.000000	99.511993 
3977.000000	99.509443 
3976.000000	99.510741 
3975.000000	99.516289 
3974.000000	99.524177 
3973.000000	99.531099 
3972.000000	99.534391 
3971.000000	99.533626 
3970.000000	99.530482 
3969.000000	99.527155 
3968.000000	99.524877 
3967.000000	99.523574 
3966.000000	99.522774 
3965.000000	99.522673 
3964.000000	99.523774 
3963.000000	99.525487 
3962.000000	99.525717 
3961.000000	99.522451 
3960.000000	99.515781 
3959.000000	99.508338 
3958.000000	99.503365 
3957.000000	99.502229 
3956.000000	99.504036 
3955.000000	99.507060 
3954.000000	99.510290 
3953.000000	99.513476 
3952.000000	99.516220 
3951.000000	99.517847 
3950.000000	99.517928 
3949.000000	99.517015 
3948.000000	99.516432 
3947.000000	99.516969 
3946.000000	99.518288 
3945.000000	99.519502 
3944.000000	99.520039 
3943.000000	99.519570 
3942.000000	99.518184 
3941.000000	99.516496 
3940.000000	99.514651 
3939.000000	99.511542 
3938.000000	99.505748 
3937.000000	99.497482 
3936.000000	99.489663 
3935.000000	99.486301 
3934.000000	99.489722 
3933.000000	99.498724 
3932.000000	99.509117 
3931.000000	99.516142 
3930.000000	99.517161 
3929.000000	99.513409 
3928.000000	99.509088 
3927.000000	99.508236 
3926.000000	99.512076 
3925.000000	99.517953 
3924.000000	99.521141 
3923.000000	99.519007 
3922.000000	99.512852 
3921.000000	99.506472 
3920.000000	99.503165 
3919.000000	99.504006 
3918.000000	99.508218 
3917.000000	99.514091 
3916.000000	99.519741 
3915.000000	99.523777 
3914.000000	99.526057 
3913.000000	99.527350 
3912.000000	99.528160 
3911.000000	99.528731 
3910.000000	99.529707 
3909.000000	99.532050 
3908.000000	99.535997 
3907.000000	99.539350 
3906.000000	99.537579 
3905.000000	99.526514 
3904.000000	99.506494 
3903.000000	99.484887 
3902.000000	99.471926 
3901.000000	99.472910 
3900.000000	99.484833 
3899.000000	99.499092 
3898.000000	99.508451 
3897.000000	99.511517 
3896.000000	99.510914 
3895.000000	99.509600 
3894.000000	99.508845 
3893.000000	99.507826 
3892.000000	99.504894 
3891.000000	99.499529 
3890.000000	99.493187 
3889.000000	99.487625 
3888.000000	99.484240 
3887.000000	99.484515 
3886.000000	99.488357 
3885.000000	99.492742 
3884.000000	99.494348 
3883.000000	99.493183 
3882.000000	99.492436 
3881.000000	99.494547 
3880.000000	99.498407 
3879.000000	99.500504 
3878.000000	99.499132 
3877.000000	99.496184 
3876.000000	99.495519 
3875.000000	99.498284 
3874.000000	99.500283 
3873.000000	99.495971 
3872.000000	99.485431 
3871.000000	99.475173 
3870.000000	99.471400 
3869.000000	99.474274 
3868.000000	99.479469 
3867.000000	99.483894 
3866.000000	99.488434 
3865.000000	99.493975 
3864.000000	99.497275 
3863.000000	99.495250 
3862.000000	99.489981 
3861.000000	99.487114 
3860.000000	99.490348 
3859.000000	99.498038 
3858.000000	99.504378 
3857.000000	99.504272 
3856.000000	99.497538 
3855.000000	99.491044 
3854.000000	99.490803 
3853.000000	99.495007 
3852.000000	99.499772 
3851.000000	99.503955 
3850.000000	99.507065 
3849.000000	99.509779 
3848.000000	99.512406 
3847.000000	99.514442 
3846.000000	99.514913 
3845.000000	99.512724 
3844.000000	99.508049 
3843.000000	99.503230 
3842.000000	99.500181 
3841.000000	99.498706 
3840.000000	99.497774 
3839.000000	99.496824 
3838.000000	99.496010 
3837.000000	99.495707 
3836.000000	99.496221 
3835.000000	99.498306 
3834.000000	99.502696 
3833.000000	99.509428 
3832.000000	99.516999 
3831.000000	99.522519 
3830.000000	99.524164 
3829.000000	99.522655 
3828.000000	99.520486 
3827.000000	99.520046 
3826.000000	99.521340 
3825.000000	99.521723 
3824.000000	99.518842 
3823.000000	99.514326 
3822.000000	99.511965 
3821.000000	99.512283 
3820.000000	99.512510 
3819.000000	99.510954 
3818.000000	99.508360 
3817.000000	99.507765 
3816.000000	99.511059 
3815.000000	99.515573 
3814.000000	99.517143 
3813.000000	99.515485 
3812.000000	99.514129 
3811.000000	99.515965 
3810.000000	99.520262 
3809.000000	99.524290 
3808.000000	99.526400 
3807.000000	99.526377 
3806.000000	99.523566 
3805.000000	99.517118 
3804.000000	99.508576 
3803.000000	99.503642 
3802.000000	99.507381 
3801.000000	99.516855 
3800.000000	99.524064 
3799.000000	99.524664 
3798.000000	99.520377 
3797.000000	99.515907 
3796.000000	99.514365 
3795.000000	99.515548 
3794.000000	99.517692 
3793.000000	99.519826 
3792.000000	99.521866 
3791.000000	99.523623 
3790.000000	99.524802 
3789.000000	99.525751 
3788.000000	99.527264 
3787.000000	99.529195 
3786.000000	99.530153 
3785.000000	99.528926 
3784.000000	99.525924 
3783.000000	99.522772 
3782.000000	99.521135 
3781.000000	99.521828 
3780.000000	99.523966 
3779.000000	99.525365 
3778.000000	99.524511 
3777.000000	99.521687 
3776.000000	99.518314 
3775.000000	99.515973 
3774.000000	99.515032 
3773.000000	99.514423 
3772.000000	99.513366 
3771.000000	99.512403 
3770.000000	99.511738 
3769.000000	99.510435 
3768.000000	99.508377 
3767.000000	99.506667 
3766.000000	99.506254 
3765.000000	99.506557 
3764.000000	99.505703 
3763.000000	99.502735 
3762.000000	99.499465 
3761.000000	99.498987 
3760.000000	99.501606 
3759.000000	99.504405 
3758.000000	99.505481 
3757.000000	99.505642 
3756.000000	99.505566 
3755.000000	99.504505 
3754.000000	99.501704 
3753.000000	99.497647 
3752.000000	99.492946 
3751.000000	99.487419 
3750.000000	99.483079 
3749.000000	99.483390 
3748.000000	99.487889 
3747.000000	99.492239 
3746.000000	99.493683 
3745.000000	99.493095 
3744.000000	99.493106 
3743.000000	99.494412 
3742.000000	99.494458 
3741.000000	99.490832 
3740.000000	99.483667 
3739.000000	99.474261 
3738.000000	99.465622 
3737.000000	99.462560 
3736.000000	99.467560 
3735.000000	99.477147 
3734.000000	99.484798 
3733.000000	99.487727 
3732.000000	99.487980 
3731.000000	99.488025 
3730.000000	99.488135 
3729.000000	99.487807 
3728.000000	99.488262 
3727.000000	99.490645 
3726.000000	99.492585 
3725.000000	99.490186 
3724.000000	99.483708 
3723.000000	99.478141 
3722.000000	99.477386 
3721.000000	99.480964 
3720.000000	99.484937 
3719.000000	99.485263 
3718.000000	99.480979 
3717.000000	99.473501 
3716.000000	99.464383 
3715.000000	99.454335 
3714.000000	99.444153 
3713.000000	99.435942 
3712.000000	99.431143 
3711.000000	99.429191 
3710.000000	99.427952 
3709.000000	99.424909 
3708.000000	99.419058 
3707.000000	99.411012 
3706.000000	99.402160 
3705.000000	99.393745 
3704.000000	99.386109 
3703.000000	99.377763 
3702.000000	99.365273 
3701.000000	99.346350 
3700.000000	99.322534 
3699.000000	99.297530 
3698.000000	99.274737 
3697.000000	99.255837 
3696.000000	99.240145 
3695.000000	99.225992 
3694.000000	99.213208 
3693.000000	99.203313 
3692.000000	99.196630 
3691.000000	99.190913 
3690.000000	99.182873 
3689.000000	99.171896 
3688.000000	99.160553 
3687.000000	99.150233 
3686.000000	99.140369 
3685.000000	99.132605 
3684.000000	99.131072 
3683.000000	99.137675 
3682.000000	99.148175 
3681.000000	99.153169 
3680.000000	99.143510 
3679.000000	99.115332 
3678.000000	99.074084 
3677.000000	99.037310 
3676.000000	99.024999 
3675.000000	99.037915 
3674.000000	99.056607 
3673.000000	99.064558 
3672.000000	99.060617 
3671.000000	99.056187 
3670.000000	99.060644 
3669.000000	99.071818 
3668.000000	99.082739 
3667.000000	99.090135 
3666.000000	99.094575 
3665.000000	99.097297 
3664.000000	99.098525 
3663.000000	99.098369 
3662.000000	99.097528 
3661.000000	99.096200 
3660.000000	99.093919 
3659.000000	99.091623 
3658.000000	99.093564 
3657.000000	99.104440 
3656.000000	99.123208 
3655.000000	99.142558 
3654.000000	99.155245 
3653.000000	99.159314 
3652.000000	99.157710 
3651.000000	99.155479 
3650.000000	99.156691 
3649.000000	99.163811 
3648.000000	99.177023 
3647.000000	99.192529 
3646.000000	99.205861 
3645.000000	99.216514 
3644.000000	99.227867 
3643.000000	99.243379 
3642.000000	99.263504 
3641.000000	99.284793 
3640.000000	99.302704 
3639.000000	99.314758 
3638.000000	99.321420 
3637.000000	99.325236 
3636.000000	99.329120 
3635.000000	99.334447 
3634.000000	99.339220 
3633.000000	99.339168 
3632.000000	99.332367 
3631.000000	99.323286 
3630.000000	99.321180 
3629.000000	99.329499 
3628.000000	99.340299 
3627.000000	99.345910 
3626.000000	99.347164 
3625.000000	99.349542 
3624.000000	99.356773 
3623.000000	99.368302 
3622.000000	99.381351 
3621.000000	99.394168 
3620.000000	99.404691 
3619.000000	99.408738 
3618.000000	99.404246 
3617.000000	99.395222 
3616.000000	99.388467 
3615.000000	99.388270 
3614.000000	99.392588 
3613.000000	99.394751 
3612.000000	99.390820 
3611.000000	99.384067 
3610.000000	99.381303 
3609.000000	99.386033 
3608.000000	99.394791 
3607.000000	99.401937 
3606.000000	99.406785 
3605.000000	99.413027 
3604.000000	99.423252 
3603.000000	99.435636 
3602.000000	99.445709 
3601.000000	99.450858 
3600.000000	99.451388 
3599.000000	99.448563 
3598.000000	99.443680 
3597.000000	99.438466 
3596.000000	99.435219 
3595.000000	99.435933 
3594.000000	99.439934 
3593.000000	99.444056 
3592.000000	99.445221 
3591.000000	99.442419 
3590.000000	99.437721 
3589.000000	99.434985 
3588.000000	99.435805 
3587.000000	99.436990 
3586.000000	99.435148 
3585.000000	99.431308 
3584.000000	99.429942 
3583.000000	99.434134 
3582.000000	99.443095 
3581.000000	99.452803 
3580.000000	99.459005 
3579.000000	99.459879 
3578.000000	99.456400 
3577.000000	99.451394 
3576.000000	99.447630 
3575.000000	99.446515 
3574.000000	99.447273 
3573.000000	99.447616 
3572.000000	99.445805 
3571.000000	99.441941 
3570.000000	99.437193 
3569.000000	99.432823 
3568.000000	99.429512 
3567.000000	99.427154 
3566.000000	99.425953 
3565.000000	99.427127 
3564.000000	99.431948 
3563.000000	99.440800 
3562.000000	99.452268 
3561.000000	99.462824 
3560.000000	99.468629 
3559.000000	99.468318 
3558.000000	99.464343 
3557.000000	99.461102 
3556.000000	99.461471 
3555.000000	99.464763 
3554.000000	99.467826 
3553.000000	99.467503 
3552.000000	99.462815 
3551.000000	99.455225 
3550.000000	99.446951 
3549.000000	99.439598 
3548.000000	99.434512 
3547.000000	99.432902 
3546.000000	99.435058 
3545.000000	99.439031 
3544.000000	99.441743 
3543.000000	99.442161 
3542.000000	99.442758 
3541.000000	99.446755 
3540.000000	99.454314 
3539.000000	99.461675 
3538.000000	99.464813 
3537.000000	99.463388 
3536.000000	99.460656 
3535.000000	99.459572 
3534.000000	99.459843 
3533.000000	99.459508 
3532.000000	99.457930 
3531.000000	99.456358 
3530.000000	99.455603 
3529.000000	99.454611 
3528.000000	99.452085 
3527.000000	99.448635 
3526.000000	99.446123 
3525.000000	99.445312 
3524.000000	99.445186 
3523.000000	99.444612 
3522.000000	99.443769 
3521.000000	99.443379 
3520.000000	99.443702 
3519.000000	99.444847 
3518.000000	99.447453 
3517.000000	99.451783 
3516.000000	99.456239 
3515.000000	99.458100 
3514.000000	99.455977 
3513.000000	99.451289 
3512.000000	99.446869 
3511.000000	99.444403 
3510.000000	99.443274 
3509.000000	99.441985 
3508.000000	99.440264 
3507.000000	99.439566 
3506.000000	99.441558 
3505.000000	99.445841 
3504.000000	99.449383 
3503.000000	99.449153 
3502.000000	99.445791 
3501.000000	99.443438 
3500.000000	99.445220 
3499.000000	99.449848 
3498.000000	99.453151 
3497.000000	99.452451 
3496.000000	99.448515 
3495.000000	99.443592 
3494.000000	99.438989 
3493.000000	99.435145 
3492.000000	99.432948 
3491.000000	99.433551 
3490.000000	99.436981 
3489.000000	99.441766 
3488.000000	99.446021 
3487.000000	99.448444 
3486.000000	99.448469 
3485.000000	99.446176 
3484.000000	99.442356 
3483.000000	99.438371 
3482.000000	99.435375 
3481.000000	99.433623 
3480.000000	99.432574 
3479.000000	99.431467 
3478.000000	99.429827 
3477.000000	99.427854 
3476.000000	99.426774 
3475.000000	99.428557 
3474.000000	99.434413 
3473.000000	99.442964 
3472.000000	99.450485 
3471.000000	99.453967 
3470.000000	99.453962 
3469.000000	99.453559 
3468.000000	99.454441 
3467.000000	99.454857 
3466.000000	99.452299 
3465.000000	99.447200 
3464.000000	99.442670 
3463.000000	99.440916 
3462.000000	99.441254 
3461.000000	99.442021 
3460.000000	99.443050 
3459.000000	99.445428 
3458.000000	99.449442 
3457.000000	99.453557 
3456.000000	99.455522 
3455.000000	99.454165 
3454.000000	99.450373 
3453.000000	99.446765 
3452.000000	99.445835 
3451.000000	99.447995 
3450.000000	99.451232 
3449.000000	99.452964 
3448.000000	99.452079 
3447.000000	99.449223 
3446.000000	99.445609 
3445.000000	99.442263 
3444.000000	99.440275 
3443.000000	99.440632 
3442.000000	99.443124 
3441.000000	99.445742 
3440.000000	99.445970 
3439.000000	99.442780 
3438.000000	99.437194 
3437.000000	99.431215 
3436.000000	99.426741 
3435.000000	99.425254 
3434.000000	99.427584 
3433.000000	99.433398 
3432.000000	99.440795 
3431.000000	99.447118 
3430.000000	99.450549 
3429.000000	99.451296 
3428.000000	99.451170 
3427.000000	99.451623 
3426.000000	99.452043 
3425.000000	99.450220 
3424.000000	99.444813 
3423.000000	99.437147 
3422.000000	99.430276 
3421.000000	99.426463 
3420.000000	99.426120 
3419.000000	99.428757 
3418.000000	99.433752 
3417.000000	99.439804 
3416.000000	99.444580 
3415.000000	99.445939 
3414.000000	99.443673 
3413.000000	99.439731 
3412.000000	99.436727 
3411.000000	99.436207 
3410.000000	99.437814 
3409.000000	99.439575 
3408.000000	99.439143 
3407.000000	99.435460 
3406.000000	99.429678 
3405.000000	99.424304 
3404.000000	99.421321 
3403.000000	99.421046 
3402.000000	99.422629 
3401.000000	99.425428 
3400.000000	99.429610 
3399.000000	99.435514 
3398.000000	99.442547 
3397.000000	99.448881 
3396.000000	99.452304 
3395.000000	99.451473 
3394.000000	99.446528 
3393.000000	99.438890 
3392.000000	99.430785 
3391.000000	99.424744 
3390.000000	99.422916 
3389.000000	99.426034 
3388.000000	99.432705 
3387.000000	99.440115 
3386.000000	99.446129 
3385.000000	99.450780 
3384.000000	99.455212 
3383.000000	99.459030 
3382.000000	99.459453 
3381.000000	99.453981 
3380.000000	99.443830 
3379.000000	99.434093 
3378.000000	99.429830 
3377.000000	99.431962 
3376.000000	99.437084 
3375.000000	99.441019 
3374.000000	99.442276 
3373.000000	99.442323 
3372.000000	99.443229 
3371.000000	99.445467 
3370.000000	99.447739 
3369.000000	99.448407 
3368.000000	99.447127 
3367.000000	99.445355 
3366.000000	99.445215 
3365.000000	99.447333 
3364.000000	99.449755 
3363.000000	99.449581 
3362.000000	99.446030 
3361.000000	99.441360 
3360.000000	99.438365 
3359.000000	99.437529 
3358.000000	99.437424 
3357.000000	99.437509 
3356.000000	99.439120 
3355.000000	99.443150 
3354.000000	99.447772 
3353.000000	99.449673 
3352.000000	99.447500 
3351.000000	99.443453 
3350.000000	99.441343 
3349.000000	99.443326 
3348.000000	99.448474 
3347.000000	99.453810 
3346.000000	99.456478 
3345.000000	99.455412 
3344.000000	99.451737 
3343.000000	99.447907 
3342.000000	99.445896 
3341.000000	99.445657 
3340.000000	99.445240 
3339.000000	99.442936 
3338.000000	99.439558 
3337.000000	99.438103 
3336.000000	99.440630 
3335.000000	99.445810 
3334.000000	99.450415 
3333.000000	99.453087 
3332.000000	99.455584 
3331.000000	99.459805 
3330.000000	99.464494 
3329.000000	99.466057 
3328.000000	99.462587 
3327.000000	99.456085 
3326.000000	99.450329 
3325.000000	99.447219 
3324.000000	99.445734 
3323.000000	99.444162 
3322.000000	99.442402 
3321.000000	99.441798 
3320.000000	99.443252 
3319.000000	99.446221 
3318.000000	99.449656 
3317.000000	99.453223 
3316.000000	99.456995 
3315.000000	99.460360 
3314.000000	99.462181 
3313.000000	99.462312 
3312.000000	99.462196 
3311.000000	99.463349 
3310.000000	99.465527 
3309.000000	99.466924 
3308.000000	99.466016 
3307.000000	99.462896 
3306.000000	99.459100 
3305.000000	99.456690 
3304.000000	99.457291 
3303.000000	99.461056 
3302.000000	99.466034 
3301.000000	99.468940 
3300.000000	99.467323 
3299.000000	99.461554 
3298.000000	99.454874 
3297.000000	99.451160 
3296.000000	99.451901 
3295.000000	99.455049 
3294.000000	99.457219 
3293.000000	99.457246 
3292.000000	99.457152 
3291.000000	99.459149 
3290.000000	99.462348 
3289.000000	99.463510 
3288.000000	99.460804 
3287.000000	99.455681 
3286.000000	99.450893 
3285.000000	99.447746 
3284.000000	99.445910 
3283.000000	99.444996 
3282.000000	99.445318 
3281.000000	99.447298 
3280.000000	99.450856 
3279.000000	99.455311 
3278.000000	99.459372 
3277.000000	99.461345 
3276.000000	99.459962 
3275.000000	99.455363 
3274.000000	99.449255 
3273.000000	99.444049 
3272.000000	99.441608 
3271.000000	99.442257 
3270.000000	99.444596 
3269.000000	99.446573 
3268.000000	99.447162 
3267.000000	99.446876 
3266.000000	99.446520 
3265.000000	99.445988 
3264.000000	99.444829 
3263.000000	99.443663 
3262.000000	99.444086 
3261.000000	99.446799 
3260.000000	99.450434 
3259.000000	99.452627 
3258.000000	99.452123 
3257.000000	99.449608 
3256.000000	99.446629 
3255.000000	99.444084 
3254.000000	99.441974 
3253.000000	99.440442 
3252.000000	99.440510 
3251.000000	99.443248 
3250.000000	99.448102 
3249.000000	99.452558 
3248.000000	99.453953 
3247.000000	99.451643 
3246.000000	99.447368 
3245.000000	99.443702 
3244.000000	99.442257 
3243.000000	99.442962 
3242.000000	99.444390 
3241.000000	99.444797 
3240.000000	99.443599 
3239.000000	99.442306 
3238.000000	99.443658 
3237.000000	99.449233 
3236.000000	99.457678 
3235.000000	99.465366 
3234.000000	99.468989 
3233.000000	99.467801 
3232.000000	99.463791 
3231.000000	99.460043 
3230.000000	99.458648 
3229.000000	99.459515 
3228.000000	99.460585 
3227.000000	99.459220 
3226.000000	99.454100 
3225.000000	99.446472 
3224.000000	99.439518 
3223.000000	99.435997 
3222.000000	99.436055 
3221.000000	99.437388 
3220.000000	99.437610 
3219.000000	99.436365 
3218.000000	99.435252 
3217.000000	99.436177 
3216.000000	99.440018 
3215.000000	99.446255 
3214.000000	99.453207 
3213.000000	99.458675 
3212.000000	99.460927 
3211.000000	99.459409 
3210.000000	99.454723 
3209.000000	99.448309 
3208.000000	99.442308 
3207.000000	99.438997 
3206.000000	99.439428 
3205.000000	99.442565 
3204.000000	99.446376 
3203.000000	99.449768 
3202.000000	99.452902 
3201.000000	99.455737 
3200.000000	99.457327 
3199.000000	99.456929 
3198.000000	99.455107 
3197.000000	99.453220 
3196.000000	99.452377 
3195.000000	99.453152 
3194.000000	99.455456 
3193.000000	99.457936 
3192.000000	99.458234 
3191.000000	99.454983 
3190.000000	99.449452 
3189.000000	99.444455 
3188.000000	99.441781 
3187.000000	99.441385 
3186.000000	99.442747 
3185.000000	99.445742 
3184.000000	99.449980 
3183.000000	99.454249 
3182.000000	99.457362 
3181.000000	99.459202 
3180.000000	99.460617 
3179.000000	99.462461 
3178.000000	99.464757 
3177.000000	99.466547 
3176.000000	99.466774 
3175.000000	99.465751 
3174.000000	99.465396 
3173.000000	99.467095 
3172.000000	99.469468 
3171.000000	99.469476 
3170.000000	99.466043 
3169.000000	99.461394 
3168.000000	99.458169 
3167.000000	99.456439 
3166.000000	99.454656 
3165.000000	99.452588 
3164.000000	99.451742 
3163.000000	99.453037 
3162.000000	99.455519 
3161.000000	99.457711 
3160.000000	99.459289 
3159.000000	99.460833 
3158.000000	99.462415 
3157.000000	99.462937 
3156.000000	99.460876 
3155.000000	99.455647 
3154.000000	99.448411 
3153.000000	99.441486 
3152.000000	99.436707 
3151.000000	99.434428 
3150.000000	99.434142 
3149.000000	99.435566 
3148.000000	99.438600 
3147.000000	99.442583 
3146.000000	99.446445 
3145.000000	99.449674 
3144.000000	99.452512 
3143.000000	99.455070 
3142.000000	99.456815 
3141.000000	99.457247 
3140.000000	99.456629 
3139.000000	99.455767 
3138.000000	99.455309 
3137.000000	99.455519 
3136.000000	99.456525 
3135.000000	99.458461 
3134.000000	99.461256 
3133.000000	99.464181 
3132.000000	99.465664 
3131.000000	99.464135 
3130.000000	99.459627 
3129.000000	99.454452 
3128.000000	99.451671 
3127.000000	99.452695 
3126.000000	99.456497 
3125.000000	99.460829 
3124.000000	99.463627 
3123.000000	99.463518 
3122.000000	99.460179 
3121.000000	99.454829 
3120.000000	99.449802 
3119.000000	99.446983 
3118.000000	99.446685 
3117.000000	99.448168 
3116.000000	99.450781 
3115.000000	99.454108 
3114.000000	99.457324 
3113.000000	99.459199 
3112.000000	99.459083 
3111.000000	99.457672 
3110.000000	99.456428 
3109.000000	99.456162 
3108.000000	99.456280 
3107.000000	99.455621 
3106.000000	99.453917 
3105.000000	99.452220 
3104.000000	99.451853 
3103.000000	99.453212 
3102.000000	99.455681 
3101.000000	99.458293 
3100.000000	99.460308 
3099.000000	99.461512 
3098.000000	99.462452 
3097.000000	99.464083 
3096.000000	99.466631 
3095.000000	99.468806 
3094.000000	99.468742 
3093.000000	99.465867 
3092.000000	99.461598 
3091.000000	99.458300 
3090.000000	99.457770 
3089.000000	99.460246 
3088.000000	99.464044 
3087.000000	99.466373 
3086.000000	99.465548 
3085.000000	99.462654 
3084.000000	99.460181 
3083.000000	99.458845 
3082.000000	99.456874 
3081.000000	99.452883 
3080.000000	99.448370 
3079.000000	99.446418 
3078.000000	99.448705 
3077.000000	99.454571 
3076.000000	99.462078 
3075.000000	99.468741 
3074.000000	99.471922 
3073.000000	99.470369 
3072.000000	99.465620 
3071.000000	99.460662 
3070.000000	99.456879 
3069.000000	99.453251 
3068.000000	99.448853 
3067.000000	99.445044 
3066.000000	99.444467 
3065.000000	99.448346 
3064.000000	99.455124 
3063.000000	99.461196 
3062.000000	99.462795 
3061.000000	99.458196 
3060.000000	99.449216 
3059.000000	99.440455 
3058.000000	99.436325 
3057.000000	99.438268 
3056.000000	99.444272 
3055.000000	99.450522 
3054.000000	99.453579 
3053.000000	99.451968 
3052.000000	99.446536 
3051.000000	99.439419 
3050.000000	99.432549 
3049.000000	99.427030 
3048.000000	99.423270 
3047.000000	99.420724 
3046.000000	99.417550 
3045.000000	99.411716 
3044.000000	99.403097 
3043.000000	99.393801 
3042.000000	99.385888 
3041.000000	99.379282 
3040.000000	99.372407 
3039.000000	99.364134 
3038.000000	99.354302 
3037.000000	99.342784 
3036.000000	99.329008 
3035.000000	99.312561 
3034.000000	99.293727 
3033.000000	99.273327 
3032.000000	99.252282 
3031.000000	99.231238 
3030.000000	99.210332 
3029.000000	99.189406 
3028.000000	99.168641 
3027.000000	99.148712 
3026.000000	99.129873 
3025.000000	99.110953 
3024.000000	99.089778 
3023.000000	99.064907 
3022.000000	99.036724 
3021.000000	99.006540 
3020.000000	98.974729 
3019.000000	98.940273 
3018.000000	98.902661 
3017.000000	98.863791 
3016.000000	98.826865 
3015.000000	98.792856 
3014.000000	98.759280 
3013.000000	98.723535 
3012.000000	98.686609 
3011.000000	98.651703 
3010.000000	98.619440 
3009.000000	98.586502 
3008.000000	98.549551 
3007.000000	98.508792 
3006.000000	98.466788 
3005.000000	98.425277 
3004.000000	98.384478 
3003.000000	98.344349 
3002.000000	98.304925 
3001.000000	98.265988 
3000.000000	98.227826 
2999.000000	98.192108 
2998.000000	98.161055 
2997.000000	98.135905 
2996.000000	98.116182 
2995.000000	98.098259 
2994.000000	98.073074 
2993.000000	98.028220 
2992.000000	97.957794 
2991.000000	97.872057 
2990.000000	97.794537 
2989.000000	97.746609 
2988.000000	97.734215 
2987.000000	97.748595 
2986.000000	97.776296 
2985.000000	97.806541 
2984.000000	97.831887 
2983.000000	97.847497 
2982.000000	97.852274 
2981.000000	97.849453 
2980.000000	97.844352 
2979.000000	97.840950 
2978.000000	97.839981 
2977.000000	97.839164 
2976.000000	97.834995 
2975.000000	97.825505 
2974.000000	97.812493 
2973.000000	97.801288 
2972.000000	97.797782 
2971.000000	97.804978 
2970.000000	97.821722 
2969.000000	97.844310 
2968.000000	97.869422 
2967.000000	97.895998 
2966.000000	97.924593 
2965.000000	97.955123 
2964.000000	97.985603 
2963.000000	98.013203 
2962.000000	98.036319 
2961.000000	98.055486 
2960.000000	98.072602 
2959.000000	98.089651 
2958.000000	98.107940 
2957.000000	98.127891 
2956.000000	98.149130 
2955.000000	98.170879 
2954.000000	98.192594 
2953.000000	98.214437 
2952.000000	98.237042 
2951.000000	98.260468 
2950.000000	98.283065 
2949.000000	98.301564 
2948.000000	98.312906 
2947.000000	98.316654 
2946.000000	98.316001 
2945.000000	98.316308 
2944.000000	98.321906 
2943.000000	98.333137 
2942.000000	98.345853 
2941.000000	98.354366 
2940.000000	98.355875 
2939.000000	98.352671 
2938.000000	98.349958 
2937.000000	98.351587 
2936.000000	98.357704 
2935.000000	98.365556 
2934.000000	98.371614 
2933.000000	98.373103 
2932.000000	98.368904 
2931.000000	98.359846 
2930.000000	98.348078 
2929.000000	98.335851 
2928.000000	98.324579 
2927.000000	98.314378 
2926.000000	98.304008 
2925.000000	98.291841 
2924.000000	98.277816 
2923.000000	98.264170 
2922.000000	98.253311 
2921.000000	98.245191 
2920.000000	98.237905 
2919.000000	98.230643 
2918.000000	98.224434 
2917.000000	98.219483 
2916.000000	98.213270 
2915.000000	98.202518 
2914.000000	98.186806 
2913.000000	98.169632 
2912.000000	98.156200 
2911.000000	98.149912 
2910.000000	98.149918 
2909.000000	98.151585 
2908.000000	98.150069 
2907.000000	98.143622 
2906.000000	98.132310 
2905.000000	98.114070 
2904.000000	98.085427 
2903.000000	98.049016 
2902.000000	98.018734 
2901.000000	98.013343 
2900.000000	98.041132 
2899.000000	98.092325 
2898.000000	98.145915 
2897.000000	98.184317 
2896.000000	98.202785 
2895.000000	98.208062 
2894.000000	98.210666 
2893.000000	98.217727 
2892.000000	98.230644 
2891.000000	98.246698 
2890.000000	98.261856 
2889.000000	98.272726 
2888.000000	98.277841 
2887.000000	98.278744 
2886.000000	98.279801 
2885.000000	98.285892 
2884.000000	98.299766 
2883.000000	98.321518 
2882.000000	98.349828 
2881.000000	98.382543 
2880.000000	98.416229 
2879.000000	98.446929 
2878.000000	98.472451 
2877.000000	98.493658 
2876.000000	98.512999 
2875.000000	98.532123 
2874.000000	98.551063 
2873.000000	98.568868 
2872.000000	98.584261 
2871.000000	98.596353 
2870.000000	98.605889 
2869.000000	98.616011 
2868.000000	98.630847 
2867.000000	98.652600 
2866.000000	98.679912 
2865.000000	98.709221 
2864.000000	98.737561 
2863.000000	98.763979 
2862.000000	98.788645 
2861.000000	98.811461 
2860.000000	98.832198 
2859.000000	98.851710 
2858.000000	98.871882 
2857.000000	98.893599 
2856.000000	98.915141 
2855.000000	98.933540 
2854.000000	98.947743 
2853.000000	98.959926 
2852.000000	98.973532 
2851.000000	98.990417 
2850.000000	99.010038 
2849.000000	99.030585 
2848.000000	99.050253 
2847.000000	99.067852 
2846.000000	99.083243 
2845.000000	99.097450 
2844.000000	99.111789 
2843.000000	99.126465 
2842.000000	99.140257 
2841.000000	99.151929 
2840.000000	99.161886 
2839.000000	99.172087 
2838.000000	99.184191 
2837.000000	99.197832 
2836.000000	99.210801 
2835.000000	99.220878 
2834.000000	99.227515 
2833.000000	99.231956 
2832.000000	99.235982 
2831.000000	99.240635 
2830.000000	99.245780 
2829.000000	99.250498 
2828.000000	99.253845 
2827.000000	99.255681 
2826.000000	99.257028 
2825.000000	99.259421 
2824.000000	99.263564 
2823.000000	99.268605 
2822.000000	99.272986 
2821.000000	99.276061 
2820.000000	99.278762 
2819.000000	99.282630 
2818.000000	99.288306 
2817.000000	99.294932 
2816.000000	99.300842 
2815.000000	99.304678 
2814.000000	99.306020 
2813.000000	99.305332 
2812.000000	99.303695 
2811.000000	99.302657 
2810.000000	99.303920 
2809.000000	99.308456 
2808.000000	99.315421 
2807.000000	99.322087 
2806.000000	99.325446 
2805.000000	99.324438 
2804.000000	99.320853 
2803.000000	99.317919 
2802.000000	99.317809 
2801.000000	99.320274 
2800.000000	99.323500 
2799.000000	99.326094 
2798.000000	99.328064 
2797.000000	99.329929 
2796.000000	99.331389 
2795.000000	99.331485 
2794.000000	99.330126 
2793.000000	99.328831 
2792.000000	99.329385 
2791.000000	99.331948 
2790.000000	99.335013 
2789.000000	99.337259 
2788.000000	99.338929 
2787.000000	99.341156 
2786.000000	99.344279 
2785.000000	99.347170 
2784.000000	99.348170 
2783.000000	99.346562 
2782.000000	99.343384 
2781.000000	99.340951 
2780.000000	99.341306 
2779.000000	99.344718 
2778.000000	99.349674 
2777.000000	99.354453 
2776.000000	99.358495 
2775.000000	99.362007 
2774.000000	99.364706 
2773.000000	99.365818 
2772.000000	99.365545 
2771.000000	99.365690 
2770.000000	99.367957 
2769.000000	99.371718 
2768.000000	99.374226 
2767.000000	99.373425 
2766.000000	99.370216 
2765.000000	99.367524 
2764.000000	99.367242 
2763.000000	99.368544 
2762.000000	99.369221 
2761.000000	99.368201 
2760.000000	99.366403 
2759.000000	99.365510 
2758.000000	99.366559 
2757.000000	99.369684 
2756.000000	99.374302 
2755.000000	99.378887 
2754.000000	99.381106 
2753.000000	99.379410 
2752.000000	99.374999 
2751.000000	99.371567 
2750.000000	99.372301 
2749.000000	99.376971 
2748.000000	99.382268 
2747.000000	99.385021 
2746.000000	99.384776 
2745.000000	99.383260 
2744.000000	99.381970 
2743.000000	99.381005 
2742.000000	99.380131 
2741.000000	99.380051 
2740.000000	99.381854 
2739.000000	99.385480 
2738.000000	99.389559 
2737.000000	99.392979 
2736.000000	99.395949 
2735.000000	99.399012 
2734.000000	99.401518 
2733.000000	99.401893 
2732.000000	99.399468 
2731.000000	99.395525 
2730.000000	99.392367 
2729.000000	99.391640 
2728.000000	99.393503 
2727.000000	99.396850 
2726.000000	99.400062 
2725.000000	99.401941 
2724.000000	99.402496 
2723.000000	99.402897 
2722.000000	99.404462 
2721.000000	99.407488 
2720.000000	99.410929 
2719.000000	99.413189 
2718.000000	99.413409 
2717.000000	99.412205 
2716.000000	99.411083 
2715.000000	99.410967 
2714.000000	99.411440 
2713.000000	99.411621 
2712.000000	99.411549 
2711.000000	99.412231 
2710.000000	99.414435 
2709.000000	99.417801 
2708.000000	99.421027 
2707.000000	99.422476 
2706.000000	99.420980 
2705.000000	99.417053 
2704.000000	99.413442 
2703.000000	99.413346 
2702.000000	99.417296 
2701.000000	99.422357 
2700.000000	99.425179 
2699.000000	99.425467 
2698.000000	99.425778 
2697.000000	99.428193 
2696.000000	99.431982 
2695.000000	99.434573 
2694.000000	99.434226 
2693.000000	99.431580 
2692.000000	99.428995 
2691.000000	99.428466 
2690.000000	99.429929 
2689.000000	99.431459 
2688.000000	99.431261 
2687.000000	99.429423 
2686.000000	99.427788 
2685.000000	99.428330 
2684.000000	99.431586 
2683.000000	99.436071 
2682.000000	99.438918 
2681.000000	99.437795 
2680.000000	99.433008 
2679.000000	99.427672 
2678.000000	99.425263 
2677.000000	99.426962 
2676.000000	99.431373 
2675.000000	99.436235 
2674.000000	99.439848 
2673.000000	99.441491 
2672.000000	99.441466 
2671.000000	99.440605 
2670.000000	99.438996 
2669.000000	99.435544 
2668.000000	99.429892 
2667.000000	99.424610 
2666.000000	99.423860 
2665.000000	99.429023 
2664.000000	99.436487 
2663.000000	99.440714 
2662.000000	99.439269 
2661.000000	99.434522 
2660.000000	99.430863 
2659.000000	99.430878 
2658.000000	99.433857 
2657.000000	99.437273 
2656.000000	99.439370 
2655.000000	99.440299 
2654.000000	99.440857 
2653.000000	99.440899 
2652.000000	99.440038 
2651.000000	99.439584 
2650.000000	99.441837 
2649.000000	99.446456 
2648.000000	99.449172 
2647.000000	99.446240 
2646.000000	99.439765 
2645.000000	99.436384 
2644.000000	99.439955 
2643.000000	99.447097 
2642.000000	99.450976 
2641.000000	99.448549 
2640.000000	99.442943 
2639.000000	99.439353 
2638.000000	99.440003 
2637.000000	99.443026 
2636.000000	99.444989 
2635.000000	99.443848 
2634.000000	99.440278 
2633.000000	99.437164 
2632.000000	99.437802 
2631.000000	99.443557 
2630.000000	99.452322 
2629.000000	99.459244 
2628.000000	99.459995 
2627.000000	99.454428 
2626.000000	99.447065 
2625.000000	99.443196 
2624.000000	99.444063 
2623.000000	99.446323 
2622.000000	99.446474 
2621.000000	99.444895 
2620.000000	99.444648 
2619.000000	99.447022 
2618.000000	99.449873 
2617.000000	99.450609 
2616.000000	99.449382 
2615.000000	99.448494 
2614.000000	99.449629 
2613.000000	99.452698 
2612.000000	99.456626 
2611.000000	99.459925 
2610.000000	99.460800 
2609.000000	99.458312 
2608.000000	99.454011 
2607.000000	99.451505 
2606.000000	99.453665 
2605.000000	99.460258 
2604.000000	99.468063 
2603.000000	99.472814 
2602.000000	99.471749 
2601.000000	99.465979 
2600.000000	99.460619 
2599.000000	99.460809 
2598.000000	99.466240 
2597.000000	99.470521 
2596.000000	99.467340 
2595.000000	99.457068 
2594.000000	99.446470 
2593.000000	99.442202 
2592.000000	99.445279 
2591.000000	99.451433 
2590.000000	99.455771 
2589.000000	99.456900 
2588.000000	99.457126 
2587.000000	99.458924 
2586.000000	99.461542 
2585.000000	99.461822 
2584.000000	99.458485 
2583.000000	99.454311 
2582.000000	99.453141 
2581.000000	99.455643 
2580.000000	99.459151 
2579.000000	99.460842 
2578.000000	99.459661 
2577.000000	99.455807 
2576.000000	99.450318 
2575.000000	99.445419 
2574.000000	99.443732 
2573.000000	99.446293 
2572.000000	99.451718 
2571.000000	99.457259 
2570.000000	99.460191 
2569.000000	99.458968 
2568.000000	99.454497 
2567.000000	99.450048 
2566.000000	99.448443 
2565.000000	99.449296 
2564.000000	99.450289 
2563.000000	99.450874 
2562.000000	99.452750 
2561.000000	99.456373 
2560.000000	99.459046 
2559.000000	99.457574 
2558.000000	99.451576 
2557.000000	99.443534 
2556.000000	99.436984 
2555.000000	99.435322 
2554.000000	99.440429 
2553.000000	99.450580 
2552.000000	99.460551 
2551.000000	99.465470 
2550.000000	99.464481 
2549.000000	99.460087 
2548.000000	99.454963 
2547.000000	99.450667 
2546.000000	99.448461 
2545.000000	99.449236 
2544.000000	99.452128 
2543.000000	99.454425 
2542.000000	99.453652 
2541.000000	99.449767 
2540.000000	99.445358 
2539.000000	99.443580 
2538.000000	99.445242 
2537.000000	99.447745 
2536.000000	99.447810 
2535.000000	99.445650 
2534.000000	99.445071 
2533.000000	99.448374 
2532.000000	99.452501 
2531.000000	99.452264 
2530.000000	99.446828 
2529.000000	99.440718 
2528.000000	99.437927 
2527.000000	99.437196 
2526.000000	99.434611 
2525.000000	99.429597 
2524.000000	99.426294 
2523.000000	99.428867 
2522.000000	99.436845 
2521.000000	99.445767 
2520.000000	99.451480 
2519.000000	99.452739 
2518.000000	99.450153 
2517.000000	99.444429 
2516.000000	99.436660 
2515.000000	99.429262 
2514.000000	99.425048 
2513.000000	99.425177 
2512.000000	99.428753 
2511.000000	99.434199 
2510.000000	99.440163 
2509.000000	99.445487 
2508.000000	99.449808 
2507.000000	99.454190 
2506.000000	99.459393 
2505.000000	99.463044 
2504.000000	99.460557 
2503.000000	99.450413 
2502.000000	99.437337 
2501.000000	99.428725 
2500.000000	99.428429 
2499.000000	99.434881 
2498.000000	99.443843 
2497.000000	99.451069 
2496.000000	99.453222 
2495.000000	99.449228 
2494.000000	99.441772 
2493.000000	99.435817 
2492.000000	99.434423 
2491.000000	99.436649 
2490.000000	99.440007 
2489.000000	99.443932 
2488.000000	99.449735 
2487.000000	99.457524 
2486.000000	99.464334 
2485.000000	99.466048 
2484.000000	99.461251 
2483.000000	99.452906 
2482.000000	99.445948 
2481.000000	99.443256 
2480.000000	99.444179 
2479.000000	99.446468 
2478.000000	99.448406 
2477.000000	99.449015 
2476.000000	99.448044 
2475.000000	99.447099 
2474.000000	99.449366 
2473.000000	99.456117 
2472.000000	99.463881 
2471.000000	99.467172 
2470.000000	99.464295 
2469.000000	99.458919 
2468.000000	99.455577 
2467.000000	99.455177 
2466.000000	99.455372 
2465.000000	99.453724 
2464.000000	99.449648 
2463.000000	99.444671 
2462.000000	99.441828 
2461.000000	99.443514 
2460.000000	99.448507 
2459.000000	99.452009 
2458.000000	99.450162 
2457.000000	99.444185 
2456.000000	99.438850 
2455.000000	99.437350 
2454.000000	99.438940 
2453.000000	99.441238 
2452.000000	99.442906 
2451.000000	99.443583 
2450.000000	99.442727 
2449.000000	99.439884 
2448.000000	99.435823 
2447.000000	99.432643 
2446.000000	99.432588 
2445.000000	99.436446 
2444.000000	99.442383 
2443.000000	99.446283 
2442.000000	99.444385 
2441.000000	99.436824 
2440.000000	99.428529 
2439.000000	99.425758 
2438.000000	99.430982 
2437.000000	99.440807 
2436.000000	99.448753 
2435.000000	99.450407 
2434.000000	99.446586 
2433.000000	99.442155 
2432.000000	99.441746 
2431.000000	99.446110 
2430.000000	99.451955 
2429.000000	99.454841 
2428.000000	99.452373 
2427.000000	99.445459 
2426.000000	99.437352 
2425.000000	99.431526 
2424.000000	99.429838 
2423.000000	99.432278 
2422.000000	99.438112 
2421.000000	99.446382 
2420.000000	99.454764 
2419.000000	99.459102 
2418.000000	99.456153 
2417.000000	99.447266 
2416.000000	99.437915 
2415.000000	99.432623 
2414.000000	99.431286 
2413.000000	99.431025 
2412.000000	99.430271 
2411.000000	99.429687 
2410.000000	99.430131 
2409.000000	99.431526 
2408.000000	99.433437 
2407.000000	99.435162 
2406.000000	99.435422 
2405.000000	99.433688 
2404.000000	99.431941 
2403.000000	99.433276 
2402.000000	99.437972 
2401.000000	99.442245 
2400.000000	99.441838 
2399.000000	99.436138 
2398.000000	99.428405 
2397.000000	99.422947 
2396.000000	99.422408 
2395.000000	99.426252 
2394.000000	99.430751 
2393.000000	99.431581 
2392.000000	99.427797 
2391.000000	99.422688 
2390.000000	99.419879 
2389.000000	99.419652 
2388.000000	99.420236 
2387.000000	99.421273 
2386.000000	99.423719 
2385.000000	99.426873 
2384.000000	99.428268 
2383.000000	99.427183 
2382.000000	99.426051 
2381.000000	99.427052 
2380.000000	99.429012 
2379.000000	99.429647 
2378.000000	99.429893 
2377.000000	99.432869 
2376.000000	99.438110 
2375.000000	99.440239 
2374.000000	99.435715 
2373.000000	99.428257 
2372.000000	99.424143 
2371.000000	99.424179 
2370.000000	99.424322 
2369.000000	99.422836 
2368.000000	99.421773 
2367.000000	99.422308 
2366.000000	99.423738 
2365.000000	99.426511 
2364.000000	99.431495 
2363.000000	99.436485 
2362.000000	99.436455 
2361.000000	99.429326 
2360.000000	99.417862 
2359.000000	99.405261 
2358.000000	99.394854 
2357.000000	99.390427 
2356.000000	99.394368 
2355.000000	99.405925 
2354.000000	99.422609 
2353.000000	99.437152 
2352.000000	99.439520 
2351.000000	99.427520 
2350.000000	99.409674 
2349.000000	99.396297 
2348.000000	99.392749 
2347.000000	99.399283 
2346.000000	99.411201 
2345.000000	99.421022 
2344.000000	99.425340 
2343.000000	99.426842 
2342.000000	99.427882 
2341.000000	99.427247 
2340.000000	99.424810 
2339.000000	99.423608 
2338.000000	99.426696 
2337.000000	99.431036 
2336.000000	99.428682 
2335.000000	99.418020 
2334.000000	99.408261 
2333.000000	99.409065 
2332.000000	99.417578 
2331.000000	99.424645 
2330.000000	99.425751 
2329.000000	99.423792 
2328.000000	99.422390 
2327.000000	99.424672 
2326.000000	99.431115 
2325.000000	99.437984 
2324.000000	99.438962 
2323.000000	99.434416 
2322.000000	99.431178 
2321.000000	99.432884 
2320.000000	99.433076 
2319.000000	99.425604 
2318.000000	99.413851 
2317.000000	99.407727 
2316.000000	99.410557 
2315.000000	99.417539 
2314.000000	99.422729 
2313.000000	99.426502 
2312.000000	99.431697 
2311.000000	99.438919 
2310.000000	99.444815 
2309.000000	99.446291 
2308.000000	99.443407 
2307.000000	99.439967 
2306.000000	99.439819 
2305.000000	99.443915 
2304.000000	99.449865 
2303.000000	99.454954 
2302.000000	99.457485 
2301.000000	99.457535 
2300.000000	99.456842 
2299.000000	99.458910 
2298.000000	99.465264 
2297.000000	99.472824 
2296.000000	99.475051 
2295.000000	99.469115 
2294.000000	99.459226 
2293.000000	99.453225 
2292.000000	99.454959 
2291.000000	99.461979 
2290.000000	99.468893 
2289.000000	99.472350 
2288.000000	99.472975 
2287.000000	99.473492 
2286.000000	99.475165 
2285.000000	99.476066 
2284.000000	99.474040 
2283.000000	99.470467 
2282.000000	99.469391 
2281.000000	99.472055 
2280.000000	99.474842 
2279.000000	99.473736 
2278.000000	99.469107 
2277.000000	99.464242 
2276.000000	99.460861 
2275.000000	99.458436 
2274.000000	99.456511 
2273.000000	99.455106 
2272.000000	99.453456 
2271.000000	99.451242 
2270.000000	99.450560 
2269.000000	99.454113 
2268.000000	99.461151 
2267.000000	99.467644 
2266.000000	99.470581 
2265.000000	99.470135 
2264.000000	99.467469 
2263.000000	99.462753 
2262.000000	99.456305 
2261.000000	99.449683 
2260.000000	99.444440 
2259.000000	99.440943 
2258.000000	99.439453 
2257.000000	99.441263 
2256.000000	99.447434 
2255.000000	99.456424 
2254.000000	99.464095 
2253.000000	99.466985 
2252.000000	99.465625 
2251.000000	99.463966 
2250.000000	99.464996 
2249.000000	99.467807 
2248.000000	99.469280 
2247.000000	99.468549 
2246.000000	99.466967 
2245.000000	99.465291 
2244.000000	99.463257 
2243.000000	99.462060 
2242.000000	99.464053 
2241.000000	99.469100 
2240.000000	99.474373 
2239.000000	99.479014 
2238.000000	99.485314 
2237.000000	99.492975 
2236.000000	99.496172 
2235.000000	99.490414 
2234.000000	99.479848 
2233.000000	99.473198 
2232.000000	99.473615 
2231.000000	99.476616 
2230.000000	99.477075 
2229.000000	99.473875 
2228.000000	99.467777 
2227.000000	99.459175 
2226.000000	99.449405 
2225.000000	99.441667 
2224.000000	99.439451 
2223.000000	99.444791 
2222.000000	99.456327 
2221.000000	99.466883 
2220.000000	99.466375 
2219.000000	99.452847 
2218.000000	99.439238 
2217.000000	99.442349 
2216.000000	99.463564 
2215.000000	99.486443 
2214.000000	99.495168 
2213.000000	99.489538 
2212.000000	99.479214 
2211.000000	99.470306 
2210.000000	99.464109 
2209.000000	99.463903 
2208.000000	99.473281 
2207.000000	99.487211 
2206.000000	99.492455 
2205.000000	99.481188 
2204.000000	99.461319 
2203.000000	99.449675 
2202.000000	99.455558 
2201.000000	99.472401 
2200.000000	99.485053 
2199.000000	99.484201 
2198.000000	99.473437 
2197.000000	99.463431 
2196.000000	99.461082 
2195.000000	99.465610 
2194.000000	99.473458 
2193.000000	99.482653 
2192.000000	99.491145 
2191.000000	99.495168 
2190.000000	99.493438 
2189.000000	99.490869 
2188.000000	99.492772 
2187.000000	99.495196 
2186.000000	99.486446 
2185.000000	99.461031 
2184.000000	99.428630 
2183.000000	99.405590 
2182.000000	99.399613 
2181.000000	99.405724 
2180.000000	99.415212 
2179.000000	99.424145 
2178.000000	99.432976 
2177.000000	99.442181 
2176.000000	99.450344 
2175.000000	99.454603 
2174.000000	99.452468 
2173.000000	99.445907 
2172.000000	99.443973 
2171.000000	99.457138 
2170.000000	99.486082 
2169.000000	99.518196 
2168.000000	99.538402 
2167.000000	99.542154 
2166.000000	99.535581 
2165.000000	99.526508 
2164.000000	99.520213 
2163.000000	99.521061 
2162.000000	99.529749 
2161.000000	99.536725 
2160.000000	99.526190 
2159.000000	99.493123 
2158.000000	99.451767 
2157.000000	99.420630 
2156.000000	99.403947 
2155.000000	99.394796 
2154.000000	99.389917 
2153.000000	99.392948 
2152.000000	99.405510 
2151.000000	99.422347 
2150.000000	99.436846 
2149.000000	99.447587 
2148.000000	99.457516 
2147.000000	99.468484 
2146.000000	99.478289 
2145.000000	99.482486 
2144.000000	99.478318 
2143.000000	99.466960 
2142.000000	99.452100 
2141.000000	99.436522 
2140.000000	99.420946 
2139.000000	99.406960 
2138.000000	99.399698 
2137.000000	99.404627 
2136.000000	99.420607 
2135.000000	99.438337 
2134.000000	99.448040 
2133.000000	99.448560 
2132.000000	99.447187 
2131.000000	99.450073 
2130.000000	99.454672 
2129.000000	99.453048 
2128.000000	99.441880 
2127.000000	99.427034 
2126.000000	99.417660 
2125.000000	99.417652 
2124.000000	99.424283 
2123.000000	99.433340 
2122.000000	99.442438 
2121.000000	99.449671 
2120.000000	99.453057 
2119.000000	99.453323 
2118.000000	99.454870 
2117.000000	99.461310 
2116.000000	99.470739 
2115.000000	99.477380 
2114.000000	99.477605 
2113.000000	99.472807 
2112.000000	99.466820 
2111.000000	99.462619 
2110.000000	99.461939 
2109.000000	99.465629 
2108.000000	99.472045 
2107.000000	99.475842 
2106.000000	99.471266 
2105.000000	99.458565 
2104.000000	99.446027 
2103.000000	99.443022 
2102.000000	99.450062 
2101.000000	99.457259 
2100.000000	99.454280 
2099.000000	99.441193 
2098.000000	99.428151 
2097.000000	99.424906 
2096.000000	99.432092 
2095.000000	99.442574 
2094.000000	99.449153 
2093.000000	99.450094 
2092.000000	99.449195 
2091.000000	99.452179 
2090.000000	99.462009 
2089.000000	99.475490 
2088.000000	99.483985 
2087.000000	99.479122 
2086.000000	99.460106 
2085.000000	99.437202 
2084.000000	99.426743 
2083.000000	99.438699 
2082.000000	99.466718 
2081.000000	99.491991 
2080.000000	99.500474 
2079.000000	99.496311 
2078.000000	99.495764 
2077.000000	99.508419 
2076.000000	99.527103 
2075.000000	99.536302 
2074.000000	99.527135 
2073.000000	99.503903 
2072.000000	99.479896 
2071.000000	99.468015 
2070.000000	99.471923 
2069.000000	99.482950 
2068.000000	99.486941 
2067.000000	99.476819 
2066.000000	99.458583 
2065.000000	99.445339 
2064.000000	99.446339 
2063.000000	99.461004 
2062.000000	99.479729 
2061.000000	99.489217 
2060.000000	99.482444 
2059.000000	99.467124 
2058.000000	99.460556 
2057.000000	99.471507 
2056.000000	99.489296 
2055.000000	99.495379 
2054.000000	99.484661 
2053.000000	99.470949 
2052.000000	99.471230 
2051.000000	99.488456 
2050.000000	99.510015 
2049.000000	99.519658 
2048.000000	99.511549 
2047.000000	99.495338 
2046.000000	99.487976 
2045.000000	99.498726 
2044.000000	99.520402 
2043.000000	99.536055 
2042.000000	99.534992 
2041.000000	99.521651 
2040.000000	99.508924 
2039.000000	99.504814 
2038.000000	99.507130 
2037.000000	99.508310 
2036.000000	99.501911 
2035.000000	99.485010 
2034.000000	99.458888 
2033.000000	99.431352 
2032.000000	99.416669 
2031.000000	99.427219 
2030.000000	99.461167 
2029.000000	99.499430 
2028.000000	99.519520 
2027.000000	99.514068 
2026.000000	99.493670 
2025.000000	99.473627 
2024.000000	99.461684 
2023.000000	99.457785 
2022.000000	99.459274 
2021.000000	99.462705 
2020.000000	99.464515 
2019.000000	99.464307 
2018.000000	99.465568 
2017.000000	99.469982 
2016.000000	99.473306 
2015.000000	99.470957 
2014.000000	99.465279 
2013.000000	99.463049 
2012.000000	99.467323 
2011.000000	99.475042 
2010.000000	99.481649 
2009.000000	99.484621 
2008.000000	99.483345 
2007.000000	99.479461 
2006.000000	99.477298 
2005.000000	99.480577 
2004.000000	99.487726 
2003.000000	99.492575 
2002.000000	99.489738 
2001.000000	99.478119 
2000.000000	99.460886 
1999.000000	99.443936 
1998.000000	99.433409 
1997.000000	99.431914 
1996.000000	99.436640 
1995.000000	99.442104 
1994.000000	99.444952 
1993.000000	99.446208 
1992.000000	99.449102 
1991.000000	99.454278 
1990.000000	99.457301 
1989.000000	99.452144 
1988.000000	99.439272 
1987.000000	99.429758 
1986.000000	99.437743 
1985.000000	99.466488 
1984.000000	99.503384 
1983.000000	99.530026 
1982.000000	99.535587 
1981.000000	99.521210 
1980.000000	99.496775 
1979.000000	99.476127 
1978.000000	99.470611 
1977.000000	99.479680 
1976.000000	99.488356 
1975.000000	99.480151 
1974.000000	99.454385 
1973.000000	99.428380 
1972.000000	99.421132 
1971.000000	99.435767 
1970.000000	99.458969 
1969.000000	99.475531 
1968.000000	99.480951 
1967.000000	99.480431 
1966.000000	99.479483 
1965.000000	99.479083 
1964.000000	99.478381 
1963.000000	99.477084 
1962.000000	99.473951 
1961.000000	99.466951 
1960.000000	99.457128 
1959.000000	99.449483 
1958.000000	99.447894 
1957.000000	99.451077 
1956.000000	99.454779 
1955.000000	99.455225 
1954.000000	99.449079 
1953.000000	99.434317 
1952.000000	99.414740 
1951.000000	99.400959 
1950.000000	99.401718 
1949.000000	99.413967 
1948.000000	99.425321 
1947.000000	99.427252 
1946.000000	99.422075 
1945.000000	99.416565 
1944.000000	99.413227 
1943.000000	99.409628 
1942.000000	99.402864 
1941.000000	99.392198 
1940.000000	99.380078 
1939.000000	99.372779 
1938.000000	99.377020 
1937.000000	99.392552 
1936.000000	99.409400 
1935.000000	99.415716 
1934.000000	99.408704 
1933.000000	99.397245 
1932.000000	99.393730 
1931.000000	99.403883 
1930.000000	99.423117 
1929.000000	99.440090 
1928.000000	99.444991 
1927.000000	99.437181 
1926.000000	99.424726 
1925.000000	99.415493 
1924.000000	99.410515 
1923.000000	99.406532 
1922.000000	99.403127 
1921.000000	99.403321 
1920.000000	99.408584 
1919.000000	99.416966 
1918.000000	99.424786 
1917.000000	99.428053 
1916.000000	99.424581 
1915.000000	99.417121 
1914.000000	99.412611 
1913.000000	99.416403 
1912.000000	99.426918 
1911.000000	99.437106 
1910.000000	99.440773 
1909.000000	99.436608 
1908.000000	99.428529 
1907.000000	99.424241 
1906.000000	99.430630 
1905.000000	99.445723 
1904.000000	99.456944 
1903.000000	99.452021 
1902.000000	99.431778 
1901.000000	99.409342 
1900.000000	99.397962 
1899.000000	99.401477 
1898.000000	99.414436 
1897.000000	99.426995 
1896.000000	99.430829 
1895.000000	99.425168 
1894.000000	99.417975 
1893.000000	99.417565 
1892.000000	99.423852 
1891.000000	99.430167 
1890.000000	99.431585 
1889.000000	99.429536 
1888.000000	99.428304 
1887.000000	99.430165 
1886.000000	99.434465 
1885.000000	99.438787 
1884.000000	99.440856 
1883.000000	99.440725 
1882.000000	99.440271 
1881.000000	99.440017 
1880.000000	99.438826 
1879.000000	99.436745 
1878.000000	99.435112 
1877.000000	99.433302 
1876.000000	99.429093 
1875.000000	99.424054 
1874.000000	99.424466 
1873.000000	99.433420 
1872.000000	99.445118 
1871.000000	99.450746 
1870.000000	99.447744 
1869.000000	99.439795 
1868.000000	99.428113 
1867.000000	99.411150 
1866.000000	99.392671 
1865.000000	99.380220 
1864.000000	99.377951 
1863.000000	99.385008 
1862.000000	99.398770 
1861.000000	99.415766 
1860.000000	99.430564 
1859.000000	99.439025 
1858.000000	99.442896 
1857.000000	99.446460 
1856.000000	99.449589 
1855.000000	99.449094 
1854.000000	99.445203 
1853.000000	99.442006 
1852.000000	99.441606 
1851.000000	99.441013 
1850.000000	99.436878 
1849.000000	99.430270 
1848.000000	99.425629 
1847.000000	99.426012 
1846.000000	99.430685 
1845.000000	99.435201 
1844.000000	99.433896 
1843.000000	99.426131 
1842.000000	99.418350 
1841.000000	99.416676 
1840.000000	99.422180 
1839.000000	99.431699 
1838.000000	99.440826 
1837.000000	99.446384 
1836.000000	99.447590 
1835.000000	99.446017 
1834.000000	99.444182 
1833.000000	99.443855 
1832.000000	99.445705 
1831.000000	99.448497 
1830.000000	99.449550 
1829.000000	99.447451 
1828.000000	99.443785 
1827.000000	99.440189 
1826.000000	99.437266 
1825.000000	99.436860 
1824.000000	99.440694 
1823.000000	99.447053 
1822.000000	99.451469 
1821.000000	99.449624 
1820.000000	99.440090 
1819.000000	99.426243 
1818.000000	99.415934 
1817.000000	99.415692 
1816.000000	99.423239 
1815.000000	99.429456 
1814.000000	99.428904 
1813.000000	99.425336 
1812.000000	99.426457 
1811.000000	99.435033 
1810.000000	99.448195 
1809.000000	99.461938 
1808.000000	99.471047 
1807.000000	99.470556 
1806.000000	99.461458 
1805.000000	99.450859 
1804.000000	99.444139 
1803.000000	99.439613 
1802.000000	99.433023 
1801.000000	99.425303 
1800.000000	99.420152 
1799.000000	99.418601 
1798.000000	99.421028 
1797.000000	99.428260 
1796.000000	99.438194 
1795.000000	99.445864 
1794.000000	99.447544 
1793.000000	99.444439 
1792.000000	99.441260 
1791.000000	99.440138 
1790.000000	99.440620 
1789.000000	99.442563 
1788.000000	99.445265 
1787.000000	99.447361 
1786.000000	99.448933 
1785.000000	99.451505 
1784.000000	99.454347 
1783.000000	99.454496 
1782.000000	99.450386 
1781.000000	99.443881 
1780.000000	99.437466 
1779.000000	99.432197 
1778.000000	99.428961 
1777.000000	99.428813 
1776.000000	99.431515 
1775.000000	99.435386 
1774.000000	99.438840 
1773.000000	99.442235 
1772.000000	99.447107 
1771.000000	99.451602 
1770.000000	99.452024 
1769.000000	99.446963 
1768.000000	99.439437 
1767.000000	99.434011 
1766.000000	99.432847 
1765.000000	99.435719 
1764.000000	99.440960 
1763.000000	99.445818 
1762.000000	99.447480 
1761.000000	99.446500 
1760.000000	99.446141 
1759.000000	99.447710 
1758.000000	99.449023 
1757.000000	99.447534 
1756.000000	99.443577 
1755.000000	99.438831 
1754.000000	99.432954 
1753.000000	99.425238 
1752.000000	99.419803 
1751.000000	99.424778 
1750.000000	99.440005 
1749.000000	99.454107 
1748.000000	99.459724 
1747.000000	99.459054 
1746.000000	99.456487 
1745.000000	99.453990 
1744.000000	99.452697 
1743.000000	99.453326 
1742.000000	99.454199 
1741.000000	99.453084 
1740.000000	99.450424 
1739.000000	99.448940 
1738.000000	99.449915 
1737.000000	99.452159 
1736.000000	99.452010 
1735.000000	99.445342 
1734.000000	99.434765 
1733.000000	99.427547 
1732.000000	99.426869 
1731.000000	99.431558 
1730.000000	99.438849 
1729.000000	99.444298 
1728.000000	99.445788 
1727.000000	99.444852 
1726.000000	99.443404 
1725.000000	99.441876 
1724.000000	99.440216 
1723.000000	99.439625 
1722.000000	99.441410 
1721.000000	99.445802 
1720.000000	99.451629 
1719.000000	99.456575 
1718.000000	99.458187 
1717.000000	99.456797 
1716.000000	99.450868 
1715.000000	99.439048 
1714.000000	99.428051 
1713.000000	99.425167 
1712.000000	99.428934 
1711.000000	99.433768 
1710.000000	99.436481 
1709.000000	99.437066 
1708.000000	99.436089 
1707.000000	99.434503 
1706.000000	99.437477 
1705.000000	99.449870 
1704.000000	99.465279 
1703.000000	99.469656 
1702.000000	99.455158 
1701.000000	99.431811 
1700.000000	99.424897 
1699.000000	99.433591 
1698.000000	99.443222 
1697.000000	99.451417 
1696.000000	99.459520 
1695.000000	99.462588 
1694.000000	99.458303 
1693.000000	99.451424 
1692.000000	99.445689 
1691.000000	99.442187 
1690.000000	99.440932 
1689.000000	99.441806 
1688.000000	99.443458 
1687.000000	99.441811 
1686.000000	99.434589 
1685.000000	99.427384 
1684.000000	99.430369 
1683.000000	99.437650 
1682.000000	99.439899 
1681.000000	99.434525 
1680.000000	99.427320 
1679.000000	99.424411 
1678.000000	99.426934 
1677.000000	99.431156 
1676.000000	99.433968 
1675.000000	99.436019 
1674.000000	99.436709 
1673.000000	99.435467 
1672.000000	99.434337 
1671.000000	99.437342 
1670.000000	99.445298 
1669.000000	99.451902 
1668.000000	99.452196 
1667.000000	99.448753 
1666.000000	99.443497 
1665.000000	99.436315 
1664.000000	99.429087 
1663.000000	99.426844 
1662.000000	99.430851 
1661.000000	99.435255 
1660.000000	99.435114 
1659.000000	99.433140 
1658.000000	99.434786 
1657.000000	99.441444 
1656.000000	99.447059 
1655.000000	99.445488 
1654.000000	99.438393 
1653.000000	99.437539 
1652.000000	99.439390 
1651.000000	99.441149 
1650.000000	99.438070 
1649.000000	99.431197 
1648.000000	99.419305 
1647.000000	99.404341 
1646.000000	99.393688 
1645.000000	99.394313 
1644.000000	99.403570 
1643.000000	99.414173 
1642.000000	99.420688 
1641.000000	99.421202 
1640.000000	99.417383 
1639.000000	99.413415 
1638.000000	99.413328 
1637.000000	99.417995 
1636.000000	99.422849 
1635.000000	99.422347 
1634.000000	99.419190 
1633.000000	99.417896 
1632.000000	99.418771 
1631.000000	99.421133 
1630.000000	99.423719 
1629.000000	99.424574 
1628.000000	99.422239 
1627.000000	99.418683 
1626.000000	99.417621 
1625.000000	99.420974 
1624.000000	99.428006 
1623.000000	99.436433 
1622.000000	99.442953 
1621.000000	99.445398 
1620.000000	99.444401 
1619.000000	99.442833 
1618.000000	99.444162 
1617.000000	99.448753 
1616.000000	99.451520 
1615.000000	99.449653 
1614.000000	99.444994 
1613.000000	99.438993 
1612.000000	99.433667 
1611.000000	99.431744 
1610.000000	99.433930 
1609.000000	99.436766 
1608.000000	99.436901 
1607.000000	99.435492 
1606.000000	99.434782 
1605.000000	99.434915 
1604.000000	99.435795 
1603.000000	99.438432 
1602.000000	99.441979 
1601.000000	99.442990 
1600.000000	99.440745 
1599.000000	99.439577 
1598.000000	99.443088 
1597.000000	99.449458 
1596.000000	99.454465 
1595.000000	99.456566 
1594.000000	99.456633 
1593.000000	99.454670 
1592.000000	99.451003 
1591.000000	99.448894 
1590.000000	99.451343 
1589.000000	99.455985 
1588.000000	99.457999 
1587.000000	99.456986 
1586.000000	99.455942 
1585.000000	99.455144 
1584.000000	99.452565 
1583.000000	99.448267 
1582.000000	99.445004 
1581.000000	99.443883 
1580.000000	99.444043 
1579.000000	99.445228 
1578.000000	99.447887 
1577.000000	99.450231 
1576.000000	99.449604 
1575.000000	99.447959 
1574.000000	99.448158 
1573.000000	99.447538 
1572.000000	99.443916 
1571.000000	99.440159 
1570.000000	99.442098 
1569.000000	99.448310 
1568.000000	99.452080 
1567.000000	99.451445 
1566.000000	99.447616 
1565.000000	99.443355 
1564.000000	99.443171 
1563.000000	99.450305 
1562.000000	99.461967 
1561.000000	99.466743 
1560.000000	99.454404 
1559.000000	99.435441 
1558.000000	99.427868 
1557.000000	99.431382 
1556.000000	99.436114 
1555.000000	99.438585 
1554.000000	99.437953 
1553.000000	99.434622 
1552.000000	99.430685 
1551.000000	99.428656 
1550.000000	99.430131 
1549.000000	99.433158 
1548.000000	99.434525 
1547.000000	99.432527 
1546.000000	99.427550 
1545.000000	99.422424 
1544.000000	99.419963 
1543.000000	99.419062 
1542.000000	99.417911 
1541.000000	99.417584 
1540.000000	99.416911 
1539.000000	99.414348 
1538.000000	99.414450 
1537.000000	99.416906 
1536.000000	99.419013 
1535.000000	99.419897 
1534.000000	99.420555 
1533.000000	99.421635 
1532.000000	99.420745 
1531.000000	99.417244 
1530.000000	99.414574 
1529.000000	99.415819 
1528.000000	99.418816 
1527.000000	99.419282 
1526.000000	99.416907 
1525.000000	99.415940 
1524.000000	99.418211 
1523.000000	99.422091 
1522.000000	99.426982 
1521.000000	99.432485 
1520.000000	99.432582 
1519.000000	99.423803 
1518.000000	99.410251 
1517.000000	99.399908 
1516.000000	99.396451 
1515.000000	99.396558 
1514.000000	99.395756 
1513.000000	99.393209 
1512.000000	99.390801 
1511.000000	99.389677 
1510.000000	99.388735 
1509.000000	99.386504 
1508.000000	99.384128 
1507.000000	99.382316 
1506.000000	99.377368 
1505.000000	99.371311 
1504.000000	99.367499 
1503.000000	99.365937 
1502.000000	99.367599 
1501.000000	99.371680 
1500.000000	99.375389 
1499.000000	99.374922 
1498.000000	99.369409 
1497.000000	99.366296 
1496.000000	99.372692 
1495.000000	99.380916 
1494.000000	99.379220 
1493.000000	99.366072 
1492.000000	99.347577 
1491.000000	99.332518 
1490.000000	99.327542 
1489.000000	99.331718 
1488.000000	99.335419 
1487.000000	99.330326 
1486.000000	99.319391 
1485.000000	99.309758 
1484.000000	99.304758 
1483.000000	99.303259 
1482.000000	99.301400 
1481.000000	99.295988 
1480.000000	99.286859 
1479.000000	99.276490 
1478.000000	99.268467 
1477.000000	99.265442 
1476.000000	99.265794 
1475.000000	99.262787 
1474.000000	99.253526 
1473.000000	99.245369 
1472.000000	99.246318 
1471.000000	99.251608 
1470.000000	99.254472 
1469.000000	99.255127 
1468.000000	99.256022 
1467.000000	99.256680 
1466.000000	99.255572 
1465.000000	99.254200 
1464.000000	99.254995 
1463.000000	99.257206 
1462.000000	99.258684 
1461.000000	99.259379 
1460.000000	99.259830 
1459.000000	99.258029 
1458.000000	99.247055 
1457.000000	99.223846 
1456.000000	99.197718 
1455.000000	99.176831 
1454.000000	99.161078 
1453.000000	99.150888 
1452.000000	99.146475 
1451.000000	99.146758 
1450.000000	99.151495 
1449.000000	99.162523 
1448.000000	99.178815 
1447.000000	99.193133 
1446.000000	99.199955 
1445.000000	99.202322 
1444.000000	99.204773 
1443.000000	99.206723 
1442.000000	99.205195 
1441.000000	99.200445 
1440.000000	99.196186 
1439.000000	99.194368 
1438.000000	99.192785 
1437.000000	99.190501 
1436.000000	99.190359 
1435.000000	99.190430 
1434.000000	99.186942 
1433.000000	99.181534 
1432.000000	99.178068 
1431.000000	99.178486 
1430.000000	99.180270 
1429.000000	99.179407 
1428.000000	99.174924 
1427.000000	99.167247 
1426.000000	99.155393 
1425.000000	99.138887 
1424.000000	99.122359 
1423.000000	99.111127 
1422.000000	99.101606 
1421.000000	99.084593 
1420.000000	99.055757 
1419.000000	99.021165 
1418.000000	98.986589 
1417.000000	98.952199 
1416.000000	98.918834 
1415.000000	98.886203 
1414.000000	98.850779 
1413.000000	98.810253 
1412.000000	98.769582 
1411.000000	98.737007 
1410.000000	98.713451 
1409.000000	98.693948 
1408.000000	98.676972 
1407.000000	98.665099 
1406.000000	98.660360 
1405.000000	98.665192 
1404.000000	98.684384 
1403.000000	98.716428 
1402.000000	98.749626 
1401.000000	98.774590 
1400.000000	98.793100 
1399.000000	98.810006 
1398.000000	98.814104 
1397.000000	98.781413 
1396.000000	98.704275 
1395.000000	98.615784 
1394.000000	98.573593 
1393.000000	98.603964 
1392.000000	98.683697 
1391.000000	98.771142 
1390.000000	98.834342 
1389.000000	98.860188 
1388.000000	98.853131 
1387.000000	98.828927 
1386.000000	98.803232 
1385.000000	98.783764 
1384.000000	98.771609 
1383.000000	98.765104 
1382.000000	98.762652 
1381.000000	98.765539 
1380.000000	98.776797 
1379.000000	98.796812 
1378.000000	98.820851 
1377.000000	98.842511 
1376.000000	98.860041 
1375.000000	98.877876 
1374.000000	98.901259 
1373.000000	98.929746 
1372.000000	98.958829 
1371.000000	98.985926 
1370.000000	99.011435 
1369.000000	99.034977 
1368.000000	99.056221 
1367.000000	99.076562 
1366.000000	99.097613 
1365.000000	99.119020 
1364.000000	99.137676 
1363.000000	99.150304 
1362.000000	99.157691 
1361.000000	99.164016 
1360.000000	99.172362 
1359.000000	99.183354 
1358.000000	99.196629 
1357.000000	99.211097 
1356.000000	99.224769 
1355.000000	99.235783 
1354.000000	99.244254 
1353.000000	99.252109 
1352.000000	99.259622 
1351.000000	99.264553 
1350.000000	99.266135 
1349.000000	99.265264 
1348.000000	99.264010 
1347.000000	99.264934 
1346.000000	99.270365 
1345.000000	99.280226 
1344.000000	99.291285 
1343.000000	99.299618 
1342.000000	99.303843 
1341.000000	99.304972 
1340.000000	99.304440 
1339.000000	99.303619 
1338.000000	99.303802 
1337.000000	99.305237 
1336.000000	99.306360 
1335.000000	99.305086 
1334.000000	99.301986 
1333.000000	99.300921 
1332.000000	99.304945 
1331.000000	99.312404 
1330.000000	99.318115 
1329.000000	99.318046 
1328.000000	99.312859 
1327.000000	99.307302 
1326.000000	99.306323 
1325.000000	99.310387 
1324.000000	99.316120 
1323.000000	99.319550 
1322.000000	99.318692 
1321.000000	99.314667 
1320.000000	99.311486 
1319.000000	99.313221 
1318.000000	99.319655 
1317.000000	99.325618 
1316.000000	99.325665 
1315.000000	99.319259 
1314.000000	99.311351 
1313.000000	99.308352 
1312.000000	99.312607 
1311.000000	99.320081 
1310.000000	99.323900 
1309.000000	99.320793 
1308.000000	99.314097 
1307.000000	99.310046 
1306.000000	99.311665 
1305.000000	99.316311 
1304.000000	99.319858 
1303.000000	99.320625 
1302.000000	99.319573 
1301.000000	99.318476 
1300.000000	99.318811 
1299.000000	99.320670 
1298.000000	99.321704 
1297.000000	99.318426 
1296.000000	99.309842 
1295.000000	99.299829 
1294.000000	99.294525 
1293.000000	99.297090 
1292.000000	99.304697 
1291.000000	99.310140 
1290.000000	99.307226 
1289.000000	99.296205 
1288.000000	99.284024 
1287.000000	99.277965 
1286.000000	99.278497 
1285.000000	99.279473 
1284.000000	99.275176 
1283.000000	99.265432 
1282.000000	99.254160 
1281.000000	99.245193 
1280.000000	99.240138 
1279.000000	99.238159 
1278.000000	99.235754 
1277.000000	99.228295 
1276.000000	99.213835 
1275.000000	99.195688 
1274.000000	99.179888 
1273.000000	99.169861 
1272.000000	99.163621 
1271.000000	99.155177 
1270.000000	99.138578 
1269.000000	99.112628 
1268.000000	99.083089 
1267.000000	99.058735 
1266.000000	99.043122 
1265.000000	99.031249 
1264.000000	99.015308 
1263.000000	98.992014 
1262.000000	98.963694 
1261.000000	98.935227 
1260.000000	98.912106 
1259.000000	98.898428 
1258.000000	98.892516 
1257.000000	98.886585 
1256.000000	98.874423 
1255.000000	98.858566 
1254.000000	98.846550 
1253.000000	98.840964 
1252.000000	98.837323 
1251.000000	98.832001 
1250.000000	98.827940 
1249.000000	98.831330 
1248.000000	98.845891 
1247.000000	98.870487 
1246.000000	98.897215 
1245.000000	98.910843 
1244.000000	98.897363 
1243.000000	98.860334 
1242.000000	98.826216 
1241.000000	98.824888 
1240.000000	98.861897 
1239.000000	98.912646 
1238.000000	98.944979 
1237.000000	98.945074 
1236.000000	98.921358 
1235.000000	98.890041 
1234.000000	98.862437 
1233.000000	98.842946 
1232.000000	98.831542 
1231.000000	98.824840 
1230.000000	98.817891 
1229.000000	98.808637 
1228.000000	98.800626 
1227.000000	98.800046 
1226.000000	98.809981 
1225.000000	98.827446 
1224.000000	98.845336 
1223.000000	98.857535 
1222.000000	98.863869 
1221.000000	98.870624 
1220.000000	98.884770 
1219.000000	98.906809 
1218.000000	98.929848 
1217.000000	98.946192 
1216.000000	98.954003 
1215.000000	98.957526 
1214.000000	98.962528 
1213.000000	98.971894 
1212.000000	98.983746 
1211.000000	98.992447 
1210.000000	98.993117 
1209.000000	98.986795 
1208.000000	98.980224 
1207.000000	98.979335 
1206.000000	98.983637 
1205.000000	98.987861 
1204.000000	98.987779 
1203.000000	98.983041 
1202.000000	98.975607 
1201.000000	98.967587 
1200.000000	98.960525 
1199.000000	98.954952 
1198.000000	98.949878 
1197.000000	98.943757 
1196.000000	98.936333 
1195.000000	98.929011 
1194.000000	98.923384 
1193.000000	98.919586 
1192.000000	98.915724 
1191.000000	98.908650 
1190.000000	98.896357 
1189.000000	98.880788 
1188.000000	98.867606 
1187.000000	98.861531 
1186.000000	98.861484 
1185.000000	98.861131 
1184.000000	98.854190 
1183.000000	98.838975 
1182.000000	98.819098 
1181.000000	98.801093 
1180.000000	98.790390 
1179.000000	98.787181 
1178.000000	98.785430 
1177.000000	98.777501 
1176.000000	98.760982 
1175.000000	98.740759 
1174.000000	98.724189 
1173.000000	98.714442 
1172.000000	98.708529 
1171.000000	98.700750 
1170.000000	98.687583 
1169.000000	98.670153 
1168.000000	98.652890 
1167.000000	98.639708 
1166.000000	98.631057 
1165.000000	98.624520 
1164.000000	98.618109 
1163.000000	98.612693 
1162.000000	98.611525 
1161.000000	98.617566 
1160.000000	98.630475 
1159.000000	98.645327 
1158.000000	98.654614 
1157.000000	98.652844 
1156.000000	98.640081 
1155.000000	98.621493 
1154.000000	98.603595 
1153.000000	98.590027 
1152.000000	98.579533 
1151.000000	98.567492 
1150.000000	98.550510 
1149.000000	98.530316 
1148.000000	98.512229 
1147.000000	98.498911 
1146.000000	98.486629 
1145.000000	98.469019 
1144.000000	98.443907 
1143.000000	98.415309 
1142.000000	98.389488 
1141.000000	98.370456 
1140.000000	98.358425 
1139.000000	98.350085 
1138.000000	98.339984 
1137.000000	98.323862 
1136.000000	98.302089 
1135.000000	98.279392 
1134.000000	98.260643 
1133.000000	98.246866 
1132.000000	98.234783 
1131.000000	98.219456 
1130.000000	98.198032 
1129.000000	98.172133 
1128.000000	98.146298 
1127.000000	98.123211 
1126.000000	98.101091 
1125.000000	98.076735 
1124.000000	98.049856 
1123.000000	98.022492 
1122.000000	97.995083 
1121.000000	97.965748 
1120.000000	97.933424 
1119.000000	97.899203 
1118.000000	97.864074 
1117.000000	97.827591 
1116.000000	97.789666 
1115.000000	97.751698 
1114.000000	97.714608 
1113.000000	97.676891 
1112.000000	97.635809 
1111.000000	97.590358 
1110.000000	97.542875 
1109.000000	97.497908 
1108.000000	97.458936 
1107.000000	97.424888 
1106.000000	97.391026 
1105.000000	97.354387 
1104.000000	97.316772 
1103.000000	97.281112 
1102.000000	97.247737 
1101.000000	97.216834 
1100.000000	97.192451 
1099.000000	97.176819 
1098.000000	97.164864 
1097.000000	97.147997 
1096.000000	97.123810 
1095.000000	97.096166 
1094.000000	97.065065 
1093.000000	97.022288 
1092.000000	96.959752 
1091.000000	96.878202 
1090.000000	96.785391 
1089.000000	96.689220 
1088.000000	96.595331 
1087.000000	96.507843 
1086.000000	96.428180 
1085.000000	96.353872 
1084.000000	96.280310 
1083.000000	96.203303 
1082.000000	96.121094 
1081.000000	96.037066 
1080.000000	95.959782 
1079.000000	95.896077 
1078.000000	95.844159 
1077.000000	95.798447 
1076.000000	95.760929 
1075.000000	95.741347 
1074.000000	95.744991 
1073.000000	95.765496 
1072.000000	95.788196 
1071.000000	95.792047 
1070.000000	95.750673 
1069.000000	95.648614 
1068.000000	95.507251 
1067.000000	95.385536 
1066.000000	95.339400 
1065.000000	95.377257 
1064.000000	95.459079 
1063.000000	95.532514 
1062.000000	95.562488 
1061.000000	95.535393 
1060.000000	95.455659 
1059.000000	95.348113 
1058.000000	95.252343 
1057.000000	95.198788 
1056.000000	95.186630 
1055.000000	95.188521 
1054.000000	95.177550 
1053.000000	95.148341 
1052.000000	95.113548 
1051.000000	95.085539 
1050.000000	95.066148 
1049.000000	95.052265 
1048.000000	95.043884 
1047.000000	95.042663 
1046.000000	95.046576 
1045.000000	95.050915 
1044.000000	95.054073 
1043.000000	95.059407 
1042.000000	95.070450 
1041.000000	95.085363 
1040.000000	95.098014 
1039.000000	95.106491 
1038.000000	95.120431 
1037.000000	95.156062 
1036.000000	95.220702 
1035.000000	95.304403 
1034.000000	95.389895 
1033.000000	95.465887 
1032.000000	95.523197 
1031.000000	95.544534 
1030.000000	95.516649 
1029.000000	95.458490 
1028.000000	95.422005 
1027.000000	95.450095 
1026.000000	95.536537 
1025.000000	95.636311 
1024.000000	95.710572 
1023.000000	95.751640 
1022.000000	95.770833 
1021.000000	95.778711 
1020.000000	95.781176 
1019.000000	95.783291 
1018.000000	95.788269 
1017.000000	95.795864 
1016.000000	95.805671 
1015.000000	95.819696 
1014.000000	95.840022 
1013.000000	95.866480 
1012.000000	95.897270 
1011.000000	95.929186 
1010.000000	95.957686 
1009.000000	95.980494 
1008.000000	96.001309 
1007.000000	96.026593 
1006.000000	96.058616 
1005.000000	96.094446 
1004.000000	96.130845 
1003.000000	96.166442 
1002.000000	96.200055 
1001.000000	96.231368 
1000.000000	96.262910 
999.000000	 96.296821 
998.000000	 96.329522 
997.000000	 96.354388 
996.000000	 96.370941 
995.000000	 96.387418 
994.000000	 96.412371 
993.000000	 96.446097 
992.000000	 96.481245 
991.000000	 96.509615 
990.000000	 96.528332 
989.000000	 96.542037 
988.000000	 96.559181 
987.000000	 96.583768 
986.000000	 96.611062 
985.000000	 96.634087 
984.000000	 96.653382 
983.000000	 96.676543 
982.000000	 96.708482 
981.000000	 96.746309 
980.000000	 96.784147 
979.000000	 96.818852 
978.000000	 96.850246 
977.000000	 96.879933 
976.000000	 96.911498 
975.000000	 96.948386 
974.000000	 96.989661 
973.000000	 97.030421 
972.000000	 97.067767 
971.000000	 97.103663 
970.000000	 97.140653 
969.000000	 97.177779 
968.000000	 97.212794 
967.000000	 97.245919 
966.000000	 97.278823 
965.000000	 97.311283 
964.000000	 97.341256 
963.000000	 97.367719 
962.000000	 97.391814 
961.000000	 97.415514 
960.000000	 97.440257 
959.000000	 97.466321 
958.000000	 97.492353 
957.000000	 97.515937 
956.000000	 97.535972 
955.000000	 97.554745 
954.000000	 97.576603 
953.000000	 97.603564 
952.000000	 97.632139 
951.000000	 97.655318 
950.000000	 97.668752 
949.000000	 97.675109 
948.000000	 97.681688 
947.000000	 97.693873 
946.000000	 97.711541 
945.000000	 97.731174 
944.000000	 97.749322 
943.000000	 97.763456 
942.000000	 97.771949 
941.000000	 97.775360 
940.000000	 97.776662 
939.000000	 97.778456 
938.000000	 97.780439 
937.000000	 97.780890 
936.000000	 97.779928 
935.000000	 97.779732 
934.000000	 97.781829 
933.000000	 97.785392 
932.000000	 97.788208 
931.000000	 97.788859 
930.000000	 97.788632 
929.000000	 97.791663 
928.000000	 97.801708 
927.000000	 97.817604 
926.000000	 97.833086 
925.000000	 97.842237 
924.000000	 97.843894 
923.000000	 97.839923 
922.000000	 97.831555 
921.000000	 97.819674 
920.000000	 97.807001 
919.000000	 97.796825 
918.000000	 97.789500 
917.000000	 97.782283 
916.000000	 97.772873 
915.000000	 97.761755 
914.000000	 97.751324 
913.000000	 97.743943 
912.000000	 97.740419 
911.000000	 97.739091 
910.000000	 97.736894 
909.000000	 97.732536 
908.000000	 97.727847 
907.000000	 97.724873 
906.000000	 97.722840 
905.000000	 97.719661 
904.000000	 97.715870 
903.000000	 97.715822 
902.000000	 97.725240 
901.000000	 97.747374 
900.000000	 97.779506 
899.000000	 97.812543 
898.000000	 97.837027 
897.000000	 97.851062 
896.000000	 97.860062 
895.000000	 97.868300 
894.000000	 97.875176 
893.000000	 97.881825 
892.000000	 97.896011 
891.000000	 97.925068 
890.000000	 97.966546 
889.000000	 98.010608 
888.000000	 98.049601 
887.000000	 98.080768 
886.000000	 98.102411 
885.000000	 98.113788 
884.000000	 98.118263 
883.000000	 98.120822 
882.000000	 98.122084 
881.000000	 98.120209 
880.000000	 98.119673 
879.000000	 98.131777 
878.000000	 98.162238 
877.000000	 98.201551 
876.000000	 98.231681 
875.000000	 98.241480 
874.000000	 98.234626 
873.000000	 98.224574 
872.000000	 98.223460 
871.000000	 98.234231 
870.000000	 98.250696 
869.000000	 98.264793 
868.000000	 98.274690 
867.000000	 98.286326 
866.000000	 98.307277 
865.000000	 98.338897 
864.000000	 98.374057 
863.000000	 98.403020 
862.000000	 98.422759 
861.000000	 98.439858 
860.000000	 98.462335 
859.000000	 98.489699 
858.000000	 98.514698 
857.000000	 98.534787 
856.000000	 98.556471 
855.000000	 98.585584 
854.000000	 98.617797 
853.000000	 98.643003 
852.000000	 98.656229 
851.000000	 98.660012 
850.000000	 98.658708 
849.000000	 98.655878 
848.000000	 98.656232 
847.000000	 98.664356 
846.000000	 98.679845 
845.000000	 98.697118 
844.000000	 98.711349 
843.000000	 98.721948 
842.000000	 98.729570 
841.000000	 98.732904 
840.000000	 98.730625 
839.000000	 98.724900 
838.000000	 98.720260 
837.000000	 98.718391 
836.000000	 98.715526 
835.000000	 98.707014 
834.000000	 98.694765 
833.000000	 98.687139 
832.000000	 98.688044 
831.000000	 98.688126 
830.000000	 98.673428 
829.000000	 98.645152 
828.000000	 98.623899 
827.000000	 98.627803 
826.000000	 98.650225 
825.000000	 98.667240 
824.000000	 98.665592 
823.000000	 98.654213 
822.000000	 98.648458 
821.000000	 98.653022 
820.000000	 98.662638 
819.000000	 98.670726 
818.000000	 98.673273 
817.000000	 98.669543 
816.000000	 98.662611 
815.000000	 98.656728 
814.000000	 98.652022 
813.000000	 98.643634 
812.000000	 98.627257 
811.000000	 98.603245 
810.000000	 98.574035 
809.000000	 98.539938 
808.000000	 98.499395 
807.000000	 98.451551 
806.000000	 98.396557 
805.000000	 98.334364 
804.000000	 98.265754 
803.000000	 98.195189 
802.000000	 98.131306 
801.000000	 98.083355 
800.000000	 98.055957 
799.000000	 98.046422 
798.000000	 98.047602 
797.000000	 98.054191 
796.000000	 98.065372 
795.000000	 98.081528 
794.000000	 98.102051 
793.000000	 98.127888 
792.000000	 98.160907 
791.000000	 98.195622 
790.000000	 98.215593 
789.000000	 98.206553 
788.000000	 98.173897 
787.000000	 98.140700 
786.000000	 98.125452 
785.000000	 98.124860 
784.000000	 98.120684 
783.000000	 98.100381 
782.000000	 98.069061 
781.000000	 98.043794 
780.000000	 98.037842 
779.000000	 98.048290 
778.000000	 98.058314 
777.000000	 98.054826 
776.000000	 98.044698 
775.000000	 98.049576 
774.000000	 98.082462 
773.000000	 98.132732 
772.000000	 98.176621 
771.000000	 98.198990 
770.000000	 98.202293 
769.000000	 98.198436 
768.000000	 98.197723 
767.000000	 98.204714 
766.000000	 98.218141 
765.000000	 98.231692 
764.000000	 98.238090 
763.000000	 98.235431 
762.000000	 98.228862 
761.000000	 98.224738 
760.000000	 98.224664 
759.000000	 98.226670 
758.000000	 98.230014 
757.000000	 98.236049 
756.000000	 98.245096 
755.000000	 98.255497 
754.000000	 98.266100 
753.000000	 98.277215 
752.000000	 98.288636 
751.000000	 98.298552 
750.000000	 98.304842 
749.000000	 98.305883 
748.000000	 98.300782 
747.000000	 98.292335 
746.000000	 98.289651 
745.000000	 98.301779 
744.000000	 98.325314 
743.000000	 98.343796 
742.000000	 98.345366 
741.000000	 98.337617 
740.000000	 98.338399 
739.000000	 98.354203 
738.000000	 98.374459 
737.000000	 98.386374 
736.000000	 98.388379 
735.000000	 98.388730 
734.000000	 98.397531 
733.000000	 98.420449 
732.000000	 98.453182 
731.000000	 98.480200 
730.000000	 98.486277 
729.000000	 98.472381 
728.000000	 98.456097 
727.000000	 98.452615 
726.000000	 98.458683 
725.000000	 98.461265 
724.000000	 98.456754 
723.000000	 98.453770 
722.000000	 98.459431 
721.000000	 98.470576 
720.000000	 98.479159 
719.000000	 98.481009 
718.000000	 98.477848 
717.000000	 98.474579 
716.000000	 98.474980 
715.000000	 98.477604 
714.000000	 98.476681 
713.000000	 98.469274 
712.000000	 98.460621 
711.000000	 98.458845 
710.000000	 98.465352 
709.000000	 98.473004 
708.000000	 98.473890 
707.000000	 98.467562 
706.000000	 98.459539 
705.000000	 98.455396 
704.000000	 98.456020 
703.000000	 98.454523 
702.000000	 98.441301 
701.000000	 98.415223 
700.000000	 98.385205 
699.000000	 98.360013 
698.000000	 98.336851 
697.000000	 98.304971 
696.000000	 98.260279 
695.000000	 98.210458 
694.000000	 98.171950 
693.000000	 98.162506 
692.000000	 98.188270 
691.000000	 98.235063 
690.000000	 98.274938 
689.000000	 98.291907 
688.000000	 98.298802 
687.000000	 98.317778 
686.000000	 98.350319 
685.000000	 98.376413 
684.000000	 98.379819 
683.000000	 98.365667 
682.000000	 98.352400 
681.000000	 98.354367 
680.000000	 98.372385 
679.000000	 98.395837 
678.000000	 98.410074 
677.000000	 98.402648 
676.000000	 98.378165 
675.000000	 98.361820 
674.000000	 98.372627 
673.000000	 98.401504 
672.000000	 98.430443 
671.000000	 98.462992 
670.000000	 98.521108 
669.000000	 98.599876 
668.000000	 98.619746 
667.000000	 98.543442 
666.000000	 98.470403 
665.000000	 98.446354 
664.000000	 98.447609 
663.000000	 98.441531 
662.000000	 98.415305 
661.000000	 98.387139 
660.000000	 98.386671 
659.000000	 98.418374 
658.000000	 98.447490 
657.000000	 98.428122 
656.000000	 98.354556 
655.000000	 98.271808 
654.000000	 98.226919 
653.000000	 98.226034 
652.000000	 98.243423 
651.000000	 98.247097 
650.000000	 98.218356 

