4000.000000	99.563645 
3999.000000	99.564911 
3998.000000	99.564949 
3997.000000	99.562569 
3996.000000	99.558243 
3995.000000	99.554037 
3994.000000	99.552252 
3993.000000	99.553792 
3992.000000	99.557432 
3991.000000	99.560664 
3990.000000	99.561659 
3989.000000	99.560714 
3988.000000	99.559830 
3987.000000	99.560763 
3986.000000	99.563520 
3985.000000	99.566590 
3984.000000	99.568312 
3983.000000	99.567934 
3982.000000	99.565668 
3981.000000	99.562180 
3980.000000	99.558106 
3979.000000	99.553941 
3978.000000	99.550359 
3977.000000	99.548475 
3976.000000	99.549442 
3975.000000	99.553469 
3974.000000	99.559320 
3973.000000	99.564912 
3972.000000	99.568510 
3971.000000	99.569534 
3970.000000	99.568617 
3969.000000	99.567023 
3968.000000	99.565796 
3967.000000	99.565244 
3966.000000	99.565105 
3965.000000	99.565160 
3964.000000	99.565428 
3963.000000	99.565621 
3962.000000	99.564802 
3961.000000	99.562094 
3960.000000	99.557760 
3959.000000	99.553227 
3958.000000	99.549964 
3957.000000	99.548395 
3956.000000	99.548026 
3955.000000	99.548408 
3954.000000	99.549603 
3953.000000	99.551693 
3952.000000	99.554123 
3951.000000	99.556035 
3950.000000	99.557268 
3949.000000	99.558586 
3948.000000	99.560655 
3947.000000	99.562999 
3946.000000	99.564299 
3945.000000	99.563654 
3944.000000	99.561487 
3943.000000	99.559089 
3942.000000	99.557382 
3941.000000	99.556262 
3940.000000	99.554817 
3939.000000	99.551737 
3938.000000	99.546253 
3937.000000	99.539349 
3936.000000	99.533998 
3935.000000	99.533712 
3934.000000	99.540098 
3933.000000	99.551386 
3932.000000	99.562914 
3931.000000	99.569559 
3930.000000	99.568651 
3929.000000	99.561333 
3928.000000	99.551935 
3927.000000	99.545654 
3926.000000	99.545583 
3925.000000	99.550701 
3924.000000	99.556691 
3923.000000	99.559732 
3922.000000	99.559288 
3921.000000	99.557367 
3920.000000	99.556226 
3919.000000	99.557174 
3918.000000	99.560579 
3917.000000	99.565908 
3916.000000	99.571671 
3915.000000	99.576137 
3914.000000	99.578549 
3913.000000	99.579399 
3912.000000	99.579647 
3911.000000	99.579859 
3910.000000	99.580236 
3909.000000	99.580921 
3908.000000	99.581869 
3907.000000	99.582446 
3906.000000	99.581409 
3905.000000	99.577646 
3904.000000	99.570892 
3903.000000	99.562147 
3902.000000	99.554039 
3901.000000	99.549944 
3900.000000	99.551815 
3899.000000	99.558497 
3898.000000	99.566383 
3897.000000	99.572132 
3896.000000	99.574439 
3895.000000	99.573599 
3894.000000	99.570738 
3893.000000	99.567225 
3892.000000	99.564079 
3891.000000	99.561307 
3890.000000	99.558597 
3889.000000	99.556422 
3888.000000	99.555437 
3887.000000	99.556009 
3886.000000	99.558194 
3885.000000	99.560965 
3884.000000	99.562591 
3883.000000	99.562619 
3882.000000	99.562381 
3881.000000	99.563510 
3880.000000	99.565980 
3879.000000	99.568192 
3878.000000	99.569573 
3877.000000	99.571280 
3876.000000	99.574568 
3875.000000	99.579132 
3874.000000	99.582547 
3873.000000	99.582195 
3872.000000	99.578296 
3871.000000	99.574063 
3870.000000	99.572343 
3869.000000	99.572852 
3868.000000	99.574028 
3867.000000	99.575539 
3866.000000	99.577436 
3865.000000	99.578994 
3864.000000	99.578605 
3863.000000	99.575324 
3862.000000	99.570611 
3861.000000	99.567285 
3860.000000	99.567064 
3859.000000	99.569724 
3858.000000	99.573756 
3857.000000	99.577391 
3856.000000	99.579411 
3855.000000	99.580649 
3854.000000	99.584519 
3853.000000	99.590993 
3852.000000	99.594953 
3851.000000	99.594639 
3850.000000	99.591893 
3849.000000	99.587862 
3848.000000	99.583012 
3847.000000	99.578026 
3846.000000	99.574254 
3845.000000	99.573176 
3844.000000	99.575478 
3843.000000	99.580774 
3842.000000	99.587969 
3841.000000	99.595405 
3840.000000	99.601070 
3839.000000	99.603016 
3838.000000	99.600193 
3837.000000	99.593589 
3836.000000	99.586034 
3835.000000	99.580648 
3834.000000	99.579331 
3833.000000	99.582013 
3832.000000	99.586875 
3831.000000	99.591437 
3830.000000	99.593985 
3829.000000	99.594159 
3828.000000	99.592466 
3827.000000	99.589854 
3826.000000	99.587816 
3825.000000	99.587984 
3824.000000	99.591007 
3823.000000	99.595769 
3822.000000	99.600001 
3821.000000	99.601646 
3820.000000	99.600572 
3819.000000	99.599500 
3818.000000	99.600482 
3817.000000	99.601584 
3816.000000	99.598831 
3815.000000	99.590615 
3814.000000	99.579685 
3813.000000	99.570647 
3812.000000	99.566771 
3811.000000	99.568890 
3810.000000	99.575736 
3809.000000	99.584669 
3808.000000	99.592610 
3807.000000	99.597185 
3806.000000	99.598085 
3805.000000	99.597326 
3804.000000	99.597338 
3803.000000	99.598714 
3802.000000	99.599872 
3801.000000	99.598411 
3800.000000	99.593993 
3799.000000	99.589225 
3798.000000	99.586351 
3797.000000	99.584897 
3796.000000	99.582745 
3795.000000	99.578627 
3794.000000	99.573378 
3793.000000	99.568830 
3792.000000	99.566330 
3791.000000	99.566280 
3790.000000	99.568351 
3789.000000	99.571785 
3788.000000	99.575572 
3787.000000	99.578550 
3786.000000	99.579721 
3785.000000	99.578813 
3784.000000	99.576688 
3783.000000	99.575025 
3782.000000	99.575250 
3781.000000	99.577554 
3780.000000	99.580648 
3779.000000	99.582398 
3778.000000	99.581484 
3777.000000	99.578540 
3776.000000	99.575274 
3775.000000	99.573177 
3774.000000	99.573074 
3773.000000	99.574951 
3772.000000	99.577698 
3771.000000	99.579327 
3770.000000	99.578130 
3769.000000	99.574290 
3768.000000	99.570393 
3767.000000	99.569330 
3766.000000	99.571429 
3765.000000	99.574284 
3764.000000	99.575313 
3763.000000	99.573913 
3762.000000	99.571159 
3761.000000	99.568390 
3760.000000	99.566741 
3759.000000	99.567091 
3758.000000	99.570035 
3757.000000	99.575829 
3756.000000	99.583961 
3755.000000	99.593059 
3754.000000	99.601389 
3753.000000	99.607595 
3752.000000	99.611109 
3751.000000	99.611755 
3750.000000	99.609805 
3749.000000	99.607310 
3748.000000	99.607010 
3747.000000	99.609103 
3746.000000	99.610627 
3745.000000	99.608634 
3744.000000	99.603025 
3743.000000	99.596307 
3742.000000	99.591205 
3741.000000	99.588053 
3740.000000	99.584935 
3739.000000	99.580188 
3738.000000	99.574974 
3737.000000	99.573420 
3736.000000	99.577906 
3735.000000	99.584632 
3734.000000	99.587256 
3733.000000	99.584588 
3732.000000	99.580587 
3731.000000	99.578610 
3730.000000	99.578836 
3729.000000	99.579728 
3728.000000	99.580229 
3727.000000	99.580228 
3726.000000	99.579539 
3725.000000	99.577688 
3724.000000	99.575059 
3723.000000	99.573401 
3722.000000	99.574169 
3721.000000	99.576857 
3720.000000	99.579371 
3719.000000	99.579432 
3718.000000	99.576095 
3717.000000	99.570413 
3716.000000	99.564406 
3715.000000	99.559486 
3714.000000	99.555992 
3713.000000	99.554413 
3712.000000	99.555966 
3711.000000	99.560322 
3710.000000	99.564109 
3709.000000	99.563435 
3708.000000	99.557131 
3707.000000	99.547282 
3706.000000	99.537562 
3705.000000	99.530960 
3704.000000	99.528355 
3703.000000	99.528356 
3702.000000	99.528022 
3701.000000	99.524507 
3700.000000	99.517181 
3699.000000	99.508070 
3698.000000	99.500058 
3697.000000	99.495401 
3696.000000	99.495202 
3695.000000	99.499476 
3694.000000	99.507478 
3693.000000	99.517674 
3692.000000	99.527469 
3691.000000	99.533615 
3690.000000	99.533945 
3689.000000	99.528750 
3688.000000	99.520301 
3687.000000	99.511235 
3686.000000	99.503306 
3685.000000	99.497549 
3684.000000	99.494707 
3683.000000	99.494610 
3682.000000	99.495716 
3681.000000	99.496012 
3680.000000	99.494479 
3679.000000	99.491699 
3678.000000	99.489175 
3677.000000	99.488530 
3676.000000	99.490205 
3675.000000	99.490483 
3674.000000	99.485046 
3673.000000	99.475033 
3672.000000	99.464288 
3671.000000	99.456190 
3670.000000	99.452309 
3669.000000	99.450155 
3668.000000	99.446322 
3667.000000	99.440968 
3666.000000	99.435939 
3665.000000	99.431676 
3664.000000	99.427002 
3663.000000	99.420396 
3662.000000	99.411401 
3661.000000	99.400677 
3660.000000	99.389021 
3659.000000	99.377147 
3658.000000	99.366458 
3657.000000	99.359105 
3656.000000	99.355862 
3655.000000	99.354701 
3654.000000	99.352785 
3653.000000	99.348113 
3652.000000	99.339336 
3651.000000	99.326836 
3650.000000	99.314143 
3649.000000	99.305416 
3648.000000	99.300714 
3647.000000	99.296604 
3646.000000	99.290377 
3645.000000	99.281936 
3644.000000	99.273300 
3643.000000	99.266840 
3642.000000	99.263895 
3641.000000	99.263933 
3640.000000	99.264759 
3639.000000	99.263632 
3638.000000	99.258499 
3637.000000	99.249129 
3636.000000	99.237217 
3635.000000	99.225074 
3634.000000	99.213763 
3633.000000	99.202755 
3632.000000	99.191669 
3631.000000	99.181900 
3630.000000	99.176281 
3629.000000	99.175070 
3628.000000	99.173059 
3627.000000	99.167199 
3626.000000	99.161161 
3625.000000	99.158415 
3624.000000	99.158124 
3623.000000	99.157525 
3622.000000	99.155757 
3621.000000	99.155598 
3620.000000	99.160852 
3619.000000	99.171285 
3618.000000	99.182122 
3617.000000	99.190161 
3616.000000	99.196535 
3615.000000	99.203599 
3614.000000	99.211586 
3613.000000	99.218308 
3612.000000	99.222029 
3611.000000	99.224114 
3610.000000	99.227589 
3609.000000	99.233453 
3608.000000	99.239231 
3607.000000	99.241950 
3606.000000	99.242424 
3605.000000	99.244762 
3604.000000	99.252184 
3603.000000	99.264566 
3602.000000	99.278985 
3601.000000	99.291887 
3600.000000	99.300730 
3599.000000	99.304472 
3598.000000	99.303462 
3597.000000	99.299459 
3596.000000	99.295272 
3595.000000	99.293894 
3594.000000	99.296709 
3593.000000	99.302274 
3592.000000	99.307389 
3591.000000	99.309338 
3590.000000	99.308000 
3589.000000	99.306379 
3588.000000	99.307927 
3587.000000	99.311732 
3586.000000	99.313814 
3585.000000	99.313197 
3584.000000	99.312487 
3583.000000	99.313619 
3582.000000	99.315812 
3581.000000	99.317088 
3580.000000	99.316480 
3579.000000	99.314341 
3578.000000	99.311190 
3577.000000	99.307479 
3576.000000	99.304386 
3575.000000	99.303470 
3574.000000	99.304963 
3573.000000	99.307004 
3572.000000	99.307321 
3571.000000	99.305377 
3570.000000	99.302453 
3569.000000	99.300408 
3568.000000	99.300613 
3567.000000	99.302812 
3566.000000	99.305104 
3565.000000	99.306203 
3564.000000	99.306562 
3563.000000	99.307014 
3562.000000	99.307753 
3561.000000	99.308172 
3560.000000	99.307342 
3559.000000	99.304890 
3558.000000	99.301742 
3557.000000	99.299694 
3556.000000	99.299993 
3555.000000	99.301996 
3554.000000	99.303218 
3553.000000	99.301109 
3552.000000	99.295247 
3551.000000	99.287825 
3550.000000	99.281691 
3549.000000	99.278226 
3548.000000	99.277464 
3547.000000	99.279197 
3546.000000	99.282645 
3545.000000	99.285345 
3544.000000	99.284487 
3543.000000	99.280098 
3542.000000	99.275808 
3541.000000	99.275442 
3540.000000	99.279188 
3539.000000	99.283505 
3538.000000	99.284713 
3537.000000	99.282229 
3536.000000	99.278255 
3535.000000	99.275167 
3534.000000	99.273868 
3533.000000	99.274408 
3532.000000	99.277061 
3531.000000	99.282053 
3530.000000	99.288275 
3529.000000	99.292903 
3528.000000	99.293209 
3527.000000	99.289077 
3526.000000	99.283232 
3525.000000	99.278712 
3524.000000	99.276413 
3523.000000	99.275040 
3522.000000	99.273048 
3521.000000	99.270190 
3520.000000	99.267565 
3519.000000	99.266741 
3518.000000	99.268583 
3517.000000	99.272188 
3516.000000	99.274890 
3515.000000	99.274086 
3514.000000	99.269406 
3513.000000	99.262987 
3512.000000	99.257657 
3511.000000	99.255083 
3510.000000	99.255256 
3509.000000	99.257073 
3508.000000	99.259198 
3507.000000	99.260832 
3506.000000	99.261985 
3505.000000	99.262947 
3504.000000	99.263632 
3503.000000	99.263862 
3502.000000	99.264454 
3501.000000	99.267073 
3500.000000	99.271997 
3499.000000	99.276483 
3498.000000	99.276361 
3497.000000	99.269864 
3496.000000	99.259741 
3495.000000	99.251288 
3494.000000	99.248350 
3493.000000	99.250917 
3492.000000	99.255898 
3491.000000	99.259711 
3490.000000	99.260591 
3489.000000	99.259200 
3488.000000	99.257389 
3487.000000	99.256451 
3486.000000	99.256488 
3485.000000	99.257110 
3484.000000	99.258034 
3483.000000	99.258820 
3482.000000	99.258564 
3481.000000	99.256538 
3480.000000	99.253119 
3479.000000	99.249533 
3478.000000	99.246604 
3477.000000	99.244359 
3476.000000	99.243151 
3475.000000	99.244454 
3474.000000	99.249399 
3473.000000	99.256395 
3472.000000	99.261269 
3471.000000	99.260809 
3470.000000	99.256073 
3469.000000	99.251236 
3468.000000	99.249131 
3467.000000	99.248669 
3466.000000	99.247064 
3465.000000	99.243633 
3464.000000	99.240348 
3463.000000	99.239098 
3462.000000	99.239591 
3461.000000	99.240315 
3460.000000	99.240602 
3459.000000	99.240997 
3458.000000	99.241817 
3457.000000	99.241996 
3456.000000	99.239591 
3455.000000	99.233626 
3454.000000	99.225548 
3453.000000	99.218698 
3452.000000	99.215802 
3451.000000	99.216780 
3450.000000	99.219202 
3449.000000	99.220870 
3448.000000	99.221505 
3447.000000	99.221898 
3446.000000	99.222193 
3445.000000	99.221732 
3444.000000	99.220170 
3443.000000	99.217872 
3442.000000	99.215270 
3441.000000	99.212355 
3440.000000	99.208903 
3439.000000	99.204800 
3438.000000	99.200035 
3437.000000	99.194810 
3436.000000	99.189903 
3435.000000	99.186715 
3434.000000	99.186536 
3433.000000	99.189618 
3432.000000	99.194831 
3431.000000	99.200138 
3430.000000	99.203676 
3429.000000	99.204799 
3428.000000	99.204243 
3427.000000	99.202941 
3426.000000	99.200699 
3425.000000	99.196546 
3424.000000	99.190581 
3423.000000	99.184916 
3422.000000	99.182027 
3421.000000	99.182325 
3420.000000	99.184021 
3419.000000	99.185455 
3418.000000	99.186735 
3417.000000	99.188724 
3416.000000	99.191093 
3415.000000	99.192082 
3414.000000	99.190089 
3413.000000	99.185211 
3412.000000	99.179278 
3411.000000	99.174609 
3410.000000	99.172509 
3409.000000	99.172470 
3408.000000	99.172604 
3407.000000	99.171158 
3406.000000	99.167929 
3405.000000	99.164340 
3404.000000	99.162123 
3403.000000	99.161952 
3402.000000	99.163256 
3401.000000	99.165211 
3400.000000	99.167663 
3399.000000	99.170970 
3398.000000	99.175131 
3397.000000	99.179307 
3396.000000	99.182254 
3395.000000	99.182980 
3394.000000	99.180890 
3393.000000	99.175737 
3392.000000	99.168107 
3391.000000	99.160053 
3390.000000	99.154741 
3389.000000	99.154819 
3388.000000	99.160731 
3387.000000	99.170385 
3386.000000	99.180418 
3385.000000	99.188100 
3384.000000	99.192432 
3383.000000	99.193696 
3382.000000	99.192150 
3381.000000	99.187613 
3380.000000	99.180668 
3379.000000	99.173871 
3378.000000	99.170693 
3377.000000	99.172537 
3376.000000	99.177118 
3375.000000	99.180510 
3374.000000	99.180825 
3373.000000	99.179548 
3372.000000	99.179351 
3371.000000	99.181114 
3370.000000	99.183286 
3369.000000	99.183687 
3368.000000	99.181681 
3367.000000	99.178848 
3366.000000	99.177797 
3365.000000	99.179930 
3364.000000	99.184060 
3363.000000	99.187433 
3362.000000	99.188392 
3361.000000	99.187677 
3360.000000	99.186765 
3359.000000	99.185608 
3358.000000	99.183054 
3357.000000	99.179435 
3356.000000	99.177295 
3355.000000	99.178591 
3354.000000	99.181846 
3353.000000	99.183306 
3352.000000	99.180953 
3351.000000	99.176675 
3350.000000	99.174392 
3349.000000	99.176624 
3348.000000	99.182908 
3347.000000	99.190603 
3346.000000	99.196554 
3345.000000	99.198640 
3344.000000	99.196891 
3343.000000	99.193463 
3342.000000	99.190875 
3341.000000	99.189855 
3340.000000	99.189124 
3339.000000	99.187481 
3338.000000	99.185719 
3337.000000	99.185959 
3336.000000	99.189194 
3335.000000	99.194073 
3334.000000	99.198363 
3333.000000	99.201134 
3332.000000	99.203062 
3331.000000	99.204828 
3330.000000	99.205898 
3329.000000	99.205238 
3328.000000	99.202895 
3327.000000	99.200304 
3326.000000	99.198811 
3325.000000	99.198205 
3324.000000	99.197103 
3323.000000	99.194860 
3322.000000	99.192719 
3321.000000	99.192732 
3320.000000	99.195684 
3319.000000	99.200415 
3318.000000	99.205103 
3317.000000	99.208604 
3316.000000	99.210374 
3315.000000	99.210024 
3314.000000	99.208013 
3313.000000	99.206440 
3312.000000	99.207756 
3311.000000	99.212065 
3310.000000	99.216391 
3309.000000	99.217357 
3308.000000	99.214296 
3307.000000	99.209431 
3306.000000	99.205668 
3305.000000	99.204915 
3304.000000	99.207846 
3303.000000	99.213732 
3302.000000	99.220075 
3301.000000	99.223418 
3300.000000	99.221642 
3299.000000	99.215845 
3298.000000	99.209852 
3297.000000	99.207591 
3296.000000	99.210265 
3295.000000	99.215602 
3294.000000	99.220029 
3293.000000	99.221990 
3292.000000	99.223005 
3291.000000	99.225092 
3290.000000	99.227654 
3289.000000	99.227979 
3288.000000	99.224748 
3287.000000	99.219934 
3286.000000	99.216752 
3285.000000	99.216461 
3284.000000	99.217726 
3283.000000	99.218553 
3282.000000	99.218277 
3281.000000	99.218053 
3280.000000	99.219896 
3279.000000	99.224868 
3278.000000	99.231586 
3277.000000	99.236668 
3276.000000	99.237204 
3275.000000	99.232919 
3274.000000	99.226005 
3273.000000	99.219381 
3272.000000	99.215367 
3271.000000	99.215123 
3270.000000	99.218169 
3269.000000	99.222397 
3268.000000	99.225315 
3267.000000	99.225627 
3266.000000	99.223599 
3265.000000	99.220416 
3264.000000	99.217835 
3263.000000	99.218014 
3262.000000	99.222404 
3261.000000	99.230155 
3260.000000	99.238154 
3259.000000	99.243234 
3258.000000	99.244358 
3257.000000	99.242694 
3256.000000	99.240018 
3255.000000	99.237378 
3254.000000	99.235068 
3253.000000	99.233441 
3252.000000	99.233400 
3251.000000	99.235895 
3250.000000	99.240797 
3249.000000	99.246431 
3248.000000	99.250534 
3247.000000	99.251786 
3246.000000	99.250481 
3245.000000	99.248002 
3244.000000	99.245905 
3243.000000	99.245169 
3242.000000	99.245709 
3241.000000	99.246517 
3240.000000	99.246795 
3239.000000	99.247226 
3238.000000	99.249811 
3237.000000	99.256005 
3236.000000	99.264903 
3235.000000	99.273365 
3234.000000	99.278075 
3233.000000	99.277876 
3232.000000	99.274546 
3231.000000	99.271385 
3230.000000	99.270702 
3229.000000	99.272255 
3228.000000	99.273844 
3227.000000	99.273289 
3226.000000	99.269992 
3225.000000	99.265126 
3224.000000	99.260740 
3223.000000	99.258558 
3222.000000	99.259104 
3221.000000	99.261630 
3220.000000	99.264835 
3219.000000	99.267690 
3218.000000	99.269847 
3217.000000	99.271762 
3216.000000	99.274562 
3215.000000	99.279203 
3214.000000	99.285155 
3213.000000	99.290204 
3212.000000	99.292142 
3211.000000	99.290643 
3210.000000	99.287168 
3209.000000	99.283381 
3208.000000	99.280317 
3207.000000	99.278808 
3206.000000	99.279559 
3205.000000	99.282236 
3204.000000	99.285136 
3203.000000	99.286481 
3202.000000	99.285965 
3201.000000	99.284772 
3200.000000	99.284363 
3199.000000	99.285518 
3198.000000	99.288216 
3197.000000	99.291919 
3196.000000	99.295891 
3195.000000	99.299471 
3194.000000	99.302138 
3193.000000	99.303408 
3192.000000	99.302945 
3191.000000	99.300946 
3190.000000	99.298225 
3189.000000	99.295746 
3188.000000	99.294171 
3187.000000	99.293890 
3186.000000	99.295179 
3185.000000	99.297999 
3184.000000	99.301676 
3183.000000	99.305098 
3182.000000	99.307468 
3181.000000	99.309037 
3180.000000	99.311099 
3179.000000	99.314871 
3178.000000	99.319914 
3177.000000	99.323820 
3176.000000	99.324231 
3175.000000	99.321430 
3174.000000	99.318330 
3173.000000	99.317417 
3172.000000	99.318165 
3171.000000	99.318211 
3170.000000	99.316810 
3169.000000	99.315984 
3168.000000	99.317811 
3167.000000	99.321475 
3166.000000	99.324064 
3165.000000	99.324044 
3164.000000	99.322861 
3163.000000	99.322762 
3162.000000	99.323991 
3161.000000	99.325048 
3160.000000	99.325254 
3159.000000	99.325686 
3158.000000	99.327187 
3157.000000	99.328553 
3156.000000	99.327680 
3155.000000	99.324057 
3154.000000	99.319151 
3153.000000	99.314512 
3152.000000	99.310540 
3151.000000	99.307334 
3150.000000	99.305671 
3149.000000	99.306374 
3148.000000	99.309213 
3147.000000	99.313099 
3146.000000	99.317103 
3145.000000	99.320753 
3144.000000	99.323666 
3143.000000	99.325672 
3142.000000	99.327353 
3141.000000	99.329796 
3140.000000	99.333399 
3139.000000	99.337152 
3138.000000	99.339387 
3137.000000	99.339316 
3136.000000	99.337860 
3135.000000	99.337038 
3134.000000	99.338347 
3133.000000	99.341376 
3132.000000	99.343922 
3131.000000	99.343762 
3130.000000	99.340619 
3129.000000	99.336613 
3128.000000	99.334933 
3127.000000	99.337769 
3126.000000	99.344784 
3125.000000	99.352965 
3124.000000	99.358246 
3123.000000	99.358209 
3122.000000	99.353810 
3121.000000	99.348395 
3120.000000	99.344893 
3119.000000	99.344034 
3118.000000	99.345048 
3117.000000	99.347340 
3116.000000	99.350950 
3115.000000	99.355602 
3114.000000	99.359954 
3113.000000	99.362196 
3112.000000	99.361527 
3111.000000	99.359063 
3110.000000	99.357097 
3109.000000	99.357148 
3108.000000	99.358633 
3107.000000	99.359693 
3106.000000	99.359340 
3105.000000	99.358397 
3104.000000	99.358287 
3103.000000	99.359450 
3102.000000	99.361328 
3101.000000	99.363481 
3100.000000	99.366062 
3099.000000	99.369239 
3098.000000	99.372650 
3097.000000	99.375518 
3096.000000	99.377071 
3095.000000	99.376861 
3094.000000	99.374951 
3093.000000	99.371822 
3092.000000	99.368033 
3091.000000	99.364201 
3090.000000	99.361447 
3089.000000	99.361208 
3088.000000	99.363853 
3087.000000	99.367774 
3086.000000	99.370754 
3085.000000	99.372217 
3084.000000	99.373115 
3083.000000	99.373523 
3082.000000	99.371781 
3081.000000	99.366985 
3080.000000	99.361452 
3079.000000	99.359352 
3078.000000	99.363007 
3077.000000	99.371172 
3076.000000	99.380487 
3075.000000	99.387646 
3074.000000	99.390573 
3073.000000	99.389078 
3072.000000	99.384972 
3071.000000	99.380681 
3070.000000	99.377208 
3069.000000	99.373909 
3068.000000	99.370480 
3067.000000	99.368430 
3066.000000	99.370000 
3065.000000	99.375885 
3064.000000	99.384277 
3063.000000	99.391721 
3062.000000	99.394802 
3061.000000	99.391921 
3060.000000	99.384464 
3059.000000	99.376286 
3058.000000	99.371505 
3057.000000	99.372368 
3056.000000	99.378567 
3055.000000	99.387690 
3054.000000	99.396129 
3053.000000	99.400602 
3052.000000	99.400063 
3051.000000	99.396357 
3050.000000	99.392686 
3049.000000	99.391373 
3048.000000	99.392810 
3047.000000	99.395600 
3046.000000	99.397166 
3045.000000	99.395182 
3044.000000	99.389875 
3043.000000	99.384861 
3042.000000	99.384525 
3041.000000	99.390124 
3040.000000	99.398873 
3039.000000	99.406756 
3038.000000	99.411364 
3037.000000	99.412125 
3036.000000	99.409322 
3035.000000	99.404040 
3034.000000	99.398362 
3033.000000	99.394260 
3032.000000	99.392050 
3031.000000	99.390585 
3030.000000	99.389080 
3029.000000	99.388192 
3028.000000	99.389142 
3027.000000	99.392318 
3026.000000	99.396931 
3025.000000	99.401570 
3024.000000	99.404792 
3023.000000	99.405655 
3022.000000	99.404246 
3021.000000	99.401464 
3020.000000	99.397832 
3019.000000	99.392875 
3018.000000	99.386438 
3017.000000	99.380319 
3016.000000	99.377264 
3015.000000	99.377825 
3014.000000	99.379490 
3013.000000	99.379924 
3012.000000	99.380221 
3011.000000	99.383405 
3010.000000	99.390026 
3009.000000	99.396956 
3008.000000	99.400925 
3007.000000	99.401827 
3006.000000	99.401759 
3005.000000	99.401955 
3004.000000	99.402015 
3003.000000	99.401636 
3002.000000	99.401556 
3001.000000	99.402405 
3000.000000	99.403495 
2999.000000	99.403447 
2998.000000	99.401818 
2997.000000	99.399695 
2996.000000	99.398605 
2995.000000	99.399000 
2994.000000	99.399899 
2993.000000	99.399986 
2992.000000	99.398743 
2991.000000	99.396367 
2990.000000	99.393076 
2989.000000	99.389250 
2988.000000	99.386168 
2987.000000	99.385613 
2986.000000	99.388228 
2985.000000	99.392672 
2984.000000	99.396708 
2983.000000	99.398741 
2982.000000	99.398228 
2981.000000	99.395641 
2980.000000	99.392764 
2979.000000	99.392273 
2978.000000	99.395702 
2977.000000	99.401656 
2976.000000	99.406705 
2975.000000	99.408181 
2974.000000	99.405882 
2973.000000	99.401457 
2972.000000	99.396972 
2971.000000	99.393955 
2970.000000	99.392836 
2969.000000	99.392737 
2968.000000	99.392222 
2967.000000	99.390701 
2966.000000	99.389011 
2965.000000	99.388505 
2964.000000	99.389780 
2963.000000	99.392358 
2962.000000	99.395299 
2961.000000	99.397820 
2960.000000	99.399341 
2959.000000	99.399270 
2958.000000	99.397107 
2957.000000	99.393059 
2956.000000	99.388462 
2955.000000	99.385250 
2954.000000	99.384776 
2953.000000	99.387194 
2952.000000	99.391735 
2951.000000	99.397127 
2950.000000	99.401772 
2949.000000	99.404310 
2948.000000	99.404471 
2947.000000	99.403107 
2946.000000	99.401170 
2945.000000	99.399130 
2944.000000	99.397457 
2943.000000	99.396753 
2942.000000	99.396667 
2941.000000	99.395427 
2940.000000	99.391627 
2939.000000	99.386438 
2938.000000	99.383099 
2937.000000	99.383935 
2936.000000	99.388379 
2935.000000	99.393840 
2934.000000	99.397900 
2933.000000	99.399469 
2932.000000	99.398607 
2931.000000	99.395857 
2930.000000	99.391918 
2929.000000	99.387789 
2928.000000	99.384787 
2927.000000	99.383736 
2926.000000	99.384019 
2925.000000	99.384102 
2924.000000	99.383429 
2923.000000	99.383070 
2922.000000	99.383909 
2921.000000	99.384902 
2920.000000	99.384144 
2919.000000	99.381238 
2918.000000	99.377733 
2917.000000	99.375430 
2916.000000	99.375144 
2915.000000	99.376873 
2914.000000	99.380123 
2913.000000	99.383951 
2912.000000	99.387582 
2911.000000	99.391232 
2910.000000	99.395607 
2909.000000	99.400439 
2908.000000	99.404198 
2907.000000	99.405617 
2906.000000	99.405020 
2905.000000	99.403828 
2904.000000	99.403052 
2903.000000	99.402480 
2902.000000	99.401261 
2901.000000	99.399533 
2900.000000	99.399019 
2899.000000	99.401666 
2898.000000	99.406815 
2897.000000	99.410746 
2896.000000	99.410334 
2895.000000	99.406780 
2894.000000	99.404296 
2893.000000	99.405071 
2892.000000	99.407254 
2891.000000	99.408275 
2890.000000	99.408349 
2889.000000	99.409440 
2888.000000	99.412131 
2887.000000	99.415201 
2886.000000	99.417740 
2885.000000	99.419963 
2884.000000	99.421933 
2883.000000	99.423079 
2882.000000	99.423539 
2881.000000	99.424741 
2880.000000	99.427664 
2879.000000	99.431079 
2878.000000	99.432647 
2877.000000	99.431837 
2876.000000	99.430891 
2875.000000	99.432420 
2874.000000	99.436470 
2873.000000	99.440515 
2872.000000	99.442116 
2871.000000	99.440878 
2870.000000	99.437768 
2869.000000	99.433745 
2868.000000	99.429857 
2867.000000	99.427803 
2866.000000	99.428749 
2865.000000	99.431480 
2864.000000	99.433010 
2863.000000	99.431631 
2862.000000	99.428430 
2861.000000	99.425320 
2860.000000	99.422726 
2859.000000	99.420160 
2858.000000	99.417957 
2857.000000	99.416835 
2856.000000	99.416064 
2855.000000	99.413792 
2854.000000	99.409683 
2853.000000	99.406104 
2852.000000	99.405986 
2851.000000	99.410089 
2850.000000	99.416947 
2849.000000	99.424756 
2848.000000	99.432359 
2847.000000	99.438669 
2846.000000	99.442368 
2845.000000	99.442774 
2844.000000	99.440567 
2843.000000	99.437235 
2842.000000	99.434157 
2841.000000	99.432588 
2840.000000	99.434013 
2839.000000	99.439399 
2838.000000	99.447747 
2837.000000	99.456027 
2836.000000	99.461295 
2835.000000	99.462953 
2834.000000	99.462692 
2833.000000	99.462375 
2832.000000	99.462273 
2831.000000	99.461275 
2830.000000	99.458408 
2829.000000	99.453988 
2828.000000	99.449588 
2827.000000	99.447122 
2826.000000	99.447823 
2825.000000	99.451553 
2824.000000	99.456676 
2823.000000	99.460760 
2822.000000	99.462096 
2821.000000	99.461076 
2820.000000	99.459828 
2819.000000	99.460011 
2818.000000	99.461113 
2817.000000	99.461488 
2816.000000	99.460803 
2815.000000	99.460445 
2814.000000	99.461291 
2813.000000	99.462249 
2812.000000	99.461868 
2811.000000	99.460615 
2810.000000	99.460441 
2809.000000	99.462360 
2808.000000	99.465418 
2807.000000	99.467939 
2806.000000	99.468800 
2805.000000	99.467548 
2804.000000	99.464454 
2803.000000	99.460972 
2802.000000	99.459251 
2801.000000	99.460387 
2800.000000	99.463449 
2799.000000	99.466631 
2798.000000	99.468887 
2797.000000	99.469914 
2796.000000	99.469148 
2795.000000	99.465908 
2794.000000	99.460805 
2793.000000	99.456150 
2792.000000	99.454219 
2791.000000	99.455219 
2790.000000	99.457465 
2789.000000	99.459510 
2788.000000	99.461517 
2787.000000	99.464255 
2786.000000	99.467359 
2785.000000	99.469340 
2784.000000	99.469235 
2783.000000	99.467451 
2782.000000	99.464891 
2781.000000	99.462025 
2780.000000	99.459323 
2779.000000	99.457867 
2778.000000	99.458597 
2777.000000	99.461072 
2776.000000	99.463669 
2775.000000	99.465117 
2774.000000	99.465459 
2773.000000	99.465656 
2772.000000	99.466778 
2771.000000	99.469502 
2770.000000	99.473735 
2769.000000	99.478408 
2768.000000	99.482015 
2767.000000	99.483666 
2766.000000	99.483469 
2765.000000	99.481857 
2764.000000	99.478819 
2763.000000	99.474034 
2762.000000	99.467720 
2761.000000	99.461260 
2760.000000	99.456858 
2759.000000	99.456274 
2758.000000	99.459557 
2757.000000	99.465037 
2756.000000	99.470535 
2755.000000	99.474463 
2754.000000	99.475886 
2753.000000	99.474464 
2752.000000	99.471102 
2751.000000	99.468226 
2750.000000	99.468220 
2749.000000	99.471137 
2748.000000	99.474463 
2747.000000	99.475620 
2746.000000	99.474438 
2745.000000	99.472876 
2744.000000	99.472562 
2743.000000	99.473162 
2742.000000	99.473335 
2741.000000	99.472786 
2740.000000	99.472633 
2739.000000	99.473650 
2738.000000	99.475006 
2737.000000	99.475532 
2736.000000	99.475648 
2735.000000	99.476726 
2734.000000	99.478627 
2733.000000	99.479366 
2732.000000	99.477799 
2731.000000	99.475199 
2730.000000	99.473248 
2729.000000	99.471767 
2728.000000	99.469939 
2727.000000	99.468664 
2726.000000	99.469623 
2725.000000	99.472340 
2724.000000	99.474312 
2723.000000	99.474501 
2722.000000	99.474774 
2721.000000	99.477047 
2720.000000	99.480474 
2719.000000	99.482698 
2718.000000	99.482844 
2717.000000	99.481999 
2716.000000	99.481364 
2715.000000	99.481190 
2714.000000	99.481311 
2713.000000	99.481553 
2712.000000	99.481496 
2711.000000	99.480767 
2710.000000	99.479915 
2709.000000	99.480280 
2708.000000	99.482401 
2707.000000	99.484832 
2706.000000	99.485248 
2705.000000	99.482993 
2704.000000	99.480124 
2703.000000	99.479343 
2702.000000	99.480899 
2701.000000	99.482199 
2700.000000	99.480935 
2699.000000	99.478062 
2698.000000	99.476910 
2697.000000	99.479428 
2696.000000	99.484065 
2695.000000	99.487539 
2694.000000	99.488219 
2693.000000	99.487426 
2692.000000	99.487649 
2691.000000	99.489658 
2690.000000	99.491489 
2689.000000	99.490459 
2688.000000	99.486297 
2687.000000	99.481806 
2686.000000	99.480152 
2685.000000	99.481984 
2684.000000	99.485607 
2683.000000	99.489057 
2682.000000	99.490935 
2681.000000	99.489877 
2680.000000	99.485095 
2679.000000	99.477987 
2678.000000	99.471995 
2677.000000	99.470067 
2676.000000	99.472624 
2675.000000	99.478004 
2674.000000	99.483934 
2673.000000	99.488293 
2672.000000	99.489758 
2671.000000	99.488688 
2670.000000	99.486828 
2669.000000	99.485485 
2668.000000	99.484488 
2667.000000	99.483328 
2666.000000	99.482365 
2665.000000	99.481924 
2664.000000	99.480915 
2663.000000	99.477761 
2662.000000	99.472854 
2661.000000	99.469006 
2660.000000	99.468784 
2659.000000	99.471756 
2658.000000	99.474834 
2657.000000	99.475411 
2656.000000	99.473833 
2655.000000	99.472432 
2654.000000	99.472295 
2653.000000	99.471969 
2652.000000	99.470112 
2651.000000	99.468406 
2650.000000	99.469917 
2649.000000	99.474470 
2648.000000	99.477922 
2647.000000	99.477393 
2646.000000	99.475596 
2645.000000	99.477805 
2644.000000	99.485022 
2643.000000	99.492210 
2642.000000	99.493536 
2641.000000	99.487881 
2640.000000	99.478874 
2639.000000	99.471128 
2638.000000	99.467369 
2637.000000	99.467873 
2636.000000	99.470953 
2635.000000	99.473959 
2634.000000	99.474990 
2633.000000	99.474335 
2632.000000	99.474122 
2631.000000	99.476132 
2630.000000	99.479737 
2629.000000	99.482096 
2628.000000	99.480749 
2627.000000	99.476260 
2626.000000	99.471978 
2625.000000	99.470907 
2624.000000	99.473070 
2623.000000	99.476230 
2622.000000	99.478621 
2621.000000	99.480105 
2620.000000	99.480934 
2619.000000	99.480733 
2618.000000	99.479315 
2617.000000	99.477662 
2616.000000	99.477152 
2615.000000	99.478001 
2614.000000	99.479251 
2613.000000	99.480353 
2612.000000	99.482088 
2611.000000	99.485496 
2610.000000	99.490185 
2609.000000	99.494336 
2608.000000	99.496552 
2607.000000	99.497370 
2606.000000	99.498588 
2605.000000	99.501225 
2604.000000	99.504466 
2603.000000	99.506609 
2602.000000	99.506669 
2601.000000	99.505045 
2600.000000	99.503045 
2599.000000	99.501927 
2598.000000	99.501875 
2597.000000	99.501508 
2596.000000	99.498846 
2595.000000	99.493524 
2594.000000	99.488060 
2593.000000	99.486178 
2592.000000	99.489409 
2591.000000	99.495613 
2590.000000	99.501152 
2589.000000	99.504165 
2588.000000	99.505163 
2587.000000	99.504752 
2586.000000	99.502081 
2585.000000	99.496480 
2584.000000	99.489849 
2583.000000	99.485669 
2582.000000	99.485088 
2581.000000	99.485311 
2580.000000	99.483054 
2579.000000	99.478879 
2578.000000	99.476611 
2577.000000	99.478614 
2576.000000	99.483194 
2575.000000	99.487097 
2574.000000	99.489141 
2573.000000	99.490472 
2572.000000	99.492365 
2571.000000	99.495138 
2570.000000	99.498669 
2569.000000	99.502450 
2568.000000	99.505089 
2567.000000	99.505132 
2566.000000	99.502876 
2565.000000	99.500394 
2564.000000	99.499168 
2563.000000	99.498525 
2562.000000	99.497136 
2561.000000	99.495009 
2560.000000	99.492649 
2559.000000	99.488939 
2558.000000	99.482141 
2557.000000	99.473699 
2556.000000	99.469061 
2555.000000	99.472907 
2554.000000	99.484207 
2553.000000	99.497396 
2552.000000	99.507783 
2551.000000	99.514112 
2550.000000	99.516391 
2549.000000	99.514003 
2548.000000	99.507118 
2547.000000	99.498168 
2546.000000	99.490410 
2545.000000	99.485809 
2544.000000	99.484959 
2543.000000	99.487518 
2542.000000	99.491414 
2541.000000	99.493219 
2540.000000	99.491500 
2539.000000	99.488986 
2538.000000	99.489248 
2537.000000	99.491686 
2536.000000	99.492241 
2535.000000	99.489058 
2534.000000	99.484672 
2533.000000	99.481625 
2532.000000	99.478696 
2531.000000	99.473778 
2530.000000	99.468726 
2529.000000	99.468095 
2528.000000	99.472825 
2527.000000	99.477980 
2526.000000	99.478356 
2525.000000	99.474913 
2524.000000	99.473720 
2523.000000	99.478926 
2522.000000	99.488635 
2521.000000	99.497899 
2520.000000	99.503591 
2519.000000	99.504999 
2518.000000	99.501601 
2517.000000	99.493307 
2516.000000	99.482781 
2515.000000	99.474744 
2514.000000	99.471880 
2513.000000	99.473110 
2512.000000	99.476559 
2511.000000	99.482068 
2510.000000	99.489528 
2509.000000	99.497019 
2508.000000	99.502916 
2507.000000	99.508304 
2506.000000	99.514640 
2505.000000	99.519819 
2504.000000	99.519301 
2503.000000	99.511363 
2502.000000	99.499382 
2501.000000	99.488975 
2500.000000	99.484376 
2499.000000	99.486928 
2498.000000	99.494560 
2497.000000	99.502350 
2496.000000	99.505724 
2495.000000	99.504029 
2494.000000	99.500051 
2493.000000	99.496350 
2492.000000	99.493747 
2491.000000	99.492958 
2490.000000	99.495243 
2489.000000	99.501022 
2488.000000	99.509841 
2487.000000	99.521673 
2486.000000	99.535585 
2485.000000	99.546731 
2484.000000	99.548206 
2483.000000	99.538092 
2482.000000	99.522540 
2481.000000	99.509903 
2480.000000	99.503309 
2479.000000	99.500582 
2478.000000	99.499183 
2477.000000	99.498400 
2476.000000	99.497934 
2475.000000	99.497533 
2474.000000	99.498179 
2473.000000	99.501320 
2472.000000	99.506324 
2471.000000	99.510249 
2470.000000	99.510715 
2469.000000	99.508162 
2468.000000	99.505120 
2467.000000	99.503990 
2466.000000	99.505437 
2465.000000	99.508029 
2464.000000	99.509494 
2463.000000	99.508989 
2462.000000	99.507935 
2461.000000	99.507955 
2460.000000	99.508418 
2459.000000	99.507100 
2458.000000	99.503121 
2457.000000	99.498168 
2456.000000	99.494673 
2455.000000	99.493743 
2454.000000	99.495169 
2453.000000	99.498447 
2452.000000	99.502794 
2451.000000	99.506229 
2450.000000	99.505713 
2449.000000	99.499467 
2448.000000	99.489772 
2447.000000	99.482628 
2446.000000	99.483168 
2445.000000	99.490896 
2444.000000	99.500077 
2443.000000	99.504955 
2442.000000	99.503906 
2441.000000	99.499005 
2440.000000	99.493560 
2439.000000	99.490836 
2438.000000	99.493008 
2437.000000	99.499168 
2436.000000	99.505054 
2435.000000	99.506784 
2434.000000	99.504911 
2433.000000	99.503656 
2432.000000	99.506271 
2431.000000	99.512248 
2430.000000	99.518601 
2429.000000	99.522294 
2428.000000	99.521496 
2427.000000	99.516335 
2426.000000	99.509302 
2425.000000	99.503911 
2424.000000	99.502241 
2423.000000	99.504289 
2422.000000	99.509555 
2421.000000	99.517542 
2420.000000	99.525899 
2419.000000	99.529866 
2418.000000	99.525862 
2417.000000	99.515555 
2416.000000	99.504765 
2415.000000	99.497871 
2414.000000	99.494439 
2413.000000	99.491589 
2412.000000	99.488186 
2411.000000	99.485596 
2410.000000	99.485315 
2409.000000	99.487380 
2408.000000	99.490917 
2407.000000	99.494929 
2406.000000	99.498440 
2405.000000	99.501044 
2404.000000	99.503523 
2403.000000	99.506804 
2402.000000	99.509972 
2401.000000	99.510559 
2400.000000	99.507481 
2399.000000	99.502593 
2398.000000	99.498656 
2397.000000	99.496886 
2396.000000	99.497254 
2395.000000	99.499639 
2394.000000	99.503038 
2393.000000	99.504784 
2392.000000	99.502707 
2391.000000	99.497822 
2390.000000	99.493211 
2389.000000	99.490671 
2388.000000	99.490208 
2387.000000	99.492205 
2386.000000	99.497321 
2385.000000	99.503776 
2384.000000	99.507459 
2383.000000	99.506317 
2382.000000	99.502891 
2381.000000	99.500935 
2380.000000	99.500977 
2379.000000	99.501158 
2378.000000	99.501437 
2377.000000	99.504246 
2376.000000	99.510597 
2375.000000	99.517696 
2374.000000	99.521489 
2373.000000	99.520373 
2372.000000	99.515684 
2371.000000	99.509922 
2370.000000	99.505467 
2369.000000	99.503886 
2368.000000	99.505236 
2367.000000	99.508606 
2366.000000	99.513724 
2365.000000	99.520676 
2364.000000	99.527399 
2363.000000	99.529696 
2362.000000	99.524972 
2361.000000	99.514697 
2360.000000	99.502803 
2359.000000	99.492465 
2358.000000	99.486180 
2357.000000	99.486764 
2356.000000	99.495245 
2355.000000	99.508807 
2354.000000	99.522528 
2353.000000	99.532235 
2352.000000	99.535361 
2351.000000	99.531710 
2350.000000	99.524177 
2349.000000	99.516575 
2348.000000	99.511494 
2347.000000	99.510553 
2346.000000	99.514012 
2345.000000	99.519045 
2344.000000	99.520657 
2343.000000	99.517089 
2342.000000	99.510689 
2341.000000	99.504160 
2340.000000	99.499665 
2339.000000	99.499572 
2338.000000	99.505114 
2337.000000	99.513316 
2336.000000	99.518248 
2335.000000	99.517386 
2334.000000	99.515210 
2333.000000	99.518199 
2332.000000	99.527059 
2331.000000	99.535970 
2330.000000	99.539321 
2329.000000	99.536551 
2328.000000	99.531191 
2327.000000	99.526749 
2326.000000	99.523307 
2325.000000	99.518052 
2324.000000	99.509364 
2323.000000	99.501657 
2322.000000	99.502225 
2321.000000	99.511942 
2320.000000	99.521948 
2319.000000	99.523056 
2318.000000	99.515825 
2317.000000	99.508142 
2316.000000	99.505136 
2315.000000	99.505271 
2314.000000	99.505846 
2313.000000	99.507585 
2312.000000	99.512239 
2311.000000	99.518283 
2310.000000	99.521932 
2309.000000	99.521259 
2308.000000	99.517871 
2307.000000	99.514804 
2306.000000	99.514124 
2305.000000	99.516339 
2304.000000	99.520845 
2303.000000	99.526168 
2302.000000	99.530102 
2301.000000	99.530804 
2300.000000	99.528657 
2299.000000	99.526759 
2298.000000	99.528194 
2297.000000	99.532415 
2296.000000	99.535177 
2295.000000	99.533077 
2294.000000	99.527493 
2293.000000	99.523215 
2292.000000	99.523501 
2291.000000	99.527465 
2290.000000	99.531816 
2289.000000	99.533891 
2288.000000	99.533124 
2287.000000	99.530719 
2286.000000	99.528249 
2285.000000	99.525973 
2284.000000	99.522881 
2283.000000	99.519100 
2282.000000	99.517360 
2281.000000	99.520211 
2280.000000	99.525977 
2279.000000	99.529767 
2278.000000	99.529096 
2277.000000	99.526527 
2276.000000	99.525805 
2275.000000	99.527387 
2274.000000	99.529450 
2273.000000	99.531561 
2272.000000	99.534996 
2271.000000	99.540104 
2270.000000	99.545576 
2269.000000	99.550433 
2268.000000	99.555031 
2267.000000	99.559660 
2266.000000	99.563327 
2265.000000	99.564316 
2264.000000	99.561242 
2263.000000	99.553697 
2262.000000	99.543222 
2261.000000	99.533864 
2260.000000	99.530120 
2259.000000	99.533253 
2258.000000	99.540310 
2257.000000	99.547364 
2256.000000	99.552940 
2255.000000	99.557578 
2254.000000	99.561430 
2253.000000	99.564121 
2252.000000	99.566369 
2251.000000	99.569486 
2250.000000	99.572902 
2249.000000	99.574048 
2248.000000	99.571429 
2247.000000	99.566584 
2246.000000	99.561995 
2245.000000	99.558643 
2244.000000	99.556483 
2243.000000	99.555828 
2242.000000	99.556833 
2241.000000	99.559041 
2240.000000	99.563108 
2239.000000	99.571314 
2238.000000	99.583567 
2237.000000	99.593857 
2236.000000	99.594393 
2235.000000	99.584116 
2234.000000	99.570767 
2233.000000	99.563749 
2232.000000	99.566590 
2231.000000	99.576060 
2230.000000	99.585233 
2229.000000	99.586539 
2228.000000	99.575963 
2227.000000	99.557423 
2226.000000	99.541187 
2225.000000	99.535405 
2224.000000	99.540137 
2223.000000	99.550741 
2222.000000	99.563551 
2221.000000	99.574934 
2220.000000	99.578644 
2219.000000	99.570959 
2218.000000	99.558478 
2217.000000	99.554665 
2216.000000	99.565752 
2215.000000	99.583854 
2214.000000	99.596420 
2213.000000	99.599003 
2212.000000	99.595904 
2211.000000	99.592022 
2210.000000	99.589490 
2209.000000	99.590698 
2208.000000	99.597782 
2207.000000	99.606921 
2206.000000	99.608231 
2205.000000	99.596104 
2204.000000	99.578010 
2203.000000	99.568451 
2202.000000	99.573945 
2201.000000	99.587108 
2200.000000	99.596385 
2199.000000	99.598364 
2198.000000	99.597829 
2197.000000	99.598239 
2196.000000	99.596855 
2195.000000	99.590128 
2194.000000	99.580278 
2193.000000	99.573497 
2192.000000	99.572770 
2191.000000	99.575711 
2190.000000	99.579947 
2189.000000	99.587286 
2188.000000	99.599664 
2187.000000	99.612403 
2186.000000	99.615894 
2185.000000	99.606044 
2184.000000	99.590381 
2183.000000	99.580472 
2182.000000	99.579966 
2181.000000	99.583839 
2180.000000	99.588448 
2179.000000	99.596753 
2178.000000	99.611705 
2177.000000	99.629176 
2176.000000	99.641079 
2175.000000	99.643046 
2174.000000	99.636177 
2173.000000	99.624424 
2172.000000	99.614332 
2171.000000	99.614465 
2170.000000	99.628852 
2169.000000	99.650332 
2168.000000	99.665191 
2167.000000	99.666202 
2166.000000	99.658074 
2165.000000	99.650013 
2164.000000	99.647267 
2163.000000	99.651198 
2162.000000	99.662127 
2161.000000	99.677329 
2160.000000	99.689036 
2159.000000	99.689711 
2158.000000	99.679106 
2157.000000	99.663081 
2156.000000	99.647082 
2155.000000	99.634362 
2154.000000	99.628099 
2153.000000	99.630020 
2152.000000	99.636783 
2151.000000	99.641549 
2150.000000	99.640939 
2149.000000	99.639203 
2148.000000	99.643889 
2147.000000	99.657121 
2146.000000	99.671788 
2145.000000	99.676984 
2144.000000	99.667707 
2143.000000	99.649001 
2142.000000	99.630557 
2141.000000	99.618253 
2140.000000	99.611537 
2139.000000	99.607970 
2138.000000	99.607693 
2137.000000	99.611947 
2136.000000	99.618738 
2135.000000	99.622785 
2134.000000	99.620918 
2133.000000	99.616232 
2132.000000	99.614796 
2131.000000	99.617903 
2130.000000	99.619533 
2129.000000	99.613153 
2128.000000	99.600122 
2127.000000	99.588671 
2126.000000	99.584343 
2125.000000	99.584669 
2124.000000	99.585046 
2123.000000	99.586642 
2122.000000	99.594254 
2121.000000	99.607489 
2120.000000	99.618885 
2119.000000	99.621972 
2118.000000	99.617736 
2117.000000	99.611674 
2116.000000	99.607448 
2115.000000	99.605446 
2114.000000	99.604985 
2113.000000	99.604790 
2112.000000	99.602579 
2111.000000	99.597331 
2110.000000	99.591889 
2109.000000	99.590671 
2108.000000	99.593952 
2107.000000	99.596177 
2106.000000	99.591216 
2105.000000	99.579023 
2104.000000	99.566651 
2103.000000	99.562427 
2102.000000	99.568569 
2101.000000	99.579015 
2100.000000	99.585049 
2099.000000	99.583570 
2098.000000	99.579344 
2097.000000	99.579069 
2096.000000	99.584481 
2095.000000	99.592061 
2094.000000	99.597873 
2093.000000	99.600631 
2092.000000	99.600879 
2091.000000	99.599811 
2090.000000	99.599434 
2089.000000	99.601582 
2088.000000	99.605067 
2087.000000	99.605033 
2086.000000	99.597502 
2085.000000	99.585206 
2084.000000	99.577354 
2083.000000	99.581882 
2082.000000	99.597942 
2081.000000	99.616689 
2080.000000	99.629478 
2079.000000	99.634616 
2078.000000	99.636421 
2077.000000	99.639706 
2076.000000	99.645895 
2075.000000	99.652546 
2074.000000	99.654799 
2073.000000	99.648472 
2072.000000	99.634131 
2071.000000	99.618109 
2070.000000	99.607898 
2069.000000	99.605980 
2068.000000	99.608266 
2067.000000	99.608121 
2066.000000	99.601685 
2065.000000	99.591356 
2064.000000	99.585602 
2063.000000	99.592874 
2062.000000	99.612510 
2061.000000	99.632550 
2060.000000	99.640538 
2059.000000	99.636884 
2058.000000	99.633854 
2057.000000	99.640777 
2056.000000	99.654195 
2055.000000	99.664200 
2054.000000	99.666559 
2053.000000	99.665371 
2052.000000	99.666181 
2051.000000	99.670236 
2050.000000	99.674936 
2049.000000	99.677317 
2048.000000	99.677314 
2047.000000	99.678607 
2046.000000	99.684884 
2045.000000	99.693946 
2044.000000	99.697567 
2043.000000	99.690301 
2042.000000	99.677755 
2041.000000	99.672561 
2040.000000	99.680352 
2039.000000	99.692544 
2038.000000	99.695611 
2037.000000	99.686055 
2036.000000	99.673269 
2035.000000	99.667164 
2034.000000	99.667103 
2033.000000	99.666917 
2032.000000	99.667737 
2031.000000	99.678022 
2030.000000	99.699041 
2029.000000	99.717522 
2028.000000	99.718615 
2027.000000	99.702539 
2026.000000	99.682650 
2025.000000	99.670494 
2024.000000	99.668896 
2023.000000	99.677072 
2022.000000	99.693268 
2021.000000	99.710774 
2020.000000	99.719772 
2019.000000	99.717526 
2018.000000	99.711786 
2017.000000	99.710921 
2016.000000	99.714911 
2015.000000	99.719447 
2014.000000	99.723226 
2013.000000	99.725814 
2012.000000	99.723127 
2011.000000	99.712009 
2010.000000	99.697953 
2009.000000	99.692277 
2008.000000	99.699948 
2007.000000	99.713587 
2006.000000	99.720964 
2005.000000	99.716417 
2004.000000	99.704611 
2003.000000	99.694717 
2002.000000	99.691377 
2001.000000	99.690112 
2000.000000	99.681848 
1999.000000	99.663097 
1998.000000	99.640699 
1997.000000	99.625653 
1996.000000	99.623704 
1995.000000	99.633066 
1994.000000	99.648392 
1993.000000	99.663466 
1992.000000	99.672141 
1991.000000	99.671176 
1990.000000	99.662765 
1989.000000	99.652570 
1988.000000	99.646015 
1987.000000	99.647285 
1986.000000	99.659060 
1985.000000	99.679632 
1984.000000	99.700745 
1983.000000	99.711488 
1982.000000	99.705781 
1981.000000	99.686481 
1980.000000	99.663792 
1979.000000	99.650400 
1978.000000	99.654517 
1977.000000	99.672426 
1976.000000	99.689250 
1975.000000	99.692061 
1974.000000	99.682097 
1973.000000	99.671836 
1972.000000	99.671363 
1971.000000	99.680582 
1970.000000	99.693935 
1969.000000	99.707992 
1968.000000	99.722334 
1967.000000	99.735686 
1966.000000	99.744440 
1965.000000	99.745216 
1964.000000	99.737483 
1963.000000	99.723963 
1962.000000	99.709894 
1961.000000	99.701007 
1960.000000	99.699834 
1959.000000	99.703356 
1958.000000	99.705372 
1957.000000	99.701716 
1956.000000	99.692792 
1955.000000	99.680822 
1954.000000	99.666036 
1953.000000	99.647611 
1952.000000	99.628339 
1951.000000	99.615629 
1950.000000	99.615269 
1949.000000	99.624728 
1948.000000	99.635194 
1947.000000	99.640603 
1946.000000	99.641784 
1945.000000	99.641072 
1944.000000	99.636666 
1943.000000	99.625688 
1942.000000	99.610952 
1941.000000	99.599675 
1940.000000	99.595407 
1939.000000	99.595727 
1938.000000	99.597422 
1937.000000	99.600384 
1936.000000	99.605766 
1935.000000	99.612347 
1934.000000	99.616425 
1933.000000	99.615046 
1932.000000	99.608915 
1931.000000	99.602783 
1930.000000	99.602981 
1929.000000	99.612431 
1928.000000	99.626577 
1927.000000	99.635790 
1926.000000	99.633357 
1925.000000	99.620837 
1924.000000	99.605941 
1923.000000	99.596157 
1922.000000	99.594595 
1921.000000	99.600106 
1920.000000	99.608877 
1919.000000	99.615226 
1918.000000	99.613884 
1917.000000	99.604919 
1916.000000	99.594762 
1915.000000	99.590233 
1914.000000	99.593075 
1913.000000	99.599770 
1912.000000	99.604919 
1911.000000	99.604827 
1910.000000	99.598951 
1909.000000	99.589650 
1908.000000	99.581357 
1907.000000	99.579067 
1906.000000	99.585728 
1905.000000	99.598937 
1904.000000	99.610289 
1903.000000	99.610216 
1902.000000	99.595628 
1901.000000	99.573607 
1900.000000	99.556689 
1899.000000	99.552975 
1898.000000	99.560124 
1897.000000	99.568326 
1896.000000	99.569305 
1895.000000	99.563253 
1894.000000	99.557232 
1893.000000	99.557072 
1892.000000	99.561884 
1891.000000	99.566050 
1890.000000	99.564970 
1889.000000	99.559160 
1888.000000	99.553086 
1887.000000	99.550598 
1886.000000	99.552302 
1885.000000	99.556126 
1884.000000	99.559210 
1883.000000	99.559463 
1882.000000	99.556204 
1881.000000	99.550357 
1880.000000	99.544327 
1879.000000	99.540362 
1878.000000	99.538234 
1877.000000	99.535660 
1876.000000	99.532223 
1875.000000	99.531603 
1874.000000	99.537721 
1873.000000	99.548962 
1872.000000	99.558282 
1871.000000	99.559254 
1870.000000	99.550951 
1869.000000	99.537808 
1868.000000	99.524967 
1867.000000	99.514321 
1866.000000	99.505692 
1865.000000	99.499149 
1864.000000	99.495951 
1863.000000	99.498340 
1862.000000	99.507335 
1861.000000	99.519999 
1860.000000	99.530733 
1859.000000	99.536843 
1858.000000	99.540955 
1857.000000	99.546337 
1856.000000	99.552109 
1855.000000	99.555449 
1854.000000	99.556176 
1853.000000	99.555994 
1852.000000	99.554495 
1851.000000	99.549206 
1850.000000	99.540143 
1849.000000	99.531676 
1848.000000	99.528511 
1847.000000	99.531309 
1846.000000	99.537200 
1845.000000	99.542109 
1844.000000	99.542302 
1843.000000	99.537391 
1842.000000	99.531783 
1841.000000	99.530545 
1840.000000	99.535119 
1839.000000	99.542636 
1838.000000	99.548302 
1837.000000	99.549433 
1836.000000	99.547369 
1835.000000	99.545461 
1834.000000	99.546016 
1833.000000	99.549170 
1832.000000	99.553612 
1831.000000	99.557150 
1830.000000	99.557600 
1829.000000	99.554707 
1828.000000	99.550714 
1827.000000	99.547876 
1826.000000	99.546574 
1825.000000	99.546270 
1824.000000	99.546648 
1823.000000	99.547258 
1822.000000	99.546938 
1821.000000	99.544221 
1820.000000	99.538935 
1819.000000	99.532939 
1818.000000	99.528795 
1817.000000	99.527619 
1816.000000	99.528065 
1815.000000	99.527823 
1814.000000	99.526280 
1813.000000	99.525498 
1812.000000	99.528493 
1811.000000	99.535955 
1810.000000	99.545233 
1809.000000	99.552946 
1808.000000	99.557039 
1807.000000	99.556511 
1806.000000	99.551179 
1805.000000	99.542403 
1804.000000	99.533081 
1803.000000	99.526173 
1802.000000	99.523270 
1801.000000	99.524297 
1800.000000	99.527243 
1799.000000	99.529256 
1798.000000	99.529246 
1797.000000	99.528664 
1796.000000	99.529627 
1795.000000	99.532737 
1794.000000	99.536387 
1793.000000	99.538119 
1792.000000	99.537571 
1791.000000	99.536725 
1790.000000	99.536645 
1789.000000	99.536863 
1788.000000	99.537400 
1787.000000	99.539239 
1786.000000	99.542198 
1785.000000	99.543527 
1784.000000	99.540836 
1783.000000	99.536284 
1782.000000	99.534469 
1781.000000	99.536272 
1780.000000	99.536937 
1779.000000	99.532292 
1778.000000	99.524895 
1777.000000	99.521025 
1776.000000	99.523789 
1775.000000	99.531364 
1774.000000	99.540152 
1773.000000	99.547327 
1772.000000	99.551588 
1771.000000	99.553335 
1770.000000	99.553092 
1769.000000	99.550369 
1768.000000	99.545487 
1767.000000	99.540789 
1766.000000	99.538607 
1765.000000	99.538765 
1764.000000	99.538965 
1763.000000	99.537626 
1762.000000	99.535672 
1761.000000	99.535047 
1760.000000	99.535951 
1759.000000	99.537009 
1758.000000	99.537028 
1757.000000	99.536047 
1756.000000	99.535021 
1755.000000	99.534807 
1754.000000	99.535321 
1753.000000	99.535730 
1752.000000	99.536029 
1751.000000	99.537828 
1750.000000	99.541879 
1749.000000	99.545796 
1748.000000	99.546646 
1747.000000	99.543873 
1746.000000	99.538811 
1745.000000	99.532802 
1744.000000	99.527290 
1743.000000	99.524558 
1742.000000	99.525934 
1741.000000	99.529764 
1740.000000	99.532486 
1739.000000	99.532636 
1738.000000	99.532314 
1737.000000	99.533247 
1736.000000	99.534062 
1735.000000	99.531618 
1734.000000	99.524792 
1733.000000	99.518048 
1732.000000	99.516382 
1731.000000	99.519562 
1730.000000	99.523928 
1729.000000	99.526030 
1728.000000	99.524571 
1727.000000	99.520772 
1726.000000	99.516621 
1725.000000	99.512990 
1724.000000	99.509909 
1723.000000	99.508505 
1722.000000	99.510910 
1721.000000	99.517664 
1720.000000	99.526003 
1719.000000	99.530977 
1718.000000	99.528781 
1717.000000	99.521443 
1716.000000	99.514362 
1715.000000	99.509244 
1714.000000	99.505010 
1713.000000	99.500980 
1712.000000	99.496990 
1711.000000	99.493051 
1710.000000	99.489666 
1709.000000	99.487709 
1708.000000	99.487493 
1707.000000	99.488491 
1706.000000	99.490769 
1705.000000	99.494093 
1704.000000	99.495357 
1703.000000	99.490382 
1702.000000	99.478458 
1701.000000	99.465596 
1700.000000	99.460621 
1699.000000	99.462242 
1698.000000	99.463593 
1697.000000	99.463069 
1696.000000	99.462700 
1695.000000	99.463040 
1694.000000	99.462834 
1693.000000	99.460793 
1692.000000	99.454652 
1691.000000	99.444298 
1690.000000	99.433640 
1689.000000	99.426830 
1688.000000	99.423154 
1687.000000	99.418371 
1686.000000	99.410620 
1685.000000	99.402851 
1684.000000	99.399469 
1683.000000	99.398607 
1682.000000	99.395742 
1681.000000	99.390883 
1680.000000	99.386514 
1679.000000	99.384566 
1678.000000	99.384429 
1677.000000	99.384002 
1676.000000	99.381604 
1675.000000	99.377073 
1674.000000	99.371627 
1673.000000	99.366979 
1672.000000	99.363742 
1671.000000	99.361547 
1670.000000	99.359746 
1669.000000	99.357227 
1668.000000	99.353337 
1667.000000	99.348340 
1666.000000	99.341732 
1665.000000	99.333001 
1664.000000	99.324280 
1663.000000	99.320316 
1662.000000	99.323059 
1661.000000	99.328250 
1660.000000	99.330702 
1659.000000	99.329275 
1658.000000	99.325735 
1657.000000	99.320878 
1656.000000	99.313134 
1655.000000	99.302170 
1654.000000	99.293523 
1653.000000	99.292146 
1652.000000	99.291779 
1651.000000	99.291173 
1650.000000	99.291054 
1649.000000	99.287289 
1648.000000	99.279012 
1647.000000	99.270402 
1646.000000	99.266064 
1645.000000	99.266615 
1644.000000	99.270548 
1643.000000	99.275350 
1642.000000	99.278582 
1641.000000	99.279863 
1640.000000	99.280241 
1639.000000	99.280456 
1638.000000	99.280517 
1637.000000	99.280184 
1636.000000	99.278850 
1635.000000	99.276008 
1634.000000	99.273684 
1633.000000	99.274028 
1632.000000	99.275970 
1631.000000	99.277456 
1630.000000	99.277851 
1629.000000	99.277623 
1628.000000	99.277345 
1627.000000	99.277587 
1626.000000	99.279330 
1625.000000	99.283887 
1624.000000	99.291448 
1623.000000	99.299695 
1622.000000	99.305285 
1621.000000	99.307250 
1620.000000	99.306526 
1619.000000	99.304271 
1618.000000	99.302943 
1617.000000	99.305982 
1616.000000	99.313654 
1615.000000	99.322256 
1614.000000	99.328171 
1613.000000	99.330101 
1612.000000	99.329554 
1611.000000	99.329313 
1610.000000	99.330801 
1609.000000	99.333381 
1608.000000	99.335977 
1607.000000	99.338280 
1606.000000	99.340243 
1605.000000	99.342028 
1604.000000	99.344436 
1603.000000	99.348448 
1602.000000	99.353863 
1601.000000	99.359207 
1600.000000	99.363549 
1599.000000	99.367373 
1598.000000	99.371379 
1597.000000	99.375714 
1596.000000	99.380615 
1595.000000	99.386366 
1594.000000	99.391968 
1593.000000	99.395220 
1592.000000	99.395393 
1591.000000	99.394832 
1590.000000	99.396776 
1589.000000	99.401954 
1588.000000	99.408469 
1587.000000	99.414278 
1586.000000	99.418127 
1585.000000	99.418978 
1584.000000	99.416660 
1583.000000	99.412773 
1582.000000	99.410035 
1581.000000	99.409797 
1580.000000	99.411126 
1579.000000	99.412636 
1578.000000	99.414315 
1577.000000	99.416646 
1576.000000	99.418656 
1575.000000	99.420209 
1574.000000	99.423057 
1573.000000	99.426331 
1572.000000	99.427586 
1571.000000	99.426956 
1570.000000	99.427393 
1569.000000	99.430342 
1568.000000	99.433332 
1567.000000	99.433984 
1566.000000	99.432300 
1565.000000	99.429727 
1564.000000	99.428166 
1563.000000	99.428332 
1562.000000	99.429764 
1561.000000	99.431908 
1560.000000	99.433495 
1559.000000	99.433785 
1558.000000	99.433487 
1557.000000	99.432861 
1556.000000	99.433631 
1555.000000	99.434203 
1554.000000	99.432846 
1553.000000	99.430027 
1552.000000	99.428116 
1551.000000	99.429394 
1550.000000	99.434300 
1549.000000	99.439854 
1548.000000	99.441970 
1547.000000	99.439579 
1546.000000	99.434679 
1545.000000	99.430591 
1544.000000	99.429300 
1543.000000	99.429448 
1542.000000	99.428776 
1541.000000	99.427670 
1540.000000	99.427838 
1539.000000	99.428589 
1538.000000	99.429964 
1537.000000	99.433018 
1536.000000	99.436069 
1535.000000	99.437811 
1534.000000	99.439387 
1533.000000	99.441383 
1532.000000	99.441870 
1531.000000	99.439722 
1530.000000	99.436344 
1529.000000	99.433495 
1528.000000	99.432186 
1527.000000	99.433389 
1526.000000	99.437353 
1525.000000	99.442123 
1524.000000	99.444788 
1523.000000	99.444874 
1522.000000	99.446018 
1521.000000	99.451170 
1520.000000	99.456485 
1519.000000	99.457515 
1518.000000	99.454346 
1517.000000	99.450008 
1516.000000	99.447365 
1515.000000	99.446317 
1514.000000	99.445546 
1513.000000	99.444294 
1512.000000	99.442599 
1511.000000	99.441371 
1510.000000	99.441510 
1509.000000	99.443832 
1508.000000	99.450008 
1507.000000	99.460176 
1506.000000	99.465790 
1505.000000	99.462293 
1504.000000	99.457339 
1503.000000	99.454695 
1502.000000	99.454019 
1501.000000	99.455325 
1500.000000	99.457770 
1499.000000	99.459277 
1498.000000	99.459427 
1497.000000	99.461280 
1496.000000	99.466372 
1495.000000	99.470621 
1494.000000	99.469957 
1493.000000	99.464739 
1492.000000	99.457998 
1491.000000	99.453071 
1490.000000	99.451259 
1489.000000	99.450960 
1488.000000	99.449832 
1487.000000	99.447808 
1486.000000	99.446957 
1485.000000	99.448339 
1484.000000	99.450900 
1483.000000	99.453006 
1482.000000	99.453428 
1481.000000	99.451458 
1480.000000	99.447193 
1479.000000	99.441861 
1478.000000	99.437387 
1477.000000	99.434895 
1476.000000	99.433425 
1475.000000	99.430907 
1474.000000	99.427909 
1473.000000	99.427818 
1472.000000	99.430336 
1471.000000	99.429830 
1470.000000	99.424339 
1469.000000	99.417442 
1468.000000	99.413013 
1467.000000	99.412216 
1466.000000	99.413472 
1465.000000	99.414366 
1464.000000	99.413486 
1463.000000	99.411557 
1462.000000	99.410198 
1461.000000	99.409471 
1460.000000	99.407177 
1459.000000	99.401148 
1458.000000	99.393030 
1457.000000	99.388590 
1456.000000	99.389134 
1455.000000	99.390403 
1454.000000	99.390464 
1453.000000	99.389135 
1452.000000	99.386775 
1451.000000	99.383673 
1450.000000	99.380214 
1449.000000	99.377546 
1448.000000	99.376486 
1447.000000	99.375903 
1446.000000	99.374472 
1445.000000	99.373087 
1444.000000	99.372916 
1443.000000	99.373164 
1442.000000	99.372032 
1441.000000	99.368957 
1440.000000	99.364975 
1439.000000	99.361476 
1438.000000	99.359325 
1437.000000	99.358733 
1436.000000	99.357990 
1435.000000	99.354425 
1434.000000	99.348561 
1433.000000	99.343776 
1432.000000	99.342995 
1431.000000	99.346641 
1430.000000	99.352177 
1429.000000	99.356896 
1428.000000	99.360082 
1427.000000	99.361874 
1426.000000	99.362282 
1425.000000	99.361789 
1424.000000	99.361700 
1423.000000	99.362299 
1422.000000	99.361890 
1421.000000	99.359722 
1420.000000	99.357928 
1419.000000	99.359353 
1418.000000	99.362560 
1417.000000	99.364235 
1416.000000	99.364658 
1415.000000	99.365203 
1414.000000	99.365415 
1413.000000	99.363914 
1412.000000	99.360892 
1411.000000	99.358374 
1410.000000	99.357807 
1409.000000	99.359225 
1408.000000	99.362235 
1407.000000	99.365874 
1406.000000	99.368776 
1405.000000	99.371045 
1404.000000	99.374627 
1403.000000	99.379937 
1402.000000	99.384269 
1401.000000	99.385357 
1400.000000	99.384692 
1399.000000	99.386358 
1398.000000	99.391323 
1397.000000	99.396274 
1396.000000	99.398875 
1395.000000	99.400435 
1394.000000	99.403256 
1393.000000	99.407631 
1392.000000	99.413252 
1391.000000	99.419862 
1390.000000	99.426254 
1389.000000	99.430387 
1388.000000	99.430867 
1387.000000	99.428557 
1386.000000	99.425875 
1385.000000	99.424713 
1384.000000	99.425528 
1383.000000	99.427669 
1382.000000	99.430084 
1381.000000	99.432310 
1380.000000	99.434611 
1379.000000	99.437089 
1378.000000	99.438882 
1377.000000	99.438744 
1376.000000	99.436814 
1375.000000	99.435482 
1374.000000	99.437319 
1373.000000	99.441492 
1372.000000	99.444797 
1371.000000	99.446051 
1370.000000	99.446994 
1369.000000	99.449378 
1368.000000	99.453376 
1367.000000	99.458248 
1366.000000	99.463054 
1365.000000	99.466272 
1364.000000	99.466021 
1363.000000	99.462465 
1362.000000	99.458896 
1361.000000	99.458029 
1360.000000	99.459139 
1359.000000	99.460416 
1358.000000	99.461821 
1357.000000	99.464302 
1356.000000	99.467454 
1355.000000	99.469611 
1354.000000	99.470126 
1353.000000	99.469859 
1352.000000	99.469052 
1351.000000	99.466573 
1350.000000	99.462273 
1349.000000	99.457719 
1348.000000	99.454884 
1347.000000	99.454973 
1346.000000	99.458329 
1345.000000	99.463956 
1344.000000	99.469276 
1343.000000	99.471852 
1342.000000	99.471601 
1341.000000	99.470261 
1340.000000	99.468870 
1339.000000	99.467071 
1338.000000	99.465042 
1337.000000	99.464315 
1336.000000	99.465700 
1335.000000	99.468053 
1334.000000	99.470248 
1333.000000	99.472835 
1332.000000	99.476273 
1331.000000	99.478767 
1330.000000	99.477808 
1329.000000	99.473462 
1328.000000	99.468682 
1327.000000	99.466266 
1326.000000	99.466568 
1325.000000	99.467955 
1324.000000	99.469031 
1323.000000	99.469548 
1322.000000	99.469493 
1321.000000	99.468310 
1320.000000	99.465584 
1319.000000	99.462167 
1318.000000	99.459796 
1317.000000	99.459210 
1316.000000	99.459068 
1315.000000	99.457378 
1314.000000	99.454044 
1313.000000	99.451463 
1312.000000	99.452008 
1311.000000	99.455308 
1310.000000	99.458801 
1309.000000	99.460512 
1308.000000	99.460346 
1307.000000	99.458858 
1306.000000	99.456185 
1305.000000	99.452555 
1304.000000	99.449276 
1303.000000	99.448012 
1302.000000	99.449175 
1301.000000	99.451474 
1300.000000	99.452925 
1299.000000	99.451952 
1298.000000	99.448045 
1297.000000	99.442204 
1296.000000	99.436642 
1295.000000	99.433441 
1294.000000	99.433029 
1293.000000	99.433961 
1292.000000	99.434007 
1291.000000	99.431364 
1290.000000	99.425529 
1289.000000	99.417742 
1288.000000	99.410300 
1287.000000	99.404718 
1286.000000	99.400521 
1285.000000	99.396322 
1284.000000	99.391741 
1283.000000	99.387510 
1282.000000	99.384030 
1281.000000	99.380815 
1280.000000	99.377311 
1279.000000	99.373336 
1278.000000	99.368532 
1277.000000	99.362399 
1276.000000	99.355174 
1275.000000	99.348137 
1274.000000	99.342741 
1273.000000	99.339818 
1272.000000	99.339320 
1271.000000	99.339848 
1270.000000	99.338645 
1269.000000	99.333640 
1268.000000	99.325832 
1267.000000	99.318353 
1266.000000	99.312696 
1265.000000	99.307365 
1264.000000	99.300791 
1263.000000	99.293627 
1262.000000	99.286939 
1261.000000	99.279989 
1260.000000	99.271821 
1259.000000	99.263968 
1258.000000	99.259229 
1257.000000	99.258207 
1256.000000	99.258785 
1255.000000	99.258682 
1254.000000	99.256988 
1253.000000	99.253432 
1252.000000	99.247761 
1251.000000	99.240187 
1250.000000	99.231309 
1249.000000	99.221405 
1248.000000	99.210818 
1247.000000	99.200848 
1246.000000	99.192753 
1245.000000	99.185669 
1244.000000	99.176882 
1243.000000	99.164818 
1242.000000	99.151008 
1241.000000	99.138664 
1240.000000	99.129767 
1239.000000	99.123542 
1238.000000	99.117003 
1237.000000	99.107034 
1236.000000	99.092683 
1235.000000	99.075769 
1234.000000	99.059022 
1233.000000	99.043783 
1232.000000	99.029691 
1231.000000	99.015596 
1230.000000	98.999815 
1229.000000	98.980461 
1228.000000	98.957296 
1227.000000	98.933167 
1226.000000	98.911880 
1225.000000	98.893970 
1224.000000	98.875527 
1223.000000	98.851673 
1222.000000	98.820676 
1221.000000	98.784710 
1220.000000	98.747546 
1219.000000	98.711774 
1218.000000	98.677212 
1217.000000	98.641339 
1216.000000	98.601581 
1215.000000	98.557522 
1214.000000	98.511083 
1213.000000	98.464834 
1212.000000	98.420029 
1211.000000	98.375509 
1210.000000	98.328566 
1209.000000	98.277912 
1208.000000	98.225755 
1207.000000	98.175468 
1206.000000	98.127229 
1205.000000	98.078118 
1204.000000	98.026949 
1203.000000	97.976138 
1202.000000	97.927412 
1201.000000	97.878489 
1200.000000	97.826394 
1199.000000	97.771849 
1198.000000	97.717802 
1197.000000	97.665333 
1196.000000	97.613704 
1195.000000	97.562799 
1194.000000	97.512550 
1193.000000	97.460949 
1192.000000	97.405586 
1191.000000	97.346940 
1190.000000	97.288085 
1189.000000	97.231553 
1188.000000	97.177962 
1187.000000	97.126508 
1186.000000	97.074774 
1185.000000	97.019142 
1184.000000	96.957519 
1183.000000	96.891159 
1182.000000	96.822755 
1181.000000	96.754080 
1180.000000	96.686619 
1179.000000	96.622025 
1178.000000	96.559506 
1177.000000	96.494756 
1176.000000	96.424342 
1175.000000	96.349778 
1174.000000	96.274830 
1173.000000	96.200319 
1172.000000	96.124517 
1171.000000	96.047333 
1170.000000	95.970812 
1169.000000	95.896047 
1168.000000	95.822487 
1167.000000	95.750518 
1166.000000	95.683390 
1165.000000	95.627466 
1164.000000	95.591590 
1163.000000	95.583734 
1162.000000	95.604862 
1161.000000	95.645949 
1160.000000	95.691991 
1159.000000	95.728618 
1158.000000	95.745989 
1157.000000	95.739788 
1156.000000	95.710890 
1155.000000	95.663554 
1154.000000	95.602695 
1153.000000	95.532881 
1152.000000	95.459440 
1151.000000	95.387966 
1150.000000	95.321148 
1149.000000	95.257451 
1148.000000	95.193903 
1147.000000	95.128596 
1146.000000	95.060268 
1145.000000	94.988339 
1144.000000	94.914792 
1143.000000	94.843604 
1142.000000	94.776506 
1141.000000	94.710954 
1140.000000	94.643226 
1139.000000	94.571468 
1138.000000	94.495249 
1137.000000	94.415149 
1136.000000	94.333958 
1135.000000	94.255315 
1134.000000	94.179519 
1133.000000	94.103123 
1132.000000	94.023670 
1131.000000	93.941988 
1130.000000	93.858968 
1129.000000	93.773537 
1128.000000	93.685249 
1127.000000	93.595683 
1126.000000	93.505844 
1125.000000	93.415211 
1124.000000	93.324357 
1123.000000	93.234957 
1122.000000	93.146100 
1121.000000	93.054469 
1120.000000	92.959576 
1119.000000	92.865046 
1118.000000	92.773512 
1117.000000	92.684265 
1116.000000	92.597168 
1115.000000	92.514402 
1114.000000	92.436691 
1113.000000	92.362034 
1112.000000	92.289678 
1111.000000	92.221104 
1110.000000	92.155759 
1109.000000	92.090198 
1108.000000	92.022902 
1107.000000	91.955666 
1106.000000	91.889272 
1105.000000	91.822047 
1104.000000	91.753319 
1103.000000	91.683980 
1102.000000	91.613530 
1101.000000	91.541285 
1100.000000	91.470367 
1099.000000	91.404618 
1098.000000	91.342448 
1097.000000	91.279216 
1096.000000	91.215253 
1095.000000	91.154944 
1094.000000	91.098532 
1093.000000	91.042234 
1092.000000	90.986092 
1091.000000	90.933524 
1090.000000	90.882874 
1089.000000	90.828061 
1088.000000	90.768778 
1087.000000	90.711761 
1086.000000	90.660652 
1085.000000	90.612614 
1084.000000	90.565989 
1083.000000	90.522558 
1082.000000	90.480711 
1081.000000	90.435211 
1080.000000	90.385790 
1079.000000	90.337675 
1078.000000	90.291784 
1077.000000	90.242802 
1076.000000	90.188502 
1075.000000	90.131674 
1074.000000	90.070689 
1073.000000	89.997512 
1072.000000	89.907882 
1071.000000	89.804831 
1070.000000	89.689972 
1069.000000	89.560668 
1068.000000	89.418786 
1067.000000	89.272668 
1066.000000	89.126365 
1065.000000	88.975879 
1064.000000	88.820122 
1063.000000	88.666376 
1062.000000	88.520203 
1061.000000	88.378655 
1060.000000	88.238244 
1059.000000	88.101265 
1058.000000	87.969360 
1057.000000	87.838283 
1056.000000	87.703184 
1055.000000	87.562151 
1054.000000	87.412051 
1053.000000	87.249139 
1052.000000	87.076678 
1051.000000	86.902694 
1050.000000	86.727059 
1049.000000	86.541780 
1048.000000	86.346932 
1047.000000	86.153107 
1046.000000	85.964673 
1045.000000	85.773712 
1044.000000	85.574435 
1043.000000	85.372039 
1042.000000	85.173358 
1041.000000	84.979110 
1040.000000	84.789584 
1039.000000	84.608146 
1038.000000	84.435285 
1037.000000	84.268920 
1036.000000	84.113538 
1035.000000	83.978498 
1034.000000	83.864429 
1033.000000	83.762140 
1032.000000	83.667321 
1031.000000	83.584925 
1030.000000	83.517142 
1029.000000	83.459431 
1028.000000	83.410766 
1027.000000	83.375064 
1026.000000	83.349605 
1025.000000	83.324384 
1024.000000	83.295615 
1023.000000	83.267829 
1022.000000	83.240859 
1021.000000	83.207767 
1020.000000	83.167957 
1019.000000	83.129057 
1018.000000	83.092868 
1017.000000	83.052523 
1016.000000	83.006557 
1015.000000	82.962711 
1014.000000	82.924379 
1013.000000	82.885930 
1012.000000	82.844752 
1011.000000	82.805454 
1010.000000	82.769372 
1009.000000	82.732997 
1008.000000	82.699897 
1007.000000	82.680880 
1006.000000	82.678431 
1005.000000	82.683473 
1004.000000	82.690861 
1003.000000	82.705400 
1002.000000	82.729406 
1001.000000	82.757507 
1000.000000	82.787489 
999.000000	 82.823561 
998.000000	 82.865112 
997.000000	 82.904858 
996.000000	 82.942299 
995.000000	 82.986922 
994.000000	 83.043684 
993.000000	 83.106300 
992.000000	 83.168571 
991.000000	 83.231570 
990.000000	 83.296762 
989.000000	 83.363053 
988.000000	 83.433581 
987.000000	 83.514797 
986.000000	 83.606571 
985.000000	 83.703893 
984.000000	 83.809459 
983.000000	 83.932511 
982.000000	 84.073578 
981.000000	 84.222922 
980.000000	 84.376241 
979.000000	 84.539321 
978.000000	 84.714778 
977.000000	 84.896929 
976.000000	 85.083064 
975.000000	 85.277726 
974.000000	 85.482095 
973.000000	 85.690137 
972.000000	 85.898628 
971.000000	 86.110551 
970.000000	 86.325547 
969.000000	 86.537337 
968.000000	 86.743822 
967.000000	 86.950037 
966.000000	 87.157817 
965.000000	 87.361543 
964.000000	 87.557080 
963.000000	 87.746338 
962.000000	 87.930210 
961.000000	 88.105379 
960.000000	 88.271063 
959.000000	 88.431176 
958.000000	 88.587063 
957.000000	 88.735297 
956.000000	 88.875092 
955.000000	 89.010766 
954.000000	 89.144336 
953.000000	 89.272156 
952.000000	 89.391007 
951.000000	 89.501396 
950.000000	 89.603355 
949.000000	 89.695341 
948.000000	 89.778860 
947.000000	 89.858157 
946.000000	 89.934085 
945.000000	 90.004039 
944.000000	 90.068262 
943.000000	 90.129529 
942.000000	 90.186231 
941.000000	 90.233255 
940.000000	 90.271067 
939.000000	 90.306966 
938.000000	 90.345902 
937.000000	 90.386679 
936.000000	 90.428223 
935.000000	 90.472333 
934.000000	 90.518742 
933.000000	 90.564505 
932.000000	 90.609976 
931.000000	 90.658817 
930.000000	 90.710951 
929.000000	 90.762189 
928.000000	 90.811578 
927.000000	 90.861956 
926.000000	 90.912429 
925.000000	 90.957695 
924.000000	 90.995620 
923.000000	 91.027915 
922.000000	 91.052878 
921.000000	 91.066212 
920.000000	 91.070740 
919.000000	 91.076644 
918.000000	 91.089312 
917.000000	 91.104628 
916.000000	 91.118703 
915.000000	 91.134393 
914.000000	 91.155894 
913.000000	 91.185296 
912.000000	 91.227408 
911.000000	 91.289248 
910.000000	 91.370717 
909.000000	 91.463580 
908.000000	 91.563434 
907.000000	 91.675073 
906.000000	 91.802611 
905.000000	 91.942234 
904.000000	 92.088714 
903.000000	 92.241751 
902.000000	 92.401525 
901.000000	 92.564202 
900.000000	 92.725883 
899.000000	 92.885681 
898.000000	 93.041502 
897.000000	 93.187915 
896.000000	 93.321776 
895.000000	 93.446161 
894.000000	 93.565949 
893.000000	 93.682635 
892.000000	 93.795225 
891.000000	 93.902641 
890.000000	 94.003621 
889.000000	 94.097558 
888.000000	 94.186526 
887.000000	 94.273111 
886.000000	 94.355755 
885.000000	 94.430511 
884.000000	 94.498330 
883.000000	 94.565906 
882.000000	 94.637505 
881.000000	 94.710049 
880.000000	 94.778262 
879.000000	 94.841002 
878.000000	 94.900802 
877.000000	 94.960606 
876.000000	 95.022454 
875.000000	 95.086158 
874.000000	 95.148607 
873.000000	 95.208234 
872.000000	 95.270287 
871.000000	 95.342446 
870.000000	 95.423601 
869.000000	 95.501834 
868.000000	 95.566157 
867.000000	 95.617238 
866.000000	 95.664919 
865.000000	 95.717920 
864.000000	 95.777722 
863.000000	 95.839896 
862.000000	 95.898748 
861.000000	 95.951339 
860.000000	 95.998477 
859.000000	 96.042691 
858.000000	 96.086471 
857.000000	 96.132491 
856.000000	 96.182340 
855.000000	 96.232527 
854.000000	 96.274637 
853.000000	 96.303530 
852.000000	 96.323560 
851.000000	 96.342608 
850.000000	 96.361794 
849.000000	 96.376166 
848.000000	 96.384222 
847.000000	 96.390129 
846.000000	 96.395989 
845.000000	 96.398449 
844.000000	 96.395185 
843.000000	 96.388586 
842.000000	 96.379214 
841.000000	 96.360768 
840.000000	 96.327071 
839.000000	 96.281743 
838.000000	 96.235857 
837.000000	 96.196206 
836.000000	 96.159620 
835.000000	 96.119457 
834.000000	 96.075184 
833.000000	 96.033903 
832.000000	 96.002480 
831.000000	 95.979629 
830.000000	 95.958751 
829.000000	 95.939922 
828.000000	 95.934322 
827.000000	 95.950926 
826.000000	 95.981806 
825.000000	 96.009442 
824.000000	 96.028141 
823.000000	 96.047953 
822.000000	 96.075973 
821.000000	 96.104671 
820.000000	 96.122302 
819.000000	 96.125777 
818.000000	 96.119351 
817.000000	 96.106716 
816.000000	 96.087633 
815.000000	 96.057758 
814.000000	 96.008665 
813.000000	 95.931572 
812.000000	 95.823773 
811.000000	 95.688621 
810.000000	 95.527311 
809.000000	 95.334085 
808.000000	 95.101755 
807.000000	 94.828467 
806.000000	 94.517582 
805.000000	 94.177129 
804.000000	 93.824473 
803.000000	 93.486511 
802.000000	 93.188129 
801.000000	 92.942233 
800.000000	 92.753784 
799.000000	 92.626935 
798.000000	 92.562876 
797.000000	 92.556053 
796.000000	 92.596814 
795.000000	 92.673373 
794.000000	 92.770361 
793.000000	 92.872409 
792.000000	 92.970578 
791.000000	 93.059312 
790.000000	 93.127944 
789.000000	 93.163997 
788.000000	 93.165930 
787.000000	 93.143550 
786.000000	 93.102915 
785.000000	 93.038986 
784.000000	 92.947152 
783.000000	 92.834621 
782.000000	 92.716102 
781.000000	 92.605522 
780.000000	 92.516583 
779.000000	 92.463097 
778.000000	 92.451453 
777.000000	 92.478120 
776.000000	 92.539148 
775.000000	 92.635011 
774.000000	 92.761049 
773.000000	 92.900746 
772.000000	 93.035251 
771.000000	 93.154932 
770.000000	 93.257116 
769.000000	 93.338180 
768.000000	 93.394865 
767.000000	 93.430762 
766.000000	 93.454791 
765.000000	 93.472875 
764.000000	 93.484922 
763.000000	 93.489736 
762.000000	 93.489865 
761.000000	 93.491509 
760.000000	 93.501104 
759.000000	 93.521250 
758.000000	 93.548936 
757.000000	 93.578830 
756.000000	 93.608626 
755.000000	 93.639967 
754.000000	 93.674917 
753.000000	 93.713681 
752.000000	 93.754867 
751.000000	 93.795056 
750.000000	 93.829118 
749.000000	 93.854645 
748.000000	 93.876281 
747.000000	 93.903196 
746.000000	 93.942336 
745.000000	 93.995062 
744.000000	 94.057455 
743.000000	 94.121254 
742.000000	 94.178589 
741.000000	 94.230539 
740.000000	 94.287955 
739.000000	 94.359088 
738.000000	 94.439350 
737.000000	 94.518087 
736.000000	 94.591407 
735.000000	 94.662145 
734.000000	 94.730835 
733.000000	 94.794090 
732.000000	 94.849318 
731.000000	 94.893200 
730.000000	 94.917805 
729.000000	 94.917036 
728.000000	 94.897212 
727.000000	 94.874074 
726.000000	 94.858986 
725.000000	 94.855121 
724.000000	 94.865451 
723.000000	 94.893831 
722.000000	 94.936145 
721.000000	 94.979416 
720.000000	 95.013760 
719.000000	 95.039761 
718.000000	 95.062329 
717.000000	 95.084395 
716.000000	 95.108400 
715.000000	 95.135942 
714.000000	 95.162531 
713.000000	 95.179005 
712.000000	 95.181757 
711.000000	 95.176976 
710.000000	 95.172659 
709.000000	 95.170573 
708.000000	 95.167010 
707.000000	 95.156625 
706.000000	 95.134211 
705.000000	 95.098287 
704.000000	 95.053436 
703.000000	 95.002445 
702.000000	 94.936081 
701.000000	 94.837705 
700.000000	 94.698374 
699.000000	 94.522957 
698.000000	 94.324296 
697.000000	 94.121929 
696.000000	 93.946688 
695.000000	 93.832184 
694.000000	 93.795189 
693.000000	 93.829112 
692.000000	 93.914773 
691.000000	 94.029131 
690.000000	 94.146421 
689.000000	 94.246903 
688.000000	 94.330009 
687.000000	 94.407958 
686.000000	 94.483584 
685.000000	 94.545634 
684.000000	 94.586645 
683.000000	 94.612620 
682.000000	 94.633307 
681.000000	 94.655576 
680.000000	 94.687558 
679.000000	 94.734436 
678.000000	 94.785268 
677.000000	 94.818016 
676.000000	 94.827958 
675.000000	 94.838430 
674.000000	 94.871252 
673.000000	 94.919723 
672.000000	 94.962964 
671.000000	 94.995221 
670.000000	 95.026820 
669.000000	 95.064960 
668.000000	 95.096017 
667.000000	 95.104565 
666.000000	 95.109102 
665.000000	 95.123571 
664.000000	 95.138661 
663.000000	 95.143617 
662.000000	 95.137923 
661.000000	 95.131327 
660.000000	 95.134660 
659.000000	 95.145840 
658.000000	 95.143131 
657.000000	 95.102517 
656.000000	 95.029093 
655.000000	 94.960152 
654.000000	 94.924967 
653.000000	 94.911041 
652.000000	 94.885211 
651.000000	 94.836344 
650.000000	 94.786642 

