4000.000000	99.429540 
3999.000000	99.429332 
3998.000000	99.429268 
3997.000000	99.429228 
3996.000000	99.429042 
3995.000000	99.428669 
3994.000000	99.428301 
3993.000000	99.428219 
3992.000000	99.428501 
3991.000000	99.428895 
3990.000000	99.429020 
3989.000000	99.428753 
3988.000000	99.428387 
3987.000000	99.428372 
3986.000000	99.428886 
3985.000000	99.429675 
3984.000000	99.430235 
3983.000000	99.430184 
3982.000000	99.429470 
3981.000000	99.428327 
3980.000000	99.427071 
3979.000000	99.425917 
3978.000000	99.425035 
3977.000000	99.424660 
3976.000000	99.424975 
3975.000000	99.425899 
3974.000000	99.427093 
3973.000000	99.428141 
3972.000000	99.428756 
3971.000000	99.428881 
3970.000000	99.428614 
3969.000000	99.428100 
3968.000000	99.427489 
3967.000000	99.426881 
3966.000000	99.426361 
3965.000000	99.426064 
3964.000000	99.426069 
3963.000000	99.426215 
3962.000000	99.426144 
3961.000000	99.425598 
3960.000000	99.424652 
3959.000000	99.423678 
3958.000000	99.423054 
3957.000000	99.422854 
3956.000000	99.422891 
3955.000000	99.422952 
3954.000000	99.422971 
3953.000000	99.422976 
3952.000000	99.422935 
3951.000000	99.422765 
3950.000000	99.422415 
3949.000000	99.421942 
3948.000000	99.421487 
3947.000000	99.421142 
3946.000000	99.420912 
3945.000000	99.420803 
3944.000000	99.420850 
3943.000000	99.420929 
3942.000000	99.420786 
3941.000000	99.420304 
3940.000000	99.419587 
3939.000000	99.418808 
3938.000000	99.418041 
3937.000000	99.417299 
3936.000000	99.416708 
3935.000000	99.416526 
3934.000000	99.416955 
3933.000000	99.417923 
3932.000000	99.419010 
3931.000000	99.419663 
3930.000000	99.419573 
3929.000000	99.418866 
3928.000000	99.418036 
3927.000000	99.417563 
3926.000000	99.417603 
3925.000000	99.417893 
3924.000000	99.417927 
3923.000000	99.417419 
3922.000000	99.416527 
3921.000000	99.415697 
3920.000000	99.415291 
3919.000000	99.415358 
3918.000000	99.415724 
3917.000000	99.416169 
3916.000000	99.416518 
3915.000000	99.416688 
3914.000000	99.416759 
3913.000000	99.416898 
3912.000000	99.417138 
3911.000000	99.417371 
3910.000000	99.417528 
3909.000000	99.417663 
3908.000000	99.417823 
3907.000000	99.417818 
3906.000000	99.417244 
3905.000000	99.415821 
3904.000000	99.413680 
3903.000000	99.411504 
3902.000000	99.410193 
3901.000000	99.410146 
3900.000000	99.411112 
3899.000000	99.412346 
3898.000000	99.413138 
3897.000000	99.413323 
3896.000000	99.413123 
3895.000000	99.412831 
3894.000000	99.412609 
3893.000000	99.412419 
3892.000000	99.412102 
3891.000000	99.411564 
3890.000000	99.410868 
3889.000000	99.410150 
3888.000000	99.409579 
3887.000000	99.409362 
3886.000000	99.409533 
3885.000000	99.409830 
3884.000000	99.409967 
3883.000000	99.409961 
3882.000000	99.410009 
3881.000000	99.410172 
3880.000000	99.410326 
3879.000000	99.410366 
3878.000000	99.410340 
3877.000000	99.410349 
3876.000000	99.410450 
3875.000000	99.410595 
3874.000000	99.410694 
3873.000000	99.410723 
3872.000000	99.410737 
3871.000000	99.410796 
3870.000000	99.410919 
3869.000000	99.411086 
3868.000000	99.411282 
3867.000000	99.411503 
3866.000000	99.411754 
3865.000000	99.412029 
3864.000000	99.412320 
3863.000000	99.412622 
3862.000000	99.412938 
3861.000000	99.413270 
3860.000000	99.413613 
3859.000000	99.413957 
3858.000000	99.414291 
3857.000000	99.414607 
3856.000000	99.414903 
3855.000000	99.415185 
3854.000000	99.415461 
3853.000000	99.415736 
3852.000000	99.416012 
3851.000000	99.416293 
3850.000000	99.416579 
3849.000000	99.416873 
3848.000000	99.417175 
3847.000000	99.417481 
3846.000000	99.417787 
3845.000000	99.418089 
3844.000000	99.418390 
3843.000000	99.418698 
3842.000000	99.419016 
3841.000000	99.419337 
3840.000000	99.419652 
3839.000000	99.419952 
3838.000000	99.420235 
3837.000000	99.420505 
3836.000000	99.420767 
3835.000000	99.421025 
3834.000000	99.421280 
3833.000000	99.421534 
3832.000000	99.421787 
3831.000000	99.422038 
3830.000000	99.422286 
3829.000000	99.422525 
3828.000000	99.422751 
3827.000000	99.422961 
3826.000000	99.423155 
3825.000000	99.423331 
3824.000000	99.423492 
3823.000000	99.423641 
3822.000000	99.423787 
3821.000000	99.423934 
3820.000000	99.424079 
3819.000000	99.424215 
3818.000000	99.424339 
3817.000000	99.424450 
3816.000000	99.424547 
3815.000000	99.424630 
3814.000000	99.424700 
3813.000000	99.424764 
3812.000000	99.424829 
3811.000000	99.424898 
3810.000000	99.424966 
3809.000000	99.425024 
3808.000000	99.425066 
3807.000000	99.425090 
3806.000000	99.425094 
3805.000000	99.425076 
3804.000000	99.425039 
3803.000000	99.424984 
3802.000000	99.424912 
3801.000000	99.424816 
3800.000000	99.424687 
3799.000000	99.424525 
3798.000000	99.424342 
3797.000000	99.424152 
3796.000000	99.423963 
3795.000000	99.423778 
3794.000000	99.423595 
3793.000000	99.423413 
3792.000000	99.423229 
3791.000000	99.423042 
3790.000000	99.422850 
3789.000000	99.422654 
3788.000000	99.422454 
3787.000000	99.422247 
3786.000000	99.422032 
3785.000000	99.421806 
3784.000000	99.421568 
3783.000000	99.421318 
3782.000000	99.421057 
3781.000000	99.420785 
3780.000000	99.420501 
3779.000000	99.420215 
3778.000000	99.419906 
3777.000000	99.419559 
3776.000000	99.419183 
3775.000000	99.418814 
3774.000000	99.418481 
3773.000000	99.418149 
3772.000000	99.417734 
3771.000000	99.417254 
3770.000000	99.416804 
3769.000000	99.416333 
3768.000000	99.415753 
3767.000000	99.415125 
3766.000000	99.414609 
3765.000000	99.414247 
3764.000000	99.413820 
3763.000000	99.413081 
3762.000000	99.412154 
3761.000000	99.411552 
3760.000000	99.411565 
3759.000000	99.411817 
3758.000000	99.411822 
3757.000000	99.411647 
3756.000000	99.411496 
3755.000000	99.411366 
3754.000000	99.411260 
3753.000000	99.411363 
3752.000000	99.411448 
3751.000000	99.410577 
3750.000000	99.408944 
3749.000000	99.408222 
3748.000000	99.408851 
3747.000000	99.409294 
3746.000000	99.408249 
3745.000000	99.406271 
3744.000000	99.404783 
3743.000000	99.403873 
3742.000000	99.402466 
3741.000000	99.400283 
3740.000000	99.397815 
3739.000000	99.394811 
3738.000000	99.391222 
3737.000000	99.389046 
3736.000000	99.390740 
3735.000000	99.395821 
3734.000000	99.400488 
3733.000000	99.401800 
3732.000000	99.399822 
3731.000000	99.395693 
3730.000000	99.389815 
3729.000000	99.382348 
3728.000000	99.374981 
3727.000000	99.370252 
3726.000000	99.368733 
3725.000000	99.368533 
3724.000000	99.368190 
3723.000000	99.368397 
3722.000000	99.370037 
3721.000000	99.372660 
3720.000000	99.374734 
3719.000000	99.374619 
3718.000000	99.371882 
3717.000000	99.367200 
3716.000000	99.361386 
3715.000000	99.354865 
3714.000000	99.347682 
3713.000000	99.340098 
3712.000000	99.332557 
3711.000000	99.325990 
3710.000000	99.321606 
3709.000000	99.319589 
3708.000000	99.318872 
3707.000000	99.317959 
3706.000000	99.315992 
3705.000000	99.313255 
3704.000000	99.310723 
3703.000000	99.308655 
3702.000000	99.305406 
3701.000000	99.298934 
3700.000000	99.289204 
3699.000000	99.278180 
3698.000000	99.268256 
3697.000000	99.260758 
3696.000000	99.255058 
3695.000000	99.249426 
3694.000000	99.243405 
3693.000000	99.238668 
3692.000000	99.237044 
3691.000000	99.238311 
3690.000000	99.239464 
3689.000000	99.237120 
3688.000000	99.230788 
3687.000000	99.222315 
3686.000000	99.213550 
3685.000000	99.206125 
3684.000000	99.201313 
3683.000000	99.199073 
3682.000000	99.197859 
3681.000000	99.195572 
3680.000000	99.190602 
3679.000000	99.182053 
3678.000000	99.170748 
3677.000000	99.161304 
3676.000000	99.158912 
3675.000000	99.162037 
3674.000000	99.164082 
3673.000000	99.161526 
3672.000000	99.156253 
3671.000000	99.153547 
3670.000000	99.155600 
3669.000000	99.158741 
3668.000000	99.159455 
3667.000000	99.158153 
3666.000000	99.156658 
3665.000000	99.155849 
3664.000000	99.155358 
3663.000000	99.154591 
3662.000000	99.153503 
3661.000000	99.152017 
3660.000000	99.149503 
3659.000000	99.145697 
3658.000000	99.142180 
3657.000000	99.141688 
3656.000000	99.145039 
3655.000000	99.149762 
3654.000000	99.152477 
3653.000000	99.151940 
3652.000000	99.149469 
3651.000000	99.147327 
3650.000000	99.146326 
3649.000000	99.146240 
3648.000000	99.147825 
3647.000000	99.151536 
3646.000000	99.156368 
3645.000000	99.161289 
3644.000000	99.166323 
3643.000000	99.171974 
3642.000000	99.178554 
3641.000000	99.185519 
3640.000000	99.191907 
3639.000000	99.196945 
3638.000000	99.200030 
3637.000000	99.200746 
3636.000000	99.199303 
3635.000000	99.196934 
3634.000000	99.194867 
3633.000000	99.193022 
3632.000000	99.190513 
3631.000000	99.187728 
3630.000000	99.187226 
3629.000000	99.190001 
3628.000000	99.193275 
3627.000000	99.194974 
3626.000000	99.196078 
3625.000000	99.198868 
3624.000000	99.204722 
3623.000000	99.213179 
3622.000000	99.222625 
3621.000000	99.231604 
3620.000000	99.238370 
3619.000000	99.240640 
3618.000000	99.237926 
3617.000000	99.232884 
3616.000000	99.229162 
3615.000000	99.228925 
3614.000000	99.231584 
3613.000000	99.234371 
3612.000000	99.235114 
3611.000000	99.234256 
3610.000000	99.233905 
3609.000000	99.235751 
3608.000000	99.239486 
3607.000000	99.243633 
3606.000000	99.247687 
3605.000000	99.252169 
3604.000000	99.257395 
3603.000000	99.262895 
3602.000000	99.267917 
3601.000000	99.272368 
3600.000000	99.276271 
3599.000000	99.278914 
3598.000000	99.279397 
3597.000000	99.277766 
3596.000000	99.275310 
3595.000000	99.273963 
3594.000000	99.274690 
3593.000000	99.276880 
3592.000000	99.279256 
3591.000000	99.280961 
3590.000000	99.282282 
3589.000000	99.284271 
3588.000000	99.287025 
3587.000000	99.288881 
3586.000000	99.288762 
3585.000000	99.287559 
3584.000000	99.287051 
3583.000000	99.288219 
3582.000000	99.290902 
3581.000000	99.294150 
3580.000000	99.296876 
3579.000000	99.298397 
3578.000000	99.298550 
3577.000000	99.297752 
3576.000000	99.296774 
3575.000000	99.296416 
3574.000000	99.296933 
3573.000000	99.297776 
3572.000000	99.298128 
3571.000000	99.297638 
3570.000000	99.296629 
3569.000000	99.295995 
3568.000000	99.296430 
3567.000000	99.297475 
3566.000000	99.298174 
3565.000000	99.298410 
3564.000000	99.298787 
3563.000000	99.299866 
3562.000000	99.301674 
3561.000000	99.303639 
3560.000000	99.305097 
3559.000000	99.305788 
3558.000000	99.305948 
3557.000000	99.305985 
3556.000000	99.306156 
3555.000000	99.306438 
3554.000000	99.306628 
3553.000000	99.306399 
3552.000000	99.305536 
3551.000000	99.304241 
3550.000000	99.303053 
3549.000000	99.302444 
3548.000000	99.302601 
3547.000000	99.303301 
3546.000000	99.304018 
3545.000000	99.304200 
3544.000000	99.303674 
3543.000000	99.302877 
3542.000000	99.302614 
3541.000000	99.303390 
3540.000000	99.305031 
3539.000000	99.306769 
3538.000000	99.307885 
3537.000000	99.308207 
3536.000000	99.308032 
3535.000000	99.307777 
3534.000000	99.307658 
3533.000000	99.307721 
3532.000000	99.307997 
3531.000000	99.308534 
3530.000000	99.309208 
3529.000000	99.309662 
3528.000000	99.309613 
3527.000000	99.309173 
3526.000000	99.308747 
3525.000000	99.308610 
3524.000000	99.308675 
3523.000000	99.308693 
3522.000000	99.308595 
3521.000000	99.308517 
3520.000000	99.308588 
3519.000000	99.308803 
3518.000000	99.309097 
3517.000000	99.309427 
3516.000000	99.309739 
3515.000000	99.309939 
3514.000000	99.309937 
3513.000000	99.309736 
3512.000000	99.309451 
3511.000000	99.309223 
3510.000000	99.309099 
3509.000000	99.309021 
3508.000000	99.308936 
3507.000000	99.308901 
3506.000000	99.309042 
3505.000000	99.309381 
3504.000000	99.309775 
3503.000000	99.310027 
3502.000000	99.310087 
3501.000000	99.310085 
3500.000000	99.310175 
3499.000000	99.310351 
3498.000000	99.310458 
3497.000000	99.310378 
3496.000000	99.310155 
3495.000000	99.309956 
3494.000000	99.309900 
3493.000000	99.309948 
3492.000000	99.309994 
3491.000000	99.310011 
3490.000000	99.310079 
3489.000000	99.310279 
3488.000000	99.310574 
3487.000000	99.310812 
3486.000000	99.310867 
3485.000000	99.310772 
3484.000000	99.310687 
3483.000000	99.310717 
3482.000000	99.310771 
3481.000000	99.310683 
3480.000000	99.310427 
3479.000000	99.310158 
3478.000000	99.310018 
3477.000000	99.309999 
3476.000000	99.310027 
3475.000000	99.310133 
3474.000000	99.310443 
3473.000000	99.310893 
3472.000000	99.311124 
3471.000000	99.310847 
3470.000000	99.310287 
3469.000000	99.310056 
3468.000000	99.310481 
3467.000000	99.311197 
3466.000000	99.311587 
3465.000000	99.311595 
3464.000000	99.311785 
3463.000000	99.312563 
3462.000000	99.313537 
3461.000000	99.313919 
3460.000000	99.313388 
3459.000000	99.312407 
3458.000000	99.311742 
3457.000000	99.311665 
3456.000000	99.311783 
3455.000000	99.311544 
3454.000000	99.310810 
3453.000000	99.309979 
3452.000000	99.309444 
3451.000000	99.309198 
3450.000000	99.309012 
3449.000000	99.308854 
3448.000000	99.308835 
3447.000000	99.308823 
3446.000000	99.308451 
3445.000000	99.307664 
3444.000000	99.306957 
3443.000000	99.306799 
3442.000000	99.306908 
3441.000000	99.306349 
3440.000000	99.304492 
3439.000000	99.301724 
3438.000000	99.299103 
3437.000000	99.297348 
3436.000000	99.296444 
3435.000000	99.296189 
3434.000000	99.296710 
3433.000000	99.298301 
3432.000000	99.300738 
3431.000000	99.303097 
3430.000000	99.304444 
3429.000000	99.304636 
3428.000000	99.304344 
3427.000000	99.304275 
3426.000000	99.304376 
3425.000000	99.303949 
3424.000000	99.302538 
3423.000000	99.300506 
3422.000000	99.298685 
3421.000000	99.297556 
3420.000000	99.297054 
3419.000000	99.297007 
3418.000000	99.297424 
3417.000000	99.298230 
3416.000000	99.299011 
3415.000000	99.299265 
3414.000000	99.298873 
3413.000000	99.298179 
3412.000000	99.297637 
3411.000000	99.297435 
3410.000000	99.297408 
3409.000000	99.297217 
3408.000000	99.296573 
3407.000000	99.295420 
3406.000000	99.294025 
3405.000000	99.292879 
3404.000000	99.292400 
3403.000000	99.292664 
3402.000000	99.293401 
3401.000000	99.294317 
3400.000000	99.295374 
3399.000000	99.296645 
3398.000000	99.297924 
3397.000000	99.298687 
3396.000000	99.298563 
3395.000000	99.297674 
3394.000000	99.296397 
3393.000000	99.294938 
3392.000000	99.293339 
3391.000000	99.291880 
3390.000000	99.291169 
3389.000000	99.291648 
3388.000000	99.293125 
3387.000000	99.294881 
3386.000000	99.296297 
3385.000000	99.297318 
3384.000000	99.298215 
3383.000000	99.299036 
3382.000000	99.299401 
3381.000000	99.298929 
3380.000000	99.297770 
3379.000000	99.296657 
3378.000000	99.296290 
3377.000000	99.296690 
3376.000000	99.297290 
3375.000000	99.297571 
3374.000000	99.297558 
3373.000000	99.297639 
3372.000000	99.298066 
3371.000000	99.298736 
3370.000000	99.299347 
3369.000000	99.299636 
3368.000000	99.299512 
3367.000000	99.299116 
3366.000000	99.298786 
3365.000000	99.298824 
3364.000000	99.299221 
3363.000000	99.299677 
3362.000000	99.299940 
3361.000000	99.300029 
3360.000000	99.300047 
3359.000000	99.299897 
3358.000000	99.299381 
3357.000000	99.298571 
3356.000000	99.297909 
3355.000000	99.297785 
3354.000000	99.298107 
3353.000000	99.298375 
3352.000000	99.298198 
3351.000000	99.297668 
3350.000000	99.297242 
3349.000000	99.297287 
3348.000000	99.297784 
3347.000000	99.298372 
3346.000000	99.298638 
3345.000000	99.298410 
3344.000000	99.297839 
3343.000000	99.297269 
3342.000000	99.296928 
3341.000000	99.296682 
3340.000000	99.296132 
3339.000000	99.295092 
3338.000000	99.293985 
3337.000000	99.293620 
3336.000000	99.294481 
3335.000000	99.296291 
3334.000000	99.298240 
3333.000000	99.299735 
3332.000000	99.300738 
3331.000000	99.301390 
3330.000000	99.301568 
3329.000000	99.300964 
3328.000000	99.299572 
3327.000000	99.297897 
3326.000000	99.296539 
3325.000000	99.295655 
3324.000000	99.294950 
3323.000000	99.294235 
3322.000000	99.293818 
3321.000000	99.294181 
3320.000000	99.295378 
3319.000000	99.296911 
3318.000000	99.298183 
3317.000000	99.298973 
3316.000000	99.299353 
3315.000000	99.299401 
3314.000000	99.299179 
3313.000000	99.298921 
3312.000000	99.298934 
3311.000000	99.299261 
3310.000000	99.299598 
3309.000000	99.299646 
3308.000000	99.299411 
3307.000000	99.299084 
3306.000000	99.298821 
3305.000000	99.298744 
3304.000000	99.298985 
3303.000000	99.299539 
3302.000000	99.300083 
3301.000000	99.300151 
3300.000000	99.299552 
3299.000000	99.298512 
3298.000000	99.297484 
3297.000000	99.296818 
3296.000000	99.296570 
3295.000000	99.296553 
3294.000000	99.296530 
3293.000000	99.296437 
3292.000000	99.296407 
3291.000000	99.296555 
3290.000000	99.296747 
3289.000000	99.296698 
3288.000000	99.296298 
3287.000000	99.295721 
3286.000000	99.295267 
3285.000000	99.295080 
3284.000000	99.295063 
3283.000000	99.295018 
3282.000000	99.294851 
3281.000000	99.294622 
3280.000000	99.294453 
3279.000000	99.294407 
3278.000000	99.294445 
3277.000000	99.294458 
3276.000000	99.294344 
3275.000000	99.294052 
3274.000000	99.293581 
3273.000000	99.292990 
3272.000000	99.292396 
3271.000000	99.291951 
3270.000000	99.291734 
3269.000000	99.291680 
3268.000000	99.291591 
3267.000000	99.291283 
3266.000000	99.290706 
3265.000000	99.290007 
3264.000000	99.289476 
3263.000000	99.289374 
3262.000000	99.289766 
3261.000000	99.290454 
3260.000000	99.291085 
3259.000000	99.291385 
3258.000000	99.291273 
3257.000000	99.290871 
3256.000000	99.290389 
3255.000000	99.289926 
3254.000000	99.289398 
3253.000000	99.288740 
3252.000000	99.288170 
3251.000000	99.288104 
3250.000000	99.288705 
3249.000000	99.289618 
3248.000000	99.290264 
3247.000000	99.290409 
3246.000000	99.290246 
3245.000000	99.289993 
3244.000000	99.289604 
3243.000000	99.288958 
3242.000000	99.288160 
3241.000000	99.287511 
3240.000000	99.287289 
3239.000000	99.287643 
3238.000000	99.288613 
3237.000000	99.290066 
3236.000000	99.291615 
3235.000000	99.292743 
3234.000000	99.293106 
3233.000000	99.292751 
3232.000000	99.292083 
3231.000000	99.291608 
3230.000000	99.291566 
3229.000000	99.291787 
3228.000000	99.291870 
3227.000000	99.291536 
3226.000000	99.290781 
3225.000000	99.289785 
3224.000000	99.288790 
3223.000000	99.288078 
3222.000000	99.287905 
3221.000000	99.288305 
3220.000000	99.288959 
3219.000000	99.289383 
3218.000000	99.289348 
3217.000000	99.289103 
3216.000000	99.289186 
3215.000000	99.289963 
3214.000000	99.291293 
3213.000000	99.292572 
3212.000000	99.293172 
3211.000000	99.292860 
3210.000000	99.291831 
3209.000000	99.290451 
3208.000000	99.289076 
3207.000000	99.288052 
3206.000000	99.287670 
3205.000000	99.287997 
3204.000000	99.288789 
3203.000000	99.289667 
3202.000000	99.290376 
3201.000000	99.290819 
3200.000000	99.291022 
3199.000000	99.291129 
3198.000000	99.291346 
3197.000000	99.291729 
3196.000000	99.292125 
3195.000000	99.292392 
3194.000000	99.292590 
3193.000000	99.292823 
3192.000000	99.292967 
3191.000000	99.292759 
3190.000000	99.292106 
3189.000000	99.291192 
3188.000000	99.290312 
3187.000000	99.289698 
3186.000000	99.289486 
3185.000000	99.289665 
3184.000000	99.290014 
3183.000000	99.290245 
3182.000000	99.290345 
3181.000000	99.290681 
3180.000000	99.291669 
3179.000000	99.293338 
3178.000000	99.295170 
3177.000000	99.296379 
3176.000000	99.296502 
3175.000000	99.295804 
3174.000000	99.295112 
3173.000000	99.295000 
3172.000000	99.295178 
3171.000000	99.294951 
3170.000000	99.294204 
3169.000000	99.293628 
3168.000000	99.293853 
3167.000000	99.294673 
3166.000000	99.295361 
3165.000000	99.295525 
3164.000000	99.295373 
3163.000000	99.295221 
3162.000000	99.295103 
3161.000000	99.294953 
3160.000000	99.294916 
3159.000000	99.295248 
3158.000000	99.295949 
3157.000000	99.296628 
3156.000000	99.296795 
3155.000000	99.296229 
3154.000000	99.295000 
3153.000000	99.293278 
3152.000000	99.291294 
3151.000000	99.289533 
3150.000000	99.288672 
3149.000000	99.289068 
3148.000000	99.290384 
3147.000000	99.291835 
3146.000000	99.292884 
3145.000000	99.293557 
3144.000000	99.294121 
3143.000000	99.294687 
3142.000000	99.295151 
3141.000000	99.295382 
3140.000000	99.295357 
3139.000000	99.295189 
3138.000000	99.295036 
3137.000000	99.294998 
3136.000000	99.295143 
3135.000000	99.295653 
3134.000000	99.296775 
3133.000000	99.298421 
3132.000000	99.299929 
3131.000000	99.300553 
3130.000000	99.300192 
3129.000000	99.299468 
3128.000000	99.299111 
3127.000000	99.299426 
3126.000000	99.300324 
3125.000000	99.301437 
3124.000000	99.302090 
3123.000000	99.301590 
3122.000000	99.299857 
3121.000000	99.297700 
3120.000000	99.296180 
3119.000000	99.295673 
3118.000000	99.295860 
3117.000000	99.296331 
3116.000000	99.296962 
3115.000000	99.297773 
3114.000000	99.298690 
3113.000000	99.299550 
3112.000000	99.300185 
3111.000000	99.300517 
3110.000000	99.300632 
3109.000000	99.300717 
3108.000000	99.300805 
3107.000000	99.300702 
3106.000000	99.300283 
3105.000000	99.299755 
3104.000000	99.299508 
3103.000000	99.299724 
3102.000000	99.300299 
3101.000000	99.301074 
3100.000000	99.301939 
3099.000000	99.302763 
3098.000000	99.303429 
3097.000000	99.303962 
3096.000000	99.304442 
3095.000000	99.304751 
3094.000000	99.304580 
3093.000000	99.303832 
3092.000000	99.302872 
3091.000000	99.302222 
3090.000000	99.302075 
3089.000000	99.302329 
3088.000000	99.302914 
3087.000000	99.303808 
3086.000000	99.304750 
3085.000000	99.305277 
3084.000000	99.305014 
3083.000000	99.303707 
3082.000000	99.301162 
3081.000000	99.297655 
3080.000000	99.294449 
3079.000000	99.293334 
3078.000000	99.295319 
3077.000000	99.299802 
3076.000000	99.304954 
3075.000000	99.308907 
3074.000000	99.310635 
3073.000000	99.310183 
3072.000000	99.308294 
3071.000000	99.305689 
3070.000000	99.302584 
3069.000000	99.298933 
3068.000000	99.295117 
3067.000000	99.292170 
3066.000000	99.291296 
3065.000000	99.293184 
3064.000000	99.297474 
3063.000000	99.302389 
3062.000000	99.305161 
3061.000000	99.303711 
3060.000000	99.298508 
3059.000000	99.292571 
3058.000000	99.289227 
3057.000000	99.289815 
3056.000000	99.293314 
3055.000000	99.297580 
3054.000000	99.300576 
3053.000000	99.301048 
3052.000000	99.298835 
3051.000000	99.294787 
3050.000000	99.290211 
3049.000000	99.286279 
3048.000000	99.283663 
3047.000000	99.282059 
3046.000000	99.279857 
3045.000000	99.275055 
3044.000000	99.267341 
3043.000000	99.259086 
3042.000000	99.253562 
3041.000000	99.251927 
3040.000000	99.252253 
3039.000000	99.251341 
3038.000000	99.247033 
3037.000000	99.239022 
3036.000000	99.228318 
3035.000000	99.216498 
3034.000000	99.205033 
3033.000000	99.194613 
3032.000000	99.184959 
3031.000000	99.175347 
3030.000000	99.165331 
3029.000000	99.155119 
3028.000000	99.145507 
3027.000000	99.137359 
3026.000000	99.130637 
3025.000000	99.123693 
3024.000000	99.113966 
3023.000000	99.099924 
3022.000000	99.082366 
3021.000000	99.063463 
3020.000000	99.044544 
3019.000000	99.025169 
3018.000000	99.004684 
3017.000000	98.984046 
3016.000000	98.965268 
3015.000000	98.948998 
3014.000000	98.933602 
3013.000000	98.917227 
3012.000000	98.900109 
3011.000000	98.883888 
3010.000000	98.868955 
3009.000000	98.853693 
3008.000000	98.836524 
3007.000000	98.817579 
3006.000000	98.797780 
3005.000000	98.777184 
3004.000000	98.755332 
3003.000000	98.732830 
3002.000000	98.711519 
3001.000000	98.692918 
3000.000000	98.677073 
2999.000000	98.663058 
2998.000000	98.650218 
2997.000000	98.638740 
2996.000000	98.629024 
2995.000000	98.619969 
2994.000000	98.607655 
2993.000000	98.586784 
2992.000000	98.555103 
2991.000000	98.516990 
2990.000000	98.481908 
2989.000000	98.458548 
2988.000000	98.450150 
2987.000000	98.454420 
2986.000000	98.466238 
2985.000000	98.480261 
2984.000000	98.492279 
2983.000000	98.499832 
2982.000000	98.502343 
2981.000000	98.500863 
2980.000000	98.497651 
2979.000000	98.495391 
2978.000000	98.495621 
2977.000000	98.497249 
2976.000000	98.497128 
2975.000000	98.492934 
2974.000000	98.485705 
2973.000000	98.479394 
2972.000000	98.478071 
2971.000000	98.483545 
2970.000000	98.494977 
2969.000000	98.509985 
2968.000000	98.526145 
2967.000000	98.542079 
2966.000000	98.557559 
2965.000000	98.572737 
2964.000000	98.587541 
2963.000000	98.601832 
2962.000000	98.615677 
2961.000000	98.628942 
2960.000000	98.640766 
2959.000000	98.650079 
2958.000000	98.656882 
2957.000000	98.662701 
2956.000000	98.669516 
2955.000000	98.678393 
2954.000000	98.689271 
2953.000000	98.701685 
2952.000000	98.715104 
2951.000000	98.728461 
2950.000000	98.739975 
2949.000000	98.748122 
2948.000000	98.752780 
2947.000000	98.755113 
2946.000000	98.756553 
2945.000000	98.758345 
2944.000000	98.761681 
2943.000000	98.767195 
2942.000000	98.773850 
2941.000000	98.779172 
2940.000000	98.781588 
2939.000000	98.782460 
2938.000000	98.784958 
2937.000000	98.790927 
2936.000000	98.799493 
2935.000000	98.808479 
2934.000000	98.816188 
2933.000000	98.821691 
2932.000000	98.824498 
2931.000000	98.824617 
2930.000000	98.822662 
2929.000000	98.819593 
2928.000000	98.816373 
2927.000000	98.813559 
2926.000000	98.810704 
2925.000000	98.806407 
2924.000000	98.799812 
2923.000000	98.792041 
2922.000000	98.785262 
2921.000000	98.780103 
2920.000000	98.774921 
2919.000000	98.767949 
2918.000000	98.759335 
2917.000000	98.750481 
2916.000000	98.742110 
2915.000000	98.733696 
2914.000000	98.724520 
2913.000000	98.714716 
2912.000000	98.705495 
2911.000000	98.698579 
2910.000000	98.694993 
2909.000000	98.694075 
2908.000000	98.693835 
2907.000000	98.692459 
2906.000000	98.688738 
2905.000000	98.681133 
2904.000000	98.668014 
2903.000000	98.650574 
2902.000000	98.634958 
2901.000000	98.629814 
2900.000000	98.639351 
2899.000000	98.660074 
2898.000000	98.682769 
2897.000000	98.698712 
2896.000000	98.704935 
2895.000000	98.704713 
2894.000000	98.704019 
2893.000000	98.707011 
2892.000000	98.713969 
2891.000000	98.722453 
2890.000000	98.729853 
2889.000000	98.734880 
2888.000000	98.737614 
2887.000000	98.739123 
2886.000000	98.741056 
2885.000000	98.744871 
2884.000000	98.751229 
2883.000000	98.760293 
2882.000000	98.772321 
2881.000000	98.787262 
2880.000000	98.803762 
2879.000000	98.819422 
2878.000000	98.832490 
2877.000000	98.843066 
2876.000000	98.852442 
2875.000000	98.861715 
2874.000000	98.871254 
2873.000000	98.880947 
2872.000000	98.890353 
2871.000000	98.898785 
2870.000000	98.905862 
2869.000000	98.912275 
2868.000000	98.919776 
2867.000000	98.930076 
2866.000000	98.943537 
2865.000000	98.958870 
2864.000000	98.974143 
2863.000000	98.988122 
2862.000000	99.000654 
2861.000000	99.012098 
2860.000000	99.022981 
2859.000000	99.034268 
2858.000000	99.047045 
2857.000000	99.061168 
2856.000000	99.074618 
2855.000000	99.085112 
2854.000000	99.092386 
2853.000000	99.098389 
2852.000000	99.105036 
2851.000000	99.112505 
2850.000000	99.120118 
2849.000000	99.127854 
2848.000000	99.136182 
2847.000000	99.144891 
2846.000000	99.152811 
2845.000000	99.158615 
2844.000000	99.161553 
2843.000000	99.161785 
2842.000000	99.160657 
2841.000000	99.160505 
2840.000000	99.163420 
2839.000000	99.169779 
2838.000000	99.178071 
2837.000000	99.186129 
2836.000000	99.192431 
2835.000000	99.196536 
2834.000000	99.198880 
2833.000000	99.200431 
2832.000000	99.202155 
2831.000000	99.204353 
2830.000000	99.206471 
2829.000000	99.207800 
2828.000000	99.208424 
2827.000000	99.209359 
2826.000000	99.211643 
2825.000000	99.215190 
2824.000000	99.218638 
2823.000000	99.220431 
2822.000000	99.220192 
2821.000000	99.219132 
2820.000000	99.219102 
2819.000000	99.221108 
2818.000000	99.224637 
2817.000000	99.228342 
2816.000000	99.231318 
2815.000000	99.233578 
2814.000000	99.235311 
2813.000000	99.236112 
2812.000000	99.235474 
2811.000000	99.233994 
2810.000000	99.233375 
2809.000000	99.234765 
2808.000000	99.237450 
2807.000000	99.239701 
2806.000000	99.240699 
2805.000000	99.241156 
2804.000000	99.242142 
2803.000000	99.243922 
2802.000000	99.246038 
2801.000000	99.247976 
2800.000000	99.249430 
2799.000000	99.250245 
2798.000000	99.250388 
2797.000000	99.249888 
2796.000000	99.248767 
2795.000000	99.247291 
2794.000000	99.246232 
2793.000000	99.246427 
2792.000000	99.247871 
2791.000000	99.249587 
2790.000000	99.250662 
2789.000000	99.251199 
2788.000000	99.251982 
2787.000000	99.253412 
2786.000000	99.255098 
2785.000000	99.256387 
2784.000000	99.256982 
2783.000000	99.256991 
2782.000000	99.256686 
2781.000000	99.256387 
2780.000000	99.256427 
2779.000000	99.256997 
2778.000000	99.258013 
2777.000000	99.259230 
2776.000000	99.260471 
2775.000000	99.261688 
2774.000000	99.262828 
2773.000000	99.263787 
2772.000000	99.264496 
2771.000000	99.265006 
2770.000000	99.265420 
2769.000000	99.265815 
2768.000000	99.266231 
2767.000000	99.266718 
2766.000000	99.267324 
2765.000000	99.268001 
2764.000000	99.268525 
2763.000000	99.268625 
2762.000000	99.268236 
2761.000000	99.267655 
2760.000000	99.267358 
2759.000000	99.267606 
2758.000000	99.268331 
2757.000000	99.269349 
2756.000000	99.270551 
2755.000000	99.271815 
2754.000000	99.272870 
2753.000000	99.273469 
2752.000000	99.273656 
2751.000000	99.273785 
2750.000000	99.274191 
2749.000000	99.274892 
2748.000000	99.275666 
2747.000000	99.276323 
2746.000000	99.276855 
2745.000000	99.277336 
2744.000000	99.277795 
2743.000000	99.278201 
2742.000000	99.278554 
2741.000000	99.278940 
2740.000000	99.279455 
2739.000000	99.280090 
2738.000000	99.280735 
2737.000000	99.281306 
2736.000000	99.281838 
2735.000000	99.282404 
2734.000000	99.282992 
2733.000000	99.283506 
2732.000000	99.283904 
2731.000000	99.284246 
2730.000000	99.284627 
2729.000000	99.285077 
2728.000000	99.285564 
2727.000000	99.286052 
2726.000000	99.286536 
2725.000000	99.287024 
2724.000000	99.287532 
2723.000000	99.288067 
2722.000000	99.288621 
2721.000000	99.289177 
2720.000000	99.289709 
2719.000000	99.290203 
2718.000000	99.290668 
2717.000000	99.291120 
2716.000000	99.291572 
2715.000000	99.292027 
2714.000000	99.292481 
2713.000000	99.292928 
2712.000000	99.293366 
2711.000000	99.293800 
2710.000000	99.294237 
2709.000000	99.294675 
2708.000000	99.295103 
2707.000000	99.295509 
2706.000000	99.295883 
2705.000000	99.296226 
2704.000000	99.296558 
2703.000000	99.296906 
2702.000000	99.297287 
2701.000000	99.297690 
2700.000000	99.298087 
2699.000000	99.298463 
2698.000000	99.298833 
2697.000000	99.299214 
2696.000000	99.299602 
2695.000000	99.299968 
2694.000000	99.300295 
2693.000000	99.300596 
2692.000000	99.300908 
2691.000000	99.301243 
2690.000000	99.301572 
2689.000000	99.301858 
2688.000000	99.302097 
2687.000000	99.302321 
2686.000000	99.302568 
2685.000000	99.302841 
2684.000000	99.303127 
2683.000000	99.303403 
2682.000000	99.303663 
2681.000000	99.303907 
2680.000000	99.304142 
2679.000000	99.304379 
2678.000000	99.304624 
2677.000000	99.304877 
2676.000000	99.305132 
2675.000000	99.305382 
2674.000000	99.305623 
2673.000000	99.305851 
2672.000000	99.306068 
2671.000000	99.306276 
2670.000000	99.306479 
2669.000000	99.306681 
2668.000000	99.306883 
2667.000000	99.307083 
2666.000000	99.307281 
2665.000000	99.307478 
2664.000000	99.307675 
2663.000000	99.307871 
2662.000000	99.308065 
2661.000000	99.308258 
2660.000000	99.308452 
2659.000000	99.308648 
2658.000000	99.308848 
2657.000000	99.309052 
2656.000000	99.309256 
2655.000000	99.309459 
2654.000000	99.309660 
2653.000000	99.309855 
2652.000000	99.310046 
2651.000000	99.310234 
2650.000000	99.310420 
2649.000000	99.310601 
2648.000000	99.310776 
2647.000000	99.310949 
2646.000000	99.311128 
2645.000000	99.311325 
2644.000000	99.311542 
2643.000000	99.311774 
2642.000000	99.312013 
2641.000000	99.312253 
2640.000000	99.312496 
2639.000000	99.312749 
2638.000000	99.313011 
2637.000000	99.313283 
2636.000000	99.313552 
2635.000000	99.313778 
2634.000000	99.313944 
2633.000000	99.314116 
2632.000000	99.314380 
2631.000000	99.314757 
2630.000000	99.315206 
2629.000000	99.315628 
2628.000000	99.315848 
2627.000000	99.315719 
2626.000000	99.315341 
2625.000000	99.315091 
2624.000000	99.315240 
2623.000000	99.315678 
2622.000000	99.316122 
2621.000000	99.316517 
2620.000000	99.317046 
2619.000000	99.317801 
2618.000000	99.318647 
2617.000000	99.319397 
2616.000000	99.319986 
2615.000000	99.320448 
2614.000000	99.320809 
2613.000000	99.321026 
2612.000000	99.320999 
2611.000000	99.320663 
2610.000000	99.320116 
2609.000000	99.319597 
2608.000000	99.319293 
2607.000000	99.319259 
2606.000000	99.319573 
2605.000000	99.320437 
2604.000000	99.321933 
2603.000000	99.323685 
2602.000000	99.325020 
2601.000000	99.325605 
2600.000000	99.325804 
2599.000000	99.326137 
2598.000000	99.326509 
2597.000000	99.326255 
2596.000000	99.324967 
2595.000000	99.323017 
2594.000000	99.321188 
2593.000000	99.319915 
2592.000000	99.319106 
2591.000000	99.318634 
2590.000000	99.318687 
2589.000000	99.319457 
2588.000000	99.320622 
2587.000000	99.321391 
2586.000000	99.321199 
2585.000000	99.320217 
2584.000000	99.319187 
2583.000000	99.318734 
2582.000000	99.318899 
2581.000000	99.319292 
2580.000000	99.319541 
2579.000000	99.319550 
2578.000000	99.319398 
2577.000000	99.319126 
2576.000000	99.318681 
2575.000000	99.318019 
2574.000000	99.317227 
2573.000000	99.316549 
2572.000000	99.316248 
2571.000000	99.316393 
2570.000000	99.316746 
2569.000000	99.316919 
2568.000000	99.316698 
2567.000000	99.316197 
2566.000000	99.315655 
2565.000000	99.315162 
2564.000000	99.314679 
2563.000000	99.314296 
2562.000000	99.314259 
2561.000000	99.314617 
2560.000000	99.314980 
2559.000000	99.314803 
2558.000000	99.313874 
2557.000000	99.312497 
2556.000000	99.311318 
2555.000000	99.310950 
2554.000000	99.311623 
2553.000000	99.312993 
2552.000000	99.314310 
2551.000000	99.314946 
2550.000000	99.314713 
2549.000000	99.313723 
2548.000000	99.312178 
2547.000000	99.310375 
2546.000000	99.308693 
2545.000000	99.307415 
2544.000000	99.306617 
2543.000000	99.306245 
2542.000000	99.306054 
2541.000000	99.305519 
2540.000000	99.304242 
2539.000000	99.302600 
2538.000000	99.301580 
2537.000000	99.301670 
2536.000000	99.302307 
2535.000000	99.302678 
2534.000000	99.302690 
2533.000000	99.302624 
2532.000000	99.302180 
2531.000000	99.300678 
2530.000000	99.298258 
2529.000000	99.296156 
2528.000000	99.295386 
2527.000000	99.295597 
2526.000000	99.295627 
2525.000000	99.295002 
2524.000000	99.294401 
2523.000000	99.294685 
2522.000000	99.295998 
2521.000000	99.297846 
2520.000000	99.299569 
2519.000000	99.300641 
2518.000000	99.300791 
2517.000000	99.300121 
2516.000000	99.299097 
2515.000000	99.298248 
2514.000000	99.297851 
2513.000000	99.297964 
2512.000000	99.298650 
2511.000000	99.299902 
2510.000000	99.301375 
2509.000000	99.302469 
2508.000000	99.302921 
2507.000000	99.303132 
2506.000000	99.303665 
2505.000000	99.304443 
2504.000000	99.304753 
2503.000000	99.304153 
2502.000000	99.303043 
2501.000000	99.302300 
2500.000000	99.302405 
2499.000000	99.303181 
2498.000000	99.304128 
2497.000000	99.304830 
2496.000000	99.305101 
2495.000000	99.304978 
2494.000000	99.304675 
2493.000000	99.304446 
2492.000000	99.304415 
2491.000000	99.304604 
2490.000000	99.305091 
2489.000000	99.306019 
2488.000000	99.307378 
2487.000000	99.308849 
2486.000000	99.309894 
2485.000000	99.310082 
2484.000000	99.309366 
2483.000000	99.308139 
2482.000000	99.307035 
2481.000000	99.306480 
2480.000000	99.306435 
2479.000000	99.306575 
2478.000000	99.306648 
2477.000000	99.306687 
2476.000000	99.306832 
2475.000000	99.307100 
2474.000000	99.307389 
2473.000000	99.307583 
2472.000000	99.307581 
2471.000000	99.307305 
2470.000000	99.306795 
2469.000000	99.306231 
2468.000000	99.305777 
2467.000000	99.305442 
2466.000000	99.305155 
2465.000000	99.304905 
2464.000000	99.304746 
2463.000000	99.304703 
2462.000000	99.304735 
2461.000000	99.304783 
2460.000000	99.304770 
2459.000000	99.304630 
2458.000000	99.304355 
2457.000000	99.304027 
2456.000000	99.303749 
2455.000000	99.303536 
2454.000000	99.303336 
2453.000000	99.303106 
2452.000000	99.302840 
2451.000000	99.302542 
2450.000000	99.302219 
2449.000000	99.301891 
2448.000000	99.301583 
2447.000000	99.301306 
2446.000000	99.301052 
2445.000000	99.300803 
2444.000000	99.300542 
2443.000000	99.300270 
2442.000000	99.299996 
2441.000000	99.299718 
2440.000000	99.299439 
2439.000000	99.299177 
2438.000000	99.298944 
2437.000000	99.298730 
2436.000000	99.298502 
2435.000000	99.298238 
2434.000000	99.297928 
2433.000000	99.297588 
2432.000000	99.297250 
2431.000000	99.296948 
2430.000000	99.296683 
2429.000000	99.296415 
2428.000000	99.296079 
2427.000000	99.295631 
2426.000000	99.295089 
2425.000000	99.294532 
2424.000000	99.294031 
2423.000000	99.293614 
2422.000000	99.293279 
2421.000000	99.293035 
2420.000000	99.292856 
2419.000000	99.292619 
2418.000000	99.292148 
2417.000000	99.291316 
2416.000000	99.290202 
2415.000000	99.289081 
2414.000000	99.288159 
2413.000000	99.287432 
2412.000000	99.286763 
2411.000000	99.286000 
2410.000000	99.285090 
2409.000000	99.284228 
2408.000000	99.283745 
2407.000000	99.283678 
2406.000000	99.283655 
2405.000000	99.283425 
2404.000000	99.283273 
2403.000000	99.283551 
2402.000000	99.283981 
2401.000000	99.283789 
2400.000000	99.282408 
2399.000000	99.279834 
2398.000000	99.276546 
2397.000000	99.273394 
2396.000000	99.271449 
2395.000000	99.271280 
2394.000000	99.272233 
2393.000000	99.272858 
2392.000000	99.272365 
2391.000000	99.271034 
2390.000000	99.269324 
2389.000000	99.267350 
2388.000000	99.265258 
2387.000000	99.263445 
2386.000000	99.262038 
2385.000000	99.260402 
2384.000000	99.257726 
2383.000000	99.254180 
2382.000000	99.251239 
2381.000000	99.250494 
2380.000000	99.252097 
2379.000000	99.254612 
2378.000000	99.256734 
2377.000000	99.258515 
2376.000000	99.259985 
2375.000000	99.259525 
2374.000000	99.255474 
2373.000000	99.248708 
2372.000000	99.242100 
2371.000000	99.237345 
2370.000000	99.234101 
2369.000000	99.231904 
2368.000000	99.230534 
2367.000000	99.228836 
2366.000000	99.225861 
2365.000000	99.222705 
2364.000000	99.220765 
2363.000000	99.218550 
2362.000000	99.213510 
2361.000000	99.206473 
2360.000000	99.200107 
2359.000000	99.195269 
2358.000000	99.191978 
2357.000000	99.191012 
2356.000000	99.193031 
2355.000000	99.196615 
2354.000000	99.202232 
2353.000000	99.209123 
2352.000000	99.213867 
2351.000000	99.213763 
2350.000000	99.208932 
2349.000000	99.202139 
2348.000000	99.196301 
2347.000000	99.194181 
2346.000000	99.195859 
2345.000000	99.197671 
2344.000000	99.197439 
2343.000000	99.195899 
2342.000000	99.195888 
2341.000000	99.197585 
2340.000000	99.199830 
2339.000000	99.202042 
2338.000000	99.204692 
2337.000000	99.207798 
2336.000000	99.209128 
2335.000000	99.207888 
2334.000000	99.205923 
2333.000000	99.206231 
2332.000000	99.208088 
2331.000000	99.210312 
2330.000000	99.211585 
2329.000000	99.212876 
2328.000000	99.213275 
2327.000000	99.213546 
2326.000000	99.214482 
2325.000000	99.216294 
2324.000000	99.217519 
2323.000000	99.217598 
2322.000000	99.218231 
2321.000000	99.220580 
2320.000000	99.223173 
2319.000000	99.224701 
2318.000000	99.225393 
2317.000000	99.227364 
2316.000000	99.230514 
2315.000000	99.234596 
2314.000000	99.238362 
2313.000000	99.242122 
2312.000000	99.244774 
2311.000000	99.246453 
2310.000000	99.246998 
2309.000000	99.247670 
2308.000000	99.248441 
2307.000000	99.250078 
2306.000000	99.252683 
2305.000000	99.256683 
2304.000000	99.261184 
2303.000000	99.266077 
2302.000000	99.270779 
2301.000000	99.274987 
2300.000000	99.277679 
2299.000000	99.280021 
2298.000000	99.283329 
2297.000000	99.288238 
2296.000000	99.292449 
2295.000000	99.294472 
2294.000000	99.294791 
2293.000000	99.295781 
2292.000000	99.298423 
2291.000000	99.302101 
2290.000000	99.305549 
2289.000000	99.307992 
2288.000000	99.309421 
2287.000000	99.310421 
2286.000000	99.311649 
2285.000000	99.312691 
2284.000000	99.312749 
2283.000000	99.312063 
2282.000000	99.312297 
2281.000000	99.314422 
2280.000000	99.317463 
2279.000000	99.319627 
2278.000000	99.320421 
2277.000000	99.320808 
2276.000000	99.321693 
2275.000000	99.323090 
2274.000000	99.324550 
2273.000000	99.325808 
2272.000000	99.326769 
2271.000000	99.327491 
2270.000000	99.328213 
2269.000000	99.329211 
2268.000000	99.330464 
2267.000000	99.331667 
2266.000000	99.332528 
2265.000000	99.332978 
2264.000000	99.333105 
2263.000000	99.333077 
2262.000000	99.333143 
2261.000000	99.333512 
2260.000000	99.334236 
2259.000000	99.335161 
2258.000000	99.336026 
2257.000000	99.336630 
2256.000000	99.336928 
2255.000000	99.337032 
2254.000000	99.337138 
2253.000000	99.337427 
2252.000000	99.337944 
2251.000000	99.338606 
2250.000000	99.339273 
2249.000000	99.339850 
2248.000000	99.340328 
2247.000000	99.340768 
2246.000000	99.341224 
2245.000000	99.341703 
2244.000000	99.342179 
2243.000000	99.342668 
2242.000000	99.343223 
2241.000000	99.343875 
2240.000000	99.344607 
2239.000000	99.345384 
2238.000000	99.346162 
2237.000000	99.346865 
2236.000000	99.347417 
2235.000000	99.347822 
2234.000000	99.348174 
2233.000000	99.348568 
2232.000000	99.349022 
2231.000000	99.349510 
2230.000000	99.350011 
2229.000000	99.350521 
2228.000000	99.351049 
2227.000000	99.351606 
2226.000000	99.352204 
2225.000000	99.352848 
2224.000000	99.353526 
2223.000000	99.354228 
2222.000000	99.354938 
2221.000000	99.355634 
2220.000000	99.356288 
2219.000000	99.356886 
2218.000000	99.357458 
2217.000000	99.358076 
2216.000000	99.358787 
2215.000000	99.359544 
2214.000000	99.360233 
2213.000000	99.360798 
2212.000000	99.361306 
2211.000000	99.361867 
2210.000000	99.362534 
2209.000000	99.363299 
2208.000000	99.364119 
2207.000000	99.364877 
2206.000000	99.365394 
2205.000000	99.365557 
2204.000000	99.365525 
2203.000000	99.365837 
2202.000000	99.367106 
2201.000000	99.369327 
2200.000000	99.371480 
2199.000000	99.372408 
2198.000000	99.371829 
2197.000000	99.370346 
2196.000000	99.368721 
2195.000000	99.367566 
2194.000000	99.367620 
2193.000000	99.369498 
2192.000000	99.372792 
2191.000000	99.376067 
2190.000000	99.378272 
2189.000000	99.379828 
2188.000000	99.381719 
2187.000000	99.383566 
2186.000000	99.383462 
2185.000000	99.380132 
2184.000000	99.374779 
2183.000000	99.370244 
2182.000000	99.368119 
2181.000000	99.367355 
2180.000000	99.365961 
2179.000000	99.363579 
2178.000000	99.361764 
2177.000000	99.362109 
2176.000000	99.364768 
2175.000000	99.368401 
2174.000000	99.370873 
2173.000000	99.370744 
2172.000000	99.369336 
2171.000000	99.370682 
2170.000000	99.377660 
2169.000000	99.387964 
2168.000000	99.395434 
2167.000000	99.396454 
2166.000000	99.393279 
2165.000000	99.390917 
2164.000000	99.391979 
2163.000000	99.395574 
2162.000000	99.399266 
2161.000000	99.399917 
2160.000000	99.394398 
2159.000000	99.382389 
2158.000000	99.368133 
2157.000000	99.357029 
2156.000000	99.350796 
2155.000000	99.348057 
2154.000000	99.347897 
2153.000000	99.350453 
2152.000000	99.354688 
2151.000000	99.357853 
2150.000000	99.357962 
2149.000000	99.355993 
2148.000000	99.355090 
2147.000000	99.357521 
2146.000000	99.362229 
2145.000000	99.365263 
2144.000000	99.363266 
2143.000000	99.356688 
2142.000000	99.349426 
2141.000000	99.345052 
2140.000000	99.343809 
2139.000000	99.343684 
2138.000000	99.343291 
2137.000000	99.342836 
2136.000000	99.342795 
2135.000000	99.342976 
2134.000000	99.343096 
2133.000000	99.343463 
2132.000000	99.344622 
2131.000000	99.346453 
2130.000000	99.347822 
2129.000000	99.347354 
2128.000000	99.344742 
2127.000000	99.341187 
2126.000000	99.338229 
2125.000000	99.336445 
2124.000000	99.335762 
2123.000000	99.336598 
2122.000000	99.339729 
2121.000000	99.344698 
2120.000000	99.349491 
2119.000000	99.352472 
2118.000000	99.353833 
2117.000000	99.354812 
2116.000000	99.356149 
2115.000000	99.357629 
2114.000000	99.358707 
2113.000000	99.358990 
2112.000000	99.358309 
2111.000000	99.356995 
2110.000000	99.356092 
2109.000000	99.356605 
2108.000000	99.358358 
2107.000000	99.359943 
2106.000000	99.359922 
2105.000000	99.358004 
2104.000000	99.355314 
2103.000000	99.353723 
2102.000000	99.354390 
2101.000000	99.356727 
2100.000000	99.358980 
2099.000000	99.359987 
2098.000000	99.360083 
2097.000000	99.360244 
2096.000000	99.361001 
2095.000000	99.362383 
2094.000000	99.364243 
2093.000000	99.366205 
2092.000000	99.367729 
2091.000000	99.368671 
2090.000000	99.369565 
2089.000000	99.370992 
2088.000000	99.372832 
2087.000000	99.374391 
2086.000000	99.375159 
2085.000000	99.375265 
2084.000000	99.375391 
2083.000000	99.376392 
2082.000000	99.378692 
2081.000000	99.381734 
2080.000000	99.384254 
2079.000000	99.385556 
2078.000000	99.386343 
2077.000000	99.387888 
2076.000000	99.390349 
2075.000000	99.392407 
2074.000000	99.392679 
2073.000000	99.391063 
2072.000000	99.388831 
2071.000000	99.387480 
2070.000000	99.387619 
2069.000000	99.388699 
2068.000000	99.389639 
2067.000000	99.389870 
2066.000000	99.389769 
2065.000000	99.390259 
2064.000000	99.392074 
2063.000000	99.395279 
2062.000000	99.399020 
2061.000000	99.401815 
2060.000000	99.402763 
2059.000000	99.402474 
2058.000000	99.402685 
2057.000000	99.404484 
2056.000000	99.407369 
2055.000000	99.410076 
2054.000000	99.412093 
2053.000000	99.413859 
2052.000000	99.415768 
2051.000000	99.417616 
2050.000000	99.419027 
2049.000000	99.419941 
2048.000000	99.420588 
2047.000000	99.421258 
2046.000000	99.422160 
2045.000000	99.423281 
2044.000000	99.424289 
2043.000000	99.424848 
2042.000000	99.425071 
2041.000000	99.425414 
2040.000000	99.426103 
2039.000000	99.426933 
2038.000000	99.427584 
2037.000000	99.427939 
2036.000000	99.428110 
2035.000000	99.428225 
2034.000000	99.428249 
2033.000000	99.428090 
2032.000000	99.427882 
2031.000000	99.428047 
2030.000000	99.428922 
2029.000000	99.430280 
2028.000000	99.431237 
2027.000000	99.431134 
2026.000000	99.430082 
2025.000000	99.428809 
2024.000000	99.427944 
2023.000000	99.427681 
2022.000000	99.428057 
2021.000000	99.429010 
2020.000000	99.430117 
2019.000000	99.430752 
2018.000000	99.430678 
2017.000000	99.430185 
2016.000000	99.429470 
2015.000000	99.428376 
2014.000000	99.426900 
2013.000000	99.425243 
2012.000000	99.423318 
2011.000000	99.421047 
2010.000000	99.419278 
2009.000000	99.419448 
2008.000000	99.421767 
2007.000000	99.424408 
2006.000000	99.425285 
2005.000000	99.424319 
2004.000000	99.423250 
2003.000000	99.423421 
2002.000000	99.424129 
2001.000000	99.423079 
2000.000000	99.418380 
1999.000000	99.410432 
1998.000000	99.402142 
1997.000000	99.396849 
1996.000000	99.396064 
1995.000000	99.399203 
1994.000000	99.404498 
1993.000000	99.409672 
1992.000000	99.412649 
1991.000000	99.412771 
1990.000000	99.411235 
1989.000000	99.409750 
1988.000000	99.409398 
1987.000000	99.411169 
1986.000000	99.416272 
1985.000000	99.424521 
1984.000000	99.432920 
1983.000000	99.437706 
1982.000000	99.437590 
1981.000000	99.434062 
1980.000000	99.429550 
1979.000000	99.426003 
1978.000000	99.424359 
1977.000000	99.423551 
1976.000000	99.420764 
1975.000000	99.414714 
1974.000000	99.408327 
1973.000000	99.406237 
1972.000000	99.409540 
1971.000000	99.414763 
1970.000000	99.418085 
1969.000000	99.418982 
1968.000000	99.419016 
1967.000000	99.418861 
1966.000000	99.418208 
1965.000000	99.417332 
1964.000000	99.416598 
1963.000000	99.415076 
1962.000000	99.411621 
1961.000000	99.407245 
1960.000000	99.404625 
1959.000000	99.404461 
1958.000000	99.403904 
1957.000000	99.399817 
1956.000000	99.392496 
1955.000000	99.384749 
1954.000000	99.378123 
1953.000000	99.371695 
1952.000000	99.364597 
1951.000000	99.358255 
1950.000000	99.355179 
1949.000000	99.356169 
1948.000000	99.359615 
1947.000000	99.363479 
1946.000000	99.366702 
1945.000000	99.368395 
1944.000000	99.367269 
1943.000000	99.362730 
1942.000000	99.355966 
1941.000000	99.348998 
1940.000000	99.343191 
1939.000000	99.339261 
1938.000000	99.337541 
1937.000000	99.337637 
1936.000000	99.338538 
1935.000000	99.339529 
1934.000000	99.340589 
1933.000000	99.341767 
1932.000000	99.342737 
1931.000000	99.343525 
1930.000000	99.344913 
1929.000000	99.346998 
1928.000000	99.348135 
1927.000000	99.346564 
1926.000000	99.342529 
1925.000000	99.337929 
1924.000000	99.334492 
1923.000000	99.332802 
1922.000000	99.332791 
1921.000000	99.333927 
1920.000000	99.335098 
1919.000000	99.335269 
1918.000000	99.334427 
1917.000000	99.333412 
1916.000000	99.332786 
1915.000000	99.332566 
1914.000000	99.332789 
1913.000000	99.333524 
1912.000000	99.334481 
1911.000000	99.335082 
1910.000000	99.335017 
1909.000000	99.334456 
1908.000000	99.333794 
1907.000000	99.333373 
1906.000000	99.333333 
1905.000000	99.333519 
1904.000000	99.333505 
1903.000000	99.332973 
1902.000000	99.332026 
1901.000000	99.331060 
1900.000000	99.330381 
1899.000000	99.329984 
1898.000000	99.329716 
1897.000000	99.329435 
1896.000000	99.329078 
1895.000000	99.328661 
1894.000000	99.328252 
1893.000000	99.327910 
1892.000000	99.327634 
1891.000000	99.327359 
1890.000000	99.327021 
1889.000000	99.326622 
1888.000000	99.326216 
1887.000000	99.325885 
1886.000000	99.325707 
1885.000000	99.325674 
1884.000000	99.325609 
1883.000000	99.325290 
1882.000000	99.324694 
1881.000000	99.324013 
1880.000000	99.323480 
1879.000000	99.323194 
1878.000000	99.323048 
1877.000000	99.322726 
1876.000000	99.321953 
1875.000000	99.320951 
1874.000000	99.320455 
1873.000000	99.320927 
1872.000000	99.321857 
1871.000000	99.322148 
1870.000000	99.321396 
1869.000000	99.320307 
1868.000000	99.319342 
1867.000000	99.317967 
1866.000000	99.316103 
1865.000000	99.314531 
1864.000000	99.313870 
1863.000000	99.314214 
1862.000000	99.315583 
1861.000000	99.317853 
1860.000000	99.320096 
1859.000000	99.321199 
1858.000000	99.321514 
1857.000000	99.322480 
1856.000000	99.324612 
1855.000000	99.327108 
1854.000000	99.329120 
1853.000000	99.330269 
1852.000000	99.330285 
1851.000000	99.329103 
1850.000000	99.327517 
1849.000000	99.326763 
1848.000000	99.327186 
1847.000000	99.327992 
1846.000000	99.328444 
1845.000000	99.328382 
1844.000000	99.327544 
1843.000000	99.325718 
1842.000000	99.323848 
1841.000000	99.323248 
1840.000000	99.324550 
1839.000000	99.327501 
1838.000000	99.331127 
1837.000000	99.334176 
1836.000000	99.335842 
1835.000000	99.336342 
1834.000000	99.336671 
1833.000000	99.337710 
1832.000000	99.339701 
1831.000000	99.341920 
1830.000000	99.343059 
1829.000000	99.342626 
1828.000000	99.341567 
1827.000000	99.340660 
1826.000000	99.339676 
1825.000000	99.338620 
1824.000000	99.338163 
1823.000000	99.338652 
1822.000000	99.339581 
1821.000000	99.339974 
1820.000000	99.339107 
1819.000000	99.337062 
1818.000000	99.335066 
1817.000000	99.334656 
1816.000000	99.335886 
1815.000000	99.337281 
1814.000000	99.338009 
1813.000000	99.339028 
1812.000000	99.341561 
1811.000000	99.345080 
1810.000000	99.348183 
1809.000000	99.350567 
1808.000000	99.352114 
1807.000000	99.352009 
1806.000000	99.350153 
1805.000000	99.347885 
1804.000000	99.346461 
1803.000000	99.345773 
1802.000000	99.345360 
1801.000000	99.345707 
1800.000000	99.346953 
1799.000000	99.347917 
1798.000000	99.347883 
1797.000000	99.347497 
1796.000000	99.347493 
1795.000000	99.347906 
1794.000000	99.348510 
1793.000000	99.349266 
1792.000000	99.350025 
1791.000000	99.350280 
1790.000000	99.350160 
1789.000000	99.350356 
1788.000000	99.351092 
1787.000000	99.352092 
1786.000000	99.353116 
1785.000000	99.354084 
1784.000000	99.354754 
1783.000000	99.354998 
1782.000000	99.355127 
1781.000000	99.355568 
1780.000000	99.356200 
1779.000000	99.356595 
1778.000000	99.356840 
1777.000000	99.357380 
1776.000000	99.358311 
1775.000000	99.359402 
1774.000000	99.360503 
1773.000000	99.361591 
1772.000000	99.362489 
1771.000000	99.362873 
1770.000000	99.362770 
1769.000000	99.362563 
1768.000000	99.362692 
1767.000000	99.363213 
1766.000000	99.363855 
1765.000000	99.364508 
1764.000000	99.365284 
1763.000000	99.366242 
1762.000000	99.367190 
1761.000000	99.367938 
1760.000000	99.368572 
1759.000000	99.369175 
1758.000000	99.369629 
1757.000000	99.369844 
1756.000000	99.369957 
1755.000000	99.370123 
1754.000000	99.370223 
1753.000000	99.370072 
1752.000000	99.369929 
1751.000000	99.370438 
1750.000000	99.371745 
1749.000000	99.373254 
1748.000000	99.374491 
1747.000000	99.375415 
1746.000000	99.375968 
1745.000000	99.376057 
1744.000000	99.375936 
1743.000000	99.375965 
1742.000000	99.376152 
1741.000000	99.376320 
1740.000000	99.376470 
1739.000000	99.376664 
1738.000000	99.376779 
1737.000000	99.376653 
1736.000000	99.376215 
1735.000000	99.375553 
1734.000000	99.375063 
1733.000000	99.375067 
1732.000000	99.375512 
1731.000000	99.376142 
1730.000000	99.376678 
1729.000000	99.376930 
1728.000000	99.376923 
1727.000000	99.376815 
1726.000000	99.376703 
1725.000000	99.376569 
1724.000000	99.376397 
1723.000000	99.376229 
1722.000000	99.376098 
1721.000000	99.375982 
1720.000000	99.375811 
1719.000000	99.375521 
1718.000000	99.375113 
1717.000000	99.374687 
1716.000000	99.374313 
1715.000000	99.373963 
1714.000000	99.373624 
1713.000000	99.373297 
1712.000000	99.372969 
1711.000000	99.372624 
1710.000000	99.372260 
1709.000000	99.371874 
1708.000000	99.371463 
1707.000000	99.371027 
1706.000000	99.370567 
1705.000000	99.370084 
1704.000000	99.369575 
1703.000000	99.369033 
1702.000000	99.368462 
1701.000000	99.367880 
1700.000000	99.367308 
1699.000000	99.366751 
1698.000000	99.366206 
1697.000000	99.365668 
1696.000000	99.365135 
1695.000000	99.364601 
1694.000000	99.364058 
1693.000000	99.363503 
1692.000000	99.362930 
1691.000000	99.362333 
1690.000000	99.361708 
1689.000000	99.361053 
1688.000000	99.360372 
1687.000000	99.359670 
1686.000000	99.358950 
1685.000000	99.358221 
1684.000000	99.357518 
1683.000000	99.356839 
1682.000000	99.356148 
1681.000000	99.355418 
1680.000000	99.354683 
1679.000000	99.353999 
1678.000000	99.353353 
1677.000000	99.352625 
1676.000000	99.351762 
1675.000000	99.351000 
1674.000000	99.350463 
1673.000000	99.349995 
1672.000000	99.349465 
1671.000000	99.349061 
1670.000000	99.349118 
1669.000000	99.349328 
1668.000000	99.349138 
1667.000000	99.348714 
1666.000000	99.347964 
1665.000000	99.346484 
1664.000000	99.344454 
1663.000000	99.342972 
1662.000000	99.342805 
1661.000000	99.343240 
1660.000000	99.343154 
1659.000000	99.342923 
1658.000000	99.343627 
1657.000000	99.344971 
1656.000000	99.344724 
1655.000000	99.342121 
1654.000000	99.340222 
1653.000000	99.341499 
1652.000000	99.340482 
1651.000000	99.339190 
1650.000000	99.337608 
1649.000000	99.334659 
1648.000000	99.330248 
1647.000000	99.326042 
1646.000000	99.323122 
1645.000000	99.322337 
1644.000000	99.323617 
1643.000000	99.325470 
1642.000000	99.326790 
1641.000000	99.327607 
1640.000000	99.327936 
1639.000000	99.327524 
1638.000000	99.326633 
1637.000000	99.326229 
1636.000000	99.326569 
1635.000000	99.326996 
1634.000000	99.328317 
1633.000000	99.330746 
1632.000000	99.332562 
1631.000000	99.333267 
1630.000000	99.333898 
1629.000000	99.335080 
1628.000000	99.335910 
1627.000000	99.335971 
1626.000000	99.336259 
1625.000000	99.337650 
1624.000000	99.339934 
1623.000000	99.342724 
1622.000000	99.345795 
1621.000000	99.348340 
1620.000000	99.349227 
1619.000000	99.348566 
1618.000000	99.348421 
1617.000000	99.350216 
1616.000000	99.351902 
1615.000000	99.352290 
1614.000000	99.352118 
1613.000000	99.351030 
1612.000000	99.349107 
1611.000000	99.347739 
1610.000000	99.348200 
1609.000000	99.349617 
1608.000000	99.350416 
1607.000000	99.350996 
1606.000000	99.352415 
1605.000000	99.354304 
1604.000000	99.355898 
1603.000000	99.357681 
1602.000000	99.360182 
1601.000000	99.362562 
1600.000000	99.363934 
1599.000000	99.364940 
1598.000000	99.366562 
1597.000000	99.368750 
1596.000000	99.370959 
1595.000000	99.373127 
1594.000000	99.375348 
1593.000000	99.377099 
1592.000000	99.377899 
1591.000000	99.378241 
1590.000000	99.379054 
1589.000000	99.380435 
1588.000000	99.381811 
1587.000000	99.383019 
1586.000000	99.384266 
1585.000000	99.385369 
1584.000000	99.385989 
1583.000000	99.386300 
1582.000000	99.386899 
1581.000000	99.387950 
1580.000000	99.389126 
1579.000000	99.390192 
1578.000000	99.391206 
1577.000000	99.392106 
1576.000000	99.392621 
1575.000000	99.392932 
1574.000000	99.393451 
1573.000000	99.394058 
1572.000000	99.394589 
1571.000000	99.395144 
1570.000000	99.395858 
1569.000000	99.396560 
1568.000000	99.397069 
1567.000000	99.397457 
1566.000000	99.397813 
1565.000000	99.398150 
1564.000000	99.398457 
1563.000000	99.398726 
1562.000000	99.398929 
1561.000000	99.399036 
1560.000000	99.399068 
1559.000000	99.399089 
1558.000000	99.399109 
1557.000000	99.399099 
1556.000000	99.399042 
1555.000000	99.398929 
1554.000000	99.398763 
1553.000000	99.398548 
1552.000000	99.398290 
1551.000000	99.397997 
1550.000000	99.397673 
1549.000000	99.397311 
1548.000000	99.396890 
1547.000000	99.396401 
1546.000000	99.395859 
1545.000000	99.395293 
1544.000000	99.394716 
1543.000000	99.394115 
1542.000000	99.393487 
1541.000000	99.392859 
1540.000000	99.392230 
1539.000000	99.391557 
1538.000000	99.390873 
1537.000000	99.390225 
1536.000000	99.389594 
1535.000000	99.388960 
1534.000000	99.388391 
1533.000000	99.387951 
1532.000000	99.387469 
1531.000000	99.386745 
1530.000000	99.385816 
1529.000000	99.384894 
1528.000000	99.384046 
1527.000000	99.383172 
1526.000000	99.382241 
1525.000000	99.381401 
1524.000000	99.380658 
1523.000000	99.379833 
1522.000000	99.379013 
1521.000000	99.378522 
1520.000000	99.378077 
1519.000000	99.377143 
1518.000000	99.375593 
1517.000000	99.373861 
1516.000000	99.372371 
1515.000000	99.371088 
1514.000000	99.369825 
1513.000000	99.368601 
1512.000000	99.367555 
1511.000000	99.366521 
1510.000000	99.365087 
1509.000000	99.363287 
1508.000000	99.362146 
1507.000000	99.362466 
1506.000000	99.362699 
1505.000000	99.361880 
1504.000000	99.360875 
1503.000000	99.359896 
1502.000000	99.359081 
1501.000000	99.358779 
1500.000000	99.359172 
1499.000000	99.359634 
1498.000000	99.359111 
1497.000000	99.357893 
1496.000000	99.357338 
1495.000000	99.357104 
1494.000000	99.355781 
1493.000000	99.353085 
1492.000000	99.349812 
1491.000000	99.347079 
1490.000000	99.345443 
1489.000000	99.344729 
1488.000000	99.344071 
1487.000000	99.342563 
1486.000000	99.340655 
1485.000000	99.339166 
1484.000000	99.338109 
1483.000000	99.337038 
1482.000000	99.335546 
1481.000000	99.333668 
1480.000000	99.331656 
1479.000000	99.329550 
1478.000000	99.327442 
1477.000000	99.325749 
1476.000000	99.324506 
1475.000000	99.322445 
1474.000000	99.319240 
1473.000000	99.317345 
1472.000000	99.318699 
1471.000000	99.320892 
1470.000000	99.321580 
1469.000000	99.321420 
1468.000000	99.321831 
1467.000000	99.322620 
1466.000000	99.322497 
1465.000000	99.321304 
1464.000000	99.319796 
1463.000000	99.318332 
1462.000000	99.317029 
1461.000000	99.316540 
1460.000000	99.316910 
1459.000000	99.316467 
1458.000000	99.311324 
1457.000000	99.300171 
1456.000000	99.288780 
1455.000000	99.282108 
1454.000000	99.278856 
1453.000000	99.277377 
1452.000000	99.277071 
1451.000000	99.276818 
1450.000000	99.275749 
1449.000000	99.275851 
1448.000000	99.279934 
1447.000000	99.286148 
1446.000000	99.289963 
1445.000000	99.290870 
1444.000000	99.290886 
1443.000000	99.290543 
1442.000000	99.289063 
1441.000000	99.286907 
1440.000000	99.286170 
1439.000000	99.287545 
1438.000000	99.287773 
1437.000000	99.283442 
1436.000000	99.276279 
1435.000000	99.269280 
1434.000000	99.263168 
1433.000000	99.259104 
1432.000000	99.258543 
1431.000000	99.261731 
1430.000000	99.265680 
1429.000000	99.266738 
1428.000000	99.264432 
1427.000000	99.259844 
1426.000000	99.253069 
1425.000000	99.243779 
1424.000000	99.234480 
1423.000000	99.228466 
1422.000000	99.223966 
1421.000000	99.216736 
1420.000000	99.205831 
1419.000000	99.194345 
1418.000000	99.182062 
1417.000000	99.167830 
1416.000000	99.154498 
1415.000000	99.143543 
1414.000000	99.132647 
1413.000000	99.119220 
1412.000000	99.104882 
1411.000000	99.093509 
1410.000000	99.085348 
1409.000000	99.078572 
1408.000000	99.073860 
1407.000000	99.072578 
1406.000000	99.073807 
1405.000000	99.076475 
1404.000000	99.082545 
1403.000000	99.092711 
1402.000000	99.102670 
1401.000000	99.108752 
1400.000000	99.112521 
1399.000000	99.117337 
1398.000000	99.119830 
1397.000000	99.111976 
1396.000000	99.092143 
1395.000000	99.070879 
1394.000000	99.062969 
1393.000000	99.073177 
1392.000000	99.096204 
1391.000000	99.122860 
1390.000000	99.144525 
1389.000000	99.156200 
1388.000000	99.158026 
1387.000000	99.154359 
1386.000000	99.149710 
1385.000000	99.146306 
1384.000000	99.145048 
1383.000000	99.146241 
1382.000000	99.149360 
1381.000000	99.153999 
1380.000000	99.160348 
1379.000000	99.168527 
1378.000000	99.177713 
1377.000000	99.186549 
1376.000000	99.194846 
1375.000000	99.203987 
1374.000000	99.214750 
1373.000000	99.225454 
1372.000000	99.234532 
1371.000000	99.243226 
1370.000000	99.254103 
1369.000000	99.267045 
1368.000000	99.279762 
1367.000000	99.290814 
1366.000000	99.300380 
1365.000000	99.308843 
1364.000000	99.315727 
1363.000000	99.320826 
1362.000000	99.325545 
1361.000000	99.331242 
1360.000000	99.337571 
1359.000000	99.343835 
1358.000000	99.350555 
1357.000000	99.358484 
1356.000000	99.367197 
1355.000000	99.375396 
1354.000000	99.382350 
1353.000000	99.388178 
1352.000000	99.391936 
1351.000000	99.391826 
1350.000000	99.389806 
1349.000000	99.389734 
1348.000000	99.393253 
1347.000000	99.398989 
1346.000000	99.405174 
1345.000000	99.410866 
1344.000000	99.415438 
1343.000000	99.418330 
1342.000000	99.419696 
1341.000000	99.419942 
1340.000000	99.419020 
1339.000000	99.417134 
1338.000000	99.415314 
1337.000000	99.414879 
1336.000000	99.416445 
1335.000000	99.419400 
1334.000000	99.422751 
1333.000000	99.426091 
1332.000000	99.429301 
1331.000000	99.431992 
1330.000000	99.433522 
1329.000000	99.433187 
1328.000000	99.431016 
1327.000000	99.428363 
1326.000000	99.427073 
1325.000000	99.427060 
1324.000000	99.427482 
1323.000000	99.428514 
1322.000000	99.430405 
1321.000000	99.431780 
1320.000000	99.430993 
1319.000000	99.428737 
1318.000000	99.427521 
1317.000000	99.428540 
1316.000000	99.430321 
1315.000000	99.430741 
1314.000000	99.429280 
1313.000000	99.427319 
1312.000000	99.426609 
1311.000000	99.427663 
1310.000000	99.429509 
1309.000000	99.430756 
1308.000000	99.430740 
1307.000000	99.429557 
1306.000000	99.427741 
1305.000000	99.425682 
1304.000000	99.424429 
1303.000000	99.425389 
1302.000000	99.428906 
1301.000000	99.433409 
1300.000000	99.436521 
1299.000000	99.436640 
1298.000000	99.433692 
1297.000000	99.429266 
1296.000000	99.425904 
1295.000000	99.425584 
1294.000000	99.428144 
1293.000000	99.431665 
1292.000000	99.434284 
1291.000000	99.435035 
1290.000000	99.433631 
1289.000000	99.430751 
1288.000000	99.428316 
1287.000000	99.427967 
1286.000000	99.428933 
1285.000000	99.428835 
1284.000000	99.426756 
1283.000000	99.424035 
1282.000000	99.421816 
1281.000000	99.419600 
1280.000000	99.416892 
1279.000000	99.414393 
1278.000000	99.412310 
1277.000000	99.409379 
1276.000000	99.404601 
1275.000000	99.399013 
1274.000000	99.394512 
1273.000000	99.391770 
1272.000000	99.390141 
1271.000000	99.388617 
1270.000000	99.385919 
1269.000000	99.380797 
1268.000000	99.373569 
1267.000000	99.366419 
1266.000000	99.360810 
1265.000000	99.355675 
1264.000000	99.349235 
1263.000000	99.341446 
1262.000000	99.333452 
1261.000000	99.325754 
1260.000000	99.318456 
1259.000000	99.312565 
1258.000000	99.308963 
1257.000000	99.306842 
1256.000000	99.304697 
1255.000000	99.302468 
1254.000000	99.301055 
1253.000000	99.300095 
1252.000000	99.298032 
1251.000000	99.294812 
1250.000000	99.292849 
1249.000000	99.294717 
1248.000000	99.300904 
1247.000000	99.309692 
1246.000000	99.317470 
1245.000000	99.319384 
1244.000000	99.312250 
1243.000000	99.298828 
1242.000000	99.288134 
1241.000000	99.288649 
1240.000000	99.300623 
1239.000000	99.315600 
1238.000000	99.323990 
1237.000000	99.322738 
1236.000000	99.315359 
1235.000000	99.306437 
1234.000000	99.297518 
1233.000000	99.288036 
1232.000000	99.278237 
1231.000000	99.269638 
1230.000000	99.263152 
1229.000000	99.258288 
1228.000000	99.254368 
1227.000000	99.251521 
1226.000000	99.250146 
1225.000000	99.249954 
1224.000000	99.249799 
1223.000000	99.248173 
1222.000000	99.244110 
1221.000000	99.238177 
1220.000000	99.232413 
1219.000000	99.228595 
1218.000000	99.226359 
1217.000000	99.223535 
1216.000000	99.218156 
1215.000000	99.209581 
1214.000000	99.198257 
1213.000000	99.185472 
1212.000000	99.172939 
1211.000000	99.161183 
1210.000000	99.148578 
1209.000000	99.133275 
1208.000000	99.115638 
1207.000000	99.097347 
1206.000000	99.078723 
1205.000000	99.058971 
1204.000000	99.038640 
1203.000000	99.019367 
1202.000000	99.000906 
1201.000000	98.980909 
1200.000000	98.958430 
1199.000000	98.935427 
1198.000000	98.913819 
1197.000000	98.893197 
1196.000000	98.872406 
1195.000000	98.851324 
1194.000000	98.829892 
1193.000000	98.807007 
1192.000000	98.782000 
1191.000000	98.756050 
1190.000000	98.730900 
1189.000000	98.707238 
1188.000000	98.685087 
1187.000000	98.664227 
1186.000000	98.643255 
1185.000000	98.619811 
1184.000000	98.592783 
1183.000000	98.563094 
1182.000000	98.531838 
1181.000000	98.499286 
1180.000000	98.466424 
1179.000000	98.435309 
1178.000000	98.406285 
1177.000000	98.376563 
1176.000000	98.343363 
1175.000000	98.307227 
1174.000000	98.270730 
1173.000000	98.235106 
1172.000000	98.200048 
1171.000000	98.165832 
1170.000000	98.133582 
1169.000000	98.103733 
1168.000000	98.075644 
1167.000000	98.048671 
1166.000000	98.023147 
1165.000000	98.001179 
1164.000000	97.986874 
1163.000000	97.984251 
1162.000000	97.993665 
1161.000000	98.010797 
1160.000000	98.029507 
1159.000000	98.044830 
1158.000000	98.053172 
1157.000000	98.051581 
1156.000000	98.038357 
1155.000000	98.013986 
1154.000000	97.980991 
1153.000000	97.943278 
1152.000000	97.905420 
1151.000000	97.870930 
1150.000000	97.840255 
1149.000000	97.811319 
1148.000000	97.782281 
1147.000000	97.752611 
1146.000000	97.721707 
1145.000000	97.688683 
1144.000000	97.654273 
1143.000000	97.621136 
1142.000000	97.591160 
1141.000000	97.563673 
1140.000000	97.536789 
1139.000000	97.508918 
1138.000000	97.478697 
1137.000000	97.445528 
1136.000000	97.410935 
1135.000000	97.377580 
1134.000000	97.346176 
1133.000000	97.314959 
1132.000000	97.282407 
1131.000000	97.248397 
1130.000000	97.212598 
1129.000000	97.174363 
1128.000000	97.134758 
1127.000000	97.096030 
1126.000000	97.058400 
1125.000000	97.020118 
1124.000000	96.981315 
1123.000000	96.944580 
1122.000000	96.910461 
1121.000000	96.875611 
1120.000000	96.837155 
1119.000000	96.796023 
1118.000000	96.754302 
1117.000000	96.712248 
1116.000000	96.669939 
1115.000000	96.628977 
1114.000000	96.590118 
1113.000000	96.551395 
1112.000000	96.511015 
1111.000000	96.470335 
1110.000000	96.431924 
1109.000000	96.396251 
1108.000000	96.361861 
1107.000000	96.327183 
1106.000000	96.291294 
1105.000000	96.254066 
1104.000000	96.216328 
1103.000000	96.178902 
1102.000000	96.141707 
1101.000000	96.105072 
1100.000000	96.071786 
1099.000000	96.043316 
1098.000000	96.017021 
1097.000000	95.988464 
1096.000000	95.956820 
1095.000000	95.924424 
1094.000000	95.891048 
1093.000000	95.852651 
1092.000000	95.806726 
1091.000000	95.755305 
1090.000000	95.701535 
1089.000000	95.646427 
1088.000000	95.590593 
1087.000000	95.536310 
1086.000000	95.485768 
1085.000000	95.439004 
1084.000000	95.394527 
1083.000000	95.350157 
1082.000000	95.303218 
1081.000000	95.252827 
1080.000000	95.202315 
1079.000000	95.156317 
1078.000000	95.115236 
1077.000000	95.076230 
1076.000000	95.039651 
1075.000000	95.009458 
1074.000000	94.986116 
1073.000000	94.963787 
1072.000000	94.935335 
1071.000000	94.894634 
1070.000000	94.833781 
1069.000000	94.746793 
1068.000000	94.641015 
1067.000000	94.539397 
1066.000000	94.464081 
1065.000000	94.418762 
1064.000000	94.389938 
1063.000000	94.360352 
1062.000000	94.317174 
1061.000000	94.252786 
1060.000000	94.166883 
1059.000000	94.069613 
1058.000000	93.977416 
1057.000000	93.901850 
1056.000000	93.842005 
1055.000000	93.786666 
1054.000000	93.723605 
1053.000000	93.649337 
1052.000000	93.571139 
1051.000000	93.498076 
1050.000000	93.430821 
1049.000000	93.363855 
1048.000000	93.295803 
1047.000000	93.230832 
1046.000000	93.170056 
1045.000000	93.108923 
1044.000000	93.044856 
1043.000000	92.981760 
1042.000000	92.924286 
1041.000000	92.871597 
1040.000000	92.819744 
1039.000000	92.768012 
1038.000000	92.721189 
1037.000000	92.686832 
1036.000000	92.670030 
1035.000000	92.668600 
1034.000000	92.673829 
1033.000000	92.677418 
1032.000000	92.675055 
1031.000000	92.661978 
1030.000000	92.632674 
1029.000000	92.592300 
1028.000000	92.562455 
1027.000000	92.564338 
1026.000000	92.596530 
1025.000000	92.637138 
1024.000000	92.667066 
1023.000000	92.682694 
1022.000000	92.687408 
1021.000000	92.683261 
1020.000000	92.674048 
1019.000000	92.666614 
1018.000000	92.663788 
1017.000000	92.661991 
1016.000000	92.658886 
1015.000000	92.657524 
1014.000000	92.660581 
1013.000000	92.666377 
1012.000000	92.672830 
1011.000000	92.679817 
1010.000000	92.686202 
1009.000000	92.690590 
1008.000000	92.696538 
1007.000000	92.710895 
1006.000000	92.735114 
1005.000000	92.763572 
1004.000000	92.791528 
1003.000000	92.819072 
1002.000000	92.846641 
1001.000000	92.873344 
1000.000000	92.901062 
999.000000	 92.933549 
998.000000	 92.969693 
997.000000	 93.004014 
996.000000	 93.035798 
995.000000	 93.071455 
994.000000	 93.115337 
993.000000	 93.163749 
992.000000	 93.210287 
991.000000	 93.252231 
990.000000	 93.290043 
989.000000	 93.325715 
988.000000	 93.363366 
987.000000	 93.406604 
986.000000	 93.454034 
985.000000	 93.502257 
984.000000	 93.553466 
983.000000	 93.613872 
982.000000	 93.684314 
981.000000	 93.758523 
980.000000	 93.831718 
979.000000	 93.905162 
978.000000	 93.980643 
977.000000	 94.056929 
976.000000	 94.133973 
975.000000	 94.214655 
974.000000	 94.299710 
973.000000	 94.385858 
972.000000	 94.471138 
971.000000	 94.557363 
970.000000	 94.645455 
969.000000	 94.733191 
968.000000	 94.819483 
967.000000	 94.906133 
966.000000	 94.993171 
965.000000	 95.076816 
964.000000	 95.154332 
963.000000	 95.227083 
962.000000	 95.296987 
961.000000	 95.363849 
960.000000	 95.428182 
959.000000	 95.492612 
958.000000	 95.557939 
957.000000	 95.621151 
956.000000	 95.679871 
955.000000	 95.736025 
954.000000	 95.792768 
953.000000	 95.849910 
952.000000	 95.904274 
951.000000	 95.952810 
950.000000	 95.994207 
949.000000	 96.029411 
948.000000	 96.061810 
947.000000	 96.095292 
946.000000	 96.131109 
945.000000	 96.167787 
944.000000	 96.203693 
943.000000	 96.237526 
942.000000	 96.266895 
941.000000	 96.289543 
940.000000	 96.306399 
939.000000	 96.321157 
938.000000	 96.336816 
937.000000	 96.354679 
936.000000	 96.375738 
935.000000	 96.399654 
934.000000	 96.422942 
933.000000	 96.442068 
932.000000	 96.458490 
931.000000	 96.477273 
930.000000	 96.500667 
929.000000	 96.526421 
928.000000	 96.552220 
927.000000	 96.577743 
926.000000	 96.602127 
925.000000	 96.623401 
924.000000	 96.641116 
923.000000	 96.655970 
922.000000	 96.666494 
921.000000	 96.670089 
920.000000	 96.668185 
919.000000	 96.666615 
918.000000	 96.669514 
917.000000	 96.675859 
916.000000	 96.682875 
915.000000	 96.689765 
914.000000	 96.697479 
913.000000	 96.708183 
912.000000	 96.725689 
911.000000	 96.752864 
910.000000	 96.787546 
909.000000	 96.824260 
908.000000	 96.860765 
907.000000	 96.899617 
906.000000	 96.942952 
905.000000	 96.989704 
904.000000	 97.039016 
903.000000	 97.092847 
902.000000	 97.153568 
901.000000	 97.221143 
900.000000	 97.293159 
899.000000	 97.365463 
898.000000	 97.433144 
897.000000	 97.493229 
896.000000	 97.546453 
895.000000	 97.595014 
894.000000	 97.640381 
893.000000	 97.685378 
892.000000	 97.735559 
891.000000	 97.794067 
890.000000	 97.856534 
889.000000	 97.915515 
888.000000	 97.968668 
887.000000	 98.017814 
886.000000	 98.061607 
885.000000	 98.095667 
884.000000	 98.120561 
883.000000	 98.143613 
882.000000	 98.170670 
881.000000	 98.200977 
880.000000	 98.232717 
879.000000	 98.268576 
878.000000	 98.311862 
877.000000	 98.360083 
876.000000	 98.405871 
875.000000	 98.442915 
874.000000	 98.469965 
873.000000	 98.491648 
872.000000	 98.516536 
871.000000	 98.551274 
870.000000	 98.594407 
869.000000	 98.637803 
868.000000	 98.675282 
867.000000	 98.708152 
866.000000	 98.742200 
865.000000	 98.781798 
864.000000	 98.827571 
863.000000	 98.876861 
862.000000	 98.924890 
861.000000	 98.967354 
860.000000	 99.003330 
859.000000	 99.035256 
858.000000	 99.066647 
857.000000	 99.101058 
856.000000	 99.141414 
855.000000	 99.186433 
854.000000	 99.228089 
853.000000	 99.257264 
852.000000	 99.273326 
851.000000	 99.284929 
850.000000	 99.300121 
849.000000	 99.318917 
848.000000	 99.337378 
847.000000	 99.354731 
846.000000	 99.372748 
845.000000	 99.390757 
844.000000	 99.405466 
843.000000	 99.414972 
842.000000	 99.419857 
841.000000	 99.420626 
840.000000	 99.417074 
839.000000	 99.410690 
838.000000	 99.405077 
837.000000	 99.402281 
836.000000	 99.399856 
835.000000	 99.393443 
834.000000	 99.382508 
833.000000	 99.371769 
832.000000	 99.365258 
831.000000	 99.360320 
830.000000	 99.351430 
829.000000	 99.341099 
828.000000	 99.341574 
827.000000	 99.360174 
826.000000	 99.386209 
825.000000	 99.401127 
824.000000	 99.401421 
823.000000	 99.402011 
822.000000	 99.414862 
821.000000	 99.433998 
820.000000	 99.446150 
819.000000	 99.447373 
818.000000	 99.443558 
817.000000	 99.439972 
816.000000	 99.435551 
815.000000	 99.424981 
814.000000	 99.401932 
813.000000	 99.361538 
812.000000	 99.303739 
811.000000	 99.233951 
810.000000	 99.156985 
809.000000	 99.069859 
808.000000	 98.963416 
807.000000	 98.831409 
806.000000	 98.676406 
805.000000	 98.507568 
804.000000	 98.335897 
803.000000	 98.172088 
802.000000	 98.025588 
801.000000	 97.903868 
800.000000	 97.812331 
799.000000	 97.753234 
798.000000	 97.723635 
797.000000	 97.716738 
796.000000	 97.726860 
795.000000	 97.751556 
794.000000	 97.788620 
793.000000	 97.833368 
792.000000	 97.878853 
791.000000	 97.916365 
790.000000	 97.936671 
789.000000	 97.935019 
788.000000	 97.915661 
787.000000	 97.888176 
786.000000	 97.858398 
785.000000	 97.825508 
784.000000	 97.788004 
783.000000	 97.747887 
782.000000	 97.707409 
781.000000	 97.666686 
780.000000	 97.627763 
779.000000	 97.597400 
778.000000	 97.582672 
777.000000	 97.586951 
776.000000	 97.611972 
775.000000	 97.658640 
774.000000	 97.721826 
773.000000	 97.788821 
772.000000	 97.848342 
771.000000	 97.898980 
770.000000	 97.944791 
769.000000	 97.985283 
768.000000	 98.015310 
767.000000	 98.033901 
766.000000	 98.047268 
765.000000	 98.061447 
764.000000	 98.076158 
763.000000	 98.087960 
762.000000	 98.096448 
761.000000	 98.105182 
760.000000	 98.118437 
759.000000	 98.138610 
758.000000	 98.164903 
757.000000	 98.193100 
756.000000	 98.218331 
755.000000	 98.239934 
754.000000	 98.262549 
753.000000	 98.290870 
752.000000	 98.324565 
751.000000	 98.359295 
750.000000	 98.390610 
749.000000	 98.415316 
748.000000	 98.431590 
747.000000	 98.441755 
746.000000	 98.454471 
745.000000	 98.479019 
744.000000	 98.515228 
743.000000	 98.552612 
742.000000	 98.582075 
741.000000	 98.605670 
740.000000	 98.632272 
739.000000	 98.666663 
738.000000	 98.706172 
737.000000	 98.745712 
736.000000	 98.782088 
735.000000	 98.814762 
734.000000	 98.846361 
733.000000	 98.881388 
732.000000	 98.921061 
731.000000	 98.959676 
730.000000	 98.988610 
729.000000	 99.002174 
728.000000	 99.002062 
727.000000	 98.997048 
726.000000	 98.995618 
725.000000	 99.001524 
724.000000	 99.014814 
723.000000	 99.033534 
722.000000	 99.053858 
721.000000	 99.071026 
720.000000	 99.082557 
719.000000	 99.090173 
718.000000	 99.097752 
717.000000	 99.108684 
716.000000	 99.123840 
715.000000	 99.140859 
714.000000	 99.156203 
713.000000	 99.168028 
712.000000	 99.178138 
711.000000	 99.188192 
710.000000	 99.196250 
709.000000	 99.200582 
708.000000	 99.198884 
707.000000	 99.192368 
706.000000	 99.183527 
705.000000	 99.172735 
704.000000	 99.160560 
703.000000	 99.146910 
702.000000	 99.129153 
701.000000	 99.102439 
700.000000	 99.059870 
699.000000	 98.998069 
698.000000	 98.920260 
697.000000	 98.837290 
696.000000	 98.766339 
695.000000	 98.720450 
694.000000	 98.703868 
693.000000	 98.714535 
692.000000	 98.746058 
691.000000	 98.791220 
690.000000	 98.840939 
689.000000	 98.886344 
688.000000	 98.923878 
687.000000	 98.954772 
686.000000	 98.983652 
685.000000	 99.013824 
684.000000	 99.041836 
683.000000	 99.061970 
682.000000	 99.074692 
681.000000	 99.087481 
680.000000	 99.106002 
679.000000	 99.129356 
678.000000	 99.152853 
677.000000	 99.166123 
676.000000	 99.164432 
675.000000	 99.159943 
674.000000	 99.171006 
673.000000	 99.203058 
672.000000	 99.252045 
671.000000	 99.321755 
670.000000	 99.426812 
669.000000	 99.555122 
668.000000	 99.615470 
667.000000	 99.549750 
666.000000	 99.447621 
665.000000	 99.377400 
664.000000	 99.343774 
663.000000	 99.338137 
662.000000	 99.349468 
661.000000	 99.365717 
660.000000	 99.383377 
659.000000	 99.405395 
658.000000	 99.426398 
657.000000	 99.428881 
656.000000	 99.411387 
655.000000	 99.398342 
654.000000	 99.404117 
653.000000	 99.412600 
652.000000	 99.409365 
651.000000	 99.404425 
650.000000	 99.412296 

