4000.000000	99.305944 
3999.000000	99.306748 
3998.000000	99.309313 
3997.000000	99.312035 
3996.000000	99.313295 
3995.000000	99.312756 
3994.000000	99.311661 
3993.000000	99.311649 
3992.000000	99.313090 
3991.000000	99.314661 
3990.000000	99.314717 
3989.000000	99.313163 
3988.000000	99.311790 
3987.000000	99.312587 
3986.000000	99.315756 
3985.000000	99.319376 
3984.000000	99.320931 
3983.000000	99.319185 
3982.000000	99.314933 
3981.000000	99.310317 
3980.000000	99.307253 
3979.000000	99.306350 
3978.000000	99.307270 
3977.000000	99.309728 
3976.000000	99.313736 
3975.000000	99.318839 
3974.000000	99.323508 
3973.000000	99.325648 
3972.000000	99.323801 
3971.000000	99.318170 
3970.000000	99.310696 
3969.000000	99.304029 
3968.000000	99.300210 
3967.000000	99.299820 
3966.000000	99.302137 
3965.000000	99.306060 
3964.000000	99.310514 
3963.000000	99.314113 
3962.000000	99.315236 
3961.000000	99.313133 
3960.000000	99.308845 
3959.000000	99.304722 
3958.000000	99.302546 
3957.000000	99.301899 
3956.000000	99.300758 
3955.000000	99.297444 
3954.000000	99.292090 
3953.000000	99.286355 
3952.000000	99.282127 
3951.000000	99.280874 
3950.000000	99.283222 
3949.000000	99.288577 
3948.000000	99.295064 
3947.000000	99.300364 
3946.000000	99.303305 
3945.000000	99.304498 
3944.000000	99.305273 
3943.000000	99.305599 
3942.000000	99.304048 
3941.000000	99.299810 
3940.000000	99.293510 
3939.000000	99.286022 
3938.000000	99.277785 
3937.000000	99.269488 
3936.000000	99.263303 
3935.000000	99.262322 
3934.000000	99.268596 
3933.000000	99.281181 
3932.000000	99.295696 
3931.000000	99.306255 
3930.000000	99.308867 
3929.000000	99.304161 
3928.000000	99.296956 
3927.000000	99.292704 
3926.000000	99.293957 
3925.000000	99.298776 
3924.000000	99.302553 
3923.000000	99.302225 
3922.000000	99.297891 
3921.000000	99.291582 
3920.000000	99.285650 
3919.000000	99.282287 
3918.000000	99.283339 
3917.000000	99.289104 
3916.000000	99.297535 
3915.000000	99.305431 
3914.000000	99.310833 
3913.000000	99.313919 
3912.000000	99.315945 
3911.000000	99.317997 
3910.000000	99.320438 
3909.000000	99.322796 
3908.000000	99.324258 
3907.000000	99.323501 
3906.000000	99.318716 
3905.000000	99.308171 
3904.000000	99.291711 
3903.000000	99.273185 
3902.000000	99.259797 
3901.000000	99.257193 
3900.000000	99.265497 
3899.000000	99.279313 
3898.000000	99.292120 
3897.000000	99.300561 
3896.000000	99.304477 
3895.000000	99.305166 
3894.000000	99.304129 
3893.000000	99.301753 
3892.000000	99.296826 
3891.000000	99.288131 
3890.000000	99.277257 
3889.000000	99.267328 
3888.000000	99.260334 
3887.000000	99.256880 
3886.000000	99.256279 
3885.000000	99.257056 
3884.000000	99.258762 
3883.000000	99.262351 
3882.000000	99.268481 
3881.000000	99.275724 
3880.000000	99.281271 
3879.000000	99.283817 
3878.000000	99.284854 
3877.000000	99.286479 
3876.000000	99.289819 
3875.000000	99.293726 
3874.000000	99.294827 
3873.000000	99.290606 
3872.000000	99.282300 
3871.000000	99.273206 
3870.000000	99.265280 
3869.000000	99.259496 
3868.000000	99.257568 
3867.000000	99.260641 
3866.000000	99.268272 
3865.000000	99.278282 
3864.000000	99.287063 
3863.000000	99.292813 
3862.000000	99.296681 
3861.000000	99.300213 
3860.000000	99.303369 
3859.000000	99.304685 
3858.000000	99.302297 
3857.000000	99.295143 
3856.000000	99.284112 
3855.000000	99.273996 
3854.000000	99.269727 
3853.000000	99.271126 
3852.000000	99.277057 
3851.000000	99.286456 
3850.000000	99.294887 
3849.000000	99.298909 
3848.000000	99.298504 
3847.000000	99.296237 
3846.000000	99.294607 
3845.000000	99.293943 
3844.000000	99.293195 
3843.000000	99.292611 
3842.000000	99.293586 
3841.000000	99.296249 
3840.000000	99.298144 
3839.000000	99.295446 
3838.000000	99.286773 
3837.000000	99.275409 
3836.000000	99.266590 
3835.000000	99.263811 
3834.000000	99.268033 
3833.000000	99.278682 
3832.000000	99.293670 
3831.000000	99.308984 
3830.000000	99.320162 
3829.000000	99.324350 
3828.000000	99.321393 
3827.000000	99.313615 
3826.000000	99.304148 
3825.000000	99.295013 
3824.000000	99.287069 
3823.000000	99.281900 
3822.000000	99.280981 
3821.000000	99.282352 
3820.000000	99.283490 
3819.000000	99.285591 
3818.000000	99.290381 
3817.000000	99.297752 
3816.000000	99.305249 
3815.000000	99.309596 
3814.000000	99.310061 
3813.000000	99.308723 
3812.000000	99.308167 
3811.000000	99.309555 
3810.000000	99.311946 
3809.000000	99.313423 
3808.000000	99.312293 
3807.000000	99.307298 
3806.000000	99.298267 
3805.000000	99.287061 
3804.000000	99.277357 
3803.000000	99.274087 
3802.000000	99.279499 
3801.000000	99.289171 
3800.000000	99.297209 
3799.000000	99.301605 
3798.000000	99.302763 
3797.000000	99.301611 
3796.000000	99.299050 
3795.000000	99.296496 
3794.000000	99.295530 
3793.000000	99.296730 
3792.000000	99.299268 
3791.000000	99.301606 
3790.000000	99.302511 
3789.000000	99.301896 
3788.000000	99.300745 
3787.000000	99.300146 
3786.000000	99.300605 
3785.000000	99.302042 
3784.000000	99.304322 
3783.000000	99.307527 
3782.000000	99.311726 
3781.000000	99.316447 
3780.000000	99.320071 
3779.000000	99.320540 
3778.000000	99.317630 
3777.000000	99.313116 
3776.000000	99.308433 
3775.000000	99.303707 
3774.000000	99.298523 
3773.000000	99.293111 
3772.000000	99.288805 
3771.000000	99.286623 
3770.000000	99.285230 
3769.000000	99.282392 
3768.000000	99.278803 
3767.000000	99.277549 
3766.000000	99.280280 
3765.000000	99.285167 
3764.000000	99.288678 
3763.000000	99.288974 
3762.000000	99.287229 
3761.000000	99.285930 
3760.000000	99.285898 
3759.000000	99.285716 
3758.000000	99.284399 
3757.000000	99.282657 
3756.000000	99.281089 
3755.000000	99.279307 
3754.000000	99.277259 
3753.000000	99.276560 
3752.000000	99.278769 
3751.000000	99.281654 
3750.000000	99.281840 
3749.000000	99.280620 
3748.000000	99.281374 
3747.000000	99.285001 
3746.000000	99.289756 
3745.000000	99.291492 
3744.000000	99.286761 
3743.000000	99.278511 
3742.000000	99.271584 
3741.000000	99.266024 
3740.000000	99.259297 
3739.000000	99.250197 
3738.000000	99.241918 
3737.000000	99.240577 
3736.000000	99.248246 
3735.000000	99.259275 
3734.000000	99.266900 
3733.000000	99.270988 
3732.000000	99.275285 
3731.000000	99.280650 
3730.000000	99.284099 
3729.000000	99.282953 
3728.000000	99.278586 
3727.000000	99.274706 
3726.000000	99.272474 
3725.000000	99.269603 
3724.000000	99.264371 
3723.000000	99.258709 
3722.000000	99.256165 
3721.000000	99.258682 
3720.000000	99.264436 
3719.000000	99.268886 
3718.000000	99.268624 
3717.000000	99.263484 
3716.000000	99.255548 
3715.000000	99.246891 
3714.000000	99.238988 
3713.000000	99.233602 
3712.000000	99.231618 
3711.000000	99.231952 
3710.000000	99.232582 
3709.000000	99.231182 
3708.000000	99.225828 
3707.000000	99.216198 
3706.000000	99.204412 
3705.000000	99.194405 
3704.000000	99.189353 
3703.000000	99.188904 
3702.000000	99.188433 
3701.000000	99.183563 
3700.000000	99.174898 
3699.000000	99.166287 
3698.000000	99.160163 
3697.000000	99.155838 
3696.000000	99.150823 
3695.000000	99.143272 
3694.000000	99.133471 
3693.000000	99.123064 
3692.000000	99.113320 
3691.000000	99.104571 
3690.000000	99.096787 
3689.000000	99.090534 
3688.000000	99.087283 
3687.000000	99.087555 
3686.000000	99.090196 
3685.000000	99.094687 
3684.000000	99.101346 
3683.000000	99.109500 
3682.000000	99.116349 
3681.000000	99.117643 
3680.000000	99.109404 
3679.000000	99.089837 
3678.000000	99.062033 
3677.000000	99.036589 
3676.000000	99.025363 
3675.000000	99.027718 
3674.000000	99.032640 
3673.000000	99.032079 
3672.000000	99.025516 
3671.000000	99.019451 
3670.000000	99.019370 
3669.000000	99.023930 
3668.000000	99.030368 
3667.000000	99.038269 
3666.000000	99.047330 
3665.000000	99.055494 
3664.000000	99.059303 
3663.000000	99.056291 
3662.000000	99.046971 
3661.000000	99.033896 
3660.000000	99.019669 
3659.000000	99.006340 
3658.000000	98.995925 
3657.000000	98.989453 
3656.000000	98.985257 
3655.000000	98.980764 
3654.000000	98.975175 
3653.000000	98.969688 
3652.000000	98.966261 
3651.000000	98.966348 
3650.000000	98.969276 
3649.000000	98.973541 
3648.000000	98.979353 
3647.000000	98.986431 
3646.000000	98.992583 
3645.000000	98.996372 
3644.000000	98.998555 
3643.000000	99.000392 
3642.000000	99.002106 
3641.000000	99.002409 
3640.000000	99.000234 
3639.000000	98.996049 
3638.000000	98.991439 
3637.000000	98.987921 
3636.000000	98.986008 
3635.000000	98.985150 
3634.000000	98.984055 
3633.000000	98.981636 
3632.000000	98.977940 
3631.000000	98.974321 
3630.000000	98.972313 
3629.000000	98.969942 
3628.000000	98.963555 
3627.000000	98.955124 
3626.000000	98.949031 
3625.000000	98.946906 
3624.000000	98.948107 
3623.000000	98.951294 
3622.000000	98.955877 
3621.000000	98.963222 
3620.000000	98.974177 
3619.000000	98.985414 
3618.000000	98.992202 
3617.000000	98.994706 
3616.000000	98.997625 
3615.000000	99.005039 
3614.000000	99.015116 
3613.000000	99.020791 
3612.000000	99.017780 
3611.000000	99.010149 
3610.000000	99.005909 
3609.000000	99.008701 
3608.000000	99.014726 
3607.000000	99.019155 
3606.000000	99.023031 
3605.000000	99.030614 
3604.000000	99.043214 
3603.000000	99.057934 
3602.000000	99.070924 
3601.000000	99.080946 
3600.000000	99.088578 
3599.000000	99.093656 
3598.000000	99.095129 
3597.000000	99.092849 
3596.000000	99.088518 
3595.000000	99.085232 
3594.000000	99.084847 
3593.000000	99.086605 
3592.000000	99.088110 
3591.000000	99.087362 
3590.000000	99.085314 
3589.000000	99.085718 
3588.000000	99.090575 
3587.000000	99.096069 
3586.000000	99.097804 
3585.000000	99.096822 
3584.000000	99.097492 
3583.000000	99.101983 
3582.000000	99.108823 
3581.000000	99.115027 
3580.000000	99.118569 
3579.000000	99.118654 
3578.000000	99.114565 
3577.000000	99.106288 
3576.000000	99.095915 
3575.000000	99.087128 
3574.000000	99.082293 
3573.000000	99.080413 
3572.000000	99.079092 
3571.000000	99.077568 
3570.000000	99.077191 
3569.000000	99.079897 
3568.000000	99.086428 
3567.000000	99.095172 
3566.000000	99.103684 
3565.000000	99.110710 
3564.000000	99.115683 
3563.000000	99.118377 
3562.000000	99.119400 
3561.000000	99.119250 
3560.000000	99.116974 
3559.000000	99.110807 
3558.000000	99.101372 
3557.000000	99.093194 
3556.000000	99.091724 
3555.000000	99.098177 
3554.000000	99.107845 
3553.000000	99.113742 
3552.000000	99.112582 
3551.000000	99.107043 
3550.000000	99.101841 
3549.000000	99.099066 
3548.000000	99.097974 
3547.000000	99.097125 
3546.000000	99.095714 
3545.000000	99.093067 
3544.000000	99.088859 
3543.000000	99.084221 
3542.000000	99.081699 
3541.000000	99.083180 
3540.000000	99.088543 
3539.000000	99.096125 
3538.000000	99.104162 
3537.000000	99.111199 
3536.000000	99.115920 
3535.000000	99.117839 
3534.000000	99.117876 
3533.000000	99.117901 
3532.000000	99.119015 
3531.000000	99.120665 
3530.000000	99.120961 
3529.000000	99.117984 
3528.000000	99.111246 
3527.000000	99.102507 
3526.000000	99.094955 
3525.000000	99.091108 
3524.000000	99.091149 
3523.000000	99.093209 
3522.000000	99.095496 
3521.000000	99.097658 
3520.000000	99.100388 
3519.000000	99.104288 
3518.000000	99.109470 
3517.000000	99.115483 
3516.000000	99.120847 
3515.000000	99.123143 
3514.000000	99.120265 
3513.000000	99.112254 
3512.000000	99.101663 
3511.000000	99.091874 
3510.000000	99.084729 
3509.000000	99.079991 
3508.000000	99.076869 
3507.000000	99.075612 
3506.000000	99.077451 
3505.000000	99.083077 
3504.000000	99.091473 
3503.000000	99.100550 
3502.000000	99.109143 
3501.000000	99.117695 
3500.000000	99.126463 
3499.000000	99.133604 
3498.000000	99.135738 
3497.000000	99.130860 
3496.000000	99.120515 
3495.000000	99.108806 
3494.000000	99.099212 
3493.000000	99.092400 
3492.000000	99.087157 
3491.000000	99.082994 
3490.000000	99.081592 
3489.000000	99.085442 
3488.000000	99.094987 
3487.000000	99.107337 
3486.000000	99.118187 
3485.000000	99.124872 
3484.000000	99.127153 
3483.000000	99.125723 
3482.000000	99.120952 
3481.000000	99.113549 
3480.000000	99.105520 
3479.000000	99.099138 
3478.000000	99.094796 
3477.000000	99.090788 
3476.000000	99.085863 
3475.000000	99.081671 
3474.000000	99.081772 
3473.000000	99.087674 
3472.000000	99.096576 
3471.000000	99.103827 
3470.000000	99.107451 
3469.000000	99.109311 
3468.000000	99.111807 
3467.000000	99.114562 
3466.000000	99.115370 
3465.000000	99.113612 
3464.000000	99.111187 
3463.000000	99.109928 
3462.000000	99.109303 
3461.000000	99.107490 
3460.000000	99.103907 
3459.000000	99.099887 
3458.000000	99.097184 
3457.000000	99.096439 
3456.000000	99.097050 
3455.000000	99.097895 
3454.000000	99.098015 
3453.000000	99.097370 
3452.000000	99.097053 
3451.000000	99.098595 
3450.000000	99.102350 
3449.000000	99.106486 
3448.000000	99.107802 
3447.000000	99.104053 
3446.000000	99.095872 
3445.000000	99.086414 
3444.000000	99.079148 
3443.000000	99.075683 
3442.000000	99.075073 
3441.000000	99.074945 
3440.000000	99.073731 
3439.000000	99.072049 
3438.000000	99.071745 
3437.000000	99.073660 
3436.000000	99.076863 
3435.000000	99.080268 
3434.000000	99.084046 
3433.000000	99.088707 
3432.000000	99.092872 
3431.000000	99.093452 
3430.000000	99.088729 
3429.000000	99.080839 
3428.000000	99.074324 
3427.000000	99.071851 
3426.000000	99.071859 
3425.000000	99.070655 
3424.000000	99.066582 
3423.000000	99.061621 
3422.000000	99.058999 
3421.000000	99.059909 
3420.000000	99.063156 
3419.000000	99.067362 
3418.000000	99.072263 
3417.000000	99.077651 
3416.000000	99.082096 
3415.000000	99.083509 
3414.000000	99.080857 
3413.000000	99.075002 
3412.000000	99.068073 
3411.000000	99.062295 
3410.000000	99.059011 
3409.000000	99.058159 
3408.000000	99.058458 
3407.000000	99.058393 
3406.000000	99.057391 
3405.000000	99.056144 
3404.000000	99.055962 
3403.000000	99.057839 
3402.000000	99.061925 
3401.000000	99.067709 
3400.000000	99.074442 
3399.000000	99.081232 
3398.000000	99.086669 
3397.000000	99.088807 
3396.000000	99.086167 
3395.000000	99.079026 
3394.000000	99.069427 
3393.000000	99.059727 
3392.000000	99.051419 
3391.000000	99.045548 
3390.000000	99.043747 
3389.000000	99.047832 
3388.000000	99.057916 
3387.000000	99.071367 
3386.000000	99.084193 
3385.000000	99.093533 
3384.000000	99.098607 
3383.000000	99.099470 
3382.000000	99.095581 
3381.000000	99.086438 
3380.000000	99.073624 
3379.000000	99.061643 
3378.000000	99.055559 
3377.000000	99.057031 
3376.000000	99.062758 
3375.000000	99.067496 
3374.000000	99.068926 
3373.000000	99.069323 
3372.000000	99.072341 
3371.000000	99.078629 
3370.000000	99.085131 
3369.000000	99.088400 
3368.000000	99.088037 
3367.000000	99.086659 
3366.000000	99.086829 
3365.000000	99.088194 
3364.000000	99.087720 
3363.000000	99.082883 
3362.000000	99.074615 
3361.000000	99.066722 
3360.000000	99.062259 
3359.000000	99.061092 
3358.000000	99.061491 
3357.000000	99.063428 
3356.000000	99.068853 
3355.000000	99.078382 
3354.000000	99.088927 
3353.000000	99.095779 
3352.000000	99.096784 
3351.000000	99.093828 
3350.000000	99.090272 
3349.000000	99.087574 
3348.000000	99.084656 
3347.000000	99.079937 
3346.000000	99.073388 
3345.000000	99.066748 
3344.000000	99.062305 
3343.000000	99.061620 
3342.000000	99.064669 
3341.000000	99.069520 
3340.000000	99.073081 
3339.000000	99.073292 
3338.000000	99.071185 
3337.000000	99.070245 
3336.000000	99.073108 
3335.000000	99.079196 
3334.000000	99.086060 
3333.000000	99.092269 
3332.000000	99.097835 
3331.000000	99.102118 
3330.000000	99.102896 
3329.000000	99.098376 
3328.000000	99.089487 
3327.000000	99.079390 
3326.000000	99.070969 
3325.000000	99.065291 
3324.000000	99.062143 
3323.000000	99.061477 
3322.000000	99.064009 
3321.000000	99.070426 
3320.000000	99.079971 
3319.000000	99.090057 
3318.000000	99.097753 
3317.000000	99.101582 
3316.000000	99.101414 
3315.000000	99.097191 
3314.000000	99.089206 
3313.000000	99.079974 
3312.000000	99.074036 
3311.000000	99.074322 
3310.000000	99.079115 
3309.000000	99.083827 
3308.000000	99.085588 
3307.000000	99.085127 
3306.000000	99.084629 
3305.000000	99.085327 
3304.000000	99.087515 
3303.000000	99.091323 
3302.000000	99.096225 
3301.000000	99.100183 
3300.000000	99.100400 
3299.000000	99.095549 
3298.000000	99.087310 
3297.000000	99.079573 
3296.000000	99.075493 
3295.000000	99.074852 
3294.000000	99.074604 
3293.000000	99.072538 
3292.000000	99.070192 
3291.000000	99.071347 
3290.000000	99.077693 
3289.000000	99.086994 
3288.000000	99.095633 
3287.000000	99.101784 
3286.000000	99.105414 
3285.000000	99.106176 
3284.000000	99.102808 
3283.000000	99.094890 
3282.000000	99.084495 
3281.000000	99.075566 
3280.000000	99.071559 
3279.000000	99.073310 
3278.000000	99.078591 
3277.000000	99.083535 
3276.000000	99.084920 
3275.000000	99.081972 
3274.000000	99.076814 
3273.000000	99.073299 
3272.000000	99.074529 
3271.000000	99.080454 
3270.000000	99.087738 
3269.000000	99.092632 
3268.000000	99.094136 
3267.000000	99.093874 
3266.000000	99.093034 
3265.000000	99.090567 
3264.000000	99.084987 
3263.000000	99.077210 
3262.000000	99.070585 
3261.000000	99.068027 
3260.000000	99.069613 
3259.000000	99.072966 
3258.000000	99.075746 
3257.000000	99.077676 
3256.000000	99.080132 
3255.000000	99.083746 
3254.000000	99.086872 
3253.000000	99.087211 
3252.000000	99.084837 
3251.000000	99.082635 
3250.000000	99.083160 
3249.000000	99.085782 
3248.000000	99.087515 
3247.000000	99.086182 
3246.000000	99.082243 
3245.000000	99.077987 
3244.000000	99.075594 
3243.000000	99.075675 
3242.000000	99.077071 
3241.000000	99.078293 
3240.000000	99.079694 
3239.000000	99.083765 
3238.000000	99.092444 
3237.000000	99.104379 
3236.000000	99.115668 
3235.000000	99.123057 
3234.000000	99.125477 
3233.000000	99.122907 
3232.000000	99.115566 
3231.000000	99.105101 
3230.000000	99.095199 
3229.000000	99.089401 
3228.000000	99.088260 
3227.000000	99.089347 
3226.000000	99.090009 
3225.000000	99.089596 
3224.000000	99.089178 
3223.000000	99.089931 
3222.000000	99.092127 
3221.000000	99.095163 
3220.000000	99.097991 
3219.000000	99.099575 
3218.000000	99.099435 
3217.000000	99.098109 
3216.000000	99.097016 
3215.000000	99.097406 
3214.000000	99.099103 
3213.000000	99.100337 
3212.000000	99.099035 
3211.000000	99.094390 
3210.000000	99.087459 
3209.000000	99.080795 
3208.000000	99.077656 
3207.000000	99.080501 
3206.000000	99.088880 
3205.000000	99.098660 
3204.000000	99.104556 
3203.000000	99.104364 
3202.000000	99.100560 
3201.000000	99.097514 
3200.000000	99.097596 
3199.000000	99.100050 
3198.000000	99.102696 
3197.000000	99.103886 
3196.000000	99.103300 
3195.000000	99.101799 
3194.000000	99.100523 
3193.000000	99.099623 
3192.000000	99.098063 
3191.000000	99.095297 
3190.000000	99.092841 
3189.000000	99.093184 
3188.000000	99.096996 
3187.000000	99.102283 
3186.000000	99.106628 
3185.000000	99.109296 
3184.000000	99.110554 
3183.000000	99.109757 
3182.000000	99.105613 
3181.000000	99.098627 
3180.000000	99.092259 
3179.000000	99.090602 
3178.000000	99.094597 
3177.000000	99.100936 
3176.000000	99.105245 
3175.000000	99.106356 
3174.000000	99.107082 
3173.000000	99.110576 
3172.000000	99.116313 
3171.000000	99.120279 
3170.000000	99.119216 
3169.000000	99.114156 
3168.000000	99.109416 
3167.000000	99.108358 
3166.000000	99.110449 
3165.000000	99.112259 
3164.000000	99.110995 
3163.000000	99.107039 
3162.000000	99.103361 
3161.000000	99.102762 
3160.000000	99.105746 
3159.000000	99.110697 
3158.000000	99.115460 
3157.000000	99.118521 
3156.000000	99.119439 
3155.000000	99.118966 
3154.000000	99.118424 
3153.000000	99.117984 
3152.000000	99.115646 
3151.000000	99.109138 
3150.000000	99.099262 
3149.000000	99.090281 
3148.000000	99.086195 
3147.000000	99.087295 
3146.000000	99.091103 
3145.000000	99.095816 
3144.000000	99.101542 
3143.000000	99.108454 
3142.000000	99.115304 
3141.000000	99.120362 
3140.000000	99.122993 
3139.000000	99.123704 
3138.000000	99.123154 
3137.000000	99.121708 
3136.000000	99.119792 
3135.000000	99.118163 
3134.000000	99.117482 
3133.000000	99.117383 
3132.000000	99.116058 
3131.000000	99.111603 
3130.000000	99.104502 
3129.000000	99.098404 
3128.000000	99.097395 
3127.000000	99.102306 
3126.000000	99.110278 
3125.000000	99.117788 
3124.000000	99.123191 
3123.000000	99.126349 
3122.000000	99.127335 
3121.000000	99.126512 
3120.000000	99.125007 
3119.000000	99.123858 
3118.000000	99.122798 
3117.000000	99.120747 
3116.000000	99.117449 
3115.000000	99.113871 
3114.000000	99.110992 
3113.000000	99.109002 
3112.000000	99.107910 
3111.000000	99.108255 
3110.000000	99.110564 
3109.000000	99.114373 
3108.000000	99.118346 
3107.000000	99.121467 
3106.000000	99.123665 
3105.000000	99.125043 
3104.000000	99.124949 
3103.000000	99.122529 
3102.000000	99.118351 
3101.000000	99.114812 
3100.000000	99.114250 
3099.000000	99.116752 
3098.000000	99.120396 
3097.000000	99.123504 
3096.000000	99.125965 
3095.000000	99.128200 
3094.000000	99.129736 
3093.000000	99.129659 
3092.000000	99.128145 
3091.000000	99.126782 
3090.000000	99.127162 
3089.000000	99.129403 
3088.000000	99.132049 
3087.000000	99.133267 
3086.000000	99.132281 
3085.000000	99.129864 
3084.000000	99.127300 
3083.000000	99.124767 
3082.000000	99.121115 
3081.000000	99.115593 
3080.000000	99.109579 
3079.000000	99.106168 
3078.000000	99.108021 
3077.000000	99.115476 
3076.000000	99.126214 
3075.000000	99.136468 
3074.000000	99.143182 
3073.000000	99.145847 
3072.000000	99.146102 
3071.000000	99.145201 
3070.000000	99.142402 
3069.000000	99.136557 
3068.000000	99.128776 
3067.000000	99.122306 
3066.000000	99.119676 
3065.000000	99.120862 
3064.000000	99.124177 
3063.000000	99.127739 
3062.000000	99.129782 
3061.000000	99.128911 
3060.000000	99.125223 
3059.000000	99.120813 
3058.000000	99.118562 
3057.000000	99.120482 
3056.000000	99.126956 
3055.000000	99.136508 
3054.000000	99.145766 
3053.000000	99.150624 
3052.000000	99.148606 
3051.000000	99.140357 
3050.000000	99.128889 
3049.000000	99.117913 
3048.000000	99.110553 
3047.000000	99.107993 
3046.000000	99.108298 
3045.000000	99.107656 
3044.000000	99.104349 
3043.000000	99.101058 
3042.000000	99.101950 
3041.000000	99.107671 
3040.000000	99.114486 
3039.000000	99.118093 
3038.000000	99.116698 
3037.000000	99.110275 
3036.000000	99.098995 
3035.000000	99.083990 
3034.000000	99.068602 
3033.000000	99.056788 
3032.000000	99.049702 
3031.000000	99.044714 
3030.000000	99.038264 
3029.000000	99.029390 
3028.000000	99.020342 
3027.000000	99.014328 
3026.000000	99.012741 
3025.000000	99.013889 
3024.000000	99.013874 
3023.000000	99.009072 
3022.000000	98.998434 
3021.000000	98.983523 
3020.000000	98.966392 
3019.000000	98.947883 
3018.000000	98.928472 
3017.000000	98.909953 
3016.000000	98.894751 
3015.000000	98.883181 
3014.000000	98.872859 
3013.000000	98.861824 
3012.000000	98.851222 
3011.000000	98.843384 
3010.000000	98.837783 
3009.000000	98.830732 
3008.000000	98.819303 
3007.000000	98.804086 
3006.000000	98.787560 
3005.000000	98.771010 
3004.000000	98.754034 
3003.000000	98.736254 
3002.000000	98.718450 
3001.000000	98.702237 
3000.000000	98.689143 
2999.000000	98.679643 
2998.000000	98.672690 
2997.000000	98.666628 
2996.000000	98.660712 
2995.000000	98.654746 
2994.000000	98.646786 
2993.000000	98.632809 
2992.000000	98.610473 
2991.000000	98.582943 
2990.000000	98.557661 
2989.000000	98.541173 
2988.000000	98.535674 
2987.000000	98.539597 
2986.000000	98.549358 
2985.000000	98.560153 
2984.000000	98.567118 
2983.000000	98.567848 
2982.000000	98.563924 
2981.000000	98.559375 
2980.000000	98.557563 
2979.000000	98.559523 
2978.000000	98.564355 
2977.000000	98.570120 
2976.000000	98.574447 
2975.000000	98.575480 
2974.000000	98.573324 
2973.000000	98.570671 
2972.000000	98.571311 
2971.000000	98.577220 
2970.000000	98.586908 
2969.000000	98.596896 
2968.000000	98.604915 
2967.000000	98.611486 
2966.000000	98.618547 
2965.000000	98.627318 
2964.000000	98.637807 
2963.000000	98.649550 
2962.000000	98.661925 
2961.000000	98.674043 
2960.000000	98.685185 
2959.000000	98.695391 
2958.000000	98.705103 
2957.000000	98.714276 
2956.000000	98.722295 
2955.000000	98.728660 
2954.000000	98.733314 
2953.000000	98.736558 
2952.000000	98.739225 
2951.000000	98.742754 
2950.000000	98.748285 
2949.000000	98.755515 
2948.000000	98.762916 
2947.000000	98.769148 
2946.000000	98.773958 
2945.000000	98.777912 
2944.000000	98.781925 
2943.000000	98.786858 
2942.000000	98.792661 
2941.000000	98.797747 
2940.000000	98.800186 
2939.000000	98.800154 
2938.000000	98.800593 
2937.000000	98.804695 
2936.000000	98.812777 
2935.000000	98.821973 
2934.000000	98.828796 
2933.000000	98.831518 
2932.000000	98.830306 
2931.000000	98.825926 
2930.000000	98.819361 
2929.000000	98.812776 
2928.000000	98.809539 
2927.000000	98.811512 
2926.000000	98.816258 
2925.000000	98.818629 
2924.000000	98.816181 
2923.000000	98.811643 
2922.000000	98.808679 
2921.000000	98.806421 
2920.000000	98.800489 
2919.000000	98.788868 
2918.000000	98.774443 
2917.000000	98.761284 
2916.000000	98.750591 
2915.000000	98.741228 
2914.000000	98.732535 
2913.000000	98.725088 
2912.000000	98.719754 
2911.000000	98.717322 
2910.000000	98.718265 
2909.000000	98.721576 
2908.000000	98.724211 
2907.000000	98.723090 
2906.000000	98.717360 
2905.000000	98.707809 
2904.000000	98.694641 
2903.000000	98.677925 
2902.000000	98.660797 
2901.000000	98.650884 
2900.000000	98.655144 
2899.000000	98.673881 
2898.000000	98.699094 
2897.000000	98.719786 
2896.000000	98.729607 
2895.000000	98.730334 
2894.000000	98.728893 
2893.000000	98.731212 
2892.000000	98.738533 
2891.000000	98.748132 
2890.000000	98.756298 
2889.000000	98.760547 
2888.000000	98.760417 
2887.000000	98.757522 
2886.000000	98.754843 
2885.000000	98.755090 
2884.000000	98.759347 
2883.000000	98.767331 
2882.000000	98.778588 
2881.000000	98.792713 
2880.000000	98.808287 
2879.000000	98.822506 
2878.000000	98.832784 
2877.000000	98.839072 
2876.000000	98.844234 
2875.000000	98.851730 
2874.000000	98.862621 
2873.000000	98.874744 
2872.000000	98.884689 
2871.000000	98.890541 
2870.000000	98.892960 
2869.000000	98.894437 
2868.000000	98.897893 
2867.000000	98.905245 
2866.000000	98.915999 
2865.000000	98.927117 
2864.000000	98.935402 
2863.000000	98.940688 
2862.000000	98.946051 
2861.000000	98.954476 
2860.000000	98.966063 
2859.000000	98.979055 
2858.000000	98.992419 
2857.000000	99.005943 
2856.000000	99.018298 
2855.000000	99.026775 
2854.000000	99.029642 
2853.000000	99.028029 
2852.000000	99.025021 
2851.000000	99.023341 
2850.000000	99.024188 
2849.000000	99.027638 
2848.000000	99.033425 
2847.000000	99.041193 
2846.000000	99.050183 
2845.000000	99.058797 
2844.000000	99.064825 
2843.000000	99.066626 
2842.000000	99.064414 
2841.000000	99.060367 
2840.000000	99.057619 
2839.000000	99.058982 
2838.000000	99.065607 
2837.000000	99.075557 
2836.000000	99.083931 
2835.000000	99.086197 
2834.000000	99.082513 
2833.000000	99.078013 
2832.000000	99.077630 
2831.000000	99.081154 
2830.000000	99.084367 
2829.000000	99.084606 
2828.000000	99.083600 
2827.000000	99.084595 
2826.000000	99.088375 
2825.000000	99.093141 
2824.000000	99.097245 
2823.000000	99.100472 
2822.000000	99.102855 
2821.000000	99.103792 
2820.000000	99.102892 
2819.000000	99.100902 
2818.000000	99.099202 
2817.000000	99.098783 
2816.000000	99.099963 
2815.000000	99.102454 
2814.000000	99.105218 
2813.000000	99.106892 
2812.000000	99.107243 
2811.000000	99.107957 
2810.000000	99.111105 
2809.000000	99.116716 
2808.000000	99.122516 
2807.000000	99.126169 
2806.000000	99.127113 
2805.000000	99.126074 
2804.000000	99.123745 
2803.000000	99.120699 
2802.000000	99.118005 
2801.000000	99.116894 
2800.000000	99.117682 
2799.000000	99.119488 
2798.000000	99.121011 
2797.000000	99.121219 
2796.000000	99.119650 
2795.000000	99.116901 
2794.000000	99.114899 
2793.000000	99.115704 
2792.000000	99.119522 
2791.000000	99.124447 
2790.000000	99.128568 
2789.000000	99.131720 
2788.000000	99.134589 
2787.000000	99.136814 
2786.000000	99.137069 
2785.000000	99.134774 
2784.000000	99.130692 
2783.000000	99.125827 
2782.000000	99.120921 
2781.000000	99.117376 
2780.000000	99.117417 
2779.000000	99.122206 
2778.000000	99.130106 
2777.000000	99.137696 
2776.000000	99.142449 
2775.000000	99.144065 
2774.000000	99.143587 
2773.000000	99.142161 
2772.000000	99.140703 
2771.000000	99.139871 
2770.000000	99.139841 
2769.000000	99.140394 
2768.000000	99.141474 
2767.000000	99.143295 
2766.000000	99.145543 
2765.000000	99.146776 
2764.000000	99.145265 
2763.000000	99.140750 
2762.000000	99.135110 
2761.000000	99.130872 
2760.000000	99.128949 
2759.000000	99.128227 
2758.000000	99.127636 
2757.000000	99.128021 
2756.000000	99.130962 
2755.000000	99.135728 
2754.000000	99.138803 
2753.000000	99.137502 
2752.000000	99.133472 
2751.000000	99.131308 
2750.000000	99.133670 
2749.000000	99.138762 
2748.000000	99.142839 
2747.000000	99.144192 
2746.000000	99.143969 
2745.000000	99.143802 
2744.000000	99.143798 
2743.000000	99.143176 
2742.000000	99.142183 
2741.000000	99.142464 
2740.000000	99.145033 
2739.000000	99.148309 
2738.000000	99.149184 
2737.000000	99.146538 
2736.000000	99.142954 
2735.000000	99.141982 
2734.000000	99.144060 
2733.000000	99.146166 
2732.000000	99.145457 
2731.000000	99.142229 
2730.000000	99.139061 
2729.000000	99.138120 
2728.000000	99.139804 
2727.000000	99.143145 
2726.000000	99.146625 
2725.000000	99.149015 
2724.000000	99.150255 
2723.000000	99.151512 
2722.000000	99.153824 
2721.000000	99.156570 
2720.000000	99.157546 
2719.000000	99.154830 
2718.000000	99.148775 
2717.000000	99.142218 
2716.000000	99.138459 
2715.000000	99.138705 
2714.000000	99.141722 
2713.000000	99.145997 
2712.000000	99.151347 
2711.000000	99.157631 
2710.000000	99.162901 
2709.000000	99.164623 
2708.000000	99.162606 
2707.000000	99.158977 
2706.000000	99.155021 
2705.000000	99.150035 
2704.000000	99.144088 
2703.000000	99.139868 
2702.000000	99.139979 
2701.000000	99.143498 
2700.000000	99.147053 
2699.000000	99.148807 
2698.000000	99.149749 
2697.000000	99.151323 
2696.000000	99.153462 
2695.000000	99.155136 
2694.000000	99.155604 
2693.000000	99.154720 
2692.000000	99.152879 
2691.000000	99.151017 
2690.000000	99.150079 
2689.000000	99.150155 
2688.000000	99.150374 
2687.000000	99.149698 
2686.000000	99.147856 
2685.000000	99.145988 
2684.000000	99.146401 
2683.000000	99.150571 
2682.000000	99.156612 
2681.000000	99.159832 
2680.000000	99.157117 
2679.000000	99.150399 
2678.000000	99.144652 
2677.000000	99.143017 
2676.000000	99.144976 
2675.000000	99.148542 
2674.000000	99.152298 
2673.000000	99.155353 
2672.000000	99.157171 
2671.000000	99.157945 
2670.000000	99.157912 
2669.000000	99.156191 
2668.000000	99.151921 
2667.000000	99.146798 
2666.000000	99.144393 
2665.000000	99.145793 
2664.000000	99.147587 
2663.000000	99.146095 
2662.000000	99.142831 
2661.000000	99.143717 
2660.000000	99.152294 
2659.000000	99.164948 
2658.000000	99.173789 
2657.000000	99.174247 
2656.000000	99.169150 
2655.000000	99.164847 
2654.000000	99.163736 
2653.000000	99.162136 
2652.000000	99.156515 
2651.000000	99.150041 
2650.000000	99.150021 
2649.000000	99.158571 
2648.000000	99.169012 
2647.000000	99.173601 
2646.000000	99.172825 
2645.000000	99.173954 
2644.000000	99.180683 
2643.000000	99.187390 
2642.000000	99.185080 
2641.000000	99.171602 
2640.000000	99.154334 
2639.000000	99.143172 
2638.000000	99.142122 
2637.000000	99.147515 
2636.000000	99.152921 
2635.000000	99.154722 
2634.000000	99.153571 
2633.000000	99.152319 
2632.000000	99.153392 
2631.000000	99.157049 
2630.000000	99.160718 
2629.000000	99.160470 
2628.000000	99.154794 
2627.000000	99.147049 
2626.000000	99.142610 
2625.000000	99.143160 
2624.000000	99.145430 
2623.000000	99.146189 
2622.000000	99.146456 
2621.000000	99.148896 
2620.000000	99.152610 
2619.000000	99.153396 
2618.000000	99.149340 
2617.000000	99.143816 
2616.000000	99.141830 
2615.000000	99.144709 
2614.000000	99.149673 
2613.000000	99.153827 
2612.000000	99.157237 
2611.000000	99.162041 
2610.000000	99.169456 
2609.000000	99.178006 
2608.000000	99.184258 
2607.000000	99.185166 
2606.000000	99.180396 
2605.000000	99.173043 
2604.000000	99.167715 
2603.000000	99.166895 
2602.000000	99.168964 
2601.000000	99.170525 
2600.000000	99.170725 
2599.000000	99.171852 
2598.000000	99.174848 
2597.000000	99.176098 
2596.000000	99.171339 
2595.000000	99.162446 
2594.000000	99.157374 
2593.000000	99.161865 
2592.000000	99.172878 
2591.000000	99.181849 
2590.000000	99.183239 
2589.000000	99.178102 
2588.000000	99.170207 
2587.000000	99.161457 
2586.000000	99.152098 
2585.000000	99.143653 
2584.000000	99.139572 
2583.000000	99.142605 
2582.000000	99.152125 
2581.000000	99.164249 
2580.000000	99.174287 
2579.000000	99.179165 
2578.000000	99.178331 
2577.000000	99.173347 
2576.000000	99.166596 
2575.000000	99.159419 
2574.000000	99.151191 
2573.000000	99.141161 
2572.000000	99.131568 
2571.000000	99.127358 
2570.000000	99.131192 
2569.000000	99.139657 
2568.000000	99.146505 
2567.000000	99.149524 
2566.000000	99.152170 
2565.000000	99.158189 
2564.000000	99.166675 
2563.000000	99.173338 
2562.000000	99.174966 
2561.000000	99.171552 
2560.000000	99.165352 
2559.000000	99.159088 
2558.000000	99.154456 
2557.000000	99.151704 
2556.000000	99.151297 
2555.000000	99.155640 
2554.000000	99.166937 
2553.000000	99.182414 
2552.000000	99.194056 
2551.000000	99.195393 
2550.000000	99.187511 
2549.000000	99.176660 
2548.000000	99.167215 
2547.000000	99.159323 
2546.000000	99.152538 
2545.000000	99.148537 
2544.000000	99.149245 
2543.000000	99.154119 
2542.000000	99.160280 
2541.000000	99.164466 
2540.000000	99.164716 
2539.000000	99.161364 
2538.000000	99.156674 
2537.000000	99.152433 
2536.000000	99.147831 
2535.000000	99.140992 
2534.000000	99.132607 
2533.000000	99.126214 
2532.000000	99.124300 
2531.000000	99.125981 
2530.000000	99.129565 
2529.000000	99.135290 
2528.000000	99.143373 
2527.000000	99.150840 
2526.000000	99.153500 
2525.000000	99.151399 
2524.000000	99.149569 
2523.000000	99.152008 
2522.000000	99.156799 
2521.000000	99.158902 
2520.000000	99.156369 
2519.000000	99.151640 
2518.000000	99.147477 
2517.000000	99.144225 
2516.000000	99.141396 
2515.000000	99.139593 
2514.000000	99.139710 
2513.000000	99.141822 
2512.000000	99.146077 
2511.000000	99.153253 
2510.000000	99.162938 
2509.000000	99.172252 
2508.000000	99.178036 
2507.000000	99.179580 
2506.000000	99.177778 
2505.000000	99.172683 
2504.000000	99.164165 
2503.000000	99.154575 
2502.000000	99.148287 
2501.000000	99.148038 
2500.000000	99.153245 
2499.000000	99.161909 
2498.000000	99.172007 
2497.000000	99.180615 
2496.000000	99.184216 
2495.000000	99.181749 
2494.000000	99.176154 
2493.000000	99.171561 
2492.000000	99.169690 
2491.000000	99.169839 
2490.000000	99.171184 
2489.000000	99.173791 
2488.000000	99.177965 
2487.000000	99.183493 
2486.000000	99.188965 
2485.000000	99.191460 
2484.000000	99.188191 
2483.000000	99.179516 
2482.000000	99.169522 
2481.000000	99.162742 
2480.000000	99.160910 
2479.000000	99.163124 
2478.000000	99.167428 
2477.000000	99.171138 
2476.000000	99.171610 
2475.000000	99.168928 
2474.000000	99.166866 
2473.000000	99.168884 
2472.000000	99.173480 
2471.000000	99.175504 
2470.000000	99.171951 
2469.000000	99.164668 
2468.000000	99.157446 
2467.000000	99.152540 
2466.000000	99.150540 
2465.000000	99.151635 
2464.000000	99.155657 
2463.000000	99.161768 
2462.000000	99.168945 
2461.000000	99.176203 
2460.000000	99.181981 
2459.000000	99.184221 
2458.000000	99.181742 
2457.000000	99.175026 
2456.000000	99.165305 
2455.000000	99.153618 
2454.000000	99.141405 
2453.000000	99.131283 
2452.000000	99.126026 
2451.000000	99.126422 
2450.000000	99.130476 
2449.000000	99.135139 
2448.000000	99.139166 
2447.000000	99.144342 
2446.000000	99.153328 
2445.000000	99.165751 
2444.000000	99.176831 
2443.000000	99.180805 
2442.000000	99.175948 
2441.000000	99.165943 
2440.000000	99.156512 
2439.000000	99.151276 
2438.000000	99.150357 
2437.000000	99.151592 
2436.000000	99.152457 
2435.000000	99.151764 
2434.000000	99.150533 
2433.000000	99.151338 
2432.000000	99.156440 
2431.000000	99.166053 
2430.000000	99.177630 
2429.000000	99.186406 
2428.000000	99.187747 
2427.000000	99.180731 
2426.000000	99.169740 
2425.000000	99.161271 
2424.000000	99.158599 
2423.000000	99.160256 
2422.000000	99.163503 
2421.000000	99.167265 
2420.000000	99.170667 
2419.000000	99.170878 
2418.000000	99.165209 
2417.000000	99.155092 
2416.000000	99.145703 
2415.000000	99.140969 
2414.000000	99.140497 
2413.000000	99.141837 
2412.000000	99.144019 
2411.000000	99.147559 
2410.000000	99.152063 
2409.000000	99.155436 
2408.000000	99.155433 
2407.000000	99.151285 
2406.000000	99.144121 
2405.000000	99.136471 
2404.000000	99.130865 
2403.000000	99.128012 
2402.000000	99.126592 
2401.000000	99.125391 
2400.000000	99.124942 
2399.000000	99.126158 
2398.000000	99.128280 
2397.000000	99.129870 
2396.000000	99.131356 
2395.000000	99.134437 
2394.000000	99.138691 
2393.000000	99.141063 
2392.000000	99.139654 
2391.000000	99.136061 
2390.000000	99.132629 
2389.000000	99.129437 
2388.000000	99.125997 
2387.000000	99.124116 
2386.000000	99.126021 
2385.000000	99.130279 
2384.000000	99.132816 
2383.000000	99.132522 
2382.000000	99.132944 
2381.000000	99.137018 
2380.000000	99.142711 
2379.000000	99.146410 
2378.000000	99.148986 
2377.000000	99.154711 
2376.000000	99.163662 
2375.000000	99.168982 
2374.000000	99.164450 
2373.000000	99.152308 
2372.000000	99.140895 
2371.000000	99.135572 
2370.000000	99.135017 
2369.000000	99.135360 
2368.000000	99.134348 
2367.000000	99.131241 
2366.000000	99.126741 
2365.000000	99.124463 
2364.000000	99.128915 
2363.000000	99.138782 
2362.000000	99.146285 
2361.000000	99.144968 
2360.000000	99.135269 
2359.000000	99.124304 
2358.000000	99.119490 
2357.000000	99.122295 
2356.000000	99.128929 
2355.000000	99.132880 
2354.000000	99.132495 
2353.000000	99.129234 
2352.000000	99.126223 
2351.000000	99.126301 
2350.000000	99.127903 
2349.000000	99.127263 
2348.000000	99.121198 
2347.000000	99.113084 
2346.000000	99.110694 
2345.000000	99.117037 
2344.000000	99.129556 
2343.000000	99.139880 
2342.000000	99.143587 
2341.000000	99.140235 
2340.000000	99.133765 
2339.000000	99.129241 
2338.000000	99.127780 
2337.000000	99.126650 
2336.000000	99.120698 
2335.000000	99.110987 
2334.000000	99.103990 
2333.000000	99.107301 
2332.000000	99.118149 
2331.000000	99.129553 
2330.000000	99.133322 
2329.000000	99.132815 
2328.000000	99.133309 
2327.000000	99.140663 
2326.000000	99.151809 
2325.000000	99.158228 
2324.000000	99.153882 
2323.000000	99.142135 
2322.000000	99.133551 
2321.000000	99.133105 
2320.000000	99.134875 
2319.000000	99.131467 
2318.000000	99.121570 
2317.000000	99.112434 
2316.000000	99.108395 
2315.000000	99.110884 
2314.000000	99.116304 
2313.000000	99.124702 
2312.000000	99.135688 
2311.000000	99.149872 
2310.000000	99.162258 
2309.000000	99.167875 
2308.000000	99.164041 
2307.000000	99.156008 
2306.000000	99.150098 
2305.000000	99.149621 
2304.000000	99.152174 
2303.000000	99.155927 
2302.000000	99.159974 
2301.000000	99.164734 
2300.000000	99.169180 
2299.000000	99.174191 
2298.000000	99.179984 
2297.000000	99.185253 
2296.000000	99.185909 
2295.000000	99.181749 
2294.000000	99.177748 
2293.000000	99.180194 
2292.000000	99.189337 
2291.000000	99.199788 
2290.000000	99.205781 
2289.000000	99.205127 
2288.000000	99.198853 
2287.000000	99.189151 
2286.000000	99.178616 
2285.000000	99.169329 
2284.000000	99.163017 
2283.000000	99.161465 
2282.000000	99.166587 
2281.000000	99.177683 
2280.000000	99.189746 
2279.000000	99.196295 
2278.000000	99.195304 
2277.000000	99.191175 
2276.000000	99.189724 
2275.000000	99.191772 
2274.000000	99.192220 
2273.000000	99.185869 
2272.000000	99.173073 
2271.000000	99.159342 
2270.000000	99.149579 
2269.000000	99.144429 
2268.000000	99.142824 
2267.000000	99.146142 
2266.000000	99.156552 
2265.000000	99.171361 
2264.000000	99.182552 
2263.000000	99.184277 
2262.000000	99.179062 
2261.000000	99.174422 
2260.000000	99.174480 
2259.000000	99.176538 
2258.000000	99.175676 
2257.000000	99.170381 
2256.000000	99.163358 
2255.000000	99.158036 
2254.000000	99.155511 
2253.000000	99.154975 
2252.000000	99.155926 
2251.000000	99.158991 
2250.000000	99.164137 
2249.000000	99.169847 
2248.000000	99.174496 
2247.000000	99.178478 
2246.000000	99.182619 
2245.000000	99.186533 
2244.000000	99.189901 
2243.000000	99.194064 
2242.000000	99.199877 
2241.000000	99.205394 
2240.000000	99.208896 
2239.000000	99.212727 
2238.000000	99.219248 
2237.000000	99.223166 
2236.000000	99.214217 
2235.000000	99.190366 
2234.000000	99.163937 
2233.000000	99.150680 
2232.000000	99.155070 
2231.000000	99.169010 
2230.000000	99.181784 
2229.000000	99.187869 
2228.000000	99.188032 
2227.000000	99.187434 
2226.000000	99.191592 
2225.000000	99.200658 
2224.000000	99.208175 
2223.000000	99.207867 
2222.000000	99.199934 
2221.000000	99.188144 
2220.000000	99.173687 
2219.000000	99.156848 
2218.000000	99.143306 
2217.000000	99.142415 
2216.000000	99.157375 
2215.000000	99.181096 
2214.000000	99.203506 
2213.000000	99.220123 
2212.000000	99.232519 
2211.000000	99.243533 
2210.000000	99.254144 
2209.000000	99.262708 
2208.000000	99.264581 
2207.000000	99.253643 
2206.000000	99.227398 
2205.000000	99.191994 
2204.000000	99.160789 
2203.000000	99.145875 
2202.000000	99.149521 
2201.000000	99.162866 
2200.000000	99.173302 
2199.000000	99.174341 
2198.000000	99.169326 
2197.000000	99.167026 
2196.000000	99.174528 
2195.000000	99.192630 
2194.000000	99.214686 
2193.000000	99.229271 
2192.000000	99.227977 
2191.000000	99.213754 
2190.000000	99.200122 
2189.000000	99.199323 
2188.000000	99.210931 
2187.000000	99.223372 
2186.000000	99.225473 
2185.000000	99.214871 
2184.000000	99.197081 
2183.000000	99.180276 
2182.000000	99.171780 
2181.000000	99.175824 
2180.000000	99.191158 
2179.000000	99.211390 
2178.000000	99.229555 
2177.000000	99.242787 
2176.000000	99.252238 
2175.000000	99.258973 
2174.000000	99.262251 
2173.000000	99.263202 
2172.000000	99.267323 
2171.000000	99.278805 
2170.000000	99.292646 
2169.000000	99.297565 
2168.000000	99.289285 
2167.000000	99.276544 
2166.000000	99.270540 
2165.000000	99.273245 
2164.000000	99.281583 
2163.000000	99.297881 
2162.000000	99.325433 
2161.000000	99.354569 
2160.000000	99.365553 
2159.000000	99.350411 
2158.000000	99.321432 
2157.000000	99.291535 
2156.000000	99.258167 
2155.000000	99.215496 
2154.000000	99.171345 
2153.000000	99.141724 
2152.000000	99.133223 
2151.000000	99.138926 
2150.000000	99.149845 
2149.000000	99.163777 
2148.000000	99.183496 
2147.000000	99.210875 
2146.000000	99.242588 
2145.000000	99.268796 
2144.000000	99.278058 
2143.000000	99.266997 
2142.000000	99.243849 
2141.000000	99.219892 
2140.000000	99.198911 
2139.000000	99.178204 
2138.000000	99.157720 
2137.000000	99.142443 
2136.000000	99.135409 
2135.000000	99.133826 
2134.000000	99.134616 
2133.000000	99.139921 
2132.000000	99.153536 
2131.000000	99.173377 
2130.000000	99.190440 
2129.000000	99.195807 
2128.000000	99.187977 
2127.000000	99.172991 
2126.000000	99.158272 
2125.000000	99.147566 
2124.000000	99.141531 
2123.000000	99.140839 
2122.000000	99.146251 
2121.000000	99.156220 
2120.000000	99.167235 
2119.000000	99.177267 
2118.000000	99.186739 
2117.000000	99.195727 
2116.000000	99.202771 
2115.000000	99.207390 
2114.000000	99.210918 
2113.000000	99.213115 
2112.000000	99.210854 
2111.000000	99.203178 
2110.000000	99.195607 
2109.000000	99.195512 
2108.000000	99.203380 
2107.000000	99.211643 
2106.000000	99.212325 
2105.000000	99.203727 
2104.000000	99.190001 
2103.000000	99.176893 
2102.000000	99.168437 
2101.000000	99.165248 
2100.000000	99.164596 
2099.000000	99.163448 
2098.000000	99.162401 
2097.000000	99.165742 
2096.000000	99.177073 
2095.000000	99.195488 
2094.000000	99.215809 
2093.000000	99.231287 
2092.000000	99.236520 
2091.000000	99.230105 
2090.000000	99.216032 
2089.000000	99.201253 
2088.000000	99.189535 
2087.000000	99.177662 
2086.000000	99.159725 
2085.000000	99.136454 
2084.000000	99.119241 
2083.000000	99.122356 
2082.000000	99.149720 
2081.000000	99.189988 
2080.000000	99.226202 
2079.000000	99.250101 
2078.000000	99.265498 
2077.000000	99.278904 
2076.000000	99.289801 
2075.000000	99.290837 
2074.000000	99.275623 
2073.000000	99.245420 
2072.000000	99.209262 
2071.000000	99.178064 
2070.000000	99.158123 
2069.000000	99.149582 
2068.000000	99.150026 
2067.000000	99.157621 
2066.000000	99.169804 
2065.000000	99.182282 
2064.000000	99.193421 
2063.000000	99.207378 
2062.000000	99.226994 
2061.000000	99.244502 
2060.000000	99.246672 
2059.000000	99.231178 
2058.000000	99.211469 
2057.000000	99.201972 
2056.000000	99.203797 
2055.000000	99.209419 
2054.000000	99.216228 
2053.000000	99.228484 
2052.000000	99.248071 
2051.000000	99.270067 
2050.000000	99.287727 
2049.000000	99.297832 
2048.000000	99.300861 
2047.000000	99.299128 
2046.000000	99.295973 
2045.000000	99.294296 
2044.000000	99.294261 
2043.000000	99.293711 
2042.000000	99.291308 
2041.000000	99.288028 
2040.000000	99.285426 
2039.000000	99.283634 
2038.000000	99.280704 
2037.000000	99.272783 
2036.000000	99.256141 
2035.000000	99.231063 
2034.000000	99.203573 
2033.000000	99.182151 
2032.000000	99.173094 
2031.000000	99.179582 
2030.000000	99.202190 
2029.000000	99.236765 
2028.000000	99.273308 
2027.000000	99.300443 
2026.000000	99.311333 
2025.000000	99.306091 
2024.000000	99.290657 
2023.000000	99.273021 
2022.000000	99.257532 
2021.000000	99.241798 
2020.000000	99.221078 
2019.000000	99.196520 
2018.000000	99.176534 
2017.000000	99.169013 
2016.000000	99.175216 
2015.000000	99.192948 
2014.000000	99.220186 
2013.000000	99.251897 
2012.000000	99.279099 
2011.000000	99.295625 
2010.000000	99.301455 
2009.000000	99.296122 
2008.000000	99.274812 
2007.000000	99.237708 
2006.000000	99.198834 
2005.000000	99.176773 
2004.000000	99.176615 
2003.000000	99.187770 
2002.000000	99.198290 
2001.000000	99.205030 
2000.000000	99.211154 
1999.000000	99.219272 
1998.000000	99.228100 
1997.000000	99.233065 
1996.000000	99.230717 
1995.000000	99.223917 
1994.000000	99.220785 
1993.000000	99.225709 
1992.000000	99.231798 
1991.000000	99.226700 
1990.000000	99.206998 
1989.000000	99.183161 
1988.000000	99.171343 
1987.000000	99.182599 
1986.000000	99.216560 
1985.000000	99.260550 
1984.000000	99.295594 
1983.000000	99.308238 
1982.000000	99.298935 
1981.000000	99.278754 
1980.000000	99.259050 
1979.000000	99.245441 
1978.000000	99.238967 
1977.000000	99.237789 
1976.000000	99.237669 
1975.000000	99.234860 
1974.000000	99.230228 
1973.000000	99.228595 
1972.000000	99.232894 
1971.000000	99.240084 
1970.000000	99.243571 
1969.000000	99.239278 
1968.000000	99.229277 
1967.000000	99.219725 
1966.000000	99.215665 
1965.000000	99.218180 
1964.000000	99.226145 
1963.000000	99.238803 
1962.000000	99.255267 
1961.000000	99.273000 
1960.000000	99.288561 
1959.000000	99.298536 
1958.000000	99.298248 
1957.000000	99.282249 
1956.000000	99.249711 
1955.000000	99.208075 
1954.000000	99.167949 
1953.000000	99.134854 
1952.000000	99.109491 
1951.000000	99.095889 
1950.000000	99.102741 
1949.000000	99.132787 
1948.000000	99.175313 
1947.000000	99.214319 
1946.000000	99.241200 
1945.000000	99.255474 
1944.000000	99.256572 
1943.000000	99.241742 
1942.000000	99.212529 
1941.000000	99.176794 
1940.000000	99.142010 
1939.000000	99.112050 
1938.000000	99.091647 
1937.000000	99.088090 
1936.000000	99.104540 
1935.000000	99.133796 
1934.000000	99.161949 
1933.000000	99.178888 
1932.000000	99.184702 
1931.000000	99.186323 
1930.000000	99.189350 
1929.000000	99.192981 
1928.000000	99.191846 
1927.000000	99.182261 
1926.000000	99.166162 
1925.000000	99.148702 
1924.000000	99.134653 
1923.000000	99.127455 
1922.000000	99.129449 
1921.000000	99.140006 
1920.000000	99.154295 
1919.000000	99.165641 
1918.000000	99.169311 
1917.000000	99.164664 
1916.000000	99.155249 
1915.000000	99.147581 
1914.000000	99.147905 
1913.000000	99.157149 
1912.000000	99.168964 
1911.000000	99.175609 
1910.000000	99.175575 
1909.000000	99.172820 
1908.000000	99.170180 
1907.000000	99.167676 
1906.000000	99.166014 
1905.000000	99.165939 
1904.000000	99.164518 
1903.000000	99.156304 
1902.000000	99.139610 
1901.000000	99.119157 
1900.000000	99.102940 
1899.000000	99.097997 
1898.000000	99.107430 
1897.000000	99.127645 
1896.000000	99.148984 
1895.000000	99.163006 
1894.000000	99.169523 
1893.000000	99.172951 
1892.000000	99.173299 
1891.000000	99.165785 
1890.000000	99.149258 
1889.000000	99.130467 
1888.000000	99.116766 
1887.000000	99.109251 
1886.000000	99.105459 
1885.000000	99.104140 
1884.000000	99.105521 
1883.000000	99.109672 
1882.000000	99.116649 
1881.000000	99.126909 
1880.000000	99.140588 
1879.000000	99.155837 
1878.000000	99.167460 
1877.000000	99.168497 
1876.000000	99.155980 
1875.000000	99.135402 
1874.000000	99.116833 
1873.000000	99.105279 
1872.000000	99.097062 
1871.000000	99.087777 
1870.000000	99.081183 
1869.000000	99.085135 
1868.000000	99.097728 
1867.000000	99.108632 
1866.000000	99.113817 
1865.000000	99.116539 
1864.000000	99.119159 
1863.000000	99.120958 
1862.000000	99.121423 
1861.000000	99.121055 
1860.000000	99.119071 
1859.000000	99.114750 
1858.000000	99.111236 
1857.000000	99.112772 
1856.000000	99.118412 
1855.000000	99.123842 
1854.000000	99.128175 
1853.000000	99.133844 
1852.000000	99.140414 
1851.000000	99.142720 
1850.000000	99.137542 
1849.000000	99.128305 
1848.000000	99.121231 
1847.000000	99.119015 
1846.000000	99.120701 
1845.000000	99.124105 
1844.000000	99.125947 
1843.000000	99.124566 
1842.000000	99.123510 
1841.000000	99.126675 
1840.000000	99.133369 
1839.000000	99.139044 
1838.000000	99.139530 
1837.000000	99.134747 
1836.000000	99.128084 
1835.000000	99.122807 
1834.000000	99.120355 
1833.000000	99.121867 
1832.000000	99.129863 
1831.000000	99.145069 
1830.000000	99.162202 
1829.000000	99.173156 
1828.000000	99.176763 
1827.000000	99.177412 
1826.000000	99.176671 
1825.000000	99.172249 
1824.000000	99.162045 
1823.000000	99.147488 
1822.000000	99.132005 
1821.000000	99.117528 
1820.000000	99.104293 
1819.000000	99.093053 
1818.000000	99.087153 
1817.000000	99.090298 
1816.000000	99.101328 
1815.000000	99.114665 
1814.000000	99.126438 
1813.000000	99.137048 
1812.000000	99.147600 
1811.000000	99.156114 
1810.000000	99.160361 
1809.000000	99.161194 
1808.000000	99.158116 
1807.000000	99.147523 
1806.000000	99.130127 
1805.000000	99.114999 
1804.000000	99.111436 
1803.000000	99.118848 
1802.000000	99.128069 
1801.000000	99.132281 
1800.000000	99.131641 
1799.000000	99.129856 
1798.000000	99.130767 
1797.000000	99.135773 
1796.000000	99.142227 
1795.000000	99.145991 
1794.000000	99.145250 
1793.000000	99.141573 
1792.000000	99.137082 
1791.000000	99.131032 
1790.000000	99.123098 
1789.000000	99.116666 
1788.000000	99.115889 
1787.000000	99.121941 
1786.000000	99.131444 
1785.000000	99.137881 
1784.000000	99.136586 
1783.000000	99.130702 
1782.000000	99.128468 
1781.000000	99.134136 
1780.000000	99.141121 
1779.000000	99.139411 
1778.000000	99.129418 
1777.000000	99.121332 
1776.000000	99.123233 
1775.000000	99.134886 
1774.000000	99.150798 
1773.000000	99.164302 
1772.000000	99.169657 
1771.000000	99.166012 
1770.000000	99.157784 
1769.000000	99.148439 
1768.000000	99.140001 
1767.000000	99.133845 
1766.000000	99.131397 
1765.000000	99.135214 
1764.000000	99.146806 
1763.000000	99.163865 
1762.000000	99.178620 
1761.000000	99.184196 
1760.000000	99.182328 
1759.000000	99.178533 
1758.000000	99.173727 
1757.000000	99.164967 
1756.000000	99.151324 
1755.000000	99.136913 
1754.000000	99.126032 
1753.000000	99.119634 
1752.000000	99.119183 
1751.000000	99.129069 
1750.000000	99.150993 
1749.000000	99.178788 
1748.000000	99.202666 
1747.000000	99.214721 
1746.000000	99.212874 
1745.000000	99.201525 
1744.000000	99.188041 
1743.000000	99.177299 
1742.000000	99.168443 
1741.000000	99.158859 
1740.000000	99.148873 
1739.000000	99.141405 
1738.000000	99.138127 
1737.000000	99.138425 
1736.000000	99.141367 
1735.000000	99.146214 
1734.000000	99.148590 
1733.000000	99.145189 
1732.000000	99.143988 
1731.000000	99.149666 
1730.000000	99.156248 
1729.000000	99.155679 
1728.000000	99.147699 
1727.000000	99.140035 
1726.000000	99.138619 
1725.000000	99.141103 
1724.000000	99.140249 
1723.000000	99.134026 
1722.000000	99.128337 
1721.000000	99.129278 
1720.000000	99.135991 
1719.000000	99.141747 
1718.000000	99.140249 
1717.000000	99.134748 
1716.000000	99.132817 
1715.000000	99.133248 
1714.000000	99.131728 
1713.000000	99.128776 
1712.000000	99.127616 
1711.000000	99.130282 
1710.000000	99.135561 
1709.000000	99.139736 
1708.000000	99.139079 
1707.000000	99.132229 
1706.000000	99.123874 
1705.000000	99.121031 
1704.000000	99.122177 
1703.000000	99.117175 
1702.000000	99.101894 
1701.000000	99.090430 
1700.000000	99.101604 
1699.000000	99.125773 
1698.000000	99.146184 
1697.000000	99.157080 
1696.000000	99.156926 
1695.000000	99.146673 
1694.000000	99.135631 
1693.000000	99.129575 
1692.000000	99.122802 
1691.000000	99.111319 
1690.000000	99.099366 
1689.000000	99.093602 
1688.000000	99.093691 
1687.000000	99.092556 
1686.000000	99.087768 
1685.000000	99.086894 
1684.000000	99.096533 
1683.000000	99.108506 
1682.000000	99.117521 
1681.000000	99.121813 
1680.000000	99.121653 
1679.000000	99.119625 
1678.000000	99.117960 
1677.000000	99.117056 
1676.000000	99.115396 
1675.000000	99.110274 
1674.000000	99.100447 
1673.000000	99.090592 
1672.000000	99.085888 
1671.000000	99.089727 
1670.000000	99.100774 
1669.000000	99.109789 
1668.000000	99.111343 
1667.000000	99.110052 
1666.000000	99.108749 
1665.000000	99.106357 
1664.000000	99.103172 
1663.000000	99.101606 
1662.000000	99.101123 
1661.000000	99.098593 
1660.000000	99.092693 
1659.000000	99.086078 
1658.000000	99.082453 
1657.000000	99.080788 
1656.000000	99.074748 
1655.000000	99.064308 
1654.000000	99.064942 
1653.000000	99.078154 
1652.000000	99.078104 
1651.000000	99.077189 
1650.000000	99.081053 
1649.000000	99.082349 
1648.000000	99.079504 
1647.000000	99.073936 
1646.000000	99.064536 
1645.000000	99.056208 
1644.000000	99.054991 
1643.000000	99.058027 
1642.000000	99.059401 
1641.000000	99.057789 
1640.000000	99.054929 
1639.000000	99.051220 
1638.000000	99.045891 
1637.000000	99.040323 
1636.000000	99.037506 
1635.000000	99.037198 
1634.000000	99.041027 
1633.000000	99.049597 
1632.000000	99.058850 
1631.000000	99.066974 
1630.000000	99.075066 
1629.000000	99.082405 
1628.000000	99.085328 
1627.000000	99.082539 
1626.000000	99.077158 
1625.000000	99.072769 
1624.000000	99.069874 
1623.000000	99.066972 
1622.000000	99.063713 
1621.000000	99.061744 
1620.000000	99.061462 
1619.000000	99.063213 
1618.000000	99.070437 
1617.000000	99.084014 
1616.000000	99.096038 
1615.000000	99.101544 
1614.000000	99.101890 
1613.000000	99.097253 
1612.000000	99.089147 
1611.000000	99.081272 
1610.000000	99.075930 
1609.000000	99.072228 
1608.000000	99.069001 
1607.000000	99.067486 
1606.000000	99.068601 
1605.000000	99.071415 
1604.000000	99.074884 
1603.000000	99.079322 
1602.000000	99.084709 
1601.000000	99.089185 
1600.000000	99.091655 
1599.000000	99.093945 
1598.000000	99.098269 
1597.000000	99.104435 
1596.000000	99.110766 
1595.000000	99.116346 
1594.000000	99.120959 
1593.000000	99.123716 
1592.000000	99.124119 
1591.000000	99.123647 
1590.000000	99.123976 
1589.000000	99.124116 
1588.000000	99.122230 
1587.000000	99.119535 
1586.000000	99.118854 
1585.000000	99.120226 
1584.000000	99.121667 
1583.000000	99.122415 
1582.000000	99.124648 
1581.000000	99.130343 
1580.000000	99.138668 
1579.000000	99.146775 
1578.000000	99.152318 
1577.000000	99.152711 
1576.000000	99.145001 
1575.000000	99.134690 
1574.000000	99.131090 
1573.000000	99.130896 
1572.000000	99.127392 
1571.000000	99.123344 
1570.000000	99.127702 
1569.000000	99.140503 
1568.000000	99.153370 
1567.000000	99.162135 
1566.000000	99.166951 
1565.000000	99.168995 
1564.000000	99.170025 
1563.000000	99.170654 
1562.000000	99.170256 
1561.000000	99.168903 
1560.000000	99.170620 
1559.000000	99.177345 
1558.000000	99.171761 
1557.000000	99.158197 
1556.000000	99.148898 
1555.000000	99.142519 
1554.000000	99.138450 
1553.000000	99.138420 
1552.000000	99.143324 
1551.000000	99.151630 
1550.000000	99.160915 
1549.000000	99.167717 
1548.000000	99.170774 
1547.000000	99.171789 
1546.000000	99.172043 
1545.000000	99.171913 
1544.000000	99.170659 
1543.000000	99.166643 
1542.000000	99.161422 
1541.000000	99.159176 
1540.000000	99.154879 
1539.000000	99.141012 
1538.000000	99.130985 
1537.000000	99.133663 
1536.000000	99.142110 
1535.000000	99.150541 
1534.000000	99.158884 
1533.000000	99.164978 
1532.000000	99.164331 
1531.000000	99.158176 
1530.000000	99.151940 
1529.000000	99.149124 
1528.000000	99.148712 
1527.000000	99.148703 
1526.000000	99.149009 
1525.000000	99.149841 
1524.000000	99.148437 
1523.000000	99.142326 
1522.000000	99.136198 
1521.000000	99.136944 
1520.000000	99.141424 
1519.000000	99.143444 
1518.000000	99.141654 
1517.000000	99.139396 
1516.000000	99.138795 
1515.000000	99.138929 
1514.000000	99.139714 
1513.000000	99.141404 
1512.000000	99.142871 
1511.000000	99.141862 
1510.000000	99.136237 
1509.000000	99.127516 
1508.000000	99.124025 
1507.000000	99.130738 
1506.000000	99.128522 
1505.000000	99.114166 
1504.000000	99.106033 
1503.000000	99.106204 
1502.000000	99.110875 
1501.000000	99.119587 
1500.000000	99.132273 
1499.000000	99.146431 
1498.000000	99.158626 
1497.000000	99.167901 
1496.000000	99.172379 
1495.000000	99.167759 
1494.000000	99.154017 
1493.000000	99.136200 
1492.000000	99.120198 
1491.000000	99.110855 
1490.000000	99.108490 
1489.000000	99.108301 
1488.000000	99.104843 
1487.000000	99.097514 
1486.000000	99.091853 
1485.000000	99.091681 
1484.000000	99.095494 
1483.000000	99.099779 
1482.000000	99.101853 
1481.000000	99.100793 
1480.000000	99.097190 
1479.000000	99.092527 
1478.000000	99.088883 
1477.000000	99.087801 
1476.000000	99.088248 
1475.000000	99.086211 
1474.000000	99.081163 
1473.000000	99.078540 
1472.000000	99.079923 
1471.000000	99.079543 
1470.000000	99.076247 
1469.000000	99.073643 
1468.000000	99.073912 
1467.000000	99.076887 
1466.000000	99.082705 
1465.000000	99.092130 
1464.000000	99.101338 
1463.000000	99.104953 
1462.000000	99.103335 
1461.000000	99.100555 
1460.000000	99.098572 
1459.000000	99.095756 
1458.000000	99.088728 
1457.000000	99.075691 
1456.000000	99.059102 
1455.000000	99.045011 
1454.000000	99.035398 
1453.000000	99.029552 
1452.000000	99.028011 
1451.000000	99.030619 
1450.000000	99.036477 
1449.000000	99.046348 
1448.000000	99.059444 
1447.000000	99.069339 
1446.000000	99.070703 
1445.000000	99.066763 
1444.000000	99.062669 
1443.000000	99.058928 
1442.000000	99.053492 
1441.000000	99.046249 
1440.000000	99.039170 
1439.000000	99.033425 
1438.000000	99.028843 
1437.000000	99.027057 
1436.000000	99.029314 
1435.000000	99.031578 
1434.000000	99.030973 
1433.000000	99.030464 
1432.000000	99.034966 
1431.000000	99.046202 
1430.000000	99.058231 
1429.000000	99.062425 
1428.000000	99.056708 
1427.000000	99.045462 
1426.000000	99.032941 
1425.000000	99.020703 
1424.000000	99.010020 
1423.000000	99.001353 
1422.000000	98.992161 
1421.000000	98.981541 
1420.000000	98.974680 
1419.000000	98.977247 
1418.000000	98.981576 
1417.000000	98.977216 
1416.000000	98.965906 
1415.000000	98.953345 
1414.000000	98.941394 
1413.000000	98.928432 
1412.000000	98.913718 
1411.000000	98.898632 
1410.000000	98.883700 
1409.000000	98.869894 
1408.000000	98.860636 
1407.000000	98.857704 
1406.000000	98.858063 
1405.000000	98.858680 
1404.000000	98.861863 
1403.000000	98.870275 
1402.000000	98.881370 
1401.000000	98.892794 
1400.000000	98.906978 
1399.000000	98.925925 
1398.000000	98.941829 
1397.000000	98.942440 
1396.000000	98.924318 
1395.000000	98.897875 
1394.000000	98.880182 
1393.000000	98.880782 
1392.000000	98.897857 
1391.000000	98.921370 
1390.000000	98.939533 
1389.000000	98.946526 
1388.000000	98.945489 
1387.000000	98.943265 
1386.000000	98.942106 
1385.000000	98.941566 
1384.000000	98.943529 
1383.000000	98.950072 
1382.000000	98.959882 
1381.000000	98.970363 
1380.000000	98.980256 
1379.000000	98.988312 
1378.000000	98.991681 
1377.000000	98.988686 
1376.000000	98.982968 
1375.000000	98.981940 
1374.000000	98.988792 
1373.000000	98.998047 
1372.000000	99.004399 
1371.000000	99.011038 
1370.000000	99.024932 
1369.000000	99.046320 
1368.000000	99.068260 
1367.000000	99.084692 
1366.000000	99.095375 
1365.000000	99.103200 
1364.000000	99.109538 
1363.000000	99.113862 
1362.000000	99.115480 
1361.000000	99.113747 
1360.000000	99.108732 
1359.000000	99.102780 
1358.000000	99.099963 
1357.000000	99.102386 
1356.000000	99.107983 
1355.000000	99.113377 
1354.000000	99.118247 
1353.000000	99.124534 
1352.000000	99.131114 
1351.000000	99.133672 
1350.000000	99.132072 
1349.000000	99.131003 
1348.000000	99.134908 
1347.000000	99.143479 
1346.000000	99.152980 
1345.000000	99.159417 
1344.000000	99.160372 
1343.000000	99.155717 
1342.000000	99.147965 
1341.000000	99.140623 
1340.000000	99.135324 
1339.000000	99.131164 
1338.000000	99.127637 
1337.000000	99.127294 
1336.000000	99.132960 
1335.000000	99.142904 
1334.000000	99.152000 
1333.000000	99.157827 
1332.000000	99.162837 
1331.000000	99.169579 
1330.000000	99.175665 
1329.000000	99.175457 
1328.000000	99.167066 
1327.000000	99.155292 
1326.000000	99.146559 
1325.000000	99.141487 
1324.000000	99.136632 
1323.000000	99.130810 
1322.000000	99.126433 
1321.000000	99.125545 
1320.000000	99.127840 
1319.000000	99.132375 
1318.000000	99.138469 
1317.000000	99.144736 
1316.000000	99.149148 
1315.000000	99.150916 
1314.000000	99.151000 
1313.000000	99.150168 
1312.000000	99.147341 
1311.000000	99.141102 
1310.000000	99.132594 
1309.000000	99.125374 
1308.000000	99.121849 
1307.000000	99.120354 
1306.000000	99.117441 
1305.000000	99.112418 
1304.000000	99.109540 
1303.000000	99.113729 
1302.000000	99.124650 
1301.000000	99.135998 
1300.000000	99.141022 
1299.000000	99.138055 
1298.000000	99.130807 
1297.000000	99.124183 
1296.000000	99.120028 
1295.000000	99.117064 
1294.000000	99.114067 
1293.000000	99.112006 
1292.000000	99.111835 
1291.000000	99.110728 
1290.000000	99.103472 
1289.000000	99.089130 
1288.000000	99.073893 
1287.000000	99.064711 
1286.000000	99.061484 
1285.000000	99.058873 
1284.000000	99.054705 
1283.000000	99.052358 
1282.000000	99.054877 
1281.000000	99.060760 
1280.000000	99.066457 
1279.000000	99.069408 
1278.000000	99.066821 
1277.000000	99.055400 
1276.000000	99.035267 
1275.000000	99.012204 
1274.000000	98.992671 
1273.000000	98.977866 
1272.000000	98.965517 
1271.000000	98.955914 
1270.000000	98.952287 
1269.000000	98.955449 
1268.000000	98.961685 
1267.000000	98.966558 
1266.000000	98.968188 
1265.000000	98.966531 
1264.000000	98.961368 
1263.000000	98.951725 
1262.000000	98.936503 
1261.000000	98.915842 
1260.000000	98.892732 
1259.000000	98.872487 
1258.000000	98.858357 
1257.000000	98.848487 
1256.000000	98.838988 
1255.000000	98.829465 
1254.000000	98.823385 
1253.000000	98.822966 
1252.000000	98.825923 
1251.000000	98.828331 
1250.000000	98.829191 
1249.000000	98.831042 
1248.000000	98.836755 
1247.000000	98.846001 
1246.000000	98.853561 
1245.000000	98.851225 
1244.000000	98.833645 
1243.000000	98.804653 
1242.000000	98.777271 
1241.000000	98.764647 
1240.000000	98.769083 
1239.000000	98.780018 
1238.000000	98.783947 
1237.000000	98.776778 
1236.000000	98.765509 
1235.000000	98.758085 
1234.000000	98.754135 
1233.000000	98.747587 
1232.000000	98.736231 
1231.000000	98.724265 
1230.000000	98.714857 
1229.000000	98.704589 
1228.000000	98.688269 
1227.000000	98.666647 
1226.000000	98.645504 
1225.000000	98.627554 
1224.000000	98.608897 
1223.000000	98.584524 
1222.000000	98.554948 
1221.000000	98.525795 
1220.000000	98.502198 
1219.000000	98.484973 
1218.000000	98.471338 
1217.000000	98.458028 
1216.000000	98.443591 
1215.000000	98.428271 
1214.000000	98.412214 
1213.000000	98.393956 
1212.000000	98.370578 
1211.000000	98.339064 
1210.000000	98.297837 
1209.000000	98.247617 
1208.000000	98.191088 
1207.000000	98.131720 
1206.000000	98.073021 
1205.000000	98.018998 
1204.000000	97.974330 
1203.000000	97.942378 
1202.000000	97.922417 
1201.000000	97.909752 
1200.000000	97.898908 
1199.000000	97.886185 
1198.000000	97.869539 
1197.000000	97.847320 
1196.000000	97.817092 
1195.000000	97.775085 
1194.000000	97.718117 
1193.000000	97.647685 
1192.000000	97.571412 
1191.000000	97.498498 
1190.000000	97.434178 
1189.000000	97.380650 
1188.000000	97.341585 
1187.000000	97.320386 
1186.000000	97.312780 
1185.000000	97.305949 
1184.000000	97.287735 
1183.000000	97.254367 
1182.000000	97.208505 
1181.000000	97.153448 
1180.000000	97.091415 
1179.000000	97.024180 
1178.000000	96.952225 
1177.000000	96.875468 
1176.000000	96.797495 
1175.000000	96.726206 
1174.000000	96.666466 
1173.000000	96.614083 
1172.000000	96.561296 
1171.000000	96.506799 
1170.000000	96.455927 
1169.000000	96.411404 
1168.000000	96.368652 
1167.000000	96.322225 
1166.000000	96.274576 
1165.000000	96.236525 
1164.000000	96.219519 
1163.000000	96.227497 
1162.000000	96.254751 
1161.000000	96.289946 
1160.000000	96.321405 
1159.000000	96.339807 
1158.000000	96.339078 
1157.000000	96.317255 
1156.000000	96.276726 
1155.000000	96.223218 
1154.000000	96.164540 
1153.000000	96.109150 
1152.000000	96.063119 
1151.000000	96.026654 
1150.000000	95.994957 
1149.000000	95.963927 
1148.000000	95.932762 
1147.000000	95.899099 
1146.000000	95.855327 
1145.000000	95.794674 
1144.000000	95.719665 
1143.000000	95.640124 
1142.000000	95.563236 
1141.000000	95.489589 
1140.000000	95.418211 
1139.000000	95.350344 
1138.000000	95.288056 
1137.000000	95.234104 
1136.000000	95.193212 
1135.000000	95.167445 
1134.000000	95.149138 
1133.000000	95.124616 
1132.000000	95.087063 
1131.000000	95.040366 
1130.000000	94.988161 
1129.000000	94.925061 
1128.000000	94.843229 
1127.000000	94.743889 
1126.000000	94.638072 
1125.000000	94.537993 
1124.000000	94.450594 
1123.000000	94.376970 
1122.000000	94.314639 
1121.000000	94.261519 
1120.000000	94.218804 
1119.000000	94.187352 
1118.000000	94.160739 
1117.000000	94.126384 
1116.000000	94.076050 
1115.000000	94.012215 
1114.000000	93.942081 
1113.000000	93.868232 
1112.000000	93.788113 
1111.000000	93.701169 
1110.000000	93.613903 
1109.000000	93.537231 
1108.000000	93.478366 
1107.000000	93.433984 
1106.000000	93.393267 
1105.000000	93.349612 
1104.000000	93.306101 
1103.000000	93.266567 
1102.000000	93.226455 
1101.000000	93.178705 
1100.000000	93.125689 
1099.000000	93.075558 
1098.000000	93.031362 
1097.000000	92.990003 
1096.000000	92.950262 
1095.000000	92.912206 
1094.000000	92.870006 
1093.000000	92.815990 
1092.000000	92.752242 
1091.000000	92.687549 
1090.000000	92.621536 
1089.000000	92.543629 
1088.000000	92.452065 
1087.000000	92.363403 
1086.000000	92.296757 
1085.000000	92.255993 
1084.000000	92.232517 
1083.000000	92.217440 
1082.000000	92.204768 
1081.000000	92.189059 
1080.000000	92.166349 
1079.000000	92.133980 
1078.000000	92.086690 
1077.000000	92.018216 
1076.000000	91.930139 
1075.000000	91.834194 
1074.000000	91.742396 
1073.000000	91.658784 
1072.000000	91.581884 
1071.000000	91.508333 
1070.000000	91.431595 
1069.000000	91.344966 
1068.000000	91.251064 
1067.000000	91.163108 
1066.000000	91.091758 
1065.000000	91.033304 
1064.000000	90.972156 
1063.000000	90.889799 
1062.000000	90.771051 
1061.000000	90.610813 
1060.000000	90.421350 
1059.000000	90.229655 
1058.000000	90.062128 
1057.000000	89.930585 
1056.000000	89.831202 
1055.000000	89.751727 
1054.000000	89.679900 
1053.000000	89.610764 
1052.000000	89.545925 
1051.000000	89.481366 
1050.000000	89.401102 
1049.000000	89.292700 
1048.000000	89.163462 
1047.000000	89.028134 
1046.000000	88.885747 
1045.000000	88.724326 
1044.000000	88.546611 
1043.000000	88.375238 
1042.000000	88.229109 
1041.000000	88.107109 
1040.000000	87.999963 
1039.000000	87.906722 
1038.000000	87.833358 
1037.000000	87.783703 
1036.000000	87.756448 
1035.000000	87.743404 
1034.000000	87.728220 
1033.000000	87.695596 
1032.000000	87.644513 
1031.000000	87.585496 
1030.000000	87.525474 
1029.000000	87.465304 
1028.000000	87.412028 
1027.000000	87.380244 
1026.000000	87.376273 
1025.000000	87.389953 
1024.000000	87.405218 
1023.000000	87.410761 
1022.000000	87.400622 
1021.000000	87.376074 
1020.000000	87.349514 
1019.000000	87.335636 
1018.000000	87.334805 
1017.000000	87.334143 
1016.000000	87.327383 
1015.000000	87.323316 
1014.000000	87.330732 
1013.000000	87.343958 
1012.000000	87.347852 
1011.000000	87.330872 
1010.000000	87.291708 
1009.000000	87.240064 
1008.000000	87.192116 
1007.000000	87.158925 
1006.000000	87.139570 
1005.000000	87.131811 
1004.000000	87.145121 
1003.000000	87.191508 
1002.000000	87.265608 
1001.000000	87.347541 
1000.000000	87.425630 
999.000000	 87.502672 
998.000000	 87.578598 
997.000000	 87.641262 
996.000000	 87.679025 
995.000000	 87.691903 
994.000000	 87.687206 
993.000000	 87.674447 
992.000000	 87.667199 
991.000000	 87.678904 
990.000000	 87.712226 
989.000000	 87.761408 
988.000000	 87.827346 
987.000000	 87.919429 
986.000000	 88.038951 
985.000000	 88.171665 
984.000000	 88.301534 
983.000000	 88.422855 
982.000000	 88.535397 
981.000000	 88.636787 
980.000000	 88.724065 
979.000000	 88.796034 
978.000000	 88.852655 
977.000000	 88.900432 
976.000000	 88.959207 
975.000000	 89.052109 
974.000000	 89.183579 
973.000000	 89.336067 
972.000000	 89.492721 
971.000000	 89.654249 
970.000000	 89.828306 
969.000000	 90.010746 
968.000000	 90.184881 
967.000000	 90.335309 
966.000000	 90.458283 
965.000000	 90.561697 
964.000000	 90.657522 
963.000000	 90.751305 
962.000000	 90.837942 
961.000000	 90.911193 
960.000000	 90.976402 
959.000000	 91.047692 
958.000000	 91.131972 
957.000000	 91.222373 
956.000000	 91.309540 
955.000000	 91.393517 
954.000000	 91.482115 
953.000000	 91.581964 
952.000000	 91.692115 
951.000000	 91.801843 
950.000000	 91.895175 
949.000000	 91.963846 
948.000000	 92.016133 
947.000000	 92.066770 
946.000000	 92.117804 
945.000000	 92.156457 
944.000000	 92.173036 
943.000000	 92.173310 
942.000000	 92.170418 
941.000000	 92.171331 
940.000000	 92.175574 
939.000000	 92.182553 
938.000000	 92.196473 
937.000000	 92.226762 
936.000000	 92.283605 
935.000000	 92.366911 
934.000000	 92.458877 
933.000000	 92.535388 
932.000000	 92.587834 
931.000000	 92.627148 
930.000000	 92.663291 
929.000000	 92.687935 
928.000000	 92.683372 
927.000000	 92.644750 
926.000000	 92.588622 
925.000000	 92.541463 
924.000000	 92.522658 
923.000000	 92.535367 
922.000000	 92.569345 
921.000000	 92.613453 
920.000000	 92.666721 
919.000000	 92.734901 
918.000000	 92.815736 
917.000000	 92.891916 
916.000000	 92.941225 
915.000000	 92.952449 
914.000000	 92.931936 
913.000000	 92.897253 
912.000000	 92.864345 
911.000000	 92.838387 
910.000000	 92.817632 
909.000000	 92.808088 
908.000000	 92.829881 
907.000000	 92.901314 
906.000000	 93.017484 
905.000000	 93.153385 
904.000000	 93.289719 
903.000000	 93.428057 
902.000000	 93.578175 
901.000000	 93.737368 
900.000000	 93.887183 
899.000000	 94.007775 
898.000000	 94.092622 
897.000000	 94.149950 
896.000000	 94.191389 
895.000000	 94.221202 
894.000000	 94.239387 
893.000000	 94.254539 
892.000000	 94.286703 
891.000000	 94.351964 
890.000000	 94.447624 
889.000000	 94.558380 
888.000000	 94.673435 
887.000000	 94.790124 
886.000000	 94.904676 
885.000000	 95.010253 
884.000000	 95.104519 
883.000000	 95.189575 
882.000000	 95.262276 
881.000000	 95.313209 
880.000000	 95.338968 
879.000000	 95.347994 
878.000000	 95.349082 
877.000000	 95.340431 
876.000000	 95.317699 
875.000000	 95.289839 
874.000000	 95.279069 
873.000000	 95.303967 
872.000000	 95.367022 
871.000000	 95.459058 
870.000000	 95.571249 
869.000000	 95.699587 
868.000000	 95.838576 
867.000000	 95.975031 
866.000000	 96.092376 
865.000000	 96.179965 
864.000000	 96.233664 
863.000000	 96.248853 
862.000000	 96.221261 
861.000000	 96.158136 
860.000000	 96.082579 
859.000000	 96.021853 
858.000000	 95.993891 
857.000000	 96.007604 
856.000000	 96.069504 
855.000000	 96.180461 
854.000000	 96.327082 
853.000000	 96.484868 
852.000000	 96.631489 
851.000000	 96.753053 
850.000000	 96.840300 
849.000000	 96.886325 
848.000000	 96.888915 
847.000000	 96.850630 
846.000000	 96.776615 
845.000000	 96.676642 
844.000000	 96.569302 
843.000000	 96.478369 
842.000000	 96.420788 
841.000000	 96.399294 
840.000000	 96.407537 
839.000000	 96.439248 
838.000000	 96.491185 
837.000000	 96.560017 
836.000000	 96.637540 
835.000000	 96.708199 
834.000000	 96.753765 
833.000000	 96.763937 
832.000000	 96.740829 
831.000000	 96.691040 
830.000000	 96.617507 
829.000000	 96.524661 
828.000000	 96.428342 
827.000000	 96.351153 
826.000000	 96.304839 
825.000000	 96.283568 
824.000000	 96.278344 
823.000000	 96.292298 
822.000000	 96.337355 
821.000000	 96.419462 
820.000000	 96.529508 
819.000000	 96.645266 
818.000000	 96.741867 
817.000000	 96.804268 
816.000000	 96.829813 
815.000000	 96.818071 
814.000000	 96.762075 
813.000000	 96.653057 
812.000000	 96.490316 
811.000000	 96.282295 
810.000000	 96.041753 
809.000000	 95.785579 
808.000000	 95.535391 
807.000000	 95.307574 
806.000000	 95.101018 
805.000000	 94.904156 
804.000000	 94.717019 
803.000000	 94.556465 
802.000000	 94.434552 
801.000000	 94.341388 
800.000000	 94.256353 
799.000000	 94.169215 
798.000000	 94.083917 
797.000000	 94.006363 
796.000000	 93.934683 
795.000000	 93.861736 
794.000000	 93.787759 
793.000000	 93.731230 
792.000000	 93.720390 
791.000000	 93.765112 
790.000000	 93.841244 
789.000000	 93.915281 
788.000000	 93.982162 
787.000000	 94.062891 
786.000000	 94.162875 
785.000000	 94.249295 
784.000000	 94.278566 
783.000000	 94.235120 
782.000000	 94.135287 
781.000000	 94.002924 
780.000000	 93.852772 
779.000000	 93.693532 
778.000000	 93.536992 
777.000000	 93.403544 
776.000000	 93.321782 
775.000000	 93.317755 
774.000000	 93.397833 
773.000000	 93.543654 
772.000000	 93.726616 
771.000000	 93.924623 
770.000000	 94.124993 
769.000000	 94.316599 
768.000000	 94.481115 
767.000000	 94.590932 
766.000000	 94.621453 
765.000000	 94.573072 
764.000000	 94.477660 
763.000000	 94.373787 
762.000000	 94.275705 
761.000000	 94.176511 
760.000000	 94.081642 
759.000000	 94.023423 
758.000000	 94.032811 
757.000000	 94.106727 
756.000000	 94.214786 
755.000000	 94.332500 
754.000000	 94.457689 
753.000000	 94.596490 
752.000000	 94.742089 
751.000000	 94.868998 
750.000000	 94.946135 
749.000000	 94.957442 
748.000000	 94.913054 
747.000000	 94.841196 
746.000000	 94.768180 
745.000000	 94.704946 
744.000000	 94.650367 
743.000000	 94.604468 
742.000000	 94.578744 
741.000000	 94.595092 
740.000000	 94.671850 
739.000000	 94.806472 
738.000000	 94.974454 
737.000000	 95.151252 
736.000000	 95.331685 
735.000000	 95.518668 
734.000000	 95.695425 
733.000000	 95.822714 
732.000000	 95.868587 
731.000000	 95.831996 
730.000000	 95.732849 
729.000000	 95.588015 
728.000000	 95.408863 
727.000000	 95.219017 
726.000000	 95.060172 
725.000000	 94.974134 
724.000000	 94.981219 
723.000000	 95.076274 
722.000000	 95.240720 
721.000000	 95.453378 
720.000000	 95.688410 
719.000000	 95.909350 
718.000000	 96.077499 
717.000000	 96.171577 
716.000000	 96.193143 
715.000000	 96.150263 
714.000000	 96.044248 
713.000000	 95.880960 
712.000000	 95.689716 
711.000000	 95.515416 
710.000000	 95.387893 
709.000000	 95.309740 
708.000000	 95.278795 
707.000000	 95.308801 
706.000000	 95.412730 
705.000000	 95.573201 
704.000000	 95.744765 
703.000000	 95.885920 
702.000000	 95.980117 
701.000000	 96.020997 
700.000000	 95.984463 
699.000000	 95.832336 
698.000000	 95.552205 
697.000000	 95.187884 
696.000000	 94.816990 
695.000000	 94.494791 
694.000000	 94.235353 
693.000000	 94.050497 
692.000000	 93.981018 
691.000000	 94.065422 
690.000000	 94.286292 
689.000000	 94.577417 
688.000000	 94.887174 
687.000000	 95.207704 
686.000000	 95.531847 
685.000000	 95.810838 
684.000000	 95.981104 
683.000000	 96.020002 
682.000000	 95.952612 
681.000000	 95.810643 
680.000000	 95.605468 
679.000000	 95.344901 
678.000000	 95.061393 
677.000000	 94.810903 
676.000000	 94.649104 
675.000000	 94.605100 
674.000000	 94.676952 
673.000000	 94.849098 
672.000000	 95.110105 
671.000000	 95.460348 
670.000000	 95.906847 
669.000000	 96.408738 
668.000000	 96.772634 
667.000000	 96.805673 
666.000000	 96.607314 
665.000000	 96.328540 
664.000000	 96.004203 
663.000000	 95.637108 
662.000000	 95.254935 
661.000000	 94.896649 
660.000000	 94.606772 
659.000000	 94.455119 
658.000000	 94.502219 
657.000000	 94.730926 
656.000000	 95.064740 
655.000000	 95.441936 
654.000000	 95.842461 
653.000000	 96.255922 
652.000000	 96.632574 
651.000000	 96.867402 
650.000000	 96.862540 

