4000.000000	99.080597 
3999.000000	99.083943 
3998.000000	99.084471 
3997.000000	99.082042 
3996.000000	99.077909 
3995.000000	99.073848 
3994.000000	99.071372 
3993.000000	99.071221 
3992.000000	99.073005 
3991.000000	99.075292 
3990.000000	99.076505 
3989.000000	99.076174 
3988.000000	99.075303 
3987.000000	99.075452 
3986.000000	99.077397 
3985.000000	99.080462 
3984.000000	99.082852 
3983.000000	99.082742 
3982.000000	99.079598 
3981.000000	99.074649 
3980.000000	99.069788 
3979.000000	99.066048 
3978.000000	99.063468 
3977.000000	99.062184 
3976.000000	99.063044 
3975.000000	99.066763 
3974.000000	99.072733 
3973.000000	99.078948 
3972.000000	99.083108 
3971.000000	99.083980 
3970.000000	99.081870 
3969.000000	99.078021 
3968.000000	99.073692 
3967.000000	99.069651 
3966.000000	99.066485 
3965.000000	99.064991 
3964.000000	99.065621 
3963.000000	99.067529 
3962.000000	99.068661 
3961.000000	99.067274 
3960.000000	99.063357 
3959.000000	99.058756 
3958.000000	99.055868 
3957.000000	99.056027 
3956.000000	99.058897 
3955.000000	99.062874 
3954.000000	99.066222 
3953.000000	99.067811 
3952.000000	99.067210 
3951.000000	99.064849 
3950.000000	99.062028 
3949.000000	99.060508 
3948.000000	99.061255 
3947.000000	99.063583 
3946.000000	99.066042 
3945.000000	99.067819 
3944.000000	99.068942 
3943.000000	99.069230 
3942.000000	99.068191 
3941.000000	99.065920 
3940.000000	99.063161 
3939.000000	99.060427 
3938.000000	99.057492 
3937.000000	99.054087 
3936.000000	99.051048 
3935.000000	99.050124 
3934.000000	99.052959 
3933.000000	99.059689 
3932.000000	99.068197 
3931.000000	99.074684 
3930.000000	99.075976 
3929.000000	99.072075 
3928.000000	99.066057 
3927.000000	99.061550 
3926.000000	99.060366 
3925.000000	99.061605 
3924.000000	99.062920 
3923.000000	99.062815 
3922.000000	99.061394 
3921.000000	99.059847 
3920.000000	99.059400 
3919.000000	99.060702 
3918.000000	99.063661 
3917.000000	99.067470 
3916.000000	99.071091 
3915.000000	99.073919 
3914.000000	99.076264 
3913.000000	99.078859 
3912.000000	99.081869 
3911.000000	99.084768 
3910.000000	99.086779 
3909.000000	99.087500 
3908.000000	99.087069 
3907.000000	99.085233 
3906.000000	99.081162 
3905.000000	99.073930 
3904.000000	99.063626 
3903.000000	99.052428 
3902.000000	99.043670 
3901.000000	99.039809 
3900.000000	99.041275 
3899.000000	99.046466 
3898.000000	99.053262 
3897.000000	99.059947 
3896.000000	99.064891 
3895.000000	99.066668 
3894.000000	99.064707 
3893.000000	99.059919 
3892.000000	99.054422 
3891.000000	99.050212 
3890.000000	99.048330 
3889.000000	99.048728 
3888.000000	99.051147 
3887.000000	99.055305 
3886.000000	99.059907 
3885.000000	99.062219 
3884.000000	99.059876 
3883.000000	99.053041 
3882.000000	99.044949 
3881.000000	99.040008 
3880.000000	99.040328 
3879.000000	99.043753 
3878.000000	99.047119 
3877.000000	99.050032 
3876.000000	99.054478 
3875.000000	99.060780 
3874.000000	99.065408 
3873.000000	99.064398 
3872.000000	99.058367 
3871.000000	99.052307 
3870.000000	99.050544 
3869.000000	99.052999 
3868.000000	99.056325 
3867.000000	99.058055 
3866.000000	99.058928 
3865.000000	99.060851 
3864.000000	99.063445 
3863.000000	99.063995 
3862.000000	99.061115 
3861.000000	99.057486 
3860.000000	99.057152 
3859.000000	99.060680 
3858.000000	99.064143 
3857.000000	99.062445 
3856.000000	99.053848 
3855.000000	99.042938 
3854.000000	99.037596 
3853.000000	99.040913 
3852.000000	99.049032 
3851.000000	99.057014 
3850.000000	99.062620 
3849.000000	99.066443 
3848.000000	99.069528 
3847.000000	99.071890 
3846.000000	99.072604 
3845.000000	99.071533 
3844.000000	99.070403 
3843.000000	99.070895 
3842.000000	99.072177 
3841.000000	99.071843 
3840.000000	99.068452 
3839.000000	99.062947 
3838.000000	99.057754 
3837.000000	99.054408 
3836.000000	99.053147 
3835.000000	99.054204 
3834.000000	99.058481 
3833.000000	99.066549 
3832.000000	99.076877 
3831.000000	99.085710 
3830.000000	99.089483 
3829.000000	99.087354 
3828.000000	99.082008 
3827.000000	99.077646 
3826.000000	99.076420 
3825.000000	99.077195 
3824.000000	99.077659 
3823.000000	99.077351 
3822.000000	99.077743 
3821.000000	99.079162 
3820.000000	99.080274 
3819.000000	99.080156 
3818.000000	99.079129 
3817.000000	99.078435 
3816.000000	99.078173 
3815.000000	99.076269 
3814.000000	99.071456 
3813.000000	99.065732 
3812.000000	99.062632 
3811.000000	99.063832 
3810.000000	99.067564 
3809.000000	99.070918 
3808.000000	99.073404 
3807.000000	99.076720 
3806.000000	99.081143 
3805.000000	99.084383 
3804.000000	99.084656 
3803.000000	99.083552 
3802.000000	99.083879 
3801.000000	99.085379 
3800.000000	99.085195 
3799.000000	99.081562 
3798.000000	99.075668 
3797.000000	99.070456 
3796.000000	99.067485 
3795.000000	99.065504 
3794.000000	99.062446 
3793.000000	99.058074 
3792.000000	99.054231 
3791.000000	99.052869 
3790.000000	99.053964 
3789.000000	99.055625 
3788.000000	99.055965 
3787.000000	99.054583 
3786.000000	99.052719 
3785.000000	99.052037 
3784.000000	99.053063 
3783.000000	99.054699 
3782.000000	99.055404 
3781.000000	99.054924 
3780.000000	99.054504 
3779.000000	99.055227 
3778.000000	99.056623 
3777.000000	99.057347 
3776.000000	99.056743 
3775.000000	99.055435 
3774.000000	99.054523 
3773.000000	99.054704 
3772.000000	99.056285 
3771.000000	99.058905 
3770.000000	99.060918 
3769.000000	99.060343 
3768.000000	99.056941 
3767.000000	99.052803 
3766.000000	99.050670 
3765.000000	99.051357 
3764.000000	99.053097 
3763.000000	99.053639 
3762.000000	99.052787 
3761.000000	99.052437 
3760.000000	99.054120 
3759.000000	99.057521 
3758.000000	99.061401 
3757.000000	99.065401 
3756.000000	99.070044 
3755.000000	99.075212 
3754.000000	99.079771 
3753.000000	99.082561 
3752.000000	99.083118 
3751.000000	99.081473 
3750.000000	99.078486 
3749.000000	99.075744 
3748.000000	99.073767 
3747.000000	99.071831 
3746.000000	99.069656 
3745.000000	99.067514 
3744.000000	99.065957 
3743.000000	99.064878 
3742.000000	99.063023 
3741.000000	99.059402 
3740.000000	99.054295 
3739.000000	99.049064 
3738.000000	99.045259 
3737.000000	99.043053 
3736.000000	99.040694 
3735.000000	99.035968 
3734.000000	99.029240 
3733.000000	99.024198 
3732.000000	99.024645 
3731.000000	99.030678 
3730.000000	99.038635 
3729.000000	99.044865 
3728.000000	99.048515 
3727.000000	99.050315 
3726.000000	99.050296 
3725.000000	99.047994 
3724.000000	99.044512 
3723.000000	99.042381 
3722.000000	99.042860 
3721.000000	99.044425 
3720.000000	99.043954 
3719.000000	99.040106 
3718.000000	99.034443 
3717.000000	99.029055 
3716.000000	99.024285 
3715.000000	99.019002 
3714.000000	99.013258 
3713.000000	99.009469 
3712.000000	99.009235 
3711.000000	99.010205 
3710.000000	99.008073 
3709.000000	99.000536 
3708.000000	98.988448 
3707.000000	98.974388 
3706.000000	98.961201 
3705.000000	98.950974 
3704.000000	98.944095 
3703.000000	98.938762 
3702.000000	98.931548 
3701.000000	98.919913 
3700.000000	98.904224 
3699.000000	98.887163 
3698.000000	98.871923 
3697.000000	98.860572 
3696.000000	98.853154 
3695.000000	98.848299 
3694.000000	98.844650 
3693.000000	98.841587 
3692.000000	98.838419 
3691.000000	98.833519 
3690.000000	98.825439 
3689.000000	98.815588 
3688.000000	98.807616 
3687.000000	98.802673 
3686.000000	98.798975 
3685.000000	98.795786 
3684.000000	98.794653 
3683.000000	98.797200 
3682.000000	98.802218 
3681.000000	98.805083 
3680.000000	98.800284 
3679.000000	98.784874 
3678.000000	98.761687 
3677.000000	98.740716 
3676.000000	98.733358 
3675.000000	98.740314 
3674.000000	98.749915 
3673.000000	98.751287 
3672.000000	98.743286 
3671.000000	98.733284 
3670.000000	98.728229 
3669.000000	98.727616 
3668.000000	98.727262 
3667.000000	98.725714 
3666.000000	98.724409 
3665.000000	98.724035 
3664.000000	98.722922 
3663.000000	98.719368 
3662.000000	98.713718 
3661.000000	98.707335 
3660.000000	98.700997 
3659.000000	98.695343 
3658.000000	98.692593 
3657.000000	98.695132 
3656.000000	98.701639 
3655.000000	98.707200 
3654.000000	98.707971 
3653.000000	98.704449 
3652.000000	98.700020 
3651.000000	98.697273 
3650.000000	98.695301 
3649.000000	98.692330 
3648.000000	98.690151 
3647.000000	98.691295 
3646.000000	98.695014 
3645.000000	98.699165 
3644.000000	98.703189 
3643.000000	98.708262 
3642.000000	98.715346 
3641.000000	98.723542 
3640.000000	98.730686 
3639.000000	98.734788 
3638.000000	98.735107 
3637.000000	98.732452 
3636.000000	98.728548 
3635.000000	98.724441 
3634.000000	98.719074 
3633.000000	98.710536 
3632.000000	98.699400 
3631.000000	98.690578 
3630.000000	98.690292 
3629.000000	98.697585 
3628.000000	98.703100 
3627.000000	98.701268 
3626.000000	98.695250 
3625.000000	98.690518 
3624.000000	98.689111 
3623.000000	98.689250 
3622.000000	98.689160 
3621.000000	98.690552 
3620.000000	98.696662 
3619.000000	98.706818 
3618.000000	98.716028 
3617.000000	98.720994 
3616.000000	98.723801 
3615.000000	98.728981 
3614.000000	98.737731 
3613.000000	98.746053 
3612.000000	98.749401 
3611.000000	98.748139 
3610.000000	98.747233 
3609.000000	98.750659 
3608.000000	98.757278 
3607.000000	98.763572 
3606.000000	98.768735 
3605.000000	98.774880 
3604.000000	98.783484 
3603.000000	98.793488 
3602.000000	98.802666 
3601.000000	98.809818 
3600.000000	98.814701 
3599.000000	98.816827 
3598.000000	98.815884 
3597.000000	98.812951 
3596.000000	98.810955 
3595.000000	98.812957 
3594.000000	98.819277 
3593.000000	98.827131 
3592.000000	98.832874 
3591.000000	98.834453 
3590.000000	98.832989 
3589.000000	98.831848 
3588.000000	98.833180 
3587.000000	98.835001 
3586.000000	98.834102 
3585.000000	98.830861 
3584.000000	98.829102 
3583.000000	98.831553 
3582.000000	98.837076 
3581.000000	98.841956 
3580.000000	98.843527 
3579.000000	98.841952 
3578.000000	98.838718 
3577.000000	98.835021 
3576.000000	98.831830 
3575.000000	98.830513 
3574.000000	98.831847 
3573.000000	98.834703 
3572.000000	98.836774 
3571.000000	98.836533 
3570.000000	98.834061 
3569.000000	98.830708 
3568.000000	98.828187 
3567.000000	98.827368 
3566.000000	98.827809 
3565.000000	98.828763 
3564.000000	98.830513 
3563.000000	98.834292 
3562.000000	98.840349 
3561.000000	98.846416 
3560.000000	98.849061 
3559.000000	98.846970 
3558.000000	98.842418 
3557.000000	98.839047 
3556.000000	98.838533 
3555.000000	98.839712 
3554.000000	98.840571 
3553.000000	98.840113 
3552.000000	98.838483 
3551.000000	98.835966 
3550.000000	98.832343 
3549.000000	98.827541 
3548.000000	98.822758 
3547.000000	98.820029 
3546.000000	98.820298 
3545.000000	98.821882 
3544.000000	98.822045 
3543.000000	98.820216 
3542.000000	98.818821 
3541.000000	98.820646 
3540.000000	98.826038 
3539.000000	98.832602 
3538.000000	98.837478 
3537.000000	98.839476 
3536.000000	98.839379 
3535.000000	98.838448 
3534.000000	98.837153 
3533.000000	98.835572 
3532.000000	98.834426 
3531.000000	98.835079 
3530.000000	98.837885 
3529.000000	98.841048 
3528.000000	98.842068 
3527.000000	98.840521 
3526.000000	98.838517 
3525.000000	98.838110 
3524.000000	98.838878 
3523.000000	98.838582 
3522.000000	98.835973 
3521.000000	98.832175 
3520.000000	98.829620 
3519.000000	98.829993 
3518.000000	98.833125 
3517.000000	98.837069 
3516.000000	98.839238 
3515.000000	98.838050 
3514.000000	98.833906 
3513.000000	98.828677 
3512.000000	98.824207 
3511.000000	98.821285 
3510.000000	98.819789 
3509.000000	98.819505 
3508.000000	98.820699 
3507.000000	98.823957 
3506.000000	98.829361 
3505.000000	98.835357 
3504.000000	98.838839 
3503.000000	98.837642 
3502.000000	98.833500 
3501.000000	98.831354 
3500.000000	98.834630 
3499.000000	98.841506 
3498.000000	98.846321 
3497.000000	98.844817 
3496.000000	98.837869 
3495.000000	98.830066 
3494.000000	98.825310 
3493.000000	98.824141 
3492.000000	98.824740 
3491.000000	98.825453 
3490.000000	98.826252 
3489.000000	98.828248 
3488.000000	98.832034 
3487.000000	98.836509 
3486.000000	98.839497 
3485.000000	98.839605 
3484.000000	98.837242 
3483.000000	98.833788 
3482.000000	98.830104 
3481.000000	98.826329 
3480.000000	98.822809 
3479.000000	98.820242 
3478.000000	98.818608 
3477.000000	98.816946 
3476.000000	98.814983 
3475.000000	98.814482 
3474.000000	98.817600 
3473.000000	98.823609 
3472.000000	98.828558 
3471.000000	98.829170 
3470.000000	98.826527 
3469.000000	98.824858 
3468.000000	98.826791 
3467.000000	98.830754 
3466.000000	98.833361 
3465.000000	98.833244 
3464.000000	98.831804 
3463.000000	98.830963 
3462.000000	98.831329 
3461.000000	98.832604 
3460.000000	98.834629 
3459.000000	98.837266 
3458.000000	98.839582 
3457.000000	98.839844 
3456.000000	98.836862 
3455.000000	98.831319 
3454.000000	98.825638 
3453.000000	98.822318 
3452.000000	98.822159 
3451.000000	98.824044 
3450.000000	98.826175 
3449.000000	98.827383 
3448.000000	98.827257 
3447.000000	98.825603 
3446.000000	98.822341 
3445.000000	98.818046 
3444.000000	98.814130 
3443.000000	98.812005 
3442.000000	98.812007 
3441.000000	98.813205 
3440.000000	98.814218 
3439.000000	98.813891 
3438.000000	98.811360 
3437.000000	98.806217 
3436.000000	98.799338 
3435.000000	98.793192 
3434.000000	98.790571 
3433.000000	98.792576 
3432.000000	98.797801 
3431.000000	98.803615 
3430.000000	98.808093 
3429.000000	98.810986 
3428.000000	98.813109 
3427.000000	98.814771 
3426.000000	98.814800 
3425.000000	98.811479 
3424.000000	98.804817 
3423.000000	98.797544 
3422.000000	98.793128 
3421.000000	98.792780 
3420.000000	98.794950 
3419.000000	98.797531 
3418.000000	98.799592 
3417.000000	98.800883 
3416.000000	98.800920 
3415.000000	98.799525 
3414.000000	98.797729 
3413.000000	98.797169 
3412.000000	98.798501 
3411.000000	98.800837 
3410.000000	98.802639 
3409.000000	98.802663 
3408.000000	98.800162 
3407.000000	98.794946 
3406.000000	98.787902 
3405.000000	98.781211 
3404.000000	98.777386 
3403.000000	98.777485 
3402.000000	98.780228 
3401.000000	98.783229 
3400.000000	98.785277 
3399.000000	98.787233 
3398.000000	98.790566 
3397.000000	98.795226 
3396.000000	98.799206 
3395.000000	98.800030 
3394.000000	98.796412 
3393.000000	98.788913 
3392.000000	98.779889 
3391.000000	98.772883 
3390.000000	98.771166 
3389.000000	98.775742 
3388.000000	98.784431 
3387.000000	98.793234 
3386.000000	98.799121 
3385.000000	98.801861 
3384.000000	98.803303 
3383.000000	98.804962 
3382.000000	98.806376 
3381.000000	98.805901 
3380.000000	98.802949 
3379.000000	98.799140 
3378.000000	98.796849 
3377.000000	98.796783 
3376.000000	98.797530 
3375.000000	98.797615 
3374.000000	98.797397 
3373.000000	98.798466 
3372.000000	98.801487 
3371.000000	98.805199 
3370.000000	98.807489 
3369.000000	98.807010 
3368.000000	98.803990 
3367.000000	98.800139 
3366.000000	98.797791 
3365.000000	98.798258 
3364.000000	98.800505 
3363.000000	98.801912 
3362.000000	98.800804 
3361.000000	98.797918 
3360.000000	98.795030 
3359.000000	98.792797 
3358.000000	98.790824 
3357.000000	98.789508 
3356.000000	98.790391 
3355.000000	98.793972 
3354.000000	98.798005 
3353.000000	98.799131 
3352.000000	98.796239 
3351.000000	98.791771 
3350.000000	98.789614 
3349.000000	98.791936 
3348.000000	98.797805 
3347.000000	98.804067 
3346.000000	98.807422 
3345.000000	98.806411 
3344.000000	98.802300 
3343.000000	98.798088 
3342.000000	98.795977 
3341.000000	98.795544 
3340.000000	98.794531 
3339.000000	98.791578 
3338.000000	98.787977 
3337.000000	98.786435 
3336.000000	98.788271 
3335.000000	98.792235 
3334.000000	98.796169 
3333.000000	98.799239 
3332.000000	98.802023 
3331.000000	98.804746 
3330.000000	98.806351 
3329.000000	98.805767 
3328.000000	98.803565 
3327.000000	98.801539 
3326.000000	98.800676 
3325.000000	98.800122 
3324.000000	98.798341 
3323.000000	98.795018 
3322.000000	98.791603 
3321.000000	98.790215 
3320.000000	98.792048 
3319.000000	98.796428 
3318.000000	98.801097 
3317.000000	98.803606 
3316.000000	98.802906 
3315.000000	98.799991 
3314.000000	98.797246 
3313.000000	98.797048 
3312.000000	98.800409 
3311.000000	98.806252 
3310.000000	98.811928 
3309.000000	98.815037 
3308.000000	98.815172 
3307.000000	98.813854 
3306.000000	98.812816 
3305.000000	98.812723 
3304.000000	98.813526 
3303.000000	98.815143 
3302.000000	98.817073 
3301.000000	98.817754 
3300.000000	98.815373 
3299.000000	98.809844 
3298.000000	98.803631 
3297.000000	98.800125 
3296.000000	98.800848 
3295.000000	98.804170 
3294.000000	98.806836 
3293.000000	98.806939 
3292.000000	98.805461 
3291.000000	98.804755 
3290.000000	98.805667 
3289.000000	98.806682 
3288.000000	98.805974 
3287.000000	98.803607 
3286.000000	98.801222 
3285.000000	98.800021 
3284.000000	98.799760 
3283.000000	98.799590 
3282.000000	98.799259 
3281.000000	98.799397 
3280.000000	98.801039 
3279.000000	98.804851 
3278.000000	98.810291 
3277.000000	98.815367 
3276.000000	98.817638 
3275.000000	98.815929 
3274.000000	98.811208 
3273.000000	98.805816 
3272.000000	98.801859 
3271.000000	98.800014 
3270.000000	98.799491 
3269.000000	98.799085 
3268.000000	98.798397 
3267.000000	98.797941 
3266.000000	98.798051 
3265.000000	98.798269 
3264.000000	98.798296 
3263.000000	98.799145 
3262.000000	98.802390 
3261.000000	98.808053 
3260.000000	98.813890 
3259.000000	98.817148 
3258.000000	98.816754 
3257.000000	98.813601 
3256.000000	98.809123 
3255.000000	98.804090 
3254.000000	98.798818 
3253.000000	98.794135 
3252.000000	98.791686 
3251.000000	98.792879 
3250.000000	98.797372 
3249.000000	98.802898 
3248.000000	98.806901 
3247.000000	98.808368 
3246.000000	98.807971 
3245.000000	98.806809 
3244.000000	98.805437 
3243.000000	98.803939 
3242.000000	98.802275 
3241.000000	98.800464 
3240.000000	98.798961 
3239.000000	98.799088 
3238.000000	98.802513 
3237.000000	98.809718 
3236.000000	98.818923 
3235.000000	98.826851 
3234.000000	98.830862 
3233.000000	98.830665 
3232.000000	98.828227 
3231.000000	98.826009 
3230.000000	98.825003 
3229.000000	98.824295 
3228.000000	98.822371 
3227.000000	98.818679 
3226.000000	98.813950 
3225.000000	98.809483 
3224.000000	98.806447 
3223.000000	98.805511 
3222.000000	98.806521 
3221.000000	98.808505 
3220.000000	98.810326 
3219.000000	98.811389 
3218.000000	98.811627 
3217.000000	98.811239 
3216.000000	98.810933 
3215.000000	98.812023 
3214.000000	98.815397 
3213.000000	98.820138 
3212.000000	98.823762 
3211.000000	98.824139 
3210.000000	98.821107 
3209.000000	98.816411 
3208.000000	98.812476 
3207.000000	98.810964 
3206.000000	98.811793 
3205.000000	98.813338 
3204.000000	98.814032 
3203.000000	98.813809 
3202.000000	98.813675 
3201.000000	98.814127 
3200.000000	98.814733 
3199.000000	98.815117 
3198.000000	98.815462 
3197.000000	98.815951 
3196.000000	98.816658 
3195.000000	98.818198 
3194.000000	98.821354 
3193.000000	98.825395 
3192.000000	98.827680 
3191.000000	98.825943 
3190.000000	98.820701 
3189.000000	98.814789 
3188.000000	98.810905 
3187.000000	98.810112 
3186.000000	98.812047 
3185.000000	98.815426 
3184.000000	98.818396 
3183.000000	98.819441 
3182.000000	98.818623 
3181.000000	98.817732 
3180.000000	98.818911 
3179.000000	98.822873 
3178.000000	98.828105 
3177.000000	98.831815 
3176.000000	98.832252 
3175.000000	98.830499 
3174.000000	98.829566 
3173.000000	98.831161 
3172.000000	98.833618 
3171.000000	98.833666 
3170.000000	98.830194 
3169.000000	98.825587 
3168.000000	98.823220 
3167.000000	98.824182 
3166.000000	98.826673 
3165.000000	98.828140 
3164.000000	98.827597 
3163.000000	98.826060 
3162.000000	98.825220 
3161.000000	98.825947 
3160.000000	98.827948 
3159.000000	98.830442 
3158.000000	98.832707 
3157.000000	98.834044 
3156.000000	98.833803 
3155.000000	98.831778 
3154.000000	98.828307 
3153.000000	98.823750 
3152.000000	98.818320 
3151.000000	98.812854 
3150.000000	98.809310 
3149.000000	98.809621 
3148.000000	98.813854 
3147.000000	98.819912 
3146.000000	98.825239 
3145.000000	98.828597 
3144.000000	98.830287 
3143.000000	98.831161 
3142.000000	98.831788 
3141.000000	98.832301 
3140.000000	98.832560 
3139.000000	98.832294 
3138.000000	98.831275 
3137.000000	98.829674 
3136.000000	98.828399 
3135.000000	98.828851 
3134.000000	98.831837 
3133.000000	98.836484 
3132.000000	98.840606 
3131.000000	98.842652 
3130.000000	98.843284 
3129.000000	98.844689 
3128.000000	98.848322 
3127.000000	98.853470 
3126.000000	98.857883 
3125.000000	98.859472 
3124.000000	98.857522 
3123.000000	98.852883 
3122.000000	98.847391 
3121.000000	98.842901 
3120.000000	98.840398 
3119.000000	98.839747 
3118.000000	98.840175 
3117.000000	98.841038 
3116.000000	98.842240 
3115.000000	98.843970 
3114.000000	98.845974 
3113.000000	98.847156 
3112.000000	98.846309 
3111.000000	98.843546 
3110.000000	98.840716 
3109.000000	98.839914 
3108.000000	98.841478 
3107.000000	98.843761 
3106.000000	98.844865 
3105.000000	98.844338 
3104.000000	98.843212 
3103.000000	98.842867 
3102.000000	98.844023 
3101.000000	98.846443 
3100.000000	98.849271 
3099.000000	98.851715 
3098.000000	98.853568 
3097.000000	98.854985 
3096.000000	98.855728 
3095.000000	98.855025 
3094.000000	98.852492 
3093.000000	98.848962 
3092.000000	98.845927 
3091.000000	98.844245 
3090.000000	98.843722 
3089.000000	98.843882 
3088.000000	98.844560 
3087.000000	98.845648 
3086.000000	98.846835 
3085.000000	98.847953 
3084.000000	98.849099 
3083.000000	98.849993 
3082.000000	98.849677 
3081.000000	98.847629 
3080.000000	98.845087 
3079.000000	98.844464 
3078.000000	98.847152 
3077.000000	98.852188 
3076.000000	98.857193 
3075.000000	98.860295 
3074.000000	98.861142 
3073.000000	98.860612 
3072.000000	98.859816 
3071.000000	98.859016 
3070.000000	98.857223 
3069.000000	98.853194 
3068.000000	98.847260 
3067.000000	98.842030 
3066.000000	98.840803 
3065.000000	98.844955 
3064.000000	98.852554 
3063.000000	98.859340 
3062.000000	98.861327 
3061.000000	98.857312 
3060.000000	98.849643 
3059.000000	98.842563 
3058.000000	98.839456 
3057.000000	98.841191 
3056.000000	98.846369 
3055.000000	98.852490 
3054.000000	98.857010 
3053.000000	98.858215 
3052.000000	98.855812 
3051.000000	98.850762 
3050.000000	98.844616 
3049.000000	98.839191 
3048.000000	98.836239 
3047.000000	98.836153 
3046.000000	98.836744 
3045.000000	98.834573 
3044.000000	98.828527 
3043.000000	98.821499 
3042.000000	98.817528 
3041.000000	98.817560 
3040.000000	98.818700 
3039.000000	98.817229 
3038.000000	98.811430 
3037.000000	98.801858 
3036.000000	98.790267 
3035.000000	98.778731 
3034.000000	98.768797 
3033.000000	98.760524 
3032.000000	98.752386 
3031.000000	98.742537 
3030.000000	98.730339 
3029.000000	98.716823 
3028.000000	98.703953 
3027.000000	98.693338 
3026.000000	98.684979 
3025.000000	98.676910 
3024.000000	98.666374 
3023.000000	98.651889 
3022.000000	98.634284 
3021.000000	98.615606 
3020.000000	98.597063 
3019.000000	98.578152 
3018.000000	98.557828 
3017.000000	98.536257 
3016.000000	98.514965 
3015.000000	98.495154 
3014.000000	98.476465 
3013.000000	98.457934 
3012.000000	98.439737 
3011.000000	98.423017 
3010.000000	98.407961 
3009.000000	98.393016 
3008.000000	98.376425 
3007.000000	98.357887 
3006.000000	98.338351 
3005.000000	98.318697 
3004.000000	98.298997 
3003.000000	98.278542 
3002.000000	98.256316 
3001.000000	98.232080 
3000.000000	98.207342 
2999.000000	98.184634 
2998.000000	98.165510 
2997.000000	98.149953 
2996.000000	98.137572 
2995.000000	98.127381 
2994.000000	98.115218 
2993.000000	98.093596 
2992.000000	98.057559 
2991.000000	98.011429 
2990.000000	97.968020 
2989.000000	97.940031 
2988.000000	97.932218 
2987.000000	97.940933 
2986.000000	97.958740 
2985.000000	97.978451 
2984.000000	97.994574 
2983.000000	98.003842 
2982.000000	98.005731 
2981.000000	98.002425 
2980.000000	97.997792 
2979.000000	97.995461 
2978.000000	97.996605 
2977.000000	97.998984 
2976.000000	97.998629 
2975.000000	97.993232 
2974.000000	97.984248 
2973.000000	97.975939 
2972.000000	97.972563 
2971.000000	97.976079 
2970.000000	97.985690 
2969.000000	97.999086 
2968.000000	98.014268 
2967.000000	98.030453 
2966.000000	98.047454 
2965.000000	98.064778 
2964.000000	98.081790 
2963.000000	98.098266 
2962.000000	98.114029 
2961.000000	98.128214 
2960.000000	98.139761 
2959.000000	98.148754 
2958.000000	98.156597 
2957.000000	98.164669 
2956.000000	98.173274 
2955.000000	98.182060 
2954.000000	98.190977 
2953.000000	98.200645 
2952.000000	98.212026 
2951.000000	98.225614 
2950.000000	98.240481 
2949.000000	98.254176 
2948.000000	98.264047 
2947.000000	98.268929 
2946.000000	98.269732 
2945.000000	98.268916 
2944.000000	98.269565 
2943.000000	98.273841 
2942.000000	98.281094 
2941.000000	98.287866 
2940.000000	98.291081 
2939.000000	98.291420 
2938.000000	98.292580 
2937.000000	98.297213 
2936.000000	98.304573 
2935.000000	98.312066 
2934.000000	98.317680 
2933.000000	98.320434 
2932.000000	98.319939 
2931.000000	98.316728 
2930.000000	98.312540 
2929.000000	98.309329 
2928.000000	98.307767 
2927.000000	98.306725 
2926.000000	98.303962 
2925.000000	98.297680 
2924.000000	98.288290 
2923.000000	98.278748 
2922.000000	98.272255 
2921.000000	98.269270 
2920.000000	98.267363 
2919.000000	98.263956 
2918.000000	98.258363 
2917.000000	98.251118 
2916.000000	98.242534 
2915.000000	98.232600 
2914.000000	98.221577 
2913.000000	98.210120 
2912.000000	98.199353 
2911.000000	98.190967 
2910.000000	98.186354 
2909.000000	98.185087 
2908.000000	98.184828 
2907.000000	98.183062 
2906.000000	98.178096 
2905.000000	98.168187 
2904.000000	98.151730 
2903.000000	98.130231 
2902.000000	98.111379 
2901.000000	98.105706 
2900.000000	98.118900 
2899.000000	98.146590 
2898.000000	98.176710 
2897.000000	98.197884 
2896.000000	98.206375 
2895.000000	98.206692 
2894.000000	98.206495 
2893.000000	98.210780 
2892.000000	98.219762 
2891.000000	98.230488 
2890.000000	98.239497 
2889.000000	98.244590 
2888.000000	98.245712 
2887.000000	98.245077 
2886.000000	98.245984 
2885.000000	98.250738 
2884.000000	98.259591 
2883.000000	98.271622 
2882.000000	98.286164 
2881.000000	98.303004 
2880.000000	98.321488 
2879.000000	98.339970 
2878.000000	98.356405 
2877.000000	98.369613 
2876.000000	98.380129 
2875.000000	98.389705 
2874.000000	98.399671 
2873.000000	98.409684 
2872.000000	98.418276 
2871.000000	98.424553 
2870.000000	98.429214 
2869.000000	98.434283 
2868.000000	98.442215 
2867.000000	98.454732 
2866.000000	98.471445 
2865.000000	98.489534 
2864.000000	98.505707 
2863.000000	98.518879 
2862.000000	98.530513 
2861.000000	98.542492 
2860.000000	98.555545 
2859.000000	98.569751 
2858.000000	98.585108 
2857.000000	98.600806 
2856.000000	98.614956 
2855.000000	98.626123 
2854.000000	98.634811 
2853.000000	98.642788 
2852.000000	98.651372 
2851.000000	98.660926 
2850.000000	98.671381 
2849.000000	98.682241 
2848.000000	98.692274 
2847.000000	98.700186 
2846.000000	98.705796 
2845.000000	98.709990 
2844.000000	98.713460 
2843.000000	98.716171 
2842.000000	98.718311 
2841.000000	98.721197 
2840.000000	98.726596 
2839.000000	98.735043 
2838.000000	98.745006 
2837.000000	98.753799 
2836.000000	98.759482 
2835.000000	98.762148 
2834.000000	98.763574 
2833.000000	98.765633 
2832.000000	98.768849 
2831.000000	98.772225 
2830.000000	98.774311 
2829.000000	98.774534 
2828.000000	98.773770 
2827.000000	98.773704 
2826.000000	98.775560 
2825.000000	98.779321 
2824.000000	98.784044 
2823.000000	98.788601 
2822.000000	98.792021 
2821.000000	98.793676 
2820.000000	98.793760 
2819.000000	98.793534 
2818.000000	98.794473 
2817.000000	98.797024 
2816.000000	98.800503 
2815.000000	98.804081 
2814.000000	98.807201 
2813.000000	98.809103 
2812.000000	98.809072 
2811.000000	98.807795 
2810.000000	98.807674 
2809.000000	98.810641 
2808.000000	98.815751 
2807.000000	98.819795 
2806.000000	98.820425 
2805.000000	98.818126 
2804.000000	98.815166 
2803.000000	98.813438 
2802.000000	98.813615 
2801.000000	98.815529 
2800.000000	98.818442 
2799.000000	98.821104 
2798.000000	98.822294 
2797.000000	98.821572 
2796.000000	98.819407 
2795.000000	98.816751 
2794.000000	98.814756 
2793.000000	98.814484 
2792.000000	98.816091 
2791.000000	98.818342 
2790.000000	98.819789 
2789.000000	98.820739 
2788.000000	98.823177 
2787.000000	98.828117 
2786.000000	98.833659 
2785.000000	98.836537 
2784.000000	98.835357 
2783.000000	98.831614 
2782.000000	98.827913 
2781.000000	98.826073 
2780.000000	98.826731 
2779.000000	98.829559 
2778.000000	98.833386 
2777.000000	98.836895 
2776.000000	98.839628 
2775.000000	98.841909 
2774.000000	98.843668 
2773.000000	98.844183 
2772.000000	98.843358 
2771.000000	98.842477 
2770.000000	98.843038 
2769.000000	98.845238 
2768.000000	98.848112 
2767.000000	98.850746 
2766.000000	98.852792 
2765.000000	98.854068 
2764.000000	98.854234 
2763.000000	98.852909 
2762.000000	98.849964 
2761.000000	98.845943 
2760.000000	98.842283 
2759.000000	98.840693 
2758.000000	98.842001 
2757.000000	98.845747 
2756.000000	98.850663 
2755.000000	98.854935 
2754.000000	98.856256 
2753.000000	98.853143 
2752.000000	98.847061 
2751.000000	98.842299 
2750.000000	98.842488 
2749.000000	98.847274 
2748.000000	98.853001 
2747.000000	98.856369 
2746.000000	98.856802 
2745.000000	98.855667 
2744.000000	98.854235 
2743.000000	98.852787 
2742.000000	98.851281 
2741.000000	98.850355 
2740.000000	98.851177 
2739.000000	98.854010 
2738.000000	98.857364 
2737.000000	98.859419 
2736.000000	98.860159 
2735.000000	98.861015 
2734.000000	98.862363 
2733.000000	98.862770 
2732.000000	98.861327 
2731.000000	98.859272 
2730.000000	98.858289 
2729.000000	98.858373 
2728.000000	98.858688 
2727.000000	98.859475 
2726.000000	98.861415 
2725.000000	98.863672 
2724.000000	98.864477 
2723.000000	98.863813 
2722.000000	98.863961 
2721.000000	98.866824 
2720.000000	98.871639 
2719.000000	98.875809 
2718.000000	98.877364 
2717.000000	98.876358 
2716.000000	98.874473 
2715.000000	98.873615 
2714.000000	98.874610 
2713.000000	98.876938 
2712.000000	98.879526 
2711.000000	98.881525 
2710.000000	98.882477 
2709.000000	98.882434 
2708.000000	98.882095 
2707.000000	98.881994 
2706.000000	98.881325 
2705.000000	98.878788 
2704.000000	98.875217 
2703.000000	98.873891 
2702.000000	98.876861 
2701.000000	98.881925 
2700.000000	98.884915 
2699.000000	98.884462 
2698.000000	98.882901 
2697.000000	98.882798 
2696.000000	98.884253 
2695.000000	98.885781 
2694.000000	98.886393 
2693.000000	98.886234 
2692.000000	98.886004 
2691.000000	98.886113 
2690.000000	98.886053 
2689.000000	98.884863 
2688.000000	98.882686 
2687.000000	98.881249 
2686.000000	98.881955 
2685.000000	98.884103 
2684.000000	98.886038 
2683.000000	98.887303 
2682.000000	98.888265 
2681.000000	98.888251 
2680.000000	98.885948 
2679.000000	98.881655 
2678.000000	98.877575 
2677.000000	98.875664 
2676.000000	98.876435 
2675.000000	98.879714 
2674.000000	98.884867 
2673.000000	98.890030 
2672.000000	98.892859 
2671.000000	98.892744 
2670.000000	98.891160 
2669.000000	98.889424 
2668.000000	98.887380 
2667.000000	98.884826 
2666.000000	98.882843 
2665.000000	98.882731 
2664.000000	98.884386 
2663.000000	98.886525 
2662.000000	98.888087 
2661.000000	98.888992 
2660.000000	98.889901 
2659.000000	98.891379 
2658.000000	98.893016 
2657.000000	98.893687 
2656.000000	98.893245 
2655.000000	98.893215 
2654.000000	98.894637 
2653.000000	98.896063 
2652.000000	98.895660 
2651.000000	98.894857 
2650.000000	98.897175 
2649.000000	98.902771 
2648.000000	98.906874 
2647.000000	98.905459 
2646.000000	98.900791 
2645.000000	98.899176 
2644.000000	98.903800 
2643.000000	98.911380 
2642.000000	98.915630 
2641.000000	98.913026 
2640.000000	98.905457 
2639.000000	98.898058 
2638.000000	98.894520 
2637.000000	98.894171 
2636.000000	98.893705 
2635.000000	98.891263 
2634.000000	98.887989 
2633.000000	98.886154 
2632.000000	98.887388 
2631.000000	98.892493 
2630.000000	98.900637 
2629.000000	98.908101 
2628.000000	98.910227 
2627.000000	98.906240 
2626.000000	98.900584 
2625.000000	98.898028 
2624.000000	98.898813 
2623.000000	98.899920 
2622.000000	98.899431 
2621.000000	98.897595 
2620.000000	98.894850 
2619.000000	98.891374 
2618.000000	98.888409 
2617.000000	98.887942 
2616.000000	98.890545 
2615.000000	98.894694 
2614.000000	98.898442 
2613.000000	98.900947 
2612.000000	98.902375 
2611.000000	98.903180 
2610.000000	98.903679 
2609.000000	98.903862 
2608.000000	98.903550 
2607.000000	98.902896 
2606.000000	98.902450 
2605.000000	98.902628 
2604.000000	98.903487 
2603.000000	98.904939 
2602.000000	98.906618 
2601.000000	98.907740 
2600.000000	98.908031 
2599.000000	98.908454 
2598.000000	98.909636 
2597.000000	98.909883 
2596.000000	98.906853 
2595.000000	98.901558 
2594.000000	98.898314 
2593.000000	98.899621 
2592.000000	98.903125 
2591.000000	98.905194 
2590.000000	98.905582 
2589.000000	98.906472 
2588.000000	98.908346 
2587.000000	98.909395 
2586.000000	98.908680 
2585.000000	98.907663 
2584.000000	98.908185 
2583.000000	98.910123 
2582.000000	98.911396 
2581.000000	98.909769 
2580.000000	98.904868 
2579.000000	98.898913 
2578.000000	98.894988 
2577.000000	98.894046 
2576.000000	98.894236 
2575.000000	98.893630 
2574.000000	98.892625 
2573.000000	98.892817 
2572.000000	98.894484 
2571.000000	98.896346 
2570.000000	98.897300 
2569.000000	98.897360 
2568.000000	98.897213 
2567.000000	98.897617 
2566.000000	98.898918 
2565.000000	98.900630 
2564.000000	98.901920 
2563.000000	98.902856 
2562.000000	98.904394 
2561.000000	98.906628 
2560.000000	98.907862 
2559.000000	98.906141 
2558.000000	98.901278 
2557.000000	98.895143 
2556.000000	98.890623 
2555.000000	98.890263 
2554.000000	98.894507 
2553.000000	98.900664 
2552.000000	98.904863 
2551.000000	98.905795 
2550.000000	98.905414 
2549.000000	98.905296 
2548.000000	98.903811 
2547.000000	98.898338 
2546.000000	98.889547 
2545.000000	98.882067 
2544.000000	98.880737 
2543.000000	98.886327 
2542.000000	98.894431 
2541.000000	98.898606 
2540.000000	98.895767 
2539.000000	98.888877 
2538.000000	98.883426 
2537.000000	98.881457 
2536.000000	98.880671 
2535.000000	98.879243 
2534.000000	98.878545 
2533.000000	98.879753 
2532.000000	98.880505 
2531.000000	98.877770 
2530.000000	98.872712 
2529.000000	98.869799 
2528.000000	98.871202 
2527.000000	98.874463 
2526.000000	98.876252 
2525.000000	98.876648 
2524.000000	98.878709 
2523.000000	98.884555 
2522.000000	98.892629 
2521.000000	98.898590 
2520.000000	98.898589 
2519.000000	98.891829 
2518.000000	98.880532 
2517.000000	98.868217 
2516.000000	98.858222 
2515.000000	98.852759 
2514.000000	98.852043 
2513.000000	98.854411 
2512.000000	98.858224 
2511.000000	98.863414 
2510.000000	98.870279 
2509.000000	98.877597 
2508.000000	98.883701 
2507.000000	98.888836 
2506.000000	98.894080 
2505.000000	98.897834 
2504.000000	98.895957 
2503.000000	98.886455 
2502.000000	98.872425 
2501.000000	98.859756 
2500.000000	98.853510 
2499.000000	98.856383 
2498.000000	98.867551 
2497.000000	98.881463 
2496.000000	98.890345 
2495.000000	98.890398 
2494.000000	98.884699 
2493.000000	98.878918 
2492.000000	98.875830 
2491.000000	98.875172 
2490.000000	98.876621 
2489.000000	98.880441 
2488.000000	98.886230 
2487.000000	98.892931 
2486.000000	98.899317 
2485.000000	98.903163 
2484.000000	98.901446 
2483.000000	98.893413 
2482.000000	98.882669 
2481.000000	98.874396 
2480.000000	98.870848 
2479.000000	98.870665 
2478.000000	98.871508 
2477.000000	98.871869 
2476.000000	98.871471 
2475.000000	98.871742 
2474.000000	98.875114 
2473.000000	98.882045 
2472.000000	98.889388 
2471.000000	98.893400 
2470.000000	98.893741 
2469.000000	98.892873 
2468.000000	98.892329 
2467.000000	98.891605 
2466.000000	98.890205 
2465.000000	98.888596 
2464.000000	98.887113 
2463.000000	98.885831 
2462.000000	98.885632 
2461.000000	98.887461 
2460.000000	98.890040 
2459.000000	98.890020 
2458.000000	98.885349 
2457.000000	98.877609 
2456.000000	98.870456 
2455.000000	98.866506 
2454.000000	98.866104 
2453.000000	98.868226 
2452.000000	98.871651 
2451.000000	98.875194 
2450.000000	98.877231 
2449.000000	98.875726 
2448.000000	98.869850 
2447.000000	98.861898 
2446.000000	98.856512 
2445.000000	98.856818 
2444.000000	98.861490 
2443.000000	98.866174 
2442.000000	98.867380 
2441.000000	98.864648 
2440.000000	98.860059 
2439.000000	98.856800 
2438.000000	98.857423 
2437.000000	98.861866 
2436.000000	98.867101 
2435.000000	98.869842 
2434.000000	98.869858 
2433.000000	98.870098 
2432.000000	98.873662 
2431.000000	98.880901 
2430.000000	98.888784 
2429.000000	98.892475 
2428.000000	98.888595 
2427.000000	98.878466 
2426.000000	98.867948 
2425.000000	98.862847 
2424.000000	98.864405 
2423.000000	98.869959 
2422.000000	98.877092 
2421.000000	98.885028 
2420.000000	98.891898 
2419.000000	98.893390 
2418.000000	98.886374 
2417.000000	98.873230 
2416.000000	98.860616 
2415.000000	98.853504 
2414.000000	98.851536 
2413.000000	98.851446 
2412.000000	98.851572 
2411.000000	98.852765 
2410.000000	98.855661 
2409.000000	98.858848 
2408.000000	98.860166 
2407.000000	98.858830 
2406.000000	98.855937 
2405.000000	98.853770 
2404.000000	98.854766 
2403.000000	98.859786 
2402.000000	98.866570 
2401.000000	98.870938 
2400.000000	98.870460 
2399.000000	98.866262 
2398.000000	98.860866 
2397.000000	98.855807 
2396.000000	98.852221 
2395.000000	98.851631 
2394.000000	98.853984 
2393.000000	98.856263 
2392.000000	98.855571 
2391.000000	98.852913 
2390.000000	98.851665 
2389.000000	98.853078 
2388.000000	98.855820 
2387.000000	98.859197 
2386.000000	98.863495 
2385.000000	98.867107 
2384.000000	98.866965 
2383.000000	98.863061 
2382.000000	98.859505 
2381.000000	98.859275 
2380.000000	98.860317 
2379.000000	98.858978 
2378.000000	98.855426 
2377.000000	98.853298 
2376.000000	98.855216 
2375.000000	98.860645 
2374.000000	98.866885 
2373.000000	98.870262 
2372.000000	98.867873 
2371.000000	98.860625 
2370.000000	98.853476 
2369.000000	98.850702 
2368.000000	98.852101 
2367.000000	98.855257 
2366.000000	98.859631 
2365.000000	98.866312 
2364.000000	98.874582 
2363.000000	98.880854 
2362.000000	98.881403 
2361.000000	98.875160 
2360.000000	98.865596 
2359.000000	98.858482 
2358.000000	98.856704 
2357.000000	98.858475 
2356.000000	98.861745 
2355.000000	98.867053 
2354.000000	98.873265 
2353.000000	98.877403 
2352.000000	98.878685 
2351.000000	98.879288 
2350.000000	98.880941 
2349.000000	98.882317 
2348.000000	98.881657 
2347.000000	98.878542 
2346.000000	98.875130 
2345.000000	98.874448 
2344.000000	98.877162 
2343.000000	98.881711 
2342.000000	98.884994 
2341.000000	98.884734 
2340.000000	98.881486 
2339.000000	98.880309 
2338.000000	98.885577 
2337.000000	98.894866 
2336.000000	98.900499 
2335.000000	98.897939 
2334.000000	98.890080 
2333.000000	98.883841 
2332.000000	98.882834 
2331.000000	98.884173 
2330.000000	98.883471 
2329.000000	98.880525 
2328.000000	98.880364 
2327.000000	98.886654 
2326.000000	98.897620 
2325.000000	98.907077 
2324.000000	98.909794 
2323.000000	98.907222 
2322.000000	98.905863 
2321.000000	98.909967 
2320.000000	98.914849 
2319.000000	98.912324 
2318.000000	98.900941 
2317.000000	98.887865 
2316.000000	98.880286 
2315.000000	98.878582 
2314.000000	98.879518 
2313.000000	98.881902 
2312.000000	98.886658 
2311.000000	98.892287 
2310.000000	98.894550 
2309.000000	98.890899 
2308.000000	98.883627 
2307.000000	98.877647 
2306.000000	98.876092 
2305.000000	98.878567 
2304.000000	98.882719 
2303.000000	98.886809 
2302.000000	98.890373 
2301.000000	98.893361 
2300.000000	98.895798 
2299.000000	98.898221 
2298.000000	98.900997 
2297.000000	98.902247 
2296.000000	98.898727 
2295.000000	98.890343 
2294.000000	98.882871 
2293.000000	98.883253 
2292.000000	98.892197 
2291.000000	98.903182 
2290.000000	98.909110 
2289.000000	98.908343 
2288.000000	98.903991 
2287.000000	98.899380 
2286.000000	98.895296 
2285.000000	98.890559 
2284.000000	98.884027 
2283.000000	98.876580 
2282.000000	98.871322 
2281.000000	98.871011 
2280.000000	98.874947 
2279.000000	98.879470 
2278.000000	98.881677 
2277.000000	98.881749 
2276.000000	98.881605 
2275.000000	98.882489 
2274.000000	98.884230 
2273.000000	98.885731 
2272.000000	98.885769 
2271.000000	98.884137 
2270.000000	98.882249 
2269.000000	98.881820 
2268.000000	98.882964 
2267.000000	98.884579 
2266.000000	98.886385 
2265.000000	98.888797 
2264.000000	98.890443 
2263.000000	98.887808 
2262.000000	98.879038 
2261.000000	98.867403 
2260.000000	98.859429 
2259.000000	98.859352 
2258.000000	98.865759 
2257.000000	98.873511 
2256.000000	98.878396 
2255.000000	98.880157 
2254.000000	98.881673 
2253.000000	98.885823 
2252.000000	98.893121 
2251.000000	98.901523 
2250.000000	98.908083 
2249.000000	98.910774 
2248.000000	98.909823 
2247.000000	98.906958 
2246.000000	98.902979 
2245.000000	98.897350 
2244.000000	98.890842 
2243.000000	98.887161 
2242.000000	98.889492 
2241.000000	98.896269 
2240.000000	98.903437 
2239.000000	98.910570 
2238.000000	98.920323 
2237.000000	98.930612 
2236.000000	98.932475 
2235.000000	98.920007 
2234.000000	98.899919 
2233.000000	98.886752 
2232.000000	98.888856 
2231.000000	98.901691 
2230.000000	98.913683 
2229.000000	98.915727 
2228.000000	98.906348 
2227.000000	98.891560 
2226.000000	98.880357 
2225.000000	98.878038 
2224.000000	98.883076 
2223.000000	98.890733 
2222.000000	98.897371 
2221.000000	98.899402 
2220.000000	98.892179 
2219.000000	98.875614 
2218.000000	98.859529 
2217.000000	98.856924 
2216.000000	98.870219 
2215.000000	98.888639 
2214.000000	98.900410 
2213.000000	98.903137 
2212.000000	98.901124 
2211.000000	98.898251 
2210.000000	98.897448 
2209.000000	98.902570 
2208.000000	98.914389 
2207.000000	98.925684 
2206.000000	98.925719 
2205.000000	98.911644 
2204.000000	98.893378 
2203.000000	98.885744 
2202.000000	98.895968 
2201.000000	98.917621 
2200.000000	98.935167 
2199.000000	98.935721 
2198.000000	98.919170 
2197.000000	98.898145 
2196.000000	98.887245 
2195.000000	98.891660 
2194.000000	98.905680 
2193.000000	98.919628 
2192.000000	98.926622 
2191.000000	98.925373 
2190.000000	98.920930 
2189.000000	98.922558 
2188.000000	98.935583 
2187.000000	98.952949 
2186.000000	98.958868 
2185.000000	98.944875 
2184.000000	98.920075 
2183.000000	98.901407 
2182.000000	98.895868 
2181.000000	98.897017 
2180.000000	98.897241 
2179.000000	98.896762 
2178.000000	98.899476 
2177.000000	98.906260 
2176.000000	98.915152 
2175.000000	98.923461 
2174.000000	98.927056 
2173.000000	98.922994 
2172.000000	98.917081 
2171.000000	98.923505 
2170.000000	98.950196 
2169.000000	98.986283 
2168.000000	99.010272 
2167.000000	99.010653 
2166.000000	98.993890 
2165.000000	98.974084 
2164.000000	98.961298 
2163.000000	98.959630 
2162.000000	98.968078 
2161.000000	98.978432 
2160.000000	98.977896 
2159.000000	98.960118 
2158.000000	98.931687 
2157.000000	98.904235 
2156.000000	98.883893 
2155.000000	98.871824 
2154.000000	98.869427 
2153.000000	98.877211 
2152.000000	98.890619 
2151.000000	98.901295 
2150.000000	98.903523 
2149.000000	98.899215 
2148.000000	98.896606 
2147.000000	98.902715 
2146.000000	98.915425 
2145.000000	98.924002 
2144.000000	98.919912 
2143.000000	98.906008 
2142.000000	98.892127 
2141.000000	98.883215 
2140.000000	98.876295 
2139.000000	98.868940 
2138.000000	98.864814 
2137.000000	98.867669 
2136.000000	98.873965 
2135.000000	98.876191 
2134.000000	98.872451 
2133.000000	98.868999 
2132.000000	98.872555 
2131.000000	98.881925 
2130.000000	98.888125 
2129.000000	98.882790 
2128.000000	98.866855 
2127.000000	98.850501 
2126.000000	98.843903 
2125.000000	98.848819 
2124.000000	98.860015 
2123.000000	98.872709 
2122.000000	98.885102 
2121.000000	98.894634 
2120.000000	98.897174 
2119.000000	98.892161 
2118.000000	98.885237 
2117.000000	98.883064 
2116.000000	98.887071 
2115.000000	98.893936 
2114.000000	98.900000 
2113.000000	98.902951 
2112.000000	98.901333 
2111.000000	98.895875 
2110.000000	98.890911 
2109.000000	98.891342 
2108.000000	98.896941 
2107.000000	98.901184 
2106.000000	98.897136 
2105.000000	98.884805 
2104.000000	98.872386 
2103.000000	98.869261 
2102.000000	98.876722 
2101.000000	98.886023 
2100.000000	98.887087 
2099.000000	98.878961 
2098.000000	98.869985 
2097.000000	98.868103 
2096.000000	98.873555 
2095.000000	98.881396 
2094.000000	98.887701 
2093.000000	98.891285 
2092.000000	98.892402 
2091.000000	98.892927 
2090.000000	98.896360 
2089.000000	98.904349 
2088.000000	98.912914 
2087.000000	98.914328 
2086.000000	98.903995 
2085.000000	98.885764 
2084.000000	98.870593 
2083.000000	98.869023 
2082.000000	98.882895 
2081.000000	98.903311 
2080.000000	98.918211 
2079.000000	98.923448 
2078.000000	98.925656 
2077.000000	98.933619 
2076.000000	98.947772 
2075.000000	98.959028 
2074.000000	98.957217 
2073.000000	98.940355 
2072.000000	98.916640 
2071.000000	98.897573 
2070.000000	98.888775 
2069.000000	98.887280 
2068.000000	98.887239 
2067.000000	98.886444 
2066.000000	98.886201 
2065.000000	98.887753 
2064.000000	98.892259 
2063.000000	98.901982 
2062.000000	98.916045 
2061.000000	98.925900 
2060.000000	98.922164 
2059.000000	98.907844 
2058.000000	98.898448 
2057.000000	98.905219 
2056.000000	98.922865 
2055.000000	98.937984 
2054.000000	98.945483 
2053.000000	98.951389 
2052.000000	98.962148 
2051.000000	98.977168 
2050.000000	98.991515 
2049.000000	99.001032 
2048.000000	99.003891 
2047.000000	99.000499 
2046.000000	98.993683 
2045.000000	98.987038 
2044.000000	98.981497 
2043.000000	98.975079 
2042.000000	98.967449 
2041.000000	98.963177 
2040.000000	98.967809 
2039.000000	98.980672 
2038.000000	98.993680 
2037.000000	98.998612 
2036.000000	98.994644 
2035.000000	98.986511 
2034.000000	98.976471 
2033.000000	98.963495 
2032.000000	98.951781 
2031.000000	98.952754 
2030.000000	98.972034 
2029.000000	98.997864 
2028.000000	99.010431 
2027.000000	99.002316 
2026.000000	98.983144 
2025.000000	98.965421 
2024.000000	98.953512 
2023.000000	98.947120 
2022.000000	98.947009 
2021.000000	98.952413 
2020.000000	98.958157 
2019.000000	98.959101 
2018.000000	98.954709 
2017.000000	98.947069 
2016.000000	98.938190 
2015.000000	98.931285 
2014.000000	98.929964 
2013.000000	98.933052 
2012.000000	98.934810 
2011.000000	98.933630 
2010.000000	98.936005 
2009.000000	98.947795 
2008.000000	98.965580 
2007.000000	98.981643 
2006.000000	98.993597 
2005.000000	99.002860 
2004.000000	99.006273 
2003.000000	98.996294 
2002.000000	98.970499 
2001.000000	98.937225 
2000.000000	98.909941 
1999.000000	98.896305 
1998.000000	98.892865 
1997.000000	98.890517 
1996.000000	98.885873 
1995.000000	98.885803 
1994.000000	98.898505 
1993.000000	98.921228 
1992.000000	98.940442 
1991.000000	98.945516 
1990.000000	98.937832 
1989.000000	98.925301 
1988.000000	98.914854 
1987.000000	98.912218 
1986.000000	98.921645 
1985.000000	98.940585 
1984.000000	98.958405 
1983.000000	98.965324 
1982.000000	98.960923 
1981.000000	98.951583 
1980.000000	98.942859 
1979.000000	98.937418 
1978.000000	98.936633 
1977.000000	98.938964 
1976.000000	98.938866 
1975.000000	98.932205 
1974.000000	98.921890 
1973.000000	98.915054 
1972.000000	98.915629 
1971.000000	98.922013 
1970.000000	98.930736 
1969.000000	98.939716 
1968.000000	98.948303 
1967.000000	98.956042 
1966.000000	98.961947 
1965.000000	98.964744 
1964.000000	98.963942 
1963.000000	98.960183 
1962.000000	98.953848 
1961.000000	98.944250 
1960.000000	98.931590 
1959.000000	98.918701 
1958.000000	98.908842 
1957.000000	98.902599 
1956.000000	98.898947 
1955.000000	98.897829 
1954.000000	98.898511 
1953.000000	98.896887 
1952.000000	98.889087 
1951.000000	98.878053 
1950.000000	98.872091 
1949.000000	98.875351 
1948.000000	98.883203 
1947.000000	98.888427 
1946.000000	98.887890 
1945.000000	98.881556 
1944.000000	98.869713 
1943.000000	98.854908 
1942.000000	98.843110 
1941.000000	98.838072 
1940.000000	98.837272 
1939.000000	98.836511 
1938.000000	98.835217 
1937.000000	98.835438 
1936.000000	98.838023 
1935.000000	98.841610 
1934.000000	98.844019 
1933.000000	98.843219 
1932.000000	98.838651 
1931.000000	98.833651 
1930.000000	98.834467 
1929.000000	98.843780 
1928.000000	98.856283 
1927.000000	98.863283 
1926.000000	98.860214 
1925.000000	98.848081 
1924.000000	98.831236 
1923.000000	98.816967 
1922.000000	98.813573 
1921.000000	98.823413 
1920.000000	98.839237 
1919.000000	98.849901 
1918.000000	98.849721 
1917.000000	98.842128 
1916.000000	98.834154 
1915.000000	98.830395 
1914.000000	98.832476 
1913.000000	98.839368 
1912.000000	98.847023 
1911.000000	98.850805 
1910.000000	98.849428 
1909.000000	98.845289 
1908.000000	98.841347 
1907.000000	98.839724 
1906.000000	98.842223 
1905.000000	98.848444 
1904.000000	98.853398 
1903.000000	98.850304 
1902.000000	98.836894 
1901.000000	98.818170 
1900.000000	98.802875 
1899.000000	98.797193 
1898.000000	98.800771 
1897.000000	98.807553 
1896.000000	98.811256 
1895.000000	98.811595 
1894.000000	98.813825 
1893.000000	98.820727 
1892.000000	98.827721 
1891.000000	98.827693 
1890.000000	98.819468 
1889.000000	98.809980 
1888.000000	98.806962 
1887.000000	98.811888 
1886.000000	98.820481 
1885.000000	98.826697 
1884.000000	98.826709 
1883.000000	98.821246 
1882.000000	98.814094 
1881.000000	98.808629 
1880.000000	98.806479 
1879.000000	98.807958 
1878.000000	98.811300 
1877.000000	98.812220 
1876.000000	98.808016 
1875.000000	98.802783 
1874.000000	98.804600 
1873.000000	98.815334 
1872.000000	98.826580 
1871.000000	98.828022 
1870.000000	98.817850 
1869.000000	98.803489 
1868.000000	98.791671 
1867.000000	98.782232 
1866.000000	98.773067 
1865.000000	98.764607 
1864.000000	98.759471 
1863.000000	98.761328 
1862.000000	98.772535 
1861.000000	98.790236 
1860.000000	98.806312 
1859.000000	98.814775 
1858.000000	98.817827 
1857.000000	98.821512 
1856.000000	98.827582 
1855.000000	98.833108 
1854.000000	98.835541 
1853.000000	98.834806 
1852.000000	98.831614 
1851.000000	98.826386 
1850.000000	98.820523 
1849.000000	98.816508 
1848.000000	98.815483 
1847.000000	98.816228 
1846.000000	98.816922 
1845.000000	98.815979 
1844.000000	98.811730 
1843.000000	98.804722 
1842.000000	98.798771 
1841.000000	98.797254 
1840.000000	98.800398 
1839.000000	98.805886 
1838.000000	98.811098 
1837.000000	98.815039 
1836.000000	98.818449 
1835.000000	98.822566 
1834.000000	98.827347 
1833.000000	98.831431 
1832.000000	98.833630 
1831.000000	98.833493 
1830.000000	98.831694 
1829.000000	98.830056 
1828.000000	98.829984 
1827.000000	98.830653 
1826.000000	98.829952 
1825.000000	98.827733 
1824.000000	98.826243 
1823.000000	98.826846 
1822.000000	98.827804 
1821.000000	98.825392 
1820.000000	98.817482 
1819.000000	98.806556 
1818.000000	98.798565 
1817.000000	98.797418 
1816.000000	98.800976 
1815.000000	98.804449 
1814.000000	98.806205 
1813.000000	98.808672 
1812.000000	98.814757 
1811.000000	98.824420 
1810.000000	98.835412 
1809.000000	98.845203 
1808.000000	98.850583 
1807.000000	98.848524 
1806.000000	98.839692 
1805.000000	98.829109 
1804.000000	98.822032 
1803.000000	98.819833 
1802.000000	98.821049 
1801.000000	98.824877 
1800.000000	98.829981 
1799.000000	98.833319 
1798.000000	98.833271 
1797.000000	98.831096 
1796.000000	98.829324 
1795.000000	98.829819 
1794.000000	98.832082 
1793.000000	98.833019 
1792.000000	98.830471 
1791.000000	98.826514 
1790.000000	98.824588 
1789.000000	98.825677 
1788.000000	98.828942 
1787.000000	98.833225 
1786.000000	98.837204 
1785.000000	98.838524 
1784.000000	98.835168 
1783.000000	98.829034 
1782.000000	98.825408 
1781.000000	98.827574 
1780.000000	98.832126 
1779.000000	98.832861 
1778.000000	98.829095 
1777.000000	98.825434 
1776.000000	98.825796 
1775.000000	98.831318 
1774.000000	98.841482 
1773.000000	98.853662 
1772.000000	98.861687 
1771.000000	98.861694 
1770.000000	98.856892 
1769.000000	98.851610 
1768.000000	98.847529 
1767.000000	98.844370 
1766.000000	98.841766 
1765.000000	98.840492 
1764.000000	98.840911 
1763.000000	98.842373 
1762.000000	98.844446 
1761.000000	98.847509 
1760.000000	98.851222 
1759.000000	98.854073 
1758.000000	98.855120 
1757.000000	98.855274 
1756.000000	98.855995 
1755.000000	98.856860 
1754.000000	98.856016 
1753.000000	98.852645 
1752.000000	98.849166 
1751.000000	98.850700 
1750.000000	98.858751 
1749.000000	98.868309 
1748.000000	98.874020 
1747.000000	98.874258 
1746.000000	98.870285 
1745.000000	98.864870 
1744.000000	98.861185 
1743.000000	98.860966 
1742.000000	98.863071 
1741.000000	98.865198 
1740.000000	98.866040 
1739.000000	98.866110 
1738.000000	98.866674 
1737.000000	98.867677 
1736.000000	98.867228 
1735.000000	98.862761 
1734.000000	98.853212 
1733.000000	98.842924 
1732.000000	98.838375 
1731.000000	98.840548 
1730.000000	98.846097 
1729.000000	98.850890 
1728.000000	98.852888 
1727.000000	98.852831 
1726.000000	98.852016 
1725.000000	98.850520 
1724.000000	98.848402 
1723.000000	98.848042 
1722.000000	98.852477 
1721.000000	98.861584 
1720.000000	98.871620 
1719.000000	98.877571 
1718.000000	98.875627 
1717.000000	98.866493 
1716.000000	98.854928 
1715.000000	98.845286 
1714.000000	98.840054 
1713.000000	98.839125 
1712.000000	98.839967 
1711.000000	98.840943 
1710.000000	98.842114 
1709.000000	98.842908 
1708.000000	98.841544 
1707.000000	98.838337 
1706.000000	98.838429 
1705.000000	98.845511 
1704.000000	98.853494 
1703.000000	98.852715 
1702.000000	98.840537 
1701.000000	98.826960 
1700.000000	98.824254 
1699.000000	98.829730 
1698.000000	98.835105 
1697.000000	98.837618 
1696.000000	98.837654 
1695.000000	98.836649 
1694.000000	98.836602 
1693.000000	98.837096 
1692.000000	98.834560 
1691.000000	98.828210 
1690.000000	98.821886 
1689.000000	98.819596 
1688.000000	98.819695 
1687.000000	98.816840 
1686.000000	98.809518 
1685.000000	98.803341 
1684.000000	98.803158 
1683.000000	98.806117 
1682.000000	98.808023 
1681.000000	98.807406 
1680.000000	98.806330 
1679.000000	98.806806 
1678.000000	98.807744 
1677.000000	98.806884 
1676.000000	98.804320 
1675.000000	98.802378 
1674.000000	98.801870 
1673.000000	98.801839 
1672.000000	98.801430 
1671.000000	98.801661 
1670.000000	98.803309 
1669.000000	98.804341 
1668.000000	98.804098 
1667.000000	98.803892 
1666.000000	98.802609 
1665.000000	98.798010 
1664.000000	98.791172 
1663.000000	98.787126 
1662.000000	98.788922 
1661.000000	98.793720 
1660.000000	98.797396 
1659.000000	98.799694 
1658.000000	98.803210 
1657.000000	98.807081 
1656.000000	98.806274 
1655.000000	98.796754 
1654.000000	98.785507 
1653.000000	98.778584 
1652.000000	98.773303 
1651.000000	98.772293 
1650.000000	98.772057 
1649.000000	98.767164 
1648.000000	98.759532 
1647.000000	98.752227 
1646.000000	98.746872 
1645.000000	98.745518 
1644.000000	98.749537 
1643.000000	98.756060 
1642.000000	98.760811 
1641.000000	98.762255 
1640.000000	98.761484 
1639.000000	98.760025 
1638.000000	98.758474 
1637.000000	98.757764 
1636.000000	98.757726 
1635.000000	98.756662 
1634.000000	98.756705 
1633.000000	98.759372 
1632.000000	98.762140 
1631.000000	98.763447 
1630.000000	98.763719 
1629.000000	98.763590 
1628.000000	98.763403 
1627.000000	98.763567 
1626.000000	98.764457 
1625.000000	98.766336 
1624.000000	98.769586 
1623.000000	98.773945 
1622.000000	98.778244 
1621.000000	98.781427 
1620.000000	98.782405 
1619.000000	98.780738 
1618.000000	98.778515 
1617.000000	98.778495 
1616.000000	98.780851 
1615.000000	98.783923 
1614.000000	98.785097 
1613.000000	98.782544 
1612.000000	98.778073 
1611.000000	98.774622 
1610.000000	98.772214 
1609.000000	98.768968 
1608.000000	98.764943 
1607.000000	98.762065 
1606.000000	98.761136 
1605.000000	98.762275 
1604.000000	98.766235 
1603.000000	98.772888 
1602.000000	98.779495 
1601.000000	98.782710 
1600.000000	98.782588 
1599.000000	98.782453 
1598.000000	98.784797 
1597.000000	98.789252 
1596.000000	98.794439 
1595.000000	98.799859 
1594.000000	98.804971 
1593.000000	98.808171 
1592.000000	98.808482 
1591.000000	98.807306 
1590.000000	98.807102 
1589.000000	98.808986 
1588.000000	98.812743 
1587.000000	98.818047 
1586.000000	98.823411 
1585.000000	98.825879 
1584.000000	98.823930 
1583.000000	98.819348 
1582.000000	98.815939 
1581.000000	98.816030 
1580.000000	98.818580 
1579.000000	98.821011 
1578.000000	98.822433 
1577.000000	98.823689 
1576.000000	98.824286 
1575.000000	98.824694 
1574.000000	98.827085 
1573.000000	98.829795 
1572.000000	98.829860 
1571.000000	98.828706 
1570.000000	98.830299 
1569.000000	98.835499 
1568.000000	98.841497 
1567.000000	98.845113 
1566.000000	98.845066 
1565.000000	98.842984 
1564.000000	98.842478 
1563.000000	98.843853 
1562.000000	98.845210 
1561.000000	98.844135 
1560.000000	98.843787 
1559.000000	98.844497 
1558.000000	98.839804 
1557.000000	98.836717 
1556.000000	98.839003 
1555.000000	98.840917 
1554.000000	98.839408 
1553.000000	98.836042 
1552.000000	98.833602 
1551.000000	98.833474 
1550.000000	98.836433 
1549.000000	98.841629 
1548.000000	98.846020 
1547.000000	98.846697 
1546.000000	98.842347 
1545.000000	98.834823 
1544.000000	98.828012 
1543.000000	98.823981 
1542.000000	98.823467 
1541.000000	98.826745 
1540.000000	98.826576 
1539.000000	98.818266 
1538.000000	98.811355 
1537.000000	98.810789 
1536.000000	98.811759 
1535.000000	98.811471 
1534.000000	98.811792 
1533.000000	98.813560 
1532.000000	98.813173 
1531.000000	98.808236 
1530.000000	98.801217 
1529.000000	98.795795 
1528.000000	98.793015 
1527.000000	98.792044 
1526.000000	98.792537 
1525.000000	98.794308 
1524.000000	98.795913 
1523.000000	98.796303 
1522.000000	98.797582 
1521.000000	98.800723 
1520.000000	98.801334 
1519.000000	98.795659 
1518.000000	98.785276 
1517.000000	98.775645 
1516.000000	98.770690 
1515.000000	98.769410 
1514.000000	98.769259 
1513.000000	98.768659 
1512.000000	98.766968 
1511.000000	98.763874 
1510.000000	98.759734 
1509.000000	98.755485 
1508.000000	98.755867 
1507.000000	98.764123 
1506.000000	98.768550 
1505.000000	98.763083 
1504.000000	98.756861 
1503.000000	98.753748 
1502.000000	98.752852 
1501.000000	98.754343 
1500.000000	98.757782 
1499.000000	98.762238 
1498.000000	98.766462 
1497.000000	98.770447 
1496.000000	98.773024 
1495.000000	98.771731 
1494.000000	98.765873 
1493.000000	98.756727 
1492.000000	98.746103 
1491.000000	98.736348 
1490.000000	98.729092 
1489.000000	98.723118 
1488.000000	98.715183 
1487.000000	98.705858 
1486.000000	98.699794 
1485.000000	98.698414 
1484.000000	98.699255 
1483.000000	98.699880 
1482.000000	98.699066 
1481.000000	98.696163 
1480.000000	98.691056 
1479.000000	98.685189 
1478.000000	98.681040 
1477.000000	98.679914 
1476.000000	98.680231 
1475.000000	98.678370 
1474.000000	98.673119 
1473.000000	98.668152 
1472.000000	98.666464 
1471.000000	98.666298 
1470.000000	98.666056 
1469.000000	98.666380 
1468.000000	98.667489 
1467.000000	98.668489 
1466.000000	98.668806 
1465.000000	98.668574 
1464.000000	98.667491 
1463.000000	98.665561 
1462.000000	98.664209 
1461.000000	98.664485 
1460.000000	98.665063 
1459.000000	98.662510 
1458.000000	98.653277 
1457.000000	98.637891 
1456.000000	98.621989 
1455.000000	98.610200 
1454.000000	98.603114 
1453.000000	98.599980 
1452.000000	98.598741 
1451.000000	98.596919 
1450.000000	98.594778 
1449.000000	98.596033 
1448.000000	98.602479 
1447.000000	98.610626 
1446.000000	98.616520 
1445.000000	98.620414 
1444.000000	98.623216 
1443.000000	98.623306 
1442.000000	98.619739 
1441.000000	98.614878 
1440.000000	98.612082 
1439.000000	98.612243 
1438.000000	98.613296 
1437.000000	98.612672 
1436.000000	98.609193 
1435.000000	98.602806 
1434.000000	98.595411 
1433.000000	98.590161 
1432.000000	98.588647 
1431.000000	98.590210 
1430.000000	98.592440 
1429.000000	98.593140 
1428.000000	98.591265 
1427.000000	98.586307 
1426.000000	98.578184 
1425.000000	98.568194 
1424.000000	98.559772 
1423.000000	98.554411 
1422.000000	98.548814 
1421.000000	98.539150 
1420.000000	98.525209 
1419.000000	98.509951 
1418.000000	98.494546 
1417.000000	98.477907 
1416.000000	98.460645 
1415.000000	98.443585 
1414.000000	98.425089 
1413.000000	98.403254 
1412.000000	98.379954 
1411.000000	98.359954 
1410.000000	98.345360 
1409.000000	98.335204 
1408.000000	98.329083 
1407.000000	98.327248 
1406.000000	98.328861 
1405.000000	98.334193 
1404.000000	98.346035 
1403.000000	98.363845 
1402.000000	98.381735 
1401.000000	98.395343 
1400.000000	98.405966 
1399.000000	98.415353 
1398.000000	98.416359 
1397.000000	98.396481 
1396.000000	98.353818 
1395.000000	98.308449 
1394.000000	98.290684 
1393.000000	98.312131 
1392.000000	98.359197 
1391.000000	98.410188 
1390.000000	98.448834 
1389.000000	98.468175 
1388.000000	98.469728 
1387.000000	98.460705 
1386.000000	98.448914 
1385.000000	98.439256 
1384.000000	98.433733 
1383.000000	98.432013 
1382.000000	98.432627 
1381.000000	98.435376 
1380.000000	98.441477 
1379.000000	98.451494 
1378.000000	98.463876 
1377.000000	98.476306 
1376.000000	98.488433 
1375.000000	98.502335 
1374.000000	98.519296 
1373.000000	98.536845 
1372.000000	98.551408 
1371.000000	98.563414 
1370.000000	98.576606 
1369.000000	98.592696 
1368.000000	98.609961 
1367.000000	98.625458 
1366.000000	98.637599 
1365.000000	98.646631 
1364.000000	98.653284 
1363.000000	98.658992 
1362.000000	98.665850 
1361.000000	98.674104 
1360.000000	98.681910 
1359.000000	98.688555 
1358.000000	98.695603 
1357.000000	98.704325 
1356.000000	98.713358 
1355.000000	98.720225 
1354.000000	98.724601 
1353.000000	98.728330 
1352.000000	98.731563 
1351.000000	98.732619 
1350.000000	98.731868 
1349.000000	98.731500 
1348.000000	98.733131 
1347.000000	98.736930 
1346.000000	98.742743 
1345.000000	98.749793 
1344.000000	98.755709 
1343.000000	98.758157 
1342.000000	98.757482 
1341.000000	98.756026 
1340.000000	98.755176 
1339.000000	98.754672 
1338.000000	98.754440 
1337.000000	98.755452 
1336.000000	98.758047 
1335.000000	98.760983 
1334.000000	98.763416 
1333.000000	98.766228 
1332.000000	98.770028 
1331.000000	98.773546 
1330.000000	98.775028 
1329.000000	98.774119 
1328.000000	98.771739 
1327.000000	98.769163 
1326.000000	98.767482 
1325.000000	98.766826 
1324.000000	98.767022 
1323.000000	98.768198 
1322.000000	98.770236 
1321.000000	98.771971 
1320.000000	98.771831 
1319.000000	98.769645 
1318.000000	98.767040 
1317.000000	98.765524 
1316.000000	98.764679 
1315.000000	98.763110 
1314.000000	98.760713 
1313.000000	98.759086 
1312.000000	98.759393 
1311.000000	98.760979 
1310.000000	98.762690 
1309.000000	98.764466 
1308.000000	98.766552 
1307.000000	98.767978 
1306.000000	98.767275 
1305.000000	98.764479 
1304.000000	98.761965 
1303.000000	98.762254 
1302.000000	98.765546 
1301.000000	98.769603 
1300.000000	98.771589 
1299.000000	98.769785 
1298.000000	98.764316 
1297.000000	98.757087 
1296.000000	98.750793 
1295.000000	98.747536 
1294.000000	98.747675 
1293.000000	98.749760 
1292.000000	98.751377 
1291.000000	98.750285 
1290.000000	98.745847 
1289.000000	98.739763 
1288.000000	98.734660 
1287.000000	98.731289 
1286.000000	98.727563 
1285.000000	98.721162 
1284.000000	98.712547 
1283.000000	98.704151 
1282.000000	98.697170 
1281.000000	98.690702 
1280.000000	98.684096 
1279.000000	98.678244 
1278.000000	98.673594 
1277.000000	98.668456 
1276.000000	98.660746 
1275.000000	98.650928 
1274.000000	98.641680 
1273.000000	98.634812 
1272.000000	98.629612 
1271.000000	98.624009 
1270.000000	98.616333 
1269.000000	98.606173 
1268.000000	98.594646 
1267.000000	98.583609 
1266.000000	98.573521 
1265.000000	98.562571 
1264.000000	98.548911 
1263.000000	98.533084 
1262.000000	98.517227 
1261.000000	98.502599 
1260.000000	98.489420 
1259.000000	98.478340 
1258.000000	98.469908 
1257.000000	98.463091 
1256.000000	98.456251 
1255.000000	98.449415 
1254.000000	98.443644 
1253.000000	98.438318 
1252.000000	98.431460 
1251.000000	98.423414 
1250.000000	98.417805 
1249.000000	98.417719 
1248.000000	98.422824 
1247.000000	98.430621 
1246.000000	98.437550 
1245.000000	98.437973 
1244.000000	98.426331 
1243.000000	98.404554 
1242.000000	98.385225 
1241.000000	98.382063 
1240.000000	98.396309 
1239.000000	98.415247 
1238.000000	98.424683 
1237.000000	98.420446 
1236.000000	98.407411 
1235.000000	98.391426 
1234.000000	98.375092 
1233.000000	98.359106 
1232.000000	98.343992 
1231.000000	98.329916 
1230.000000	98.316557 
1229.000000	98.303971 
1228.000000	98.293064 
1227.000000	98.285076 
1226.000000	98.280736 
1225.000000	98.279228 
1224.000000	98.277493 
1223.000000	98.271473 
1222.000000	98.259375 
1221.000000	98.243607 
1220.000000	98.228668 
1219.000000	98.217161 
1218.000000	98.208094 
1217.000000	98.198466 
1216.000000	98.185662 
1215.000000	98.168788 
1214.000000	98.149079 
1213.000000	98.129132 
1212.000000	98.110507 
1211.000000	98.091607 
1210.000000	98.069061 
1209.000000	98.041768 
1208.000000	98.012460 
1207.000000	97.984594 
1206.000000	97.958831 
1205.000000	97.933652 
1204.000000	97.908293 
1203.000000	97.883127 
1202.000000	97.857437 
1201.000000	97.829030 
1200.000000	97.797049 
1199.000000	97.763830 
1198.000000	97.732654 
1197.000000	97.704305 
1196.000000	97.676730 
1195.000000	97.647554 
1194.000000	97.616128 
1193.000000	97.583325 
1192.000000	97.550151 
1191.000000	97.516764 
1190.000000	97.482686 
1189.000000	97.447960 
1188.000000	97.413692 
1187.000000	97.380671 
1186.000000	97.347531 
1185.000000	97.311357 
1184.000000	97.270438 
1183.000000	97.225718 
1182.000000	97.179509 
1181.000000	97.133701 
1180.000000	97.089283 
1179.000000	97.046196 
1178.000000	97.002823 
1177.000000	96.956768 
1176.000000	96.907104 
1175.000000	96.855349 
1174.000000	96.803775 
1173.000000	96.753532 
1172.000000	96.704782 
1171.000000	96.657358 
1170.000000	96.610477 
1169.000000	96.563041 
1168.000000	96.515241 
1167.000000	96.469156 
1166.000000	96.427516 
1165.000000	96.393293 
1164.000000	96.370878 
1163.000000	96.365165 
1162.000000	96.377305 
1161.000000	96.401984 
1160.000000	96.429918 
1159.000000	96.452658 
1158.000000	96.465009 
1157.000000	96.464486 
1156.000000	96.450105 
1155.000000	96.422143 
1154.000000	96.382754 
1153.000000	96.336329 
1152.000000	96.288320 
1151.000000	96.242632 
1150.000000	96.200006 
1149.000000	96.159447 
1148.000000	96.120542 
1147.000000	96.082975 
1146.000000	96.044619 
1145.000000	96.002737 
1144.000000	95.957646 
1143.000000	95.913187 
1142.000000	95.872562 
1141.000000	95.835037 
1140.000000	95.797252 
1139.000000	95.756405 
1138.000000	95.711952 
1137.000000	95.665850 
1136.000000	95.621363 
1135.000000	95.579953 
1134.000000	95.539163 
1133.000000	95.495350 
1132.000000	95.448265 
1131.000000	95.400661 
1130.000000	95.353549 
1129.000000	95.304748 
1128.000000	95.252629 
1127.000000	95.198473 
1126.000000	95.144418 
1125.000000	95.091618 
1124.000000	95.040964 
1123.000000	94.992703 
1122.000000	94.944587 
1121.000000	94.893393 
1120.000000	94.839131 
1119.000000	94.784762 
1118.000000	94.731112 
1117.000000	94.675689 
1116.000000	94.617677 
1115.000000	94.560246 
1114.000000	94.505963 
1113.000000	94.453372 
1112.000000	94.400320 
1111.000000	94.347563 
1110.000000	94.296539 
1109.000000	94.246235 
1108.000000	94.194697 
1107.000000	94.141513 
1106.000000	94.087226 
1105.000000	94.032386 
1104.000000	93.978321 
1103.000000	93.926829 
1102.000000	93.877938 
1101.000000	93.830490 
1100.000000	93.784949 
1099.000000	93.742262 
1098.000000	93.701203 
1097.000000	93.659306 
1096.000000	93.616817 
1095.000000	93.574920 
1094.000000	93.530094 
1093.000000	93.475582 
1092.000000	93.409916 
1091.000000	93.339056 
1090.000000	93.268258 
1089.000000	93.196606 
1088.000000	93.121937 
1087.000000	93.046546 
1086.000000	92.974973 
1085.000000	92.909488 
1084.000000	92.849812 
1083.000000	92.793753 
1082.000000	92.736740 
1081.000000	92.675013 
1080.000000	92.610887 
1079.000000	92.550867 
1078.000000	92.497547 
1077.000000	92.448073 
1076.000000	92.401304 
1075.000000	92.360387 
1074.000000	92.326402 
1073.000000	92.294871 
1072.000000	92.259253 
1071.000000	92.211058 
1070.000000	92.136320 
1069.000000	92.023206 
1068.000000	91.880104 
1067.000000	91.739298 
1066.000000	91.633664 
1065.000000	91.570610 
1064.000000	91.531785 
1063.000000	91.491740 
1062.000000	91.431228 
1061.000000	91.340150 
1060.000000	91.220243 
1059.000000	91.087399 
1058.000000	90.964180 
1057.000000	90.864533 
1056.000000	90.785000 
1055.000000	90.709703 
1054.000000	90.623476 
1053.000000	90.523233 
1052.000000	90.418785 
1051.000000	90.321374 
1050.000000	90.231600 
1049.000000	90.141615 
1048.000000	90.047293 
1047.000000	89.951802 
1046.000000	89.857947 
1045.000000	89.764403 
1044.000000	89.670750 
1043.000000	89.580151 
1042.000000	89.494687 
1041.000000	89.412286 
1040.000000	89.330505 
1039.000000	89.250693 
1038.000000	89.177695 
1037.000000	89.117921 
1036.000000	89.076620 
1035.000000	89.052973 
1034.000000	89.038308 
1033.000000	89.022089 
1032.000000	88.997465 
1031.000000	88.958941 
1030.000000	88.902295 
1029.000000	88.835144 
1028.000000	88.781894 
1027.000000	88.765588 
1026.000000	88.784024 
1025.000000	88.812528 
1024.000000	88.829387 
1023.000000	88.829661 
1022.000000	88.816958 
1021.000000	88.794899 
1020.000000	88.768974 
1019.000000	88.745660 
1018.000000	88.724919 
1017.000000	88.700938 
1016.000000	88.672946 
1015.000000	88.647949 
1014.000000	88.630558 
1013.000000	88.617387 
1012.000000	88.603711 
1011.000000	88.588750 
1010.000000	88.572859 
1009.000000	88.556755 
1008.000000	88.545197 
1007.000000	88.544230 
1006.000000	88.552823 
1005.000000	88.563661 
1004.000000	88.573136 
1003.000000	88.583713 
1002.000000	88.596187 
1001.000000	88.607781 
1000.000000	88.619103 
999.000000	 88.634731 
998.000000	 88.654868 
997.000000	 88.674178 
996.000000	 88.691132 
995.000000	 88.711089 
994.000000	 88.737553 
993.000000	 88.767104 
992.000000	 88.795361 
991.000000	 88.821836 
990.000000	 88.847229 
989.000000	 88.872165 
988.000000	 88.900007 
987.000000	 88.934499 
986.000000	 88.973432 
985.000000	 89.011313 
984.000000	 89.049354 
983.000000	 89.095596 
982.000000	 89.153574 
981.000000	 89.218012 
980.000000	 89.283496 
979.000000	 89.350314 
978.000000	 89.419913 
977.000000	 89.491836 
976.000000	 89.567684 
975.000000	 89.651396 
974.000000	 89.742586 
973.000000	 89.835232 
972.000000	 89.925354 
971.000000	 90.014786 
970.000000	 90.105729 
969.000000	 90.197252 
968.000000	 90.289171 
967.000000	 90.383789 
966.000000	 90.481163 
965.000000	 90.577218 
964.000000	 90.668745 
963.000000	 90.756365 
962.000000	 90.841252 
961.000000	 90.923126 
960.000000	 91.002711 
959.000000	 91.081924 
958.000000	 91.160217 
957.000000	 91.234673 
956.000000	 91.304961 
955.000000	 91.374422 
954.000000	 91.445024 
953.000000	 91.514480 
952.000000	 91.579128 
951.000000	 91.636658 
950.000000	 91.686144 
949.000000	 91.729105 
948.000000	 91.770483 
947.000000	 91.814655 
946.000000	 91.860171 
945.000000	 91.901927 
944.000000	 91.938120 
943.000000	 91.970903 
942.000000	 92.000881 
941.000000	 92.026119 
940.000000	 92.047069 
939.000000	 92.067558 
938.000000	 92.089790 
937.000000	 92.112444 
936.000000	 92.134400 
935.000000	 92.156183 
934.000000	 92.177207 
933.000000	 92.196032 
932.000000	 92.214351 
931.000000	 92.236555 
930.000000	 92.264218 
929.000000	 92.294563 
928.000000	 92.324816 
927.000000	 92.354278 
926.000000	 92.381880 
925.000000	 92.405808 
924.000000	 92.425971 
923.000000	 92.442989 
922.000000	 92.454827 
921.000000	 92.458876 
920.000000	 92.457589 
919.000000	 92.457374 
918.000000	 92.461127 
917.000000	 92.466211 
916.000000	 92.470406 
915.000000	 92.475174 
914.000000	 92.482305 
913.000000	 92.492291 
912.000000	 92.507425 
911.000000	 92.531715 
910.000000	 92.565692 
909.000000	 92.605264 
908.000000	 92.647396 
907.000000	 92.693323 
906.000000	 92.744978 
905.000000	 92.801892 
904.000000	 92.862937 
903.000000	 92.928265 
902.000000	 92.998873 
901.000000	 93.076608 
900.000000	 93.163831 
899.000000	 93.259639 
898.000000	 93.357016 
897.000000	 93.447365 
896.000000	 93.527349 
895.000000	 93.598961 
894.000000	 93.665355 
893.000000	 93.730524 
892.000000	 93.800378 
891.000000	 93.878260 
890.000000	 93.959946 
889.000000	 94.037988 
888.000000	 94.109907 
887.000000	 94.176928 
886.000000	 94.236281 
885.000000	 94.282199 
884.000000	 94.315778 
883.000000	 94.347369 
882.000000	 94.386227 
881.000000	 94.432346 
880.000000	 94.481235 
879.000000	 94.532142 
878.000000	 94.587423 
877.000000	 94.646062 
876.000000	 94.701445 
875.000000	 94.745802 
874.000000	 94.776913 
873.000000	 94.801946 
872.000000	 94.834166 
871.000000	 94.882755 
870.000000	 94.944364 
869.000000	 95.006296 
868.000000	 95.058863 
867.000000	 95.103957 
866.000000	 95.152118 
865.000000	 95.212316 
864.000000	 95.283972 
863.000000	 95.357668 
862.000000	 95.424023 
861.000000	 95.482194 
860.000000	 95.538454 
859.000000	 95.597089 
858.000000	 95.656113 
857.000000	 95.712519 
856.000000	 95.766910 
855.000000	 95.819906 
854.000000	 95.868026 
853.000000	 95.907583 
852.000000	 95.940342 
851.000000	 95.971040 
850.000000	 96.000898 
849.000000	 96.027781 
848.000000	 96.051687 
847.000000	 96.075758 
846.000000	 96.101864 
845.000000	 96.128610 
844.000000	 96.153714 
843.000000	 96.175047 
842.000000	 96.189210 
841.000000	 96.192685 
840.000000	 96.185901 
839.000000	 96.174140 
838.000000	 96.162740 
837.000000	 96.151906 
836.000000	 96.137076 
835.000000	 96.114646 
834.000000	 96.087491 
833.000000	 96.063849 
832.000000	 96.048746 
831.000000	 96.037225 
830.000000	 96.020637 
829.000000	 96.001634 
828.000000	 95.996907 
827.000000	 96.018452 
826.000000	 96.055566 
825.000000	 96.084565 
824.000000	 96.096096 
823.000000	 96.103324 
822.000000	 96.121526 
821.000000	 96.149277 
820.000000	 96.173655 
819.000000	 96.186120 
818.000000	 96.188271 
817.000000	 96.185873 
816.000000	 96.181117 
815.000000	 96.169913 
814.000000	 96.145135 
813.000000	 96.102575 
812.000000	 96.043453 
811.000000	 95.970402 
810.000000	 95.882078 
809.000000	 95.773428 
808.000000	 95.640304 
807.000000	 95.481298 
806.000000	 95.296033 
805.000000	 95.086084 
804.000000	 94.859773 
803.000000	 94.633477 
802.000000	 94.425216 
801.000000	 94.247435 
800.000000	 94.105860 
799.000000	 94.001503 
798.000000	 93.932106 
797.000000	 93.894644 
796.000000	 93.887355 
795.000000	 93.907008 
794.000000	 93.945602 
793.000000	 93.993378 
792.000000	 94.042925 
791.000000	 94.086243 
790.000000	 94.111711 
789.000000	 94.111543 
788.000000	 94.091130 
787.000000	 94.063711 
786.000000	 94.034952 
785.000000	 93.998396 
784.000000	 93.946754 
783.000000	 93.881551 
782.000000	 93.810152 
781.000000	 93.739417 
780.000000	 93.675306 
779.000000	 93.624400 
778.000000	 93.592856 
777.000000	 93.586115 
776.000000	 93.609067 
775.000000	 93.661334 
774.000000	 93.732090 
773.000000	 93.805311 
772.000000	 93.871553 
771.000000	 93.930655 
770.000000	 93.983401 
769.000000	 94.026302 
768.000000	 94.056083 
767.000000	 94.074872 
766.000000	 94.088741 
765.000000	 94.102962 
764.000000	 94.118754 
763.000000	 94.132205 
762.000000	 94.137354 
761.000000	 94.133654 
760.000000	 94.129588 
759.000000	 94.135449 
758.000000	 94.153235 
757.000000	 94.176782 
756.000000	 94.200174 
755.000000	 94.222246 
754.000000	 94.244823 
753.000000	 94.270981 
752.000000	 94.303487 
751.000000	 94.340283 
750.000000	 94.373109 
749.000000	 94.395111 
748.000000	 94.408519 
747.000000	 94.421503 
746.000000	 94.440253 
745.000000	 94.467576 
744.000000	 94.504244 
743.000000	 94.545596 
742.000000	 94.581682 
741.000000	 94.608742 
740.000000	 94.636994 
739.000000	 94.679010 
738.000000	 94.733441 
737.000000	 94.788696 
736.000000	 94.839658 
735.000000	 94.891037 
734.000000	 94.945950 
733.000000	 95.001178 
732.000000	 95.053193 
731.000000	 95.098803 
730.000000	 95.130124 
729.000000	 95.139726 
728.000000	 95.131779 
727.000000	 95.119738 
726.000000	 95.112639 
725.000000	 95.111398 
724.000000	 95.118207 
723.000000	 95.138848 
722.000000	 95.172715 
721.000000	 95.209551 
720.000000	 95.240008 
719.000000	 95.263135 
718.000000	 95.281455 
717.000000	 95.296168 
716.000000	 95.310058 
715.000000	 95.327166 
714.000000	 95.346145 
713.000000	 95.361229 
712.000000	 95.372580 
711.000000	 95.387980 
710.000000	 95.410243 
709.000000	 95.430166 
708.000000	 95.436443 
707.000000	 95.426963 
706.000000	 95.407662 
705.000000	 95.384969 
704.000000	 95.362174 
703.000000	 95.338437 
702.000000	 95.306335 
701.000000	 95.254460 
700.000000	 95.175843 
699.000000	 95.070216 
698.000000	 94.940126 
697.000000	 94.792148 
696.000000	 94.643986 
695.000000	 94.523569 
694.000000	 94.454465 
693.000000	 94.445390 
692.000000	 94.491707 
691.000000	 94.575896 
690.000000	 94.668966 
689.000000	 94.744199 
688.000000	 94.795901 
687.000000	 94.838069 
686.000000	 94.880638 
685.000000	 94.919263 
684.000000	 94.950294 
683.000000	 94.979258 
682.000000	 95.010598 
681.000000	 95.042522 
680.000000	 95.076598 
679.000000	 95.117667 
678.000000	 95.157455 
677.000000	 95.176905 
676.000000	 95.173411 
675.000000	 95.167895 
674.000000	 95.179924 
673.000000	 95.204903 
672.000000	 95.220335 
671.000000	 95.209487 
670.000000	 95.173770 
669.000000	 95.138589 
668.000000	 95.148919 
667.000000	 95.212583 
666.000000	 95.291098 
665.000000	 95.362983 
664.000000	 95.414874 
663.000000	 95.437231 
662.000000	 95.432580 
661.000000	 95.420799 
660.000000	 95.423484 
659.000000	 95.440912 
658.000000	 95.449027 
657.000000	 95.425681 
656.000000	 95.375263 
655.000000	 95.322282 
654.000000	 95.288579 
653.000000	 95.274118 
652.000000	 95.258491 
651.000000	 95.225892 
650.000000	 95.187341 

