4000.000000	99.493250 
3999.000000	99.492931 
3998.000000	99.492784 
3997.000000	99.492378 
3996.000000	99.491493 
3995.000000	99.490271 
3994.000000	99.489166 
3993.000000	99.488669 
3992.000000	99.488936 
3991.000000	99.489601 
3990.000000	99.490041 
3989.000000	99.489990 
3988.000000	99.489852 
3987.000000	99.490275 
3986.000000	99.491421 
3985.000000	99.492712 
3984.000000	99.493294 
3983.000000	99.492728 
3982.000000	99.491211 
3981.000000	99.489333 
3980.000000	99.487576 
3979.000000	99.486086 
3978.000000	99.484983 
3977.000000	99.484626 
3976.000000	99.485343 
3975.000000	99.486980 
3974.000000	99.488891 
3973.000000	99.490373 
3972.000000	99.491110 
3971.000000	99.491182 
3970.000000	99.490768 
3969.000000	99.489943 
3968.000000	99.488764 
3967.000000	99.487411 
3966.000000	99.486169 
3965.000000	99.485323 
3964.000000	99.484930 
3963.000000	99.484675 
3962.000000	99.484073 
3961.000000	99.482894 
3960.000000	99.481366 
3959.000000	99.480011 
3958.000000	99.479230 
3957.000000	99.478986 
3956.000000	99.478912 
3955.000000	99.478662 
3954.000000	99.478181 
3953.000000	99.477649 
3952.000000	99.477245 
3951.000000	99.477066 
3950.000000	99.477157 
3949.000000	99.477516 
3948.000000	99.478040 
3947.000000	99.478486 
3946.000000	99.478643 
3945.000000	99.478510 
3944.000000	99.478279 
3943.000000	99.478098 
3942.000000	99.477970 
3941.000000	99.477852 
3940.000000	99.477664 
3939.000000	99.477190 
3938.000000	99.476221 
3937.000000	99.474865 
3936.000000	99.473686 
3935.000000	99.473347 
3934.000000	99.474128 
3933.000000	99.475740 
3932.000000	99.477450 
3931.000000	99.478482 
3930.000000	99.478420 
3929.000000	99.477376 
3928.000000	99.475913 
3927.000000	99.474740 
3926.000000	99.474374 
3925.000000	99.474868 
3924.000000	99.475697 
3923.000000	99.476179 
3922.000000	99.476049 
3921.000000	99.475614 
3920.000000	99.475369 
3919.000000	99.475578 
3918.000000	99.476204 
3917.000000	99.477087 
3916.000000	99.478089 
3915.000000	99.479134 
3914.000000	99.480219 
3913.000000	99.481298 
3912.000000	99.482063 
3911.000000	99.482141 
3910.000000	99.481554 
3909.000000	99.480858 
3908.000000	99.480651 
3907.000000	99.480819 
3906.000000	99.480440 
3905.000000	99.478602 
3904.000000	99.475279 
3903.000000	99.471650 
3902.000000	99.469344 
3901.000000	99.469185 
3900.000000	99.470831 
3899.000000	99.473039 
3898.000000	99.474557 
3897.000000	99.474979 
3896.000000	99.474587 
3895.000000	99.473816 
3894.000000	99.472953 
3893.000000	99.472094 
3892.000000	99.471194 
3891.000000	99.470140 
3890.000000	99.468980 
3889.000000	99.467925 
3888.000000	99.467190 
3887.000000	99.466964 
3886.000000	99.467245 
3885.000000	99.467652 
3884.000000	99.467744 
3883.000000	99.467574 
3882.000000	99.467653 
3881.000000	99.468359 
3880.000000	99.469444 
3879.000000	99.470232 
3878.000000	99.470442 
3877.000000	99.470350 
3876.000000	99.470364 
3875.000000	99.470609 
3874.000000	99.470761 
3873.000000	99.470352 
3872.000000	99.469465 
3871.000000	99.468890 
3870.000000	99.469353 
3869.000000	99.470840 
3868.000000	99.472702 
3867.000000	99.474261 
3866.000000	99.475274 
3865.000000	99.475846 
3864.000000	99.476035 
3863.000000	99.475881 
3862.000000	99.475500 
3861.000000	99.475076 
3860.000000	99.474775 
3859.000000	99.474726 
3858.000000	99.474887 
3857.000000	99.475043 
3856.000000	99.475025 
3855.000000	99.475027 
3854.000000	99.475451 
3853.000000	99.476387 
3852.000000	99.477589 
3851.000000	99.478762 
3850.000000	99.479655 
3849.000000	99.480249 
3848.000000	99.480665 
3847.000000	99.481007 
3846.000000	99.481300 
3845.000000	99.481549 
3844.000000	99.481829 
3843.000000	99.482294 
3842.000000	99.482978 
3841.000000	99.483732 
3840.000000	99.484353 
3839.000000	99.484728 
3838.000000	99.484859 
3837.000000	99.484851 
3836.000000	99.484839 
3835.000000	99.484942 
3834.000000	99.485239 
3833.000000	99.485757 
3832.000000	99.486421 
3831.000000	99.487017 
3830.000000	99.487326 
3829.000000	99.487293 
3828.000000	99.487033 
3827.000000	99.486751 
3826.000000	99.486593 
3825.000000	99.486578 
3824.000000	99.486659 
3823.000000	99.486818 
3822.000000	99.487036 
3821.000000	99.487217 
3820.000000	99.487237 
3819.000000	99.487078 
3818.000000	99.486834 
3817.000000	99.486631 
3816.000000	99.486505 
3815.000000	99.486361 
3814.000000	99.486122 
3813.000000	99.485866 
3812.000000	99.485765 
3811.000000	99.485891 
3810.000000	99.486143 
3809.000000	99.486293 
3808.000000	99.486209 
3807.000000	99.485953 
3806.000000	99.485671 
3805.000000	99.485373 
3804.000000	99.484963 
3803.000000	99.484472 
3802.000000	99.484098 
3801.000000	99.483978 
3800.000000	99.484012 
3799.000000	99.483968 
3798.000000	99.483716 
3797.000000	99.483315 
3796.000000	99.482914 
3795.000000	99.482577 
3794.000000	99.482223 
3793.000000	99.481726 
3792.000000	99.481049 
3791.000000	99.480315 
3790.000000	99.479732 
3789.000000	99.479436 
3788.000000	99.479403 
3787.000000	99.479485 
3786.000000	99.479591 
3785.000000	99.479825 
3784.000000	99.480325 
3783.000000	99.480963 
3782.000000	99.481394 
3781.000000	99.481488 
3780.000000	99.481479 
3779.000000	99.481570 
3778.000000	99.481512 
3777.000000	99.480852 
3776.000000	99.479540 
3775.000000	99.478132 
3774.000000	99.477286 
3773.000000	99.477190 
3772.000000	99.477606 
3771.000000	99.478257 
3770.000000	99.478821 
3769.000000	99.478861 
3768.000000	99.478172 
3767.000000	99.477028 
3766.000000	99.476023 
3765.000000	99.475667 
3764.000000	99.475967 
3763.000000	99.476523 
3762.000000	99.477009 
3761.000000	99.477389 
3760.000000	99.477593 
3759.000000	99.477458 
3758.000000	99.477190 
3757.000000	99.477446 
3756.000000	99.478574 
3755.000000	99.480192 
3754.000000	99.481624 
3753.000000	99.482424 
3752.000000	99.482275 
3751.000000	99.480817 
3750.000000	99.478605 
3749.000000	99.477359 
3748.000000	99.477750 
3747.000000	99.478525 
3746.000000	99.478552 
3745.000000	99.478131 
3744.000000	99.477846 
3743.000000	99.477463 
3742.000000	99.476245 
3741.000000	99.473442 
3740.000000	99.468725 
3739.000000	99.462592 
3738.000000	99.456974 
3737.000000	99.454719 
3736.000000	99.456666 
3735.000000	99.459394 
3734.000000	99.458406 
3733.000000	99.453825 
3732.000000	99.449848 
3731.000000	99.449283 
3730.000000	99.450977 
3729.000000	99.452006 
3728.000000	99.451197 
3727.000000	99.449759 
3726.000000	99.448968 
3725.000000	99.448573 
3724.000000	99.447806 
3723.000000	99.446834 
3722.000000	99.446280 
3721.000000	99.446433 
3720.000000	99.446650 
3719.000000	99.445711 
3718.000000	99.443262 
3717.000000	99.440213 
3716.000000	99.437350 
3715.000000	99.434677 
3714.000000	99.432267 
3713.000000	99.430931 
3712.000000	99.430829 
3711.000000	99.430426 
3710.000000	99.427855 
3709.000000	99.422443 
3708.000000	99.414948 
3707.000000	99.406842 
3706.000000	99.399429 
3705.000000	99.393475 
3704.000000	99.389026 
3703.000000	99.385207 
3702.000000	99.380216 
3701.000000	99.372541 
3700.000000	99.362349 
3699.000000	99.351145 
3698.000000	99.340523 
3697.000000	99.331441 
3696.000000	99.324040 
3695.000000	99.318290 
3694.000000	99.314685 
3693.000000	99.313637 
3692.000000	99.313858 
3691.000000	99.312180 
3690.000000	99.306043 
3689.000000	99.296417 
3688.000000	99.287158 
3687.000000	99.280743 
3686.000000	99.276572 
3685.000000	99.273747 
3684.000000	99.272837 
3683.000000	99.274471 
3682.000000	99.277351 
3681.000000	99.278452 
3680.000000	99.275154 
3679.000000	99.266479 
3678.000000	99.253748 
3677.000000	99.241812 
3676.000000	99.237295 
3675.000000	99.241521 
3674.000000	99.248551 
3673.000000	99.252198 
3672.000000	99.250937 
3671.000000	99.247603 
3670.000000	99.245617 
3669.000000	99.245722 
3668.000000	99.247301 
3667.000000	99.250400 
3666.000000	99.254834 
3665.000000	99.259169 
3664.000000	99.261389 
3663.000000	99.260689 
3662.000000	99.258336 
3661.000000	99.256290 
3660.000000	99.255563 
3659.000000	99.256277 
3658.000000	99.258849 
3657.000000	99.263950 
3656.000000	99.271070 
3655.000000	99.278397 
3654.000000	99.284380 
3653.000000	99.288397 
3652.000000	99.290175 
3651.000000	99.289758 
3650.000000	99.288445 
3649.000000	99.289180 
3648.000000	99.294051 
3647.000000	99.301689 
3646.000000	99.308998 
3645.000000	99.314618 
3644.000000	99.319583 
3643.000000	99.325480 
3642.000000	99.332944 
3641.000000	99.341252 
3640.000000	99.349183 
3639.000000	99.355832 
3638.000000	99.360717 
3637.000000	99.363785 
3636.000000	99.365428 
3635.000000	99.366223 
3634.000000	99.366286 
3633.000000	99.365366 
3632.000000	99.363982 
3631.000000	99.364038 
3630.000000	99.367637 
3629.000000	99.373782 
3628.000000	99.378129 
3627.000000	99.379041 
3626.000000	99.379048 
3625.000000	99.380592 
3624.000000	99.383867 
3623.000000	99.387636 
3622.000000	99.390844 
3621.000000	99.393686 
3620.000000	99.396766 
3619.000000	99.399595 
3618.000000	99.401238 
3617.000000	99.402143 
3616.000000	99.403787 
3615.000000	99.407073 
3614.000000	99.411181 
3613.000000	99.414069 
3612.000000	99.414465 
3611.000000	99.413110 
3610.000000	99.411861 
3609.000000	99.411807 
3608.000000	99.412499 
3607.000000	99.413082 
3606.000000	99.413674 
3605.000000	99.415071 
3604.000000	99.417676 
3603.000000	99.421199 
3602.000000	99.425019 
3601.000000	99.428626 
3600.000000	99.431497 
3599.000000	99.432991 
3598.000000	99.432850 
3597.000000	99.431529 
3596.000000	99.430002 
3595.000000	99.429325 
3594.000000	99.429839 
3593.000000	99.430943 
3592.000000	99.431675 
3591.000000	99.431413 
3590.000000	99.430460 
3589.000000	99.430020 
3588.000000	99.431132 
3587.000000	99.433181 
3586.000000	99.434536 
3585.000000	99.434764 
3584.000000	99.435023 
3583.000000	99.436450 
3582.000000	99.438986 
3581.000000	99.441502 
3580.000000	99.442884 
3579.000000	99.442900 
3578.000000	99.442032 
3577.000000	99.440896 
3576.000000	99.439884 
3575.000000	99.439232 
3574.000000	99.439117 
3573.000000	99.439505 
3572.000000	99.440176 
3571.000000	99.440829 
3570.000000	99.441078 
3569.000000	99.440663 
3568.000000	99.439963 
3567.000000	99.439799 
3566.000000	99.440583 
3565.000000	99.442131 
3564.000000	99.444209 
3563.000000	99.446773 
3562.000000	99.449754 
3561.000000	99.452688 
3560.000000	99.454839 
3559.000000	99.455755 
3558.000000	99.455722 
3557.000000	99.455547 
3556.000000	99.455885 
3555.000000	99.456715 
3554.000000	99.457479 
3553.000000	99.457508 
3552.000000	99.456470 
3551.000000	99.454653 
3550.000000	99.452723 
3549.000000	99.451224 
3548.000000	99.450479 
3547.000000	99.450631 
3546.000000	99.451593 
3545.000000	99.452799 
3544.000000	99.453594 
3543.000000	99.454040 
3542.000000	99.455024 
3541.000000	99.457252 
3540.000000	99.460423 
3539.000000	99.463358 
3538.000000	99.465074 
3537.000000	99.465479 
3536.000000	99.465162 
3535.000000	99.464819 
3534.000000	99.464793 
3533.000000	99.465132 
3532.000000	99.465724 
3531.000000	99.466370 
3530.000000	99.466747 
3529.000000	99.466507 
3528.000000	99.465589 
3527.000000	99.464451 
3526.000000	99.463817 
3525.000000	99.464064 
3524.000000	99.464936 
3523.000000	99.465793 
3522.000000	99.466204 
3521.000000	99.466239 
3520.000000	99.466286 
3519.000000	99.466672 
3518.000000	99.467444 
3517.000000	99.468355 
3516.000000	99.469027 
3515.000000	99.469199 
3514.000000	99.468846 
3513.000000	99.468152 
3512.000000	99.467432 
3511.000000	99.467033 
3510.000000	99.467171 
3509.000000	99.467785 
3508.000000	99.468551 
3507.000000	99.469124 
3506.000000	99.469391 
3505.000000	99.469452 
3504.000000	99.469473 
3503.000000	99.469596 
3502.000000	99.469945 
3501.000000	99.470577 
3500.000000	99.471370 
3499.000000	99.472023 
3498.000000	99.472235 
3497.000000	99.471903 
3496.000000	99.471165 
3495.000000	99.470333 
3494.000000	99.469790 
3493.000000	99.469830 
3492.000000	99.470513 
3491.000000	99.471620 
3490.000000	99.472818 
3489.000000	99.473918 
3488.000000	99.474909 
3487.000000	99.475778 
3486.000000	99.476414 
3485.000000	99.476710 
3484.000000	99.476691 
3483.000000	99.476537 
3482.000000	99.476475 
3481.000000	99.476656 
3480.000000	99.477085 
3479.000000	99.477621 
3478.000000	99.478041 
3477.000000	99.478215 
3476.000000	99.478286 
3475.000000	99.478659 
3474.000000	99.479655 
3473.000000	99.481158 
3472.000000	99.482596 
3471.000000	99.483469 
3470.000000	99.483830 
3469.000000	99.484121 
3468.000000	99.484545 
3467.000000	99.484798 
3466.000000	99.484579 
3465.000000	99.484129 
3464.000000	99.484065 
3463.000000	99.484713 
3462.000000	99.485796 
3461.000000	99.486769 
3460.000000	99.487376 
3459.000000	99.487785 
3458.000000	99.488275 
3457.000000	99.488857 
3456.000000	99.489271 
3455.000000	99.489297 
3454.000000	99.489020 
3453.000000	99.488743 
3452.000000	99.488647 
3451.000000	99.488655 
3450.000000	99.488643 
3449.000000	99.488669 
3448.000000	99.488880 
3447.000000	99.489262 
3446.000000	99.489583 
3445.000000	99.489673 
3444.000000	99.489650 
3443.000000	99.489766 
3442.000000	99.490078 
3441.000000	99.490359 
3440.000000	99.490355 
3439.000000	99.490046 
3438.000000	99.489601 
3437.000000	99.489159 
3436.000000	99.488747 
3435.000000	99.488426 
3434.000000	99.488360 
3433.000000	99.488661 
3432.000000	99.489200 
3431.000000	99.489660 
3430.000000	99.489830 
3429.000000	99.489798 
3428.000000	99.489815 
3427.000000	99.489989 
3426.000000	99.490153 
3425.000000	99.490060 
3424.000000	99.489631 
3423.000000	99.489030 
3422.000000	99.488536 
3421.000000	99.488319 
3420.000000	99.488394 
3419.000000	99.488717 
3418.000000	99.489256 
3417.000000	99.489913 
3416.000000	99.490451 
3415.000000	99.490634 
3414.000000	99.490420 
3413.000000	99.490007 
3412.000000	99.489681 
3411.000000	99.489603 
3410.000000	99.489744 
3409.000000	99.489955 
3408.000000	99.490056 
3407.000000	99.489919 
3406.000000	99.489562 
3405.000000	99.489179 
3404.000000	99.489032 
3403.000000	99.489237 
3402.000000	99.489658 
3401.000000	99.490056 
3400.000000	99.490358 
3399.000000	99.490709 
3398.000000	99.491240 
3397.000000	99.491823 
3396.000000	99.492123 
3395.000000	99.491895 
3394.000000	99.491177 
3393.000000	99.490249 
3392.000000	99.489454 
3391.000000	99.489052 
3390.000000	99.489174 
3389.000000	99.489806 
3388.000000	99.490763 
3387.000000	99.491710 
3386.000000	99.492355 
3385.000000	99.492690 
3384.000000	99.492979 
3383.000000	99.493426 
3382.000000	99.493824 
3381.000000	99.493737 
3380.000000	99.493038 
3379.000000	99.492110 
3378.000000	99.491501 
3377.000000	99.491380 
3376.000000	99.491485 
3375.000000	99.491478 
3374.000000	99.491272 
3373.000000	99.491021 
3372.000000	99.490914 
3371.000000	99.491005 
3370.000000	99.491181 
3369.000000	99.491233 
3368.000000	99.491014 
3367.000000	99.490585 
3366.000000	99.490186 
3365.000000	99.490021 
3364.000000	99.490077 
3363.000000	99.490181 
3362.000000	99.490184 
3361.000000	99.490066 
3360.000000	99.489860 
3359.000000	99.489575 
3358.000000	99.489209 
3357.000000	99.488812 
3356.000000	99.488479 
3355.000000	99.488257 
3354.000000	99.488100 
3353.000000	99.487922 
3352.000000	99.487676 
3351.000000	99.487390 
3350.000000	99.487139 
3349.000000	99.486969 
3348.000000	99.486874 
3347.000000	99.486808 
3346.000000	99.486706 
3345.000000	99.486526 
3344.000000	99.486259 
3343.000000	99.485943 
3342.000000	99.485636 
3341.000000	99.485360 
3340.000000	99.485093 
3339.000000	99.484803 
3338.000000	99.484502 
3337.000000	99.484262 
3336.000000	99.484148 
3335.000000	99.484135 
3334.000000	99.484121 
3333.000000	99.484033 
3332.000000	99.483899 
3331.000000	99.483773 
3330.000000	99.483628 
3329.000000	99.483360 
3328.000000	99.482934 
3327.000000	99.482481 
3326.000000	99.482195 
3325.000000	99.482127 
3324.000000	99.482101 
3323.000000	99.481901 
3322.000000	99.481511 
3321.000000	99.481104 
3320.000000	99.480829 
3319.000000	99.480686 
3318.000000	99.480623 
3317.000000	99.480652 
3316.000000	99.480783 
3315.000000	99.480912 
3314.000000	99.480897 
3313.000000	99.480742 
3312.000000	99.480593 
3311.000000	99.480536 
3310.000000	99.480461 
3309.000000	99.480198 
3308.000000	99.479742 
3307.000000	99.479239 
3306.000000	99.478827 
3305.000000	99.478538 
3304.000000	99.478334 
3303.000000	99.478162 
3302.000000	99.477959 
3301.000000	99.477668 
3300.000000	99.477280 
3299.000000	99.476844 
3298.000000	99.476432 
3297.000000	99.476083 
3296.000000	99.475783 
3295.000000	99.475485 
3294.000000	99.475155 
3293.000000	99.474787 
3292.000000	99.474407 
3291.000000	99.474038 
3290.000000	99.473679 
3289.000000	99.473311 
3288.000000	99.472928 
3287.000000	99.472545 
3286.000000	99.472189 
3285.000000	99.471864 
3284.000000	99.471550 
3283.000000	99.471226 
3282.000000	99.470886 
3281.000000	99.470542 
3280.000000	99.470213 
3279.000000	99.469902 
3278.000000	99.469602 
3277.000000	99.469296 
3276.000000	99.468973 
3275.000000	99.468622 
3274.000000	99.468247 
3273.000000	99.467879 
3272.000000	99.467562 
3271.000000	99.467317 
3270.000000	99.467132 
3269.000000	99.466961 
3268.000000	99.466759 
3267.000000	99.466498 
3266.000000	99.466167 
3265.000000	99.465782 
3264.000000	99.465402 
3263.000000	99.465146 
3262.000000	99.465126 
3261.000000	99.465342 
3260.000000	99.465625 
3259.000000	99.465739 
3258.000000	99.465531 
3257.000000	99.465014 
3256.000000	99.464323 
3255.000000	99.463579 
3254.000000	99.462817 
3253.000000	99.462076 
3252.000000	99.461542 
3251.000000	99.461509 
3250.000000	99.462092 
3249.000000	99.462984 
3248.000000	99.463622 
3247.000000	99.463662 
3246.000000	99.463190 
3245.000000	99.462524 
3244.000000	99.461888 
3243.000000	99.461339 
3242.000000	99.460898 
3241.000000	99.460603 
3240.000000	99.460497 
3239.000000	99.460680 
3238.000000	99.461321 
3237.000000	99.462502 
3236.000000	99.464007 
3235.000000	99.465301 
3234.000000	99.465780 
3233.000000	99.465138 
3232.000000	99.463615 
3231.000000	99.461921 
3230.000000	99.460801 
3229.000000	99.460505 
3228.000000	99.460680 
3227.000000	99.460699 
3226.000000	99.460096 
3225.000000	99.458787 
3224.000000	99.457070 
3223.000000	99.455500 
3222.000000	99.454560 
3221.000000	99.454292 
3220.000000	99.454273 
3219.000000	99.454055 
3218.000000	99.453646 
3217.000000	99.453506 
3216.000000	99.454103 
3215.000000	99.455474 
3214.000000	99.457127 
3213.000000	99.458346 
3212.000000	99.458687 
3211.000000	99.458222 
3210.000000	99.457327 
3209.000000	99.456323 
3208.000000	99.455371 
3207.000000	99.454664 
3206.000000	99.454436 
3205.000000	99.454712 
3204.000000	99.455217 
3203.000000	99.455614 
3202.000000	99.455777 
3201.000000	99.455741 
3200.000000	99.455545 
3199.000000	99.455212 
3198.000000	99.454813 
3197.000000	99.454479 
3196.000000	99.454348 
3195.000000	99.454500 
3194.000000	99.454854 
3193.000000	99.455135 
3192.000000	99.455050 
3191.000000	99.454538 
3190.000000	99.453792 
3189.000000	99.453086 
3188.000000	99.452562 
3187.000000	99.452240 
3186.000000	99.452133 
3185.000000	99.452231 
3184.000000	99.452402 
3183.000000	99.452430 
3182.000000	99.452220 
3181.000000	99.451916 
3180.000000	99.451786 
3179.000000	99.452012 
3178.000000	99.452531 
3177.000000	99.453015 
3176.000000	99.453089 
3175.000000	99.452653 
3174.000000	99.451982 
3173.000000	99.451400 
3172.000000	99.450874 
3171.000000	99.450109 
3170.000000	99.449046 
3169.000000	99.448102 
3168.000000	99.447754 
3167.000000	99.448035 
3166.000000	99.448507 
3165.000000	99.448642 
3164.000000	99.448229 
3163.000000	99.447421 
3162.000000	99.446579 
3161.000000	99.446054 
3160.000000	99.446014 
3159.000000	99.446358 
3158.000000	99.446735 
3157.000000	99.446717 
3156.000000	99.446065 
3155.000000	99.444878 
3154.000000	99.443499 
3153.000000	99.442207 
3152.000000	99.441049 
3151.000000	99.440025 
3150.000000	99.439326 
3149.000000	99.439225 
3148.000000	99.439715 
3147.000000	99.440460 
3146.000000	99.441137 
3145.000000	99.441686 
3144.000000	99.442170 
3143.000000	99.442545 
3142.000000	99.442680 
3141.000000	99.442535 
3140.000000	99.442200 
3139.000000	99.441775 
3138.000000	99.441292 
3137.000000	99.440760 
3136.000000	99.440240 
3135.000000	99.439859 
3134.000000	99.439752 
3133.000000	99.439934 
3132.000000	99.440178 
3131.000000	99.440117 
3130.000000	99.439566 
3129.000000	99.438782 
3128.000000	99.438334 
3127.000000	99.438635 
3126.000000	99.439613 
3125.000000	99.440736 
3124.000000	99.441375 
3123.000000	99.441234 
3122.000000	99.440471 
3121.000000	99.439570 
3120.000000	99.438989 
3119.000000	99.438836 
3118.000000	99.438919 
3117.000000	99.439043 
3116.000000	99.439217 
3115.000000	99.439538 
3114.000000	99.439934 
3113.000000	99.440119 
3112.000000	99.439842 
3111.000000	99.439147 
3110.000000	99.438355 
3109.000000	99.437798 
3108.000000	99.437548 
3107.000000	99.437410 
3106.000000	99.437135 
3105.000000	99.436684 
3104.000000	99.436318 
3103.000000	99.436411 
3102.000000	99.437145 
3101.000000	99.438326 
3100.000000	99.439475 
3099.000000	99.440248 
3098.000000	99.440717 
3097.000000	99.441207 
3096.000000	99.441903 
3095.000000	99.442605 
3094.000000	99.442875 
3093.000000	99.442386 
3092.000000	99.441151 
3091.000000	99.439558 
3090.000000	99.438230 
3089.000000	99.437772 
3088.000000	99.438417 
3087.000000	99.439738 
3086.000000	99.440882 
3085.000000	99.441313 
3084.000000	99.441199 
3083.000000	99.440821 
3082.000000	99.439824 
3081.000000	99.437570 
3080.000000	99.434404 
3079.000000	99.432092 
3078.000000	99.432550 
3077.000000	99.436088 
3076.000000	99.441017 
3075.000000	99.444952 
3074.000000	99.446424 
3073.000000	99.445400 
3072.000000	99.442675 
3071.000000	99.439029 
3070.000000	99.434963 
3069.000000	99.430965 
3068.000000	99.427727 
3067.000000	99.426014 
3066.000000	99.426487 
3065.000000	99.429549 
3064.000000	99.434738 
3063.000000	99.439941 
3062.000000	99.441992 
3061.000000	99.439083 
3060.000000	99.432741 
3059.000000	99.426765 
3058.000000	99.423988 
3057.000000	99.424549 
3056.000000	99.427040 
3055.000000	99.430136 
3054.000000	99.432618 
3053.000000	99.432977 
3052.000000	99.430200 
3051.000000	99.424867 
3050.000000	99.418988 
3049.000000	99.414773 
3048.000000	99.413382 
3047.000000	99.414012 
3046.000000	99.413808 
3045.000000	99.409724 
3044.000000	99.401584 
3043.000000	99.392918 
3042.000000	99.387820 
3041.000000	99.387015 
3040.000000	99.387631 
3039.000000	99.386346 
3038.000000	99.381744 
3037.000000	99.374053 
3036.000000	99.364067 
3035.000000	99.352828 
3034.000000	99.341407 
3033.000000	99.330221 
3032.000000	99.318927 
3031.000000	99.307208 
3030.000000	99.295155 
3029.000000	99.282906 
3028.000000	99.270668 
3027.000000	99.259100 
3026.000000	99.248845 
3025.000000	99.239359 
3024.000000	99.228783 
3023.000000	99.215329 
3022.000000	99.198428 
3021.000000	99.178432 
3020.000000	99.155918 
3019.000000	99.131907 
3018.000000	99.108399 
3017.000000	99.087752 
3016.000000	99.070879 
3015.000000	99.056078 
3014.000000	99.040153 
3013.000000	99.021288 
3012.000000	99.000868 
3011.000000	98.981878 
3010.000000	98.965316 
3009.000000	98.948943 
3008.000000	98.930037 
3007.000000	98.908536 
3006.000000	98.886519 
3005.000000	98.865146 
3004.000000	98.843542 
3003.000000	98.820822 
3002.000000	98.797914 
3001.000000	98.776687 
3000.000000	98.757965 
2999.000000	98.741167 
2998.000000	98.725679 
2997.000000	98.712011 
2996.000000	98.701153 
2995.000000	98.692183 
2994.000000	98.680348 
2993.000000	98.658838 
2992.000000	98.624520 
2991.000000	98.582622 
2990.000000	98.544626 
2989.000000	98.520439 
2988.000000	98.512642 
2987.000000	98.517404 
2986.000000	98.528925 
2985.000000	98.542427 
2984.000000	98.554391 
2983.000000	98.562404 
2982.000000	98.565698 
2981.000000	98.565383 
2980.000000	98.563680 
2979.000000	98.562700 
2978.000000	98.563271 
2977.000000	98.564220 
2976.000000	98.563015 
2975.000000	98.558034 
2974.000000	98.550688 
2973.000000	98.545117 
2972.000000	98.545448 
2971.000000	98.553043 
2970.000000	98.565929 
2969.000000	98.580612 
2968.000000	98.594802 
2967.000000	98.608900 
2966.000000	98.624855 
2965.000000	98.643484 
2964.000000	98.663027 
2963.000000	98.680462 
2962.000000	98.694082 
2961.000000	98.704591 
2960.000000	98.713937 
2959.000000	98.723481 
2958.000000	98.733277 
2957.000000	98.742700 
2956.000000	98.751430 
2955.000000	98.759917 
2954.000000	98.769154 
2953.000000	98.780082 
2952.000000	98.792967 
2951.000000	98.806927 
2950.000000	98.820043 
2949.000000	98.830375 
2948.000000	98.837189 
2947.000000	98.841160 
2946.000000	98.843623 
2945.000000	98.846065 
2944.000000	98.850077 
2943.000000	98.856774 
2942.000000	98.865416 
2941.000000	98.873129 
2940.000000	98.877176 
2939.000000	98.877923 
2938.000000	98.878979 
2937.000000	98.884022 
2936.000000	98.893676 
2935.000000	98.905246 
2934.000000	98.914879 
2933.000000	98.919930 
2932.000000	98.920195 
2931.000000	98.917458 
2930.000000	98.913925 
2929.000000	98.910922 
2928.000000	98.908738 
2927.000000	98.906915 
2926.000000	98.904274 
2925.000000	98.899470 
2924.000000	98.892497 
2923.000000	98.885240 
2922.000000	98.879537 
2921.000000	98.874842 
2920.000000	98.868935 
2919.000000	98.860790 
2918.000000	98.851603 
2917.000000	98.842756 
2916.000000	98.833926 
2915.000000	98.823756 
2914.000000	98.811812 
2913.000000	98.799417 
2912.000000	98.789012 
2911.000000	98.782710 
2910.000000	98.780670 
2909.000000	98.780563 
2908.000000	98.779228 
2907.000000	98.775120 
2906.000000	98.768435 
2905.000000	98.758935 
2904.000000	98.745335 
2903.000000	98.728257 
2902.000000	98.713021 
2901.000000	98.707785 
2900.000000	98.717216 
2899.000000	98.738640 
2898.000000	98.763209 
2897.000000	98.781637 
2896.000000	98.790067 
2895.000000	98.791350 
2894.000000	98.791418 
2893.000000	98.794323 
2892.000000	98.800358 
2891.000000	98.807643 
2890.000000	98.814295 
2889.000000	98.819092 
2888.000000	98.821545 
2887.000000	98.822432 
2886.000000	98.823777 
2885.000000	98.827491 
2884.000000	98.834245 
2883.000000	98.844094 
2882.000000	98.857507 
2881.000000	98.874736 
2880.000000	98.894271 
2879.000000	98.912961 
2878.000000	98.928148 
2877.000000	98.939486 
2876.000000	98.948619 
2875.000000	98.957536 
2874.000000	98.967295 
2873.000000	98.977807 
2872.000000	98.988323 
2871.000000	98.998065 
2870.000000	99.006697 
2869.000000	99.014681 
2868.000000	99.023425 
2867.000000	99.034715 
2866.000000	99.049321 
2865.000000	99.066099 
2864.000000	99.082995 
2863.000000	99.099007 
2862.000000	99.114505 
2861.000000	99.129636 
2860.000000	99.143593 
2859.000000	99.156021 
2858.000000	99.168021 
2857.000000	99.180687 
2856.000000	99.193265 
2855.000000	99.203949 
2854.000000	99.212285 
2853.000000	99.219717 
2852.000000	99.227620 
2851.000000	99.235789 
2850.000000	99.243308 
2849.000000	99.249972 
2848.000000	99.256315 
2847.000000	99.262825 
2846.000000	99.269512 
2845.000000	99.275837 
2844.000000	99.280800 
2843.000000	99.283627 
2842.000000	99.284898 
2841.000000	99.286696 
2840.000000	99.291058 
2839.000000	99.298166 
2838.000000	99.306276 
2837.000000	99.313315 
2836.000000	99.318312 
2835.000000	99.321534 
2834.000000	99.323778 
2833.000000	99.325772 
2832.000000	99.327906 
2831.000000	99.330042 
2830.000000	99.331458 
2829.000000	99.331404 
2828.000000	99.330116 
2827.000000	99.329185 
2826.000000	99.330520 
2825.000000	99.334678 
2824.000000	99.340365 
2823.000000	99.345584 
2822.000000	99.349164 
2821.000000	99.351202 
2820.000000	99.352410 
2819.000000	99.353364 
2818.000000	99.354300 
2817.000000	99.355392 
2816.000000	99.356986 
2815.000000	99.359315 
2814.000000	99.361879 
2813.000000	99.363445 
2812.000000	99.363187 
2811.000000	99.361878 
2810.000000	99.361448 
2809.000000	99.363083 
2808.000000	99.366039 
2807.000000	99.368562 
2806.000000	99.369678 
2805.000000	99.369771 
2804.000000	99.369748 
2803.000000	99.370107 
2802.000000	99.370825 
2801.000000	99.371722 
2800.000000	99.372719 
2799.000000	99.373840 
2798.000000	99.375045 
2797.000000	99.376058 
2796.000000	99.376463 
2795.000000	99.376114 
2794.000000	99.375415 
2793.000000	99.375051 
2792.000000	99.375417 
2791.000000	99.376373 
2790.000000	99.377595 
2789.000000	99.378983 
2788.000000	99.380658 
2787.000000	99.382602 
2786.000000	99.384440 
2785.000000	99.385650 
2784.000000	99.385986 
2783.000000	99.385681 
2782.000000	99.385271 
2781.000000	99.385230 
2780.000000	99.385718 
2779.000000	99.386606 
2778.000000	99.387624 
2777.000000	99.388561 
2776.000000	99.389395 
2775.000000	99.390235 
2774.000000	99.391115 
2773.000000	99.391922 
2772.000000	99.392563 
2771.000000	99.393139 
2770.000000	99.393829 
2769.000000	99.394615 
2768.000000	99.395257 
2767.000000	99.395600 
2766.000000	99.395791 
2765.000000	99.396089 
2764.000000	99.396513 
2763.000000	99.396825 
2762.000000	99.396851 
2761.000000	99.396684 
2760.000000	99.396604 
2759.000000	99.396827 
2758.000000	99.397380 
2757.000000	99.398162 
2756.000000	99.399022 
2755.000000	99.399799 
2754.000000	99.400362 
2753.000000	99.400679 
2752.000000	99.400858 
2751.000000	99.401107 
2750.000000	99.401569 
2749.000000	99.402223 
2748.000000	99.402924 
2747.000000	99.403527 
2746.000000	99.403992 
2745.000000	99.404374 
2744.000000	99.404752 
2743.000000	99.405165 
2742.000000	99.405614 
2741.000000	99.406095 
2740.000000	99.406616 
2739.000000	99.407166 
2738.000000	99.407710 
2737.000000	99.408236 
2736.000000	99.408775 
2735.000000	99.409358 
2734.000000	99.409958 
2733.000000	99.410504 
2732.000000	99.410959 
2731.000000	99.411365 
2730.000000	99.411793 
2729.000000	99.412271 
2728.000000	99.412775 
2727.000000	99.413279 
2726.000000	99.413788 
2725.000000	99.414326 
2724.000000	99.414914 
2723.000000	99.415563 
2722.000000	99.416262 
2721.000000	99.416974 
2720.000000	99.417643 
2719.000000	99.418235 
2718.000000	99.418760 
2717.000000	99.419260 
2716.000000	99.419763 
2715.000000	99.420278 
2714.000000	99.420811 
2713.000000	99.421379 
2712.000000	99.421994 
2711.000000	99.422635 
2710.000000	99.423268 
2709.000000	99.423881 
2708.000000	99.424491 
2707.000000	99.425088 
2706.000000	99.425615 
2705.000000	99.426034 
2704.000000	99.426390 
2703.000000	99.426787 
2702.000000	99.427263 
2701.000000	99.427744 
2700.000000	99.428142 
2699.000000	99.428461 
2698.000000	99.428808 
2697.000000	99.429274 
2696.000000	99.429861 
2695.000000	99.430486 
2694.000000	99.431058 
2693.000000	99.431551 
2692.000000	99.432002 
2691.000000	99.432445 
2690.000000	99.432857 
2689.000000	99.433194 
2688.000000	99.433470 
2687.000000	99.433758 
2686.000000	99.434130 
2685.000000	99.434596 
2684.000000	99.435116 
2683.000000	99.435629 
2682.000000	99.436080 
2681.000000	99.436438 
2680.000000	99.436717 
2679.000000	99.436968 
2678.000000	99.437257 
2677.000000	99.437626 
2676.000000	99.438093 
2675.000000	99.438645 
2674.000000	99.439238 
2673.000000	99.439806 
2672.000000	99.440300 
2671.000000	99.440720 
2670.000000	99.441097 
2669.000000	99.441458 
2668.000000	99.441806 
2667.000000	99.442156 
2666.000000	99.442542 
2665.000000	99.442980 
2664.000000	99.443445 
2663.000000	99.443891 
2662.000000	99.444309 
2661.000000	99.444737 
2660.000000	99.445212 
2659.000000	99.445732 
2658.000000	99.446259 
2657.000000	99.446755 
2656.000000	99.447214 
2655.000000	99.447646 
2654.000000	99.448046 
2653.000000	99.448398 
2652.000000	99.448718 
2651.000000	99.449075 
2650.000000	99.449523 
2649.000000	99.450051 
2648.000000	99.450565 
2647.000000	99.450991 
2646.000000	99.451345 
2645.000000	99.451733 
2644.000000	99.452231 
2643.000000	99.452803 
2642.000000	99.453311 
2641.000000	99.453639 
2640.000000	99.453821 
2639.000000	99.454060 
2638.000000	99.454548 
2637.000000	99.455259 
2636.000000	99.455950 
2635.000000	99.456431 
2634.000000	99.456746 
2633.000000	99.457018 
2632.000000	99.457279 
2631.000000	99.457537 
2630.000000	99.457847 
2629.000000	99.458169 
2628.000000	99.458285 
2627.000000	99.458055 
2626.000000	99.457693 
2625.000000	99.457632 
2624.000000	99.458062 
2623.000000	99.458805 
2622.000000	99.459535 
2621.000000	99.460048 
2620.000000	99.460291 
2619.000000	99.460303 
2618.000000	99.460205 
2617.000000	99.460190 
2616.000000	99.460436 
2615.000000	99.461016 
2614.000000	99.461847 
2613.000000	99.462699 
2612.000000	99.463332 
2611.000000	99.463696 
2610.000000	99.463986 
2609.000000	99.464439 
2608.000000	99.465070 
2607.000000	99.465667 
2606.000000	99.466090 
2605.000000	99.466496 
2604.000000	99.467164 
2603.000000	99.468060 
2602.000000	99.468706 
2601.000000	99.468710 
2600.000000	99.468323 
2599.000000	99.468202 
2598.000000	99.468581 
2597.000000	99.468948 
2596.000000	99.468735 
2595.000000	99.467988 
2594.000000	99.467236 
2593.000000	99.466902 
2592.000000	99.466985 
2591.000000	99.467288 
2590.000000	99.467636 
2589.000000	99.467910 
2588.000000	99.468027 
2587.000000	99.467949 
2586.000000	99.467715 
2585.000000	99.467433 
2584.000000	99.467219 
2583.000000	99.467112 
2582.000000	99.467052 
2581.000000	99.466931 
2580.000000	99.466706 
2579.000000	99.466421 
2578.000000	99.466133 
2577.000000	99.465859 
2576.000000	99.465582 
2575.000000	99.465293 
2574.000000	99.464990 
2573.000000	99.464671 
2572.000000	99.464337 
2571.000000	99.463987 
2570.000000	99.463623 
2569.000000	99.463247 
2568.000000	99.462860 
2567.000000	99.462456 
2566.000000	99.462030 
2565.000000	99.461583 
2564.000000	99.461123 
2563.000000	99.460660 
2562.000000	99.460206 
2561.000000	99.459764 
2560.000000	99.459329 
2559.000000	99.458893 
2558.000000	99.458451 
2557.000000	99.458002 
2556.000000	99.457549 
2555.000000	99.457101 
2554.000000	99.456660 
2553.000000	99.456223 
2552.000000	99.455781 
2551.000000	99.455324 
2550.000000	99.454851 
2549.000000	99.454368 
2548.000000	99.453882 
2547.000000	99.453399 
2546.000000	99.452923 
2545.000000	99.452456 
2544.000000	99.451995 
2543.000000	99.451538 
2542.000000	99.451078 
2541.000000	99.450609 
2540.000000	99.450134 
2539.000000	99.449666 
2538.000000	99.449218 
2537.000000	99.448797 
2536.000000	99.448399 
2535.000000	99.448016 
2534.000000	99.447639 
2533.000000	99.447268 
2532.000000	99.446901 
2531.000000	99.446542 
2530.000000	99.446199 
2529.000000	99.445885 
2528.000000	99.445605 
2527.000000	99.445360 
2526.000000	99.445145 
2525.000000	99.444954 
2524.000000	99.444785 
2523.000000	99.444649 
2522.000000	99.444563 
2521.000000	99.444524 
2520.000000	99.444504 
2519.000000	99.444464 
2518.000000	99.444372 
2517.000000	99.444207 
2516.000000	99.443983 
2515.000000	99.443775 
2514.000000	99.443671 
2513.000000	99.443700 
2512.000000	99.443811 
2511.000000	99.443953 
2510.000000	99.444116 
2509.000000	99.444289 
2508.000000	99.444443 
2507.000000	99.444574 
2506.000000	99.444697 
2505.000000	99.444788 
2504.000000	99.444770 
2503.000000	99.444612 
2502.000000	99.444407 
2501.000000	99.444336 
2500.000000	99.444523 
2499.000000	99.444964 
2498.000000	99.445532 
2497.000000	99.446018 
2496.000000	99.446272 
2495.000000	99.446279 
2494.000000	99.446165 
2493.000000	99.446093 
2492.000000	99.446132 
2491.000000	99.446294 
2490.000000	99.446585 
2489.000000	99.446983 
2488.000000	99.447412 
2487.000000	99.447796 
2486.000000	99.448088 
2485.000000	99.448197 
2484.000000	99.448008 
2483.000000	99.447540 
2482.000000	99.447010 
2481.000000	99.446623 
2480.000000	99.446383 
2479.000000	99.446167 
2478.000000	99.445895 
2477.000000	99.445588 
2476.000000	99.445321 
2475.000000	99.445172 
2474.000000	99.445158 
2473.000000	99.445194 
2472.000000	99.445132 
2471.000000	99.444901 
2470.000000	99.444549 
2469.000000	99.444179 
2468.000000	99.443870 
2467.000000	99.443633 
2466.000000	99.443429 
2465.000000	99.443207 
2464.000000	99.442938 
2463.000000	99.442637 
2462.000000	99.442352 
2461.000000	99.442119 
2460.000000	99.441927 
2459.000000	99.441723 
2458.000000	99.441464 
2457.000000	99.441157 
2456.000000	99.440839 
2455.000000	99.440526 
2454.000000	99.440212 
2453.000000	99.439886 
2452.000000	99.439533 
2451.000000	99.439120 
2450.000000	99.438612 
2449.000000	99.438013 
2448.000000	99.437393 
2447.000000	99.436865 
2446.000000	99.436501 
2445.000000	99.436276 
2444.000000	99.436081 
2443.000000	99.435802 
2442.000000	99.435393 
2441.000000	99.434872 
2440.000000	99.434323 
2439.000000	99.433854 
2438.000000	99.433522 
2437.000000	99.433263 
2436.000000	99.432929 
2435.000000	99.432432 
2434.000000	99.431847 
2433.000000	99.431368 
2432.000000	99.431173 
2431.000000	99.431314 
2430.000000	99.431614 
2429.000000	99.431656 
2428.000000	99.431042 
2427.000000	99.429793 
2426.000000	99.428394 
2425.000000	99.427322 
2424.000000	99.426660 
2423.000000	99.426302 
2422.000000	99.426341 
2421.000000	99.426931 
2420.000000	99.427728 
2419.000000	99.427850 
2418.000000	99.426663 
2417.000000	99.424411 
2416.000000	99.421999 
2415.000000	99.420136 
2414.000000	99.418812 
2413.000000	99.417629 
2412.000000	99.416414 
2411.000000	99.415379 
2410.000000	99.414755 
2409.000000	99.414465 
2408.000000	99.414210 
2407.000000	99.413740 
2406.000000	99.412992 
2405.000000	99.412111 
2404.000000	99.411426 
2403.000000	99.411202 
2402.000000	99.411195 
2401.000000	99.410692 
2400.000000	99.409229 
2399.000000	99.407123 
2398.000000	99.405093 
2397.000000	99.403544 
2396.000000	99.402550 
2395.000000	99.402167 
2394.000000	99.402252 
2393.000000	99.402264 
2392.000000	99.401804 
2391.000000	99.401214 
2390.000000	99.401094 
2389.000000	99.401383 
2388.000000	99.401542 
2387.000000	99.401520 
2386.000000	99.401792 
2385.000000	99.402380 
2384.000000	99.402601 
2383.000000	99.402062 
2382.000000	99.401284 
2381.000000	99.400933 
2380.000000	99.400851 
2379.000000	99.400395 
2378.000000	99.399474 
2377.000000	99.398743 
2376.000000	99.398819 
2375.000000	99.399685 
2374.000000	99.400760 
2373.000000	99.401370 
2372.000000	99.401186 
2371.000000	99.400393 
2370.000000	99.399508 
2369.000000	99.398959 
2368.000000	99.398893 
2367.000000	99.399394 
2366.000000	99.400521 
2365.000000	99.402132 
2364.000000	99.403906 
2363.000000	99.405634 
2362.000000	99.407175 
2361.000000	99.408208 
2360.000000	99.408495 
2359.000000	99.408125 
2358.000000	99.407544 
2357.000000	99.407273 
2356.000000	99.407690 
2355.000000	99.409037 
2354.000000	99.410830 
2353.000000	99.412355 
2352.000000	99.413285 
2351.000000	99.413917 
2350.000000	99.414768 
2349.000000	99.415874 
2348.000000	99.417030 
2347.000000	99.417925 
2346.000000	99.418669 
2345.000000	99.419751 
2344.000000	99.421286 
2343.000000	99.423121 
2342.000000	99.424580 
2341.000000	99.425384 
2340.000000	99.425825 
2339.000000	99.426703 
2338.000000	99.428413 
2337.000000	99.430290 
2336.000000	99.431397 
2335.000000	99.431388 
2334.000000	99.430993 
2333.000000	99.431216 
2332.000000	99.432734 
2331.000000	99.434829 
2330.000000	99.436625 
2329.000000	99.437525 
2328.000000	99.438820 
2327.000000	99.441513 
2326.000000	99.445668 
2325.000000	99.449697 
2324.000000	99.452047 
2323.000000	99.452809 
2322.000000	99.453465 
2321.000000	99.455125 
2320.000000	99.456738 
2319.000000	99.456439 
2318.000000	99.454131 
2317.000000	99.451413 
2316.000000	99.450067 
2315.000000	99.449906 
2314.000000	99.450329 
2313.000000	99.450925 
2312.000000	99.452220 
2311.000000	99.453886 
2310.000000	99.455282 
2309.000000	99.455614 
2308.000000	99.455140 
2307.000000	99.454310 
2306.000000	99.453753 
2305.000000	99.453709 
2304.000000	99.454410 
2303.000000	99.455638 
2302.000000	99.457103 
2301.000000	99.458399 
2300.000000	99.459573 
2299.000000	99.460545 
2298.000000	99.461079 
2297.000000	99.460566 
2296.000000	99.459082 
2295.000000	99.457481 
2294.000000	99.456972 
2293.000000	99.457806 
2292.000000	99.459338 
2291.000000	99.460749 
2290.000000	99.461688 
2289.000000	99.462008 
2288.000000	99.461616 
2287.000000	99.460807 
2286.000000	99.460134 
2285.000000	99.459526 
2284.000000	99.457999 
2283.000000	99.455091 
2282.000000	99.451938 
2281.000000	99.450285 
2280.000000	99.450478 
2279.000000	99.451498 
2278.000000	99.452473 
2277.000000	99.453469 
2276.000000	99.454630 
2275.000000	99.455380 
2274.000000	99.455133 
2273.000000	99.454003 
2272.000000	99.452531 
2271.000000	99.451074 
2270.000000	99.449924 
2269.000000	99.449489 
2268.000000	99.449803 
2267.000000	99.450148 
2266.000000	99.449769 
2265.000000	99.448818 
2264.000000	99.448088 
2263.000000	99.447819 
2262.000000	99.447408 
2261.000000	99.446451 
2260.000000	99.445531 
2259.000000	99.445505 
2258.000000	99.446338 
2257.000000	99.447384 
2256.000000	99.448338 
2255.000000	99.449369 
2254.000000	99.450448 
2253.000000	99.451189 
2252.000000	99.451493 
2251.000000	99.451755 
2250.000000	99.452226 
2249.000000	99.452551 
2248.000000	99.452288 
2247.000000	99.451621 
2246.000000	99.450962 
2245.000000	99.450460 
2244.000000	99.450098 
2243.000000	99.449879 
2242.000000	99.449825 
2241.000000	99.449881 
2240.000000	99.449961 
2239.000000	99.450010 
2238.000000	99.450023 
2237.000000	99.450009 
2236.000000	99.449962 
2235.000000	99.449889 
2234.000000	99.449810 
2233.000000	99.449743 
2232.000000	99.449694 
2231.000000	99.449662 
2230.000000	99.449644 
2229.000000	99.449648 
2228.000000	99.449683 
2227.000000	99.449753 
2226.000000	99.449851 
2225.000000	99.449964 
2224.000000	99.450079 
2223.000000	99.450189 
2222.000000	99.450288 
2221.000000	99.450371 
2220.000000	99.450431 
2219.000000	99.450471 
2218.000000	99.450501 
2217.000000	99.450533 
2216.000000	99.450571 
2215.000000	99.450600 
2214.000000	99.450608 
2213.000000	99.450590 
2212.000000	99.450556 
2211.000000	99.450532 
2210.000000	99.450549 
2209.000000	99.450630 
2208.000000	99.450784 
2207.000000	99.451002 
2206.000000	99.451268 
2205.000000	99.451577 
2204.000000	99.451945 
2203.000000	99.452355 
2202.000000	99.452758 
2201.000000	99.453555 
2200.000000	99.454596 
2199.000000	99.455068 
2198.000000	99.454513 
2197.000000	99.453456 
2196.000000	99.452853 
2195.000000	99.453387 
2194.000000	99.455256 
2193.000000	99.457921 
2192.000000	99.459963 
2191.000000	99.460141 
2190.000000	99.459030 
2189.000000	99.459095 
2188.000000	99.462197 
2187.000000	99.467024 
2186.000000	99.469606 
2185.000000	99.466934 
2184.000000	99.459830 
2183.000000	99.452118 
2182.000000	99.446764 
2181.000000	99.443687 
2180.000000	99.441652 
2179.000000	99.440950 
2178.000000	99.442801 
2177.000000	99.446845 
2176.000000	99.451038 
2175.000000	99.453996 
2174.000000	99.455761 
2173.000000	99.456447 
2172.000000	99.456322 
2171.000000	99.457508 
2170.000000	99.463302 
2169.000000	99.474594 
2168.000000	99.488095 
2167.000000	99.498950 
2166.000000	99.504096 
2165.000000	99.503214 
2164.000000	99.498605 
2163.000000	99.494372 
2162.000000	99.493012 
2161.000000	99.491423 
2160.000000	99.482735 
2159.000000	99.463965 
2158.000000	99.439947 
2157.000000	99.418316 
2156.000000	99.402986 
2155.000000	99.394656 
2154.000000	99.394026 
2153.000000	99.400987 
2152.000000	99.412264 
2151.000000	99.422638 
2150.000000	99.428710 
2149.000000	99.430922 
2148.000000	99.432531 
2147.000000	99.436440 
2146.000000	99.441655 
2145.000000	99.443045 
2144.000000	99.436583 
2143.000000	99.424759 
2142.000000	99.414938 
2141.000000	99.411588 
2140.000000	99.412527 
2139.000000	99.413565 
2138.000000	99.414114 
2137.000000	99.416130 
2136.000000	99.419466 
2135.000000	99.421360 
2134.000000	99.420335 
2133.000000	99.418310 
2132.000000	99.418166 
2131.000000	99.420420 
2130.000000	99.422917 
2129.000000	99.423203 
2128.000000	99.420854 
2127.000000	99.417560 
2126.000000	99.415293 
2125.000000	99.414847 
2124.000000	99.416146 
2123.000000	99.419039 
2122.000000	99.422994 
2121.000000	99.426620 
2120.000000	99.428672 
2119.000000	99.429418 
2118.000000	99.430285 
2117.000000	99.432164 
2116.000000	99.434585 
2115.000000	99.436579 
2114.000000	99.437643 
2113.000000	99.437710 
2112.000000	99.436970 
2111.000000	99.436050 
2110.000000	99.435926 
2109.000000	99.437132 
2108.000000	99.439085 
2107.000000	99.440459 
2106.000000	99.440442 
2105.000000	99.439394 
2104.000000	99.438415 
2103.000000	99.438411 
2102.000000	99.439455 
2101.000000	99.440793 
2100.000000	99.441478 
2099.000000	99.441202 
2098.000000	99.440526 
2097.000000	99.440334 
2096.000000	99.441109 
2095.000000	99.442734 
2094.000000	99.444670 
2093.000000	99.446256 
2092.000000	99.447084 
2091.000000	99.447290 
2090.000000	99.447511 
2089.000000	99.448341 
2088.000000	99.449740 
2087.000000	99.451005 
2086.000000	99.451311 
2085.000000	99.450441 
2084.000000	99.449288 
2083.000000	99.449516 
2082.000000	99.452207 
2081.000000	99.456713 
2080.000000	99.460953 
2079.000000	99.463472 
2078.000000	99.464734 
2077.000000	99.466144 
2076.000000	99.468101 
2075.000000	99.469538 
2074.000000	99.469177 
2073.000000	99.466741 
2072.000000	99.463228 
2071.000000	99.460305 
2070.000000	99.459131 
2069.000000	99.459341 
2068.000000	99.459403 
2067.000000	99.458300 
2066.000000	99.456559 
2065.000000	99.455551 
2064.000000	99.456281 
2063.000000	99.458924 
2062.000000	99.462622 
2061.000000	99.465432 
2060.000000	99.465662 
2059.000000	99.463844 
2058.000000	99.462669 
2057.000000	99.464082 
2056.000000	99.467065 
2055.000000	99.469129 
2054.000000	99.469541 
2053.000000	99.469869 
2052.000000	99.471546 
2051.000000	99.474004 
2050.000000	99.475460 
2049.000000	99.474819 
2048.000000	99.472528 
2047.000000	99.470043 
2046.000000	99.468614 
2045.000000	99.468236 
2044.000000	99.467700 
2043.000000	99.465946 
2042.000000	99.463291 
2041.000000	99.461037 
2040.000000	99.459993 
2039.000000	99.459868 
2038.000000	99.459899 
2037.000000	99.459529 
2036.000000	99.458455 
2035.000000	99.456524 
2034.000000	99.453790 
2033.000000	99.450706 
2032.000000	99.448135 
2031.000000	99.446977 
2030.000000	99.447466 
2029.000000	99.448691 
2028.000000	99.449053 
2027.000000	99.447742 
2026.000000	99.445288 
2025.000000	99.442908 
2024.000000	99.441489 
2023.000000	99.441252 
2022.000000	99.442012 
2021.000000	99.443250 
2020.000000	99.444191 
2019.000000	99.444366 
2018.000000	99.443977 
2017.000000	99.443426 
2016.000000	99.442587 
2015.000000	99.441018 
2014.000000	99.438791 
2013.000000	99.436620 
2012.000000	99.435192 
2011.000000	99.434714 
2010.000000	99.435001 
2009.000000	99.435591 
2008.000000	99.435918 
2007.000000	99.435806 
2006.000000	99.435631 
2005.000000	99.435705 
2004.000000	99.435696 
2003.000000	99.435011 
2002.000000	99.433488 
2001.000000	99.431326 
2000.000000	99.428739 
1999.000000	99.426102 
1998.000000	99.423950 
1997.000000	99.422492 
1996.000000	99.421708 
1995.000000	99.422167 
1994.000000	99.424725 
1993.000000	99.428836 
1992.000000	99.432040 
1991.000000	99.432294 
1990.000000	99.430046 
1989.000000	99.427224 
1988.000000	99.425405 
1987.000000	99.425801 
1986.000000	99.429663 
1985.000000	99.437051 
1984.000000	99.445526 
1983.000000	99.451518 
1982.000000	99.452735 
1981.000000	99.448795 
1980.000000	99.441098 
1979.000000	99.432800 
1978.000000	99.427063 
1977.000000	99.423877 
1976.000000	99.420048 
1975.000000	99.413633 
1974.000000	99.406806 
1973.000000	99.402937 
1972.000000	99.402631 
1971.000000	99.404416 
1970.000000	99.407758 
1969.000000	99.413111 
1968.000000	99.419539 
1967.000000	99.424411 
1966.000000	99.425930 
1965.000000	99.424688 
1964.000000	99.422576 
1963.000000	99.421038 
1962.000000	99.420374 
1961.000000	99.420127 
1960.000000	99.419962 
1959.000000	99.419978 
1958.000000	99.419804 
1957.000000	99.417956 
1956.000000	99.413196 
1955.000000	99.406266 
1954.000000	99.399263 
1953.000000	99.393477 
1952.000000	99.389089 
1951.000000	99.386808 
1950.000000	99.387852 
1949.000000	99.391615 
1948.000000	99.395026 
1947.000000	99.395579 
1946.000000	99.393630 
1945.000000	99.390832 
1944.000000	99.387964 
1943.000000	99.385342 
1942.000000	99.383779 
1941.000000	99.383361 
1940.000000	99.382722 
1939.000000	99.381006 
1938.000000	99.379411 
1937.000000	99.379733 
1936.000000	99.382030 
1935.000000	99.384576 
1934.000000	99.385851 
1933.000000	99.385849 
1932.000000	99.385408 
1931.000000	99.385234 
1930.000000	99.385644 
1929.000000	99.386475 
1928.000000	99.387110 
1927.000000	99.386965 
1926.000000	99.385986 
1925.000000	99.384560 
1924.000000	99.383176 
1923.000000	99.382290 
1922.000000	99.382201 
1921.000000	99.382809 
1920.000000	99.383630 
1919.000000	99.384152 
1918.000000	99.384208 
1917.000000	99.383968 
1916.000000	99.383680 
1915.000000	99.383536 
1914.000000	99.383647 
1913.000000	99.383997 
1912.000000	99.384399 
1911.000000	99.384638 
1910.000000	99.384668 
1909.000000	99.384608 
1908.000000	99.384585 
1907.000000	99.384652 
1906.000000	99.384823 
1905.000000	99.385059 
1904.000000	99.385214 
1903.000000	99.385120 
1902.000000	99.384744 
1901.000000	99.384230 
1900.000000	99.383805 
1899.000000	99.383618 
1898.000000	99.383699 
1897.000000	99.383947 
1896.000000	99.384160 
1895.000000	99.384213 
1894.000000	99.384218 
1893.000000	99.384423 
1892.000000	99.384907 
1891.000000	99.385472 
1890.000000	99.385905 
1889.000000	99.386223 
1888.000000	99.386517 
1887.000000	99.386757 
1886.000000	99.386876 
1885.000000	99.386873 
1884.000000	99.386776 
1883.000000	99.386641 
1882.000000	99.386572 
1881.000000	99.386587 
1880.000000	99.386499 
1879.000000	99.386071 
1878.000000	99.385247 
1877.000000	99.384180 
1876.000000	99.383192 
1875.000000	99.382865 
1874.000000	99.383857 
1873.000000	99.386267 
1872.000000	99.389105 
1871.000000	99.390825 
1870.000000	99.390602 
1869.000000	99.388923 
1868.000000	99.386934 
1867.000000	99.385161 
1866.000000	99.383534 
1865.000000	99.382138 
1864.000000	99.381490 
1863.000000	99.382253 
1862.000000	99.384637 
1861.000000	99.387857 
1860.000000	99.390419 
1859.000000	99.391560 
1858.000000	99.392067 
1857.000000	99.393162 
1856.000000	99.395004 
1855.000000	99.396838 
1854.000000	99.398090 
1853.000000	99.398616 
1852.000000	99.398295 
1851.000000	99.397094 
1850.000000	99.395513 
1849.000000	99.394464 
1848.000000	99.394439 
1847.000000	99.395165 
1846.000000	99.396070 
1845.000000	99.396552 
1844.000000	99.396121 
1843.000000	99.395047 
1842.000000	99.394384 
1841.000000	99.394795 
1840.000000	99.396033 
1839.000000	99.397379 
1838.000000	99.398398 
1837.000000	99.399209 
1836.000000	99.400036 
1835.000000	99.401011 
1834.000000	99.402323 
1833.000000	99.404141 
1832.000000	99.406231 
1831.000000	99.407666 
1830.000000	99.407638 
1829.000000	99.406713 
1828.000000	99.406277 
1827.000000	99.406752 
1826.000000	99.407433 
1825.000000	99.407824 
1824.000000	99.408215 
1823.000000	99.408970 
1822.000000	99.409913 
1821.000000	99.410440 
1820.000000	99.410021 
1819.000000	99.408664 
1818.000000	99.407149 
1817.000000	99.406527 
1816.000000	99.407021 
1815.000000	99.407933 
1814.000000	99.408695 
1813.000000	99.409525 
1812.000000	99.410945 
1811.000000	99.412914 
1810.000000	99.414984 
1809.000000	99.416907 
1808.000000	99.418411 
1807.000000	99.419002 
1806.000000	99.418549 
1805.000000	99.417687 
1804.000000	99.417238 
1803.000000	99.417346 
1802.000000	99.417651 
1801.000000	99.417999 
1800.000000	99.418441 
1799.000000	99.418871 
1798.000000	99.419212 
1797.000000	99.419593 
1796.000000	99.420202 
1795.000000	99.421118 
1794.000000	99.422187 
1793.000000	99.423028 
1792.000000	99.423389 
1791.000000	99.423427 
1790.000000	99.423520 
1789.000000	99.423919 
1788.000000	99.424645 
1787.000000	99.425556 
1786.000000	99.426422 
1785.000000	99.427060 
1784.000000	99.427437 
1783.000000	99.427713 
1782.000000	99.428103 
1781.000000	99.428668 
1780.000000	99.429261 
1779.000000	99.429711 
1778.000000	99.430094 
1777.000000	99.430641 
1776.000000	99.431460 
1775.000000	99.432524 
1774.000000	99.433730 
1773.000000	99.434896 
1772.000000	99.435793 
1771.000000	99.436362 
1770.000000	99.436742 
1769.000000	99.437042 
1768.000000	99.437316 
1767.000000	99.437622 
1766.000000	99.438037 
1765.000000	99.438610 
1764.000000	99.439311 
1763.000000	99.440015 
1762.000000	99.440602 
1761.000000	99.441091 
1760.000000	99.441631 
1759.000000	99.442298 
1758.000000	99.443038 
1757.000000	99.443722 
1756.000000	99.444286 
1755.000000	99.444782 
1754.000000	99.445263 
1753.000000	99.445721 
1752.000000	99.446208 
1751.000000	99.446905 
1750.000000	99.447891 
1749.000000	99.448925 
1748.000000	99.449718 
1747.000000	99.450250 
1746.000000	99.450676 
1745.000000	99.451109 
1744.000000	99.451559 
1743.000000	99.452019 
1742.000000	99.452503 
1741.000000	99.453018 
1740.000000	99.453504 
1739.000000	99.453890 
1738.000000	99.454189 
1737.000000	99.454443 
1736.000000	99.454626 
1735.000000	99.454667 
1734.000000	99.454603 
1733.000000	99.454676 
1732.000000	99.454997 
1731.000000	99.455472 
1730.000000	99.455947 
1729.000000	99.456319 
1728.000000	99.456594 
1727.000000	99.456836 
1726.000000	99.457095 
1725.000000	99.457368 
1724.000000	99.457630 
1723.000000	99.457898 
1722.000000	99.458218 
1721.000000	99.458608 
1720.000000	99.459019 
1719.000000	99.459333 
1718.000000	99.459460 
1717.000000	99.459453 
1716.000000	99.459444 
1715.000000	99.459464 
1714.000000	99.459507 
1713.000000	99.459589 
1712.000000	99.459707 
1711.000000	99.459842 
1710.000000	99.459976 
1709.000000	99.460098 
1708.000000	99.460190 
1707.000000	99.460247 
1706.000000	99.460293 
1705.000000	99.460356 
1704.000000	99.460421 
1703.000000	99.460459 
1702.000000	99.460474 
1701.000000	99.460492 
1700.000000	99.460553 
1699.000000	99.460663 
1698.000000	99.460815 
1697.000000	99.461008 
1696.000000	99.461236 
1695.000000	99.461462 
1694.000000	99.461672 
1693.000000	99.461887 
1692.000000	99.462083 
1691.000000	99.462211 
1690.000000	99.462272 
1689.000000	99.462324 
1688.000000	99.462372 
1687.000000	99.462339 
1686.000000	99.462252 
1685.000000	99.462256 
1684.000000	99.462246 
1683.000000	99.462137 
1682.000000	99.462251 
1681.000000	99.462474 
1680.000000	99.462589 
1679.000000	99.462570 
1678.000000	99.462585 
1677.000000	99.462785 
1676.000000	99.463120 
1675.000000	99.463489 
1674.000000	99.463899 
1673.000000	99.464457 
1672.000000	99.465042 
1671.000000	99.465471 
1670.000000	99.465621 
1669.000000	99.465438 
1668.000000	99.465265 
1667.000000	99.465415 
1666.000000	99.465468 
1665.000000	99.464969 
1664.000000	99.464250 
1663.000000	99.464370 
1662.000000	99.466036 
1661.000000	99.468566 
1660.000000	99.470571 
1659.000000	99.471627 
1658.000000	99.472325 
1657.000000	99.472908 
1656.000000	99.472513 
1655.000000	99.470988 
1654.000000	99.469944 
1653.000000	99.469800 
1652.000000	99.468837 
1651.000000	99.468804 
1650.000000	99.468704 
1649.000000	99.467359 
1648.000000	99.464823 
1647.000000	99.462043 
1646.000000	99.460220 
1645.000000	99.460689 
1644.000000	99.463411 
1643.000000	99.466855 
1642.000000	99.469457 
1641.000000	99.470706 
1640.000000	99.470983 
1639.000000	99.470864 
1638.000000	99.470756 
1637.000000	99.470850 
1636.000000	99.470622 
1635.000000	99.469803 
1634.000000	99.470039 
1633.000000	99.472009 
1632.000000	99.474483 
1631.000000	99.476395 
1630.000000	99.477446 
1629.000000	99.477758 
1628.000000	99.477643 
1627.000000	99.477707 
1626.000000	99.478505 
1625.000000	99.480131 
1624.000000	99.482149 
1623.000000	99.483979 
1622.000000	99.485569 
1621.000000	99.487030 
1620.000000	99.487775 
1619.000000	99.487223 
1618.000000	99.485808 
1617.000000	99.484531 
1616.000000	99.484020 
1615.000000	99.484493 
1614.000000	99.485122 
1613.000000	99.484819 
1612.000000	99.483723 
1611.000000	99.482635 
1610.000000	99.481862 
1609.000000	99.481127 
1608.000000	99.480448 
1607.000000	99.480246 
1606.000000	99.480502 
1605.000000	99.480817 
1604.000000	99.481323 
1603.000000	99.482654 
1602.000000	99.484752 
1601.000000	99.486500 
1600.000000	99.487154 
1599.000000	99.487272 
1598.000000	99.487773 
1597.000000	99.488838 
1596.000000	99.490073 
1595.000000	99.491217 
1594.000000	99.492152 
1593.000000	99.492570 
1592.000000	99.492290 
1591.000000	99.491689 
1590.000000	99.491397 
1589.000000	99.491567 
1588.000000	99.491941 
1587.000000	99.492370 
1586.000000	99.492804 
1585.000000	99.493024 
1584.000000	99.492840 
1583.000000	99.492383 
1582.000000	99.492019 
1581.000000	99.491952 
1580.000000	99.492084 
1579.000000	99.492269 
1578.000000	99.492446 
1577.000000	99.492589 
1576.000000	99.492682 
1575.000000	99.492753 
1574.000000	99.492813 
1573.000000	99.492854 
1572.000000	99.492881 
1571.000000	99.492896 
1570.000000	99.492907 
1569.000000	99.492918 
1568.000000	99.492926 
1567.000000	99.492925 
1566.000000	99.492907 
1565.000000	99.492872 
1564.000000	99.492820 
1563.000000	99.492754 
1562.000000	99.492672 
1561.000000	99.492571 
1560.000000	99.492446 
1559.000000	99.492295 
1558.000000	99.492125 
1557.000000	99.491944 
1556.000000	99.491751 
1555.000000	99.491538 
1554.000000	99.491301 
1553.000000	99.491043 
1552.000000	99.490768 
1551.000000	99.490478 
1550.000000	99.490172 
1549.000000	99.489850 
1548.000000	99.489508 
1547.000000	99.489143 
1546.000000	99.488751 
1545.000000	99.488336 
1544.000000	99.487909 
1543.000000	99.487481 
1542.000000	99.487062 
1541.000000	99.486651 
1540.000000	99.486241 
1539.000000	99.485827 
1538.000000	99.485413 
1537.000000	99.485007 
1536.000000	99.484607 
1535.000000	99.484207 
1534.000000	99.483803 
1533.000000	99.483393 
1532.000000	99.482972 
1531.000000	99.482530 
1530.000000	99.482061 
1529.000000	99.481590 
1528.000000	99.481140 
1527.000000	99.480680 
1526.000000	99.480168 
1525.000000	99.479662 
1524.000000	99.479273 
1523.000000	99.479060 
1522.000000	99.478970 
1521.000000	99.478785 
1520.000000	99.478205 
1519.000000	99.477174 
1518.000000	99.475882 
1517.000000	99.474667 
1516.000000	99.473753 
1515.000000	99.473101 
1514.000000	99.472594 
1513.000000	99.472039 
1512.000000	99.471164 
1511.000000	99.469844 
1510.000000	99.468234 
1509.000000	99.466742 
1508.000000	99.466277 
1507.000000	99.467334 
1506.000000	99.467529 
1505.000000	99.465804 
1504.000000	99.464039 
1503.000000	99.462841 
1502.000000	99.462245 
1501.000000	99.462593 
1500.000000	99.463965 
1499.000000	99.465541 
1498.000000	99.466056 
1497.000000	99.465600 
1496.000000	99.465190 
1495.000000	99.464355 
1494.000000	99.462023 
1493.000000	99.458408 
1492.000000	99.454476 
1491.000000	99.451004 
1490.000000	99.448206 
1489.000000	99.446006 
1488.000000	99.443593 
1487.000000	99.440397 
1486.000000	99.437628 
1485.000000	99.436282 
1484.000000	99.435878 
1483.000000	99.435352 
1482.000000	99.433626 
1481.000000	99.430640 
1480.000000	99.427428 
1479.000000	99.425084 
1478.000000	99.423887 
1477.000000	99.423461 
1476.000000	99.423269 
1475.000000	99.422429 
1474.000000	99.420941 
1473.000000	99.420194 
1472.000000	99.420811 
1471.000000	99.421023 
1470.000000	99.420064 
1469.000000	99.419329 
1468.000000	99.420305 
1467.000000	99.422957 
1466.000000	99.426132 
1465.000000	99.428486 
1464.000000	99.429346 
1463.000000	99.429310 
1462.000000	99.429380 
1461.000000	99.430116 
1460.000000	99.430925 
1459.000000	99.430147 
1458.000000	99.424621 
1457.000000	99.413093 
1456.000000	99.400610 
1455.000000	99.392493 
1454.000000	99.388883 
1453.000000	99.387843 
1452.000000	99.387205 
1451.000000	99.385619 
1450.000000	99.384031 
1449.000000	99.385049 
1448.000000	99.389351 
1447.000000	99.393873 
1446.000000	99.395931 
1445.000000	99.396224 
1444.000000	99.396239 
1443.000000	99.395617 
1442.000000	99.393727 
1441.000000	99.391941 
1440.000000	99.393074 
1439.000000	99.398320 
1438.000000	99.404323 
1437.000000	99.404852 
1436.000000	99.397878 
1435.000000	99.388096 
1434.000000	99.380571 
1433.000000	99.377061 
1432.000000	99.376495 
1431.000000	99.376815 
1430.000000	99.375913 
1429.000000	99.373004 
1428.000000	99.369030 
1427.000000	99.364991 
1426.000000	99.360477 
1425.000000	99.353875 
1424.000000	99.345712 
1423.000000	99.338715 
1422.000000	99.333400 
1421.000000	99.327461 
1420.000000	99.318147 
1419.000000	99.304926 
1418.000000	99.289014 
1417.000000	99.271997 
1416.000000	99.255940 
1415.000000	99.241878 
1414.000000	99.228650 
1413.000000	99.214285 
1412.000000	99.199161 
1411.000000	99.185803 
1410.000000	99.175078 
1409.000000	99.166227 
1408.000000	99.159723 
1407.000000	99.156703 
1406.000000	99.156789 
1405.000000	99.158874 
1404.000000	99.163657 
1403.000000	99.171664 
1402.000000	99.180723 
1401.000000	99.188442 
1400.000000	99.194558 
1399.000000	99.199602 
1398.000000	99.200280 
1397.000000	99.190293 
1396.000000	99.168037 
1395.000000	99.143337 
1394.000000	99.132240 
1393.000000	99.141313 
1392.000000	99.164575 
1391.000000	99.191383 
1390.000000	99.213141 
1389.000000	99.225419 
1388.000000	99.227580 
1387.000000	99.222528 
1386.000000	99.215231 
1385.000000	99.209898 
1384.000000	99.208177 
1383.000000	99.209379 
1382.000000	99.212006 
1381.000000	99.215802 
1380.000000	99.221479 
1379.000000	99.229235 
1378.000000	99.238274 
1377.000000	99.247653 
1376.000000	99.257132 
1375.000000	99.266975 
1374.000000	99.277165 
1373.000000	99.286985 
1372.000000	99.296119 
1371.000000	99.305646 
1370.000000	99.316948 
1369.000000	99.329281 
1368.000000	99.340880 
1367.000000	99.351237 
1366.000000	99.361231 
1365.000000	99.371420 
1364.000000	99.380683 
1363.000000	99.387605 
1362.000000	99.392621 
1361.000000	99.397036 
1360.000000	99.401135 
1359.000000	99.405012 
1358.000000	99.409889 
1357.000000	99.417045 
1356.000000	99.425887 
1355.000000	99.434230 
1354.000000	99.440841 
1353.000000	99.446587 
1352.000000	99.451814 
1351.000000	99.454833 
1350.000000	99.455514 
1349.000000	99.455819 
1348.000000	99.457774 
1347.000000	99.461846 
1346.000000	99.467556 
1345.000000	99.473774 
1344.000000	99.479042 
1343.000000	99.482520 
1342.000000	99.484617 
1341.000000	99.485720 
1340.000000	99.485148 
1339.000000	99.482513 
1338.000000	99.479095 
1337.000000	99.476907 
1336.000000	99.476780 
1335.000000	99.478032 
1334.000000	99.480018 
1333.000000	99.482837 
1332.000000	99.486169 
1331.000000	99.488859 
1330.000000	99.490041 
1329.000000	99.489679 
1328.000000	99.488270 
1327.000000	99.486714 
1326.000000	99.486282 
1325.000000	99.487204 
1324.000000	99.488977 
1323.000000	99.491170 
1322.000000	99.493382 
1321.000000	99.494619 
1320.000000	99.493980 
1319.000000	99.492144 
1318.000000	99.491136 
1317.000000	99.492075 
1316.000000	99.493641 
1315.000000	99.493435 
1314.000000	99.490514 
1313.000000	99.486459 
1312.000000	99.483903 
1311.000000	99.484255 
1310.000000	99.486908 
1309.000000	99.490052 
1308.000000	99.492001 
1307.000000	99.492000 
1306.000000	99.490564 
1305.000000	99.488753 
1304.000000	99.487880 
1303.000000	99.488882 
1302.000000	99.491736 
1301.000000	99.495178 
1300.000000	99.497407 
1299.000000	99.497296 
1298.000000	99.495133 
1297.000000	99.492330 
1296.000000	99.490293 
1295.000000	99.489778 
1294.000000	99.490796 
1293.000000	99.492739 
1292.000000	99.494351 
1291.000000	99.493973 
1290.000000	99.490722 
1289.000000	99.485658 
1288.000000	99.481138 
1287.000000	99.478529 
1286.000000	99.476893 
1285.000000	99.474462 
1284.000000	99.470922 
1283.000000	99.467534 
1282.000000	99.465225 
1281.000000	99.463530 
1280.000000	99.461625 
1279.000000	99.459220 
1278.000000	99.455850 
1277.000000	99.450635 
1276.000000	99.443378 
1275.000000	99.435457 
1274.000000	99.428700 
1273.000000	99.423576 
1272.000000	99.418996 
1271.000000	99.413538 
1270.000000	99.406403 
1269.000000	99.397731 
1268.000000	99.388735 
1267.000000	99.381008 
1266.000000	99.374774 
1265.000000	99.368396 
1264.000000	99.360254 
1263.000000	99.350541 
1262.000000	99.340590 
1261.000000	99.331207 
1260.000000	99.322641 
1259.000000	99.315526 
1258.000000	99.310296 
1257.000000	99.306241 
1256.000000	99.302343 
1255.000000	99.298873 
1254.000000	99.296866 
1253.000000	99.296178 
1252.000000	99.295388 
1251.000000	99.294007 
1250.000000	99.293523 
1249.000000	99.295801 
1248.000000	99.301352 
1247.000000	99.309149 
1246.000000	99.316614 
1245.000000	99.319776 
1244.000000	99.315583 
1243.000000	99.305808 
1242.000000	99.297774 
1241.000000	99.298610 
1240.000000	99.308600 
1239.000000	99.320798 
1238.000000	99.327450 
1237.000000	99.326422 
1236.000000	99.320784 
1235.000000	99.314267 
1234.000000	99.308234 
1233.000000	99.302445 
1232.000000	99.296959 
1231.000000	99.292422 
1230.000000	99.289195 
1229.000000	99.287105 
1228.000000	99.286077 
1227.000000	99.286568 
1226.000000	99.289163 
1225.000000	99.293685 
1224.000000	99.298801 
1223.000000	99.302773 
1222.000000	99.304941 
1221.000000	99.306389 
1220.000000	99.308887 
1219.000000	99.313224 
1218.000000	99.318649 
1217.000000	99.323762 
1216.000000	99.327571 
1215.000000	99.329837 
1214.000000	99.331112 
1213.000000	99.332527 
1212.000000	99.334807 
1211.000000	99.336996 
1210.000000	99.336976 
1209.000000	99.333965 
1208.000000	99.329913 
1207.000000	99.327525 
1206.000000	99.327167 
1205.000000	99.326814 
1204.000000	99.324886 
1203.000000	99.321743 
1202.000000	99.318074 
1201.000000	99.313329 
1200.000000	99.306911 
1199.000000	99.299959 
1198.000000	99.294554 
1197.000000	99.291390 
1196.000000	99.289189 
1195.000000	99.286427 
1194.000000	99.282619 
1193.000000	99.277657 
1192.000000	99.271192 
1191.000000	99.263488 
1190.000000	99.256001 
1189.000000	99.250301 
1188.000000	99.246716 
1187.000000	99.244370 
1186.000000	99.242116 
1185.000000	99.238946 
1184.000000	99.233782 
1183.000000	99.225723 
1182.000000	99.215015 
1181.000000	99.203626 
1180.000000	99.194302 
1179.000000	99.188502 
1178.000000	99.184897 
1177.000000	99.180149 
1176.000000	99.171784 
1175.000000	99.160444 
1174.000000	99.149152 
1173.000000	99.140332 
1172.000000	99.134112 
1171.000000	99.129333 
1170.000000	99.125084 
1169.000000	99.120725 
1168.000000	99.115243 
1167.000000	99.107726 
1166.000000	99.098615 
1165.000000	99.089974 
1164.000000	99.084336 
1163.000000	99.083202 
1162.000000	99.086170 
1161.000000	99.090987 
1160.000000	99.094750 
1159.000000	99.095852 
1158.000000	99.094889 
1157.000000	99.093271 
1156.000000	99.090932 
1155.000000	99.085924 
1154.000000	99.076486 
1153.000000	99.063100 
1152.000000	99.048464 
1151.000000	99.035689 
1150.000000	99.026318 
1149.000000	99.019492 
1148.000000	99.012661 
1147.000000	99.003401 
1146.000000	98.991085 
1145.000000	98.977177 
1144.000000	98.963950 
1143.000000	98.952859 
1142.000000	98.943832 
1141.000000	98.935747 
1140.000000	98.927383 
1139.000000	98.917947 
1138.000000	98.907027 
1137.000000	98.894640 
1136.000000	98.881641 
1135.000000	98.869718 
1134.000000	98.860201 
1133.000000	98.852668 
1132.000000	98.845172 
1131.000000	98.836069 
1130.000000	98.825222 
1129.000000	98.813175 
1128.000000	98.799662 
1127.000000	98.783776 
1126.000000	98.765705 
1125.000000	98.747569 
1124.000000	98.731953 
1123.000000	98.719530 
1122.000000	98.708331 
1121.000000	98.695471 
1120.000000	98.679535 
1119.000000	98.661123 
1118.000000	98.641335 
1117.000000	98.620359 
1116.000000	98.597933 
1115.000000	98.574595 
1114.000000	98.551455 
1113.000000	98.528515 
1112.000000	98.504359 
1111.000000	98.478418 
1110.000000	98.452534 
1109.000000	98.429182 
1108.000000	98.408562 
1107.000000	98.388016 
1106.000000	98.365006 
1105.000000	98.339929 
1104.000000	98.315186 
1103.000000	98.292068 
1102.000000	98.270091 
1101.000000	98.249161 
1100.000000	98.230956 
1099.000000	98.216015 
1098.000000	98.202347 
1097.000000	98.187365 
1096.000000	98.170759 
1095.000000	98.153559 
1094.000000	98.134778 
1093.000000	98.111033 
1092.000000	98.079972 
1091.000000	98.042643 
1090.000000	98.001892 
1089.000000	97.959453 
1088.000000	97.915570 
1087.000000	97.870832 
1086.000000	97.827240 
1085.000000	97.787290 
1084.000000	97.752145 
1083.000000	97.720456 
1082.000000	97.689047 
1081.000000	97.655518 
1080.000000	97.620311 
1079.000000	97.585848 
1078.000000	97.554207 
1077.000000	97.526612 
1076.000000	97.504451 
1075.000000	97.488847 
1074.000000	97.479305 
1073.000000	97.474129 
1072.000000	97.471001 
1071.000000	97.464396 
1070.000000	97.443909 
1069.000000	97.401222 
1068.000000	97.342032 
1067.000000	97.287746 
1066.000000	97.259813 
1065.000000	97.262570 
1064.000000	97.282500 
1063.000000	97.300913 
1062.000000	97.305128 
1061.000000	97.289953 
1060.000000	97.256290 
1059.000000	97.212727 
1058.000000	97.174045 
1057.000000	97.151559 
1056.000000	97.143902 
1055.000000	97.139128 
1054.000000	97.126540 
1053.000000	97.105850 
1052.000000	97.084733 
1051.000000	97.069406 
1050.000000	97.059359 
1049.000000	97.050696 
1048.000000	97.042074 
1047.000000	97.035790 
1046.000000	97.034082 
1045.000000	97.036188 
1044.000000	97.039402 
1043.000000	97.042259 
1042.000000	97.045784 
1041.000000	97.051301 
1040.000000	97.058104 
1039.000000	97.065075 
1038.000000	97.074554 
1037.000000	97.092038 
1036.000000	97.120331 
1035.000000	97.155701 
1034.000000	97.191582 
1033.000000	97.223927 
1032.000000	97.249561 
1031.000000	97.262004 
1030.000000	97.256130 
1029.000000	97.239025 
1028.000000	97.230371 
1027.000000	97.246460 
1026.000000	97.285409 
1025.000000	97.330580 
1024.000000	97.366823 
1023.000000	97.390111 
1022.000000	97.403843 
1021.000000	97.412139 
1020.000000	97.418100 
1019.000000	97.424538 
1018.000000	97.432968 
1017.000000	97.442834 
1016.000000	97.453339 
1015.000000	97.465317 
1014.000000	97.480385 
1013.000000	97.498835 
1012.000000	97.519010 
1011.000000	97.538396 
1010.000000	97.555392 
1009.000000	97.570594 
1008.000000	97.586232 
1007.000000	97.603907 
1006.000000	97.623235 
1005.000000	97.643108 
1004.000000	97.663461 
1003.000000	97.684814 
1002.000000	97.706686 
1001.000000	97.727637 
1000.000000	97.746687 
999.000000	 97.763790 
998.000000	 97.779101 
997.000000	 97.792780 
996.000000	 97.805803 
995.000000	 97.820258 
994.000000	 97.838081 
993.000000	 97.859226 
992.000000	 97.881059 
991.000000	 97.899914 
990.000000	 97.913892 
989.000000	 97.924658 
988.000000	 97.936231 
987.000000	 97.951209 
986.000000	 97.968580 
985.000000	 97.986262 
984.000000	 98.004615 
983.000000	 98.025671 
982.000000	 98.049953 
981.000000	 98.075628 
980.000000	 98.100555 
979.000000	 98.123988 
978.000000	 98.145878 
977.000000	 98.166373 
976.000000	 98.186813 
975.000000	 98.209467 
974.000000	 98.235044 
973.000000	 98.261654 
972.000000	 98.287346 
971.000000	 98.312511 
970.000000	 98.338548 
969.000000	 98.365274 
968.000000	 98.391341 
967.000000	 98.416445 
966.000000	 98.441015 
965.000000	 98.463856 
964.000000	 98.482455 
963.000000	 98.496525 
962.000000	 98.509441 
961.000000	 98.524704 
960.000000	 98.542133 
959.000000	 98.559091 
958.000000	 98.574398 
957.000000	 98.589119 
956.000000	 98.604134 
955.000000	 98.619251 
954.000000	 98.634810 
953.000000	 98.651794 
952.000000	 98.669356 
951.000000	 98.684269 
950.000000	 98.694391 
949.000000	 98.701429 
948.000000	 98.709069 
947.000000	 98.719318 
946.000000	 98.731805 
945.000000	 98.745588 
944.000000	 98.759788 
943.000000	 98.772728 
942.000000	 98.782223 
941.000000	 98.787245 
940.000000	 98.788683 
939.000000	 98.788555 
938.000000	 98.788935 
937.000000	 98.791109 
936.000000	 98.794852 
935.000000	 98.798675 
934.000000	 98.801346 
933.000000	 98.802951 
932.000000	 98.804241 
931.000000	 98.805934 
930.000000	 98.809317 
929.000000	 98.816334 
928.000000	 98.827601 
927.000000	 98.840728 
926.000000	 98.851932 
925.000000	 98.859068 
924.000000	 98.862132 
923.000000	 98.861669 
922.000000	 98.858404 
921.000000	 98.854081 
920.000000	 98.850830 
919.000000	 98.849297 
918.000000	 98.848488 
917.000000	 98.847467 
916.000000	 98.846097 
915.000000	 98.844346 
914.000000	 98.842513 
913.000000	 98.842326 
912.000000	 98.846096 
911.000000	 98.853823 
910.000000	 98.862002 
909.000000	 98.866422 
908.000000	 98.865865 
907.000000	 98.862593 
906.000000	 98.859867 
905.000000	 98.859613 
904.000000	 98.862136 
903.000000	 98.867380 
902.000000	 98.876011 
901.000000	 98.888898 
900.000000	 98.905502 
899.000000	 98.923484 
898.000000	 98.940355 
897.000000	 98.954899 
896.000000	 98.966421 
895.000000	 98.974245 
894.000000	 98.979549 
893.000000	 98.986421 
892.000000	 98.998729 
891.000000	 99.016116 
890.000000	 99.034725 
889.000000	 99.051782 
888.000000	 99.067386 
887.000000	 99.081601 
886.000000	 99.092517 
885.000000	 99.098698 
884.000000	 99.101883 
883.000000	 99.105589 
882.000000	 99.111603 
881.000000	 99.119195 
880.000000	 99.127461 
879.000000	 99.137039 
878.000000	 99.149064 
877.000000	 99.162882 
876.000000	 99.175238 
875.000000	 99.182224 
874.000000	 99.182881 
873.000000	 99.181244 
872.000000	 99.183994 
871.000000	 99.195153 
870.000000	 99.212764 
869.000000	 99.230255 
868.000000	 99.241841 
867.000000	 99.247023 
866.000000	 99.250706 
865.000000	 99.258849 
864.000000	 99.273346 
863.000000	 99.291055 
862.000000	 99.307568 
861.000000	 99.321024 
860.000000	 99.332045 
859.000000	 99.341957 
858.000000	 99.352887 
857.000000	 99.367978 
856.000000	 99.388367 
855.000000	 99.409818 
854.000000	 99.425242 
853.000000	 99.431507 
852.000000	 99.432011 
851.000000	 99.432286 
850.000000	 99.434886 
849.000000	 99.439270 
848.000000	 99.444417 
847.000000	 99.449966 
846.000000	 99.456150 
845.000000	 99.463955 
844.000000	 99.474440 
843.000000	 99.486839 
842.000000	 99.497896 
841.000000	 99.503838 
840.000000	 99.503084 
839.000000	 99.497601 
838.000000	 99.492137 
837.000000	 99.490733 
836.000000	 99.492648 
835.000000	 99.493178 
834.000000	 99.490130 
833.000000	 99.487102 
832.000000	 99.486783 
831.000000	 99.483497 
830.000000	 99.469391 
829.000000	 99.448970 
828.000000	 99.439757 
827.000000	 99.452810 
826.000000	 99.477569 
825.000000	 99.493012 
824.000000	 99.491847 
823.000000	 99.485496 
822.000000	 99.486738 
821.000000	 99.495504 
820.000000	 99.503103 
819.000000	 99.503288 
818.000000	 99.496749 
817.000000	 99.488991 
816.000000	 99.485373 
815.000000	 99.485799 
814.000000	 99.483705 
813.000000	 99.472572 
812.000000	 99.453604 
811.000000	 99.434739 
810.000000	 99.421497 
809.000000	 99.410931 
808.000000	 99.395541 
807.000000	 99.370729 
806.000000	 99.337267 
805.000000	 99.298656 
804.000000	 99.258594 
803.000000	 99.220797 
802.000000	 99.188948 
801.000000	 99.165263 
800.000000	 99.148945 
799.000000	 99.136828 
798.000000	 99.126777 
797.000000	 99.120807 
796.000000	 99.123473 
795.000000	 99.136530 
794.000000	 99.156667 
793.000000	 99.179032 
792.000000	 99.200341 
791.000000	 99.216674 
790.000000	 99.221752 
789.000000	 99.212115 
788.000000	 99.193295 
787.000000	 99.176642 
786.000000	 99.168648 
785.000000	 99.165908 
784.000000	 99.161241 
783.000000	 99.152262 
782.000000	 99.142735 
781.000000	 99.137427 
780.000000	 99.137459 
779.000000	 99.139821 
778.000000	 99.140351 
777.000000	 99.138390 
776.000000	 99.138624 
775.000000	 99.146893 
774.000000	 99.163975 
773.000000	 99.184761 
772.000000	 99.203563 
771.000000	 99.218462 
770.000000	 99.229998 
769.000000	 99.238087 
768.000000	 99.242388 
767.000000	 99.244832 
766.000000	 99.249351 
765.000000	 99.258006 
764.000000	 99.268125 
763.000000	 99.274221 
762.000000	 99.273226 
761.000000	 99.267625 
760.000000	 99.263280 
759.000000	 99.264356 
758.000000	 99.270600 
757.000000	 99.279035 
756.000000	 99.287282 
755.000000	 99.295156 
754.000000	 99.304030 
753.000000	 99.315125 
752.000000	 99.327905 
751.000000	 99.339721 
750.000000	 99.347628 
749.000000	 99.350755 
748.000000	 99.350581 
747.000000	 99.349439 
746.000000	 99.349727 
745.000000	 99.353770 
744.000000	 99.362181 
743.000000	 99.372044 
742.000000	 99.379156 
741.000000	 99.383076 
740.000000	 99.387647 
739.000000	 99.395535 
738.000000	 99.404747 
737.000000	 99.412112 
736.000000	 99.417766 
735.000000	 99.424082 
734.000000	 99.432355 
733.000000	 99.443019 
732.000000	 99.456781 
731.000000	 99.471870 
730.000000	 99.482229 
729.000000	 99.482986 
728.000000	 99.476305 
727.000000	 99.468676 
726.000000	 99.463680 
725.000000	 99.461251 
724.000000	 99.462822 
723.000000	 99.471365 
722.000000	 99.485438 
721.000000	 99.498007 
720.000000	 99.503279 
719.000000	 99.501752 
718.000000	 99.497309 
717.000000	 99.492558 
716.000000	 99.489091 
715.000000	 99.488376 
714.000000	 99.489694 
713.000000	 99.490117 
712.000000	 99.488591 
711.000000	 99.487801 
710.000000	 99.490407 
709.000000	 99.495522 
708.000000	 99.500014 
707.000000	 99.501285 
706.000000	 99.498460 
705.000000	 99.492642 
704.000000	 99.486486 
703.000000	 99.482415 
702.000000	 99.480059 
701.000000	 99.476802 
700.000000	 99.471490 
699.000000	 99.465110 
698.000000	 99.457941 
697.000000	 99.448027 
696.000000	 99.433725 
695.000000	 99.417245 
694.000000	 99.403928 
693.000000	 99.399274 
692.000000	 99.406527 
691.000000	 99.423609 
690.000000	 99.442543 
689.000000	 99.454822 
688.000000	 99.459108 
687.000000	 99.461244 
686.000000	 99.465228 
685.000000	 99.468825 
684.000000	 99.469540 
683.000000	 99.469150 
682.000000	 99.470484 
681.000000	 99.474083 
680.000000	 99.480028 
679.000000	 99.488360 
678.000000	 99.495278 
677.000000	 99.494970 
676.000000	 99.487609 
675.000000	 99.480382 
674.000000	 99.479441 
673.000000	 99.482871 
672.000000	 99.482729 
671.000000	 99.473017 
670.000000	 99.453301 
669.000000	 99.430091 
668.000000	 99.416962 
667.000000	 99.420357 
666.000000	 99.434781 
665.000000	 99.454102 
664.000000	 99.470968 
663.000000	 99.479002 
662.000000	 99.478596 
661.000000	 99.479073 
660.000000	 99.488950 
659.000000	 99.504996 
658.000000	 99.516042 
657.000000	 99.517260 
656.000000	 99.513518 
655.000000	 99.509940 
654.000000	 99.506349 
653.000000	 99.499886 
652.000000	 99.488492 
651.000000	 99.475302 
650.000000	 99.470680 

