4000.000000	99.763491 
3999.000000	99.766696 
3998.000000	99.770179 
3997.000000	99.771988 
3996.000000	99.771219 
3995.000000	99.768531 
3994.000000	99.765630 
3993.000000	99.764172 
3992.000000	99.764688 
3991.000000	99.766183 
3990.000000	99.766971 
3989.000000	99.766290 
3988.000000	99.765170 
3987.000000	99.765493 
3986.000000	99.768041 
3985.000000	99.771454 
3984.000000	99.772998 
3983.000000	99.770522 
3982.000000	99.764090 
3981.000000	99.756019 
3980.000000	99.749207 
3979.000000	99.745280 
3978.000000	99.744446 
3977.000000	99.746700 
3976.000000	99.752364 
3975.000000	99.760973 
3974.000000	99.770151 
3973.000000	99.776457 
3972.000000	99.777792 
3971.000000	99.775080 
3970.000000	99.771646 
3969.000000	99.770728 
3968.000000	99.773175 
3967.000000	99.777150 
3966.000000	99.779995 
3965.000000	99.780552 
3964.000000	99.779566 
3963.000000	99.778034 
3962.000000	99.775763 
3961.000000	99.772051 
3960.000000	99.767378 
3959.000000	99.763672 
3958.000000	99.762568 
3957.000000	99.763664 
3956.000000	99.764938 
3955.000000	99.764767 
3954.000000	99.763388 
3953.000000	99.762414 
3952.000000	99.763202 
3951.000000	99.765918 
3950.000000	99.769787 
3949.000000	99.773745 
3948.000000	99.776686 
3947.000000	99.777528 
3946.000000	99.775791 
3945.000000	99.772287 
3944.000000	99.768919 
3943.000000	99.767178 
3942.000000	99.766927 
3941.000000	99.766835 
3940.000000	99.765540 
3939.000000	99.762084 
3938.000000	99.756152 
3937.000000	99.748736 
3936.000000	99.742532 
3935.000000	99.740803 
3934.000000	99.745176 
3933.000000	99.754252 
3932.000000	99.764177 
3931.000000	99.770857 
3930.000000	99.772089 
3929.000000	99.768360 
3928.000000	99.762327 
3927.000000	99.757435 
3926.000000	99.756306 
3925.000000	99.759049 
3924.000000	99.762855 
3923.000000	99.764472 
3922.000000	99.763208 
3921.000000	99.761508 
3920.000000	99.762562 
3919.000000	99.767308 
3918.000000	99.773547 
3917.000000	99.778044 
3916.000000	99.779454 
3915.000000	99.779069 
3914.000000	99.778995 
3913.000000	99.780108 
3912.000000	99.781553 
3911.000000	99.782115 
3910.000000	99.781806 
3909.000000	99.781789 
3908.000000	99.782818 
3907.000000	99.783829 
3906.000000	99.782500 
3905.000000	99.777572 
3904.000000	99.770321 
3903.000000	99.763685 
3902.000000	99.760111 
3901.000000	99.760413 
3900.000000	99.764091 
3899.000000	99.769556 
3898.000000	99.774469 
3897.000000	99.776941 
3896.000000	99.776311 
3895.000000	99.772996 
3894.000000	99.767972 
3893.000000	99.762351 
3892.000000	99.757328 
3891.000000	99.753956 
3890.000000	99.752949 
3889.000000	99.754327 
3888.000000	99.757049 
3887.000000	99.759573 
3886.000000	99.760993 
3885.000000	99.761482 
3884.000000	99.761642 
3883.000000	99.762011 
3882.000000	99.763147 
3881.000000	99.765532 
3880.000000	99.768763 
3879.000000	99.771170 
3878.000000	99.771420 
3877.000000	99.769867 
3876.000000	99.768341 
3875.000000	99.768704 
3874.000000	99.771142 
3873.000000	99.773938 
3872.000000	99.775361 
3871.000000	99.775238 
3870.000000	99.774670 
3869.000000	99.774974 
3868.000000	99.777189 
3867.000000	99.781743 
3866.000000	99.787842 
3865.000000	99.793056 
3864.000000	99.794220 
3863.000000	99.790416 
3862.000000	99.784144 
3861.000000	99.778806 
3860.000000	99.775859 
3859.000000	99.774488 
3858.000000	99.773281 
3857.000000	99.771826 
3856.000000	99.770905 
3855.000000	99.772082 
3854.000000	99.776049 
3853.000000	99.780474 
3852.000000	99.782609 
3851.000000	99.783180 
3850.000000	99.784130 
3849.000000	99.785906 
3848.000000	99.787311 
3847.000000	99.786883 
3846.000000	99.784360 
3845.000000	99.781019 
3844.000000	99.778902 
3843.000000	99.779444 
3842.000000	99.782124 
3841.000000	99.784794 
3840.000000	99.785484 
3839.000000	99.783586 
3838.000000	99.779893 
3837.000000	99.776005 
3836.000000	99.773586 
3835.000000	99.773928 
3834.000000	99.777492 
3833.000000	99.783660 
3832.000000	99.790932 
3831.000000	99.797440 
3830.000000	99.801566 
3829.000000	99.802056 
3828.000000	99.798137 
3827.000000	99.790508 
3826.000000	99.782023 
3825.000000	99.776447 
3824.000000	99.776300 
3823.000000	99.781557 
3822.000000	99.789431 
3821.000000	99.795768 
3820.000000	99.798650 
3819.000000	99.800035 
3818.000000	99.802555 
3817.000000	99.806108 
3816.000000	99.807588 
3815.000000	99.803937 
3814.000000	99.795668 
3813.000000	99.786562 
3812.000000	99.780429 
3811.000000	99.778689 
3810.000000	99.780265 
3809.000000	99.783181 
3808.000000	99.786184 
3807.000000	99.788872 
3806.000000	99.790869 
3805.000000	99.792011 
3804.000000	99.792983 
3803.000000	99.794892 
3802.000000	99.797785 
3801.000000	99.799653 
3800.000000	99.798367 
3799.000000	99.794117 
3798.000000	99.788783 
3797.000000	99.783955 
3796.000000	99.779869 
3795.000000	99.775830 
3794.000000	99.771422 
3793.000000	99.767224 
3792.000000	99.764554 
3791.000000	99.764679 
3790.000000	99.767999 
3789.000000	99.773535 
3788.000000	99.779061 
3787.000000	99.782047 
3786.000000	99.781250 
3785.000000	99.777851 
3784.000000	99.774760 
3783.000000	99.774507 
3782.000000	99.777734 
3781.000000	99.783249 
3780.000000	99.788697 
3779.000000	99.791457 
3778.000000	99.790089 
3777.000000	99.785389 
3776.000000	99.779877 
3775.000000	99.776155 
3774.000000	99.775349 
3773.000000	99.776707 
3772.000000	99.778697 
3771.000000	99.780363 
3770.000000	99.781421 
3769.000000	99.781599 
3768.000000	99.780800 
3767.000000	99.779613 
3766.000000	99.779128 
3765.000000	99.780015 
3764.000000	99.781702 
3763.000000	99.782604 
3762.000000	99.781145 
3761.000000	99.776911 
3760.000000	99.771448 
3759.000000	99.767827 
3758.000000	99.768537 
3757.000000	99.773397 
3756.000000	99.779784 
3755.000000	99.784798 
3754.000000	99.787303 
3753.000000	99.788769 
3752.000000	99.791868 
3751.000000	99.797136 
3750.000000	99.802231 
3749.000000	99.805638 
3748.000000	99.808144 
3747.000000	99.810287 
3746.000000	99.810976 
3745.000000	99.808992 
3744.000000	99.804857 
3743.000000	99.800539 
3742.000000	99.797494 
3741.000000	99.795386 
3740.000000	99.792334 
3739.000000	99.786421 
3738.000000	99.778311 
3737.000000	99.771985 
3736.000000	99.770923 
3735.000000	99.773320 
3734.000000	99.773771 
3733.000000	99.770254 
3732.000000	99.765866 
3731.000000	99.764302 
3730.000000	99.766478 
3729.000000	99.771139 
3728.000000	99.776792 
3727.000000	99.781996 
3726.000000	99.784855 
3725.000000	99.784101 
3724.000000	99.780877 
3723.000000	99.778406 
3722.000000	99.779001 
3721.000000	99.782149 
3720.000000	99.785188 
3719.000000	99.785603 
3718.000000	99.783031 
3717.000000	99.779151 
3716.000000	99.775935 
3715.000000	99.774266 
3714.000000	99.774012 
3713.000000	99.775106 
3712.000000	99.777708 
3711.000000	99.781180 
3710.000000	99.783531 
3709.000000	99.782398 
3708.000000	99.776902 
3707.000000	99.768564 
3706.000000	99.760795 
3705.000000	99.757360 
3704.000000	99.760151 
3703.000000	99.767361 
3702.000000	99.773716 
3701.000000	99.774344 
3700.000000	99.769074 
3699.000000	99.761766 
3698.000000	99.756132 
3697.000000	99.753135 
3696.000000	99.751580 
3695.000000	99.750517 
3694.000000	99.750576 
3693.000000	99.752748 
3692.000000	99.756223 
3691.000000	99.758194 
3690.000000	99.756348 
3689.000000	99.751284 
3688.000000	99.745478 
3687.000000	99.740327 
3686.000000	99.735894 
3685.000000	99.732750 
3684.000000	99.732005 
3683.000000	99.733555 
3682.000000	99.735101 
3681.000000	99.733533 
3680.000000	99.727457 
3679.000000	99.718139 
3678.000000	99.708839 
3677.000000	99.704484 
3676.000000	99.709221 
3675.000000	99.720107 
3674.000000	99.728270 
3673.000000	99.728496 
3672.000000	99.722653 
3671.000000	99.717428 
3670.000000	99.718523 
3669.000000	99.724284 
3668.000000	99.728652 
3667.000000	99.729275 
3666.000000	99.728687 
3665.000000	99.730049 
3664.000000	99.733739 
3663.000000	99.737191 
3662.000000	99.737378 
3661.000000	99.733195 
3660.000000	99.726201 
3659.000000	99.719951 
3658.000000	99.718630 
3657.000000	99.724454 
3656.000000	99.734713 
3655.000000	99.743298 
3654.000000	99.745933 
3653.000000	99.742358 
3652.000000	99.734728 
3651.000000	99.726642 
3650.000000	99.722586 
3649.000000	99.725158 
3648.000000	99.732383 
3647.000000	99.739603 
3646.000000	99.743601 
3645.000000	99.744156 
3644.000000	99.743167 
3643.000000	99.743070 
3642.000000	99.745699 
3641.000000	99.751102 
3640.000000	99.757255 
3639.000000	99.761285 
3638.000000	99.761748 
3637.000000	99.760167 
3636.000000	99.759694 
3635.000000	99.761813 
3634.000000	99.764415 
3633.000000	99.764071 
3632.000000	99.760244 
3631.000000	99.756656 
3630.000000	99.758547 
3629.000000	99.766173 
3628.000000	99.772302 
3627.000000	99.771778 
3626.000000	99.767090 
3625.000000	99.762676 
3624.000000	99.760271 
3623.000000	99.759420 
3622.000000	99.759633 
3621.000000	99.761351 
3620.000000	99.764649 
3619.000000	99.767802 
3618.000000	99.768820 
3617.000000	99.768126 
3616.000000	99.767783 
3615.000000	99.768903 
3614.000000	99.770289 
3613.000000	99.769681 
3612.000000	99.766575 
3611.000000	99.763334 
3610.000000	99.762697 
3609.000000	99.764345 
3608.000000	99.764617 
3607.000000	99.760815 
3606.000000	99.755010 
3605.000000	99.751921 
3604.000000	99.754122 
3603.000000	99.760209 
3602.000000	99.766922 
3601.000000	99.772484 
3600.000000	99.777221 
3599.000000	99.781506 
3598.000000	99.784467 
3597.000000	99.785012 
3596.000000	99.783505 
3595.000000	99.782224 
3594.000000	99.783132 
3593.000000	99.785745 
3592.000000	99.787734 
3591.000000	99.787208 
3590.000000	99.784698 
3589.000000	99.782955 
3588.000000	99.784045 
3587.000000	99.785958 
3586.000000	99.784896 
3585.000000	99.780433 
3584.000000	99.775626 
3583.000000	99.772892 
3582.000000	99.771698 
3581.000000	99.769845 
3580.000000	99.766261 
3579.000000	99.762257 
3578.000000	99.760158 
3577.000000	99.761349 
3576.000000	99.765457 
3575.000000	99.770823 
3574.000000	99.775470 
3573.000000	99.778043 
3572.000000	99.778678 
3571.000000	99.778813 
3570.000000	99.779712 
3569.000000	99.781151 
3568.000000	99.781680 
3567.000000	99.780039 
3566.000000	99.776719 
3565.000000	99.774057 
3564.000000	99.774403 
3563.000000	99.778279 
3562.000000	99.784094 
3561.000000	99.789115 
3560.000000	99.791202 
3559.000000	99.790236 
3558.000000	99.788182 
3557.000000	99.787483 
3556.000000	99.789116 
3555.000000	99.791782 
3554.000000	99.792971 
3553.000000	99.790969 
3552.000000	99.786317 
3551.000000	99.781470 
3550.000000	99.778767 
3549.000000	99.778693 
3548.000000	99.780089 
3547.000000	99.781474 
3546.000000	99.781977 
3545.000000	99.781110 
3544.000000	99.778786 
3543.000000	99.776124 
3542.000000	99.775560 
3541.000000	99.778922 
3540.000000	99.785330 
3539.000000	99.791496 
3538.000000	99.794690 
3537.000000	99.795098 
3536.000000	99.794846 
3535.000000	99.795126 
3534.000000	99.795139 
3533.000000	99.794129 
3532.000000	99.793239 
3531.000000	99.794681 
3530.000000	99.799014 
3529.000000	99.803880 
3528.000000	99.805986 
3527.000000	99.804287 
3526.000000	99.800769 
3525.000000	99.798153 
3524.000000	99.797250 
3523.000000	99.796557 
3522.000000	99.794344 
3521.000000	99.790740 
3520.000000	99.787858 
3519.000000	99.788006 
3518.000000	99.791738 
3517.000000	99.797269 
3516.000000	99.801676 
3515.000000	99.802891 
3514.000000	99.800761 
3513.000000	99.796534 
3512.000000	99.791608 
3511.000000	99.786946 
3510.000000	99.783396 
3509.000000	99.782052 
3508.000000	99.783809 
3507.000000	99.788445 
3506.000000	99.794252 
3505.000000	99.798492 
3504.000000	99.798620 
3503.000000	99.794057 
3502.000000	99.787458 
3501.000000	99.783826 
3500.000000	99.787028 
3499.000000	99.796236 
3498.000000	99.805750 
3497.000000	99.809216 
3496.000000	99.804834 
3495.000000	99.796306 
3494.000000	99.788828 
3493.000000	99.784722 
3492.000000	99.783138 
3491.000000	99.782750 
3490.000000	99.783551 
3489.000000	99.786053 
3488.000000	99.789682 
3487.000000	99.792661 
3486.000000	99.793531 
3485.000000	99.792527 
3484.000000	99.791271 
3483.000000	99.791235 
3482.000000	99.792577 
3481.000000	99.794622 
3480.000000	99.797091 
3479.000000	99.799997 
3478.000000	99.802272 
3477.000000	99.801787 
3476.000000	99.797908 
3475.000000	99.793572 
3474.000000	99.793087 
3473.000000	99.797295 
3472.000000	99.802176 
3471.000000	99.803239 
3470.000000	99.800604 
3469.000000	99.798484 
3468.000000	99.799996 
3467.000000	99.803753 
3466.000000	99.806161 
3465.000000	99.805950 
3464.000000	99.805252 
3463.000000	99.806545 
3462.000000	99.809667 
3461.000000	99.812469 
3460.000000	99.813745 
3459.000000	99.814583 
3458.000000	99.816660 
3457.000000	99.819798 
3456.000000	99.821849 
3455.000000	99.821010 
3454.000000	99.817857 
3453.000000	99.814937 
3452.000000	99.814456 
3451.000000	99.816564 
3450.000000	99.819588 
3449.000000	99.821580 
3448.000000	99.821556 
3447.000000	99.819724 
3446.000000	99.817045 
3445.000000	99.814798 
3444.000000	99.814151 
3443.000000	99.815385 
3442.000000	99.817214 
3441.000000	99.817354 
3440.000000	99.814419 
3439.000000	99.809217 
3438.000000	99.803841 
3437.000000	99.799653 
3436.000000	99.796710 
3435.000000	99.795135 
3434.000000	99.796073 
3433.000000	99.800615 
3432.000000	99.807885 
3431.000000	99.814908 
3430.000000	99.818756 
3429.000000	99.818919 
3428.000000	99.817644 
3427.000000	99.817641 
3426.000000	99.819181 
3425.000000	99.819458 
3424.000000	99.815225 
3423.000000	99.806284 
3422.000000	99.796237 
3421.000000	99.789749 
3420.000000	99.789311 
3419.000000	99.794309 
3418.000000	99.802158 
3417.000000	99.809676 
3416.000000	99.814252 
3415.000000	99.815004 
3414.000000	99.813188 
3413.000000	99.811055 
3412.000000	99.810114 
3411.000000	99.810531 
3410.000000	99.811588 
3409.000000	99.812030 
3408.000000	99.810254 
3407.000000	99.805268 
3406.000000	99.798058 
3405.000000	99.791550 
3404.000000	99.788655 
3403.000000	99.790274 
3402.000000	99.795226 
3401.000000	99.801862 
3400.000000	99.809238 
3399.000000	99.816664 
3398.000000	99.822788 
3397.000000	99.825889 
3396.000000	99.825306 
3395.000000	99.822077 
3394.000000	99.817702 
3393.000000	99.812647 
3392.000000	99.806724 
3391.000000	99.800881 
3390.000000	99.797685 
3389.000000	99.799380 
3388.000000	99.805682 
3387.000000	99.813829 
3386.000000	99.820625 
3385.000000	99.824427 
3384.000000	99.825518 
3383.000000	99.825080 
3382.000000	99.823780 
3381.000000	99.821299 
3380.000000	99.817327 
3379.000000	99.812974 
3378.000000	99.810451 
3377.000000	99.810833 
3376.000000	99.812669 
3375.000000	99.813605 
3374.000000	99.813097 
3373.000000	99.812732 
3372.000000	99.813904 
3371.000000	99.816032 
3370.000000	99.817281 
3369.000000	99.816386 
3368.000000	99.813547 
3367.000000	99.810228 
3366.000000	99.808445 
3365.000000	99.809536 
3364.000000	99.812961 
3363.000000	99.816541 
3362.000000	99.818279 
3361.000000	99.817751 
3360.000000	99.815617 
3359.000000	99.812550 
3358.000000	99.809329 
3357.000000	99.807460 
3356.000000	99.808379 
3355.000000	99.811607 
3354.000000	99.814405 
3353.000000	99.813928 
3352.000000	99.809723 
3351.000000	99.804122 
3350.000000	99.800520 
3349.000000	99.801251 
3348.000000	99.806401 
3347.000000	99.813689 
3346.000000	99.819364 
3345.000000	99.820119 
3344.000000	99.815286 
3343.000000	99.807722 
3342.000000	99.802036 
3341.000000	99.801100 
3340.000000	99.803801 
3339.000000	99.806380 
3338.000000	99.806262 
3337.000000	99.804432 
3336.000000	99.803848 
3335.000000	99.805844 
3334.000000	99.808833 
3333.000000	99.810621 
3332.000000	99.811150 
3331.000000	99.812091 
3330.000000	99.813917 
3329.000000	99.814489 
3328.000000	99.811254 
3327.000000	99.804480 
3326.000000	99.797409 
3325.000000	99.793154 
3324.000000	99.792119 
3323.000000	99.792766 
3322.000000	99.793979 
3321.000000	99.795730 
3320.000000	99.797947 
3319.000000	99.800132 
3318.000000	99.802372 
3317.000000	99.805465 
3316.000000	99.809152 
3315.000000	99.811193 
3314.000000	99.809584 
3313.000000	99.805446 
3312.000000	99.802319 
3311.000000	99.802274 
3310.000000	99.803782 
3309.000000	99.803996 
3308.000000	99.802239 
3307.000000	99.800450 
3306.000000	99.800825 
3305.000000	99.803986 
3304.000000	99.809087 
3303.000000	99.814508 
3302.000000	99.818251 
3301.000000	99.818577 
3300.000000	99.815108 
3299.000000	99.809378 
3298.000000	99.804116 
3297.000000	99.801646 
3296.000000	99.802367 
3295.000000	99.804277 
3294.000000	99.804396 
3293.000000	99.801546 
3292.000000	99.797894 
3291.000000	99.797006 
3290.000000	99.800029 
3289.000000	99.804373 
3288.000000	99.806396 
3287.000000	99.804789 
3286.000000	99.800945 
3285.000000	99.796688 
3284.000000	99.792635 
3283.000000	99.788709 
3282.000000	99.785425 
3281.000000	99.784178 
3280.000000	99.786296 
3279.000000	99.791758 
3278.000000	99.798635 
3277.000000	99.803878 
3276.000000	99.805100 
3275.000000	99.802039 
3274.000000	99.796535 
3273.000000	99.791216 
3272.000000	99.788047 
3271.000000	99.787558 
3270.000000	99.788905 
3269.000000	99.790588 
3268.000000	99.791295 
3267.000000	99.790268 
3266.000000	99.787283 
3265.000000	99.782954 
3264.000000	99.779203 
3263.000000	99.778682 
3262.000000	99.782845 
3261.000000	99.790415 
3260.000000	99.798030 
3259.000000	99.802427 
3258.000000	99.802107 
3257.000000	99.797578 
3256.000000	99.790762 
3255.000000	99.784101 
3254.000000	99.779516 
3253.000000	99.777742 
3252.000000	99.778514 
3251.000000	99.781127 
3250.000000	99.784618 
3249.000000	99.787838 
3248.000000	99.789926 
3247.000000	99.790672 
3246.000000	99.790185 
3245.000000	99.788547 
3244.000000	99.786265 
3243.000000	99.784627 
3242.000000	99.784668 
3241.000000	99.785816 
3240.000000	99.786509 
3239.000000	99.786475 
3238.000000	99.787662 
3237.000000	99.792227 
3236.000000	99.799827 
3235.000000	99.807245 
3234.000000	99.810668 
3233.000000	99.808464 
3232.000000	99.802335 
3231.000000	99.796124 
3230.000000	99.793040 
3229.000000	99.793381 
3228.000000	99.794662 
3227.000000	99.794026 
3226.000000	99.790725 
3225.000000	99.786651 
3224.000000	99.784745 
3223.000000	99.786595 
3222.000000	99.790912 
3221.000000	99.794241 
3220.000000	99.793718 
3219.000000	99.789586 
3218.000000	99.784992 
3217.000000	99.783411 
3216.000000	99.786338 
3215.000000	99.792794 
3214.000000	99.800068 
3213.000000	99.804942 
3212.000000	99.805303 
3211.000000	99.801389 
3210.000000	99.795372 
3209.000000	99.789608 
3208.000000	99.785503 
3207.000000	99.783701 
3206.000000	99.784195 
3205.000000	99.785761 
3204.000000	99.786270 
3203.000000	99.784619 
3202.000000	99.782142 
3201.000000	99.781385 
3200.000000	99.783538 
3199.000000	99.787371 
3198.000000	99.790478 
3197.000000	99.791284 
3196.000000	99.790238 
3195.000000	99.789441 
3194.000000	99.790680 
3193.000000	99.793307 
3192.000000	99.794382 
3191.000000	99.791575 
3190.000000	99.785736 
3189.000000	99.780079 
3188.000000	99.777073 
3187.000000	99.776770 
3186.000000	99.777857 
3185.000000	99.779313 
3184.000000	99.780752 
3183.000000	99.781911 
3182.000000	99.782548 
3181.000000	99.782845 
3180.000000	99.783605 
3179.000000	99.785713 
3178.000000	99.789016 
3177.000000	99.791733 
3176.000000	99.791674 
3175.000000	99.788546 
3174.000000	99.784626 
3173.000000	99.782508 
3172.000000	99.782515 
3171.000000	99.783020 
3170.000000	99.782894 
3169.000000	99.782468 
3168.000000	99.782120 
3167.000000	99.781375 
3166.000000	99.780066 
3165.000000	99.779263 
3164.000000	99.779969 
3163.000000	99.781498 
3162.000000	99.782299 
3161.000000	99.782216 
3160.000000	99.782813 
3159.000000	99.785083 
3158.000000	99.787618 
3157.000000	99.787674 
3156.000000	99.783832 
3155.000000	99.777259 
3154.000000	99.770446 
3153.000000	99.765114 
3152.000000	99.761475 
3151.000000	99.759228 
3150.000000	99.758660 
3149.000000	99.760314 
3148.000000	99.763741 
3147.000000	99.767257 
3146.000000	99.769329 
3145.000000	99.769932 
3144.000000	99.770168 
3143.000000	99.770838 
3142.000000	99.771903 
3141.000000	99.773213 
3140.000000	99.774905 
3139.000000	99.776734 
3138.000000	99.777651 
3137.000000	99.776820 
3136.000000	99.774914 
3135.000000	99.773704 
3134.000000	99.774169 
3133.000000	99.775479 
3132.000000	99.776059 
3131.000000	99.775295 
3130.000000	99.773867 
3129.000000	99.772814 
3128.000000	99.772832 
3127.000000	99.774270 
3126.000000	99.777033 
3125.000000	99.780187 
3124.000000	99.782153 
3123.000000	99.781851 
3122.000000	99.779643 
3121.000000	99.776877 
3120.000000	99.774556 
3119.000000	99.772714 
3118.000000	99.771078 
3117.000000	99.769991 
3116.000000	99.770443 
3115.000000	99.773091 
3114.000000	99.777284 
3113.000000	99.781126 
3112.000000	99.782757 
3111.000000	99.781791 
3110.000000	99.779468 
3109.000000	99.777267 
3108.000000	99.775407 
3107.000000	99.772894 
3106.000000	99.769055 
3105.000000	99.764788 
3104.000000	99.762087 
3103.000000	99.762292 
3102.000000	99.764952 
3101.000000	99.768540 
3100.000000	99.772259 
3099.000000	99.776743 
3098.000000	99.782589 
3097.000000	99.788478 
3096.000000	99.791534 
3095.000000	99.790017 
3094.000000	99.785225 
3093.000000	99.780126 
3092.000000	99.776357 
3091.000000	99.773237 
3090.000000	99.769675 
3089.000000	99.766183 
3088.000000	99.764438 
3087.000000	99.765328 
3086.000000	99.767983 
3085.000000	99.770612 
3084.000000	99.771780 
3083.000000	99.770978 
3082.000000	99.768640 
3081.000000	99.765966 
3080.000000	99.764446 
3079.000000	99.765180 
3078.000000	99.768481 
3077.000000	99.773901 
3076.000000	99.780344 
3075.000000	99.786276 
3074.000000	99.790301 
3073.000000	99.791754 
3072.000000	99.790530 
3071.000000	99.786377 
3070.000000	99.779037 
3069.000000	99.769521 
3068.000000	99.760792 
3067.000000	99.756420 
3066.000000	99.758290 
3065.000000	99.765537 
3064.000000	99.775063 
3063.000000	99.782659 
3062.000000	99.784535 
3061.000000	99.779466 
3060.000000	99.770074 
3059.000000	99.761232 
3058.000000	99.756534 
3057.000000	99.756452 
3056.000000	99.759586 
3055.000000	99.764527 
3054.000000	99.769910 
3053.000000	99.773829 
3052.000000	99.774719 
3051.000000	99.772930 
3050.000000	99.770629 
3049.000000	99.769979 
3048.000000	99.771570 
3047.000000	99.774153 
3046.000000	99.775180 
3045.000000	99.772061 
3044.000000	99.764315 
3043.000000	99.755023 
3042.000000	99.749277 
3041.000000	99.750267 
3040.000000	99.756774 
3039.000000	99.764582 
3038.000000	99.769862 
3037.000000	99.771039 
3036.000000	99.768202 
3035.000000	99.762012 
3034.000000	99.753675 
3033.000000	99.745284 
3032.000000	99.739103 
3031.000000	99.735877 
3030.000000	99.734146 
3029.000000	99.731909 
3028.000000	99.729167 
3027.000000	99.728233 
3026.000000	99.730923 
3025.000000	99.735650 
3024.000000	99.738069 
3023.000000	99.734921 
3022.000000	99.726827 
3021.000000	99.717044 
3020.000000	99.708102 
3019.000000	99.700263 
3018.000000	99.692964 
3017.000000	99.686533 
3016.000000	99.681732 
3015.000000	99.678173 
3014.000000	99.674429 
3013.000000	99.670017 
3012.000000	99.666278 
3011.000000	99.664461 
3010.000000	99.663597 
3009.000000	99.661461 
3008.000000	99.657404 
3007.000000	99.652898 
3006.000000	99.649004 
3005.000000	99.644761 
3004.000000	99.639071 
3003.000000	99.633030 
3002.000000	99.628830 
3001.000000	99.626718 
3000.000000	99.624539 
2999.000000	99.620520 
2998.000000	99.615348 
2997.000000	99.611029 
2996.000000	99.608504 
2995.000000	99.606788 
2994.000000	99.603877 
2993.000000	99.598068 
2992.000000	99.588987 
2991.000000	99.577962 
2990.000000	99.567373 
2989.000000	99.559440 
2988.000000	99.555569 
2987.000000	99.556412 
2986.000000	99.561632 
2985.000000	99.569434 
2984.000000	99.577024 
2983.000000	99.582199 
2982.000000	99.584404 
2981.000000	99.584400 
2980.000000	99.583573 
2979.000000	99.583664 
2978.000000	99.585926 
2977.000000	99.589500 
2976.000000	99.591201 
2975.000000	99.588239 
2974.000000	99.581459 
2973.000000	99.575141 
2972.000000	99.573299 
2971.000000	99.576575 
2970.000000	99.582724 
2969.000000	99.589254 
2968.000000	99.595050 
2967.000000	99.600142 
2966.000000	99.604968 
2965.000000	99.610100 
2964.000000	99.616031 
2963.000000	99.622729 
2962.000000	99.629430 
2961.000000	99.635046 
2960.000000	99.638681 
2959.000000	99.639889 
2958.000000	99.638872 
2957.000000	99.636725 
2956.000000	99.635145 
2955.000000	99.635470 
2954.000000	99.637989 
2953.000000	99.642347 
2952.000000	99.648172 
2951.000000	99.654766 
2950.000000	99.660512 
2949.000000	99.663568 
2948.000000	99.663525 
2947.000000	99.661951 
2946.000000	99.661063 
2945.000000	99.662264 
2944.000000	99.665851 
2943.000000	99.671192 
2942.000000	99.676644 
2941.000000	99.680156 
2940.000000	99.680932 
2939.000000	99.680455 
2938.000000	99.681330 
2937.000000	99.685312 
2936.000000	99.692689 
2935.000000	99.702728 
2934.000000	99.713665 
2933.000000	99.722596 
2932.000000	99.726789 
2931.000000	99.725819 
2930.000000	99.722109 
2929.000000	99.719109 
2928.000000	99.718824 
2927.000000	99.720567 
2926.000000	99.721609 
2925.000000	99.719446 
2924.000000	99.714145 
2923.000000	99.708263 
2922.000000	99.703913 
2921.000000	99.700289 
2920.000000	99.694979 
2919.000000	99.687272 
2918.000000	99.678964 
2917.000000	99.671855 
2916.000000	99.665777 
2915.000000	99.659625 
2914.000000	99.653376 
2913.000000	99.648214 
2912.000000	99.645132 
2911.000000	99.644065 
2910.000000	99.644159 
2909.000000	99.644371 
2908.000000	99.643914 
2907.000000	99.642566 
2906.000000	99.640498 
2905.000000	99.637646 
2904.000000	99.633403 
2903.000000	99.627317 
2902.000000	99.620209 
2901.000000	99.614651 
2900.000000	99.613484 
2899.000000	99.617704 
2898.000000	99.624980 
2897.000000	99.630876 
2896.000000	99.632385 
2895.000000	99.630554 
2894.000000	99.629286 
2893.000000	99.631414 
2892.000000	99.636310 
2891.000000	99.641083 
2890.000000	99.643420 
2889.000000	99.643002 
2888.000000	99.640915 
2887.000000	99.638446 
2886.000000	99.636451 
2885.000000	99.635324 
2884.000000	99.635302 
2883.000000	99.636716 
2882.000000	99.639964 
2881.000000	99.645140 
2880.000000	99.651546 
2879.000000	99.657545 
2878.000000	99.661349 
2877.000000	99.662736 
2876.000000	99.664010 
2875.000000	99.668301 
2874.000000	99.676180 
2873.000000	99.684506 
2872.000000	99.689322 
2871.000000	99.689639 
2870.000000	99.687758 
2869.000000	99.686664 
2868.000000	99.688072 
2867.000000	99.692346 
2866.000000	99.698562 
2865.000000	99.704495 
2864.000000	99.708110 
2863.000000	99.709758 
2862.000000	99.711827 
2861.000000	99.715750 
2860.000000	99.720487 
2859.000000	99.724562 
2858.000000	99.728205 
2857.000000	99.732363 
2856.000000	99.736606 
2855.000000	99.739464 
2854.000000	99.740441 
2853.000000	99.740527 
2852.000000	99.740857 
2851.000000	99.741838 
2850.000000	99.743548 
2849.000000	99.745932 
2848.000000	99.748269 
2847.000000	99.749226 
2846.000000	99.748012 
2845.000000	99.745202 
2844.000000	99.742019 
2843.000000	99.739005 
2842.000000	99.735858 
2841.000000	99.732673 
2840.000000	99.730862 
2839.000000	99.732215 
2838.000000	99.736844 
2837.000000	99.742432 
2836.000000	99.745988 
2835.000000	99.746348 
2834.000000	99.744780 
2833.000000	99.743390 
2832.000000	99.743224 
2831.000000	99.743719 
2830.000000	99.743483 
2829.000000	99.741719 
2828.000000	99.739394 
2827.000000	99.738856 
2826.000000	99.741690 
2825.000000	99.746808 
2824.000000	99.751156 
2823.000000	99.752415 
2822.000000	99.750710 
2821.000000	99.747937 
2820.000000	99.746147 
2819.000000	99.746480 
2818.000000	99.748646 
2817.000000	99.750981 
2816.000000	99.751686 
2815.000000	99.750453 
2814.000000	99.748555 
2813.000000	99.747284 
2812.000000	99.746967 
2811.000000	99.747620 
2810.000000	99.749600 
2809.000000	99.752942 
2808.000000	99.756671 
2807.000000	99.759373 
2806.000000	99.760196 
2805.000000	99.759059 
2804.000000	99.756497 
2803.000000	99.753701 
2802.000000	99.752027 
2801.000000	99.751856 
2800.000000	99.752348 
2799.000000	99.752698 
2798.000000	99.753029 
2797.000000	99.753549 
2796.000000	99.753593 
2795.000000	99.752383 
2794.000000	99.750280 
2793.000000	99.748395 
2792.000000	99.747223 
2791.000000	99.746490 
2790.000000	99.746189 
2789.000000	99.746894 
2788.000000	99.748935 
2787.000000	99.751823 
2786.000000	99.754577 
2785.000000	99.756260 
2784.000000	99.756301 
2783.000000	99.754738 
2782.000000	99.752127 
2781.000000	99.748989 
2780.000000	99.745634 
2779.000000	99.742754 
2778.000000	99.741603 
2777.000000	99.742894 
2776.000000	99.745823 
2775.000000	99.748858 
2774.000000	99.751186 
2773.000000	99.752846 
2772.000000	99.753950 
2771.000000	99.754726 
2770.000000	99.755903 
2769.000000	99.757815 
2768.000000	99.759252 
2767.000000	99.758552 
2766.000000	99.756035 
2765.000000	99.753942 
2764.000000	99.753409 
2763.000000	99.752812 
2762.000000	99.750122 
2761.000000	99.745851 
2760.000000	99.742433 
2759.000000	99.741349 
2758.000000	99.742288 
2757.000000	99.744755 
2756.000000	99.748764 
2755.000000	99.753420 
2754.000000	99.756260 
2753.000000	99.755241 
2752.000000	99.751078 
2751.000000	99.746783 
2750.000000	99.744879 
2749.000000	99.745515 
2748.000000	99.747129 
2747.000000	99.748338 
2746.000000	99.748918 
2745.000000	99.749284 
2744.000000	99.749469 
2743.000000	99.748823 
2742.000000	99.746818 
2741.000000	99.744061 
2740.000000	99.742223 
2739.000000	99.742791 
2738.000000	99.745997 
2737.000000	99.751020 
2736.000000	99.756749 
2735.000000	99.761830 
2734.000000	99.764401 
2733.000000	99.762940 
2732.000000	99.757941 
2731.000000	99.752111 
2730.000000	99.748176 
2729.000000	99.746617 
2728.000000	99.746024 
2727.000000	99.745356 
2726.000000	99.745097 
2725.000000	99.746163 
2724.000000	99.748531 
2723.000000	99.751407 
2722.000000	99.754276 
2721.000000	99.757130 
2720.000000	99.759705 
2719.000000	99.761051 
2718.000000	99.760182 
2717.000000	99.757117 
2716.000000	99.753163 
2715.000000	99.750132 
2714.000000	99.749200 
2713.000000	99.750279 
2712.000000	99.752268 
2711.000000	99.753943 
2710.000000	99.754924 
2709.000000	99.755961 
2708.000000	99.758009 
2707.000000	99.760704 
2706.000000	99.762056 
2705.000000	99.760343 
2704.000000	99.756356 
2703.000000	99.753087 
2702.000000	99.752889 
2701.000000	99.755483 
2700.000000	99.759052 
2699.000000	99.762528 
2698.000000	99.766010 
2697.000000	99.769393 
2696.000000	99.771656 
2695.000000	99.771757 
2694.000000	99.769765 
2693.000000	99.766953 
2692.000000	99.764907 
2691.000000	99.764298 
2690.000000	99.764236 
2689.000000	99.763168 
2688.000000	99.760872 
2687.000000	99.759118 
2686.000000	99.759711 
2685.000000	99.762248 
2684.000000	99.764619 
2683.000000	99.765428 
2682.000000	99.764867 
2681.000000	99.763296 
2680.000000	99.760314 
2679.000000	99.755866 
2678.000000	99.751470 
2677.000000	99.749561 
2676.000000	99.751688 
2675.000000	99.757299 
2674.000000	99.763802 
2673.000000	99.767822 
2672.000000	99.767429 
2671.000000	99.763724 
2670.000000	99.759909 
2669.000000	99.758494 
2668.000000	99.759679 
2667.000000	99.762210 
2666.000000	99.764735 
2665.000000	99.766006 
2664.000000	99.764931 
2663.000000	99.761501 
2662.000000	99.757314 
2661.000000	99.754351 
2660.000000	99.753268 
2659.000000	99.753250 
2658.000000	99.753322 
2657.000000	99.753443 
2656.000000	99.754358 
2655.000000	99.756419 
2654.000000	99.758375 
2653.000000	99.757920 
2652.000000	99.754581 
2651.000000	99.751834 
2650.000000	99.754427 
2649.000000	99.762529 
2648.000000	99.770242 
2647.000000	99.771739 
2646.000000	99.768031 
2645.000000	99.765661 
2644.000000	99.768862 
2643.000000	99.775037 
2642.000000	99.778336 
2641.000000	99.775943 
2640.000000	99.769905 
2639.000000	99.764140 
2638.000000	99.761117 
2637.000000	99.760942 
2636.000000	99.762184 
2635.000000	99.762957 
2634.000000	99.761730 
2633.000000	99.758049 
2632.000000	99.753246 
2631.000000	99.750316 
2630.000000	99.751917 
2629.000000	99.757592 
2628.000000	99.763557 
2627.000000	99.766367 
2626.000000	99.766427 
2625.000000	99.766668 
2624.000000	99.768101 
2623.000000	99.768447 
2622.000000	99.765615 
2621.000000	99.760845 
2620.000000	99.757317 
2619.000000	99.756771 
2618.000000	99.758640 
2617.000000	99.761607 
2616.000000	99.764645 
2615.000000	99.767129 
2614.000000	99.769354 
2613.000000	99.772754 
2612.000000	99.778147 
2611.000000	99.783628 
2610.000000	99.785624 
2609.000000	99.782655 
2608.000000	99.777126 
2607.000000	99.772874 
2606.000000	99.771932 
2605.000000	99.774248 
2604.000000	99.779198 
2603.000000	99.785698 
2602.000000	99.791354 
2601.000000	99.793575 
2600.000000	99.792289 
2599.000000	99.790321 
2598.000000	99.790033 
2597.000000	99.790281 
2596.000000	99.787768 
2595.000000	99.781172 
2594.000000	99.772934 
2593.000000	99.766879 
2592.000000	99.764849 
2591.000000	99.765965 
2590.000000	99.768486 
2589.000000	99.771548 
2588.000000	99.775040 
2587.000000	99.778357 
2586.000000	99.780042 
2585.000000	99.779103 
2584.000000	99.776489 
2583.000000	99.774497 
2582.000000	99.774426 
2581.000000	99.775433 
2580.000000	99.776134 
2579.000000	99.776588 
2578.000000	99.777653 
2577.000000	99.778846 
2576.000000	99.778356 
2575.000000	99.775674 
2574.000000	99.773074 
2573.000000	99.773502 
2572.000000	99.777344 
2571.000000	99.781990 
2570.000000	99.784473 
2569.000000	99.784008 
2568.000000	99.782029 
2567.000000	99.780204 
2566.000000	99.778680 
2565.000000	99.776237 
2564.000000	99.772101 
2563.000000	99.767433 
2562.000000	99.764813 
2561.000000	99.766050 
2560.000000	99.770276 
2559.000000	99.774000 
2558.000000	99.773480 
2557.000000	99.768230 
2556.000000	99.762768 
2555.000000	99.763725 
2554.000000	99.773609 
2553.000000	99.787367 
2552.000000	99.796280 
2551.000000	99.795528 
2550.000000	99.787288 
2549.000000	99.777088 
2548.000000	99.768948 
2547.000000	99.764341 
2546.000000	99.763682 
2545.000000	99.766943 
2544.000000	99.773221 
2543.000000	99.780724 
2542.000000	99.786869 
2541.000000	99.788321 
2540.000000	99.782524 
2539.000000	99.770575 
2538.000000	99.757711 
2537.000000	99.749542 
2536.000000	99.748125 
2535.000000	99.752309 
2534.000000	99.759999 
2533.000000	99.767677 
2532.000000	99.769334 
2531.000000	99.760577 
2530.000000	99.745515 
2529.000000	99.736019 
2528.000000	99.740433 
2527.000000	99.753984 
2526.000000	99.763452 
2525.000000	99.761326 
2524.000000	99.752871 
2523.000000	99.748934 
2522.000000	99.754667 
2521.000000	99.766627 
2520.000000	99.778043 
2519.000000	99.783732 
2518.000000	99.781191 
2517.000000	99.771083 
2516.000000	99.758211 
2515.000000	99.749474 
2514.000000	99.748543 
2513.000000	99.753085 
2512.000000	99.758237 
2511.000000	99.761837 
2510.000000	99.765091 
2509.000000	99.769467 
2508.000000	99.775061 
2507.000000	99.781440 
2506.000000	99.787515 
2505.000000	99.790159 
2504.000000	99.785477 
2503.000000	99.773297 
2502.000000	99.759347 
2501.000000	99.751334 
2500.000000	99.752845 
2499.000000	99.761569 
2498.000000	99.772479 
2497.000000	99.781347 
2496.000000	99.785748 
2495.000000	99.784848 
2494.000000	99.779553 
2493.000000	99.772393 
2492.000000	99.766329 
2491.000000	99.763468 
2490.000000	99.764896 
2489.000000	99.771090 
2488.000000	99.781504 
2487.000000	99.793589 
2486.000000	99.803071 
2485.000000	99.806336 
2484.000000	99.802926 
2483.000000	99.795357 
2482.000000	99.786444 
2481.000000	99.777353 
2480.000000	99.768400 
2479.000000	99.760812 
2478.000000	99.756671 
2477.000000	99.757208 
2476.000000	99.761859 
2475.000000	99.768873 
2474.000000	99.776081 
2473.000000	99.781231 
2472.000000	99.782840 
2471.000000	99.781497 
2470.000000	99.779768 
2469.000000	99.780057 
2468.000000	99.782484 
2467.000000	99.784982 
2466.000000	99.785175 
2465.000000	99.782084 
2464.000000	99.776720 
2463.000000	99.771649 
2462.000000	99.769573 
2461.000000	99.771218 
2460.000000	99.774144 
2459.000000	99.774222 
2458.000000	99.769242 
2457.000000	99.761479 
2456.000000	99.756316 
2455.000000	99.757683 
2454.000000	99.764553 
2453.000000	99.771974 
2452.000000	99.775366 
2451.000000	99.773582 
2450.000000	99.768187 
2449.000000	99.761161 
2448.000000	99.754169 
2447.000000	99.749210 
2446.000000	99.748377 
2445.000000	99.752284 
2444.000000	99.759073 
2443.000000	99.765284 
2442.000000	99.767871 
2441.000000	99.766073 
2440.000000	99.762042 
2439.000000	99.759361 
2438.000000	99.760003 
2437.000000	99.762523 
2436.000000	99.763689 
2435.000000	99.761960 
2434.000000	99.758919 
2433.000000	99.757589 
2432.000000	99.760077 
2431.000000	99.766605 
2430.000000	99.775388 
2429.000000	99.782847 
2428.000000	99.785172 
2427.000000	99.781176 
2426.000000	99.773684 
2425.000000	99.767361 
2424.000000	99.765022 
2423.000000	99.766409 
2422.000000	99.770184 
2421.000000	99.775748 
2420.000000	99.782348 
2419.000000	99.787365 
2418.000000	99.787282 
2417.000000	99.781038 
2416.000000	99.771514 
2415.000000	99.762874 
2414.000000	99.757023 
2413.000000	99.753495 
2412.000000	99.751984 
2411.000000	99.753244 
2410.000000	99.757279 
2409.000000	99.762156 
2408.000000	99.765388 
2407.000000	99.765716 
2406.000000	99.763235 
2405.000000	99.759101 
2404.000000	99.755749 
2403.000000	99.755885 
2402.000000	99.759690 
2401.000000	99.763687 
2400.000000	99.763741 
2399.000000	99.759001 
2398.000000	99.752190 
2397.000000	99.746640 
2396.000000	99.744011 
2395.000000	99.744200 
2394.000000	99.746075 
2393.000000	99.748353 
2392.000000	99.750556 
2391.000000	99.752801 
2390.000000	99.754319 
2389.000000	99.753575 
2388.000000	99.751263 
2387.000000	99.751698 
2386.000000	99.758585 
2385.000000	99.769625 
2384.000000	99.777829 
2383.000000	99.778862 
2382.000000	99.775103 
2381.000000	99.771796 
2380.000000	99.771307 
2379.000000	99.772548 
2378.000000	99.774233 
2377.000000	99.776264 
2376.000000	99.778435 
2375.000000	99.779976 
2374.000000	99.780759 
2373.000000	99.781467 
2372.000000	99.782239 
2371.000000	99.782265 
2370.000000	99.781148 
2369.000000	99.779836 
2368.000000	99.779947 
2367.000000	99.782813 
2366.000000	99.789278 
2365.000000	99.799276 
2364.000000	99.810430 
2363.000000	99.817622 
2362.000000	99.815896 
2361.000000	99.804918 
2360.000000	99.790515 
2359.000000	99.780630 
2358.000000	99.779027 
2357.000000	99.783960 
2356.000000	99.792200 
2355.000000	99.801666 
2354.000000	99.809748 
2353.000000	99.812837 
2352.000000	99.810037 
2351.000000	99.804965 
2350.000000	99.802073 
2349.000000	99.802670 
2348.000000	99.805001 
2347.000000	99.806604 
2346.000000	99.806035 
2345.000000	99.803891 
2344.000000	99.802558 
2343.000000	99.803769 
2342.000000	99.806302 
2341.000000	99.806971 
2340.000000	99.805135 
2339.000000	99.804467 
2338.000000	99.808016 
2337.000000	99.812931 
2336.000000	99.813157 
2335.000000	99.807608 
2334.000000	99.802674 
2333.000000	99.805180 
2332.000000	99.814295 
2331.000000	99.821930 
2330.000000	99.821002 
2329.000000	99.812166 
2328.000000	99.802049 
2327.000000	99.796670 
2326.000000	99.796718 
2325.000000	99.798668 
2324.000000	99.799528 
2323.000000	99.800267 
2322.000000	99.803916 
2321.000000	99.810066 
2320.000000	99.813678 
2319.000000	99.810783 
2318.000000	99.803697 
2317.000000	99.798356 
2316.000000	99.797235 
2315.000000	99.797390 
2314.000000	99.795489 
2313.000000	99.792620 
2312.000000	99.792315 
2311.000000	99.794984 
2310.000000	99.796223 
2309.000000	99.791373 
2308.000000	99.780647 
2307.000000	99.769423 
2306.000000	99.763896 
2305.000000	99.766889 
2304.000000	99.776642 
2303.000000	99.788201 
2302.000000	99.796041 
2301.000000	99.797607 
2300.000000	99.795690 
2299.000000	99.796193 
2298.000000	99.801627 
2297.000000	99.807469 
2296.000000	99.806779 
2295.000000	99.798603 
2294.000000	99.789687 
2293.000000	99.787400 
2292.000000	99.792387 
2291.000000	99.799196 
2290.000000	99.802591 
2289.000000	99.801930 
2288.000000	99.800084 
2287.000000	99.799476 
2286.000000	99.799322 
2285.000000	99.796525 
2284.000000	99.789763 
2283.000000	99.782642 
2282.000000	99.781345 
2281.000000	99.788038 
2280.000000	99.797662 
2279.000000	99.802668 
2278.000000	99.800366 
2277.000000	99.794594 
2276.000000	99.790955 
2275.000000	99.791963 
2274.000000	99.796500 
2273.000000	99.801992 
2272.000000	99.806238 
2271.000000	99.808129 
2270.000000	99.807808 
2269.000000	99.806401 
2268.000000	99.805392 
2267.000000	99.805963 
2266.000000	99.808428 
2265.000000	99.811716 
2264.000000	99.813343 
2263.000000	99.810589 
2262.000000	99.802615 
2261.000000	99.791954 
2260.000000	99.783501 
2259.000000	99.781216 
2258.000000	99.785540 
2257.000000	99.793931 
2256.000000	99.803146 
2255.000000	99.810146 
2254.000000	99.811944 
2253.000000	99.807427 
2252.000000	99.799898 
2251.000000	99.795014 
2250.000000	99.794592 
2249.000000	99.794585 
2248.000000	99.790782 
2247.000000	99.784495 
2246.000000	99.779921 
2245.000000	99.778569 
2244.000000	99.779487 
2243.000000	99.783015 
2242.000000	99.789967 
2241.000000	99.798197 
2240.000000	99.804760 
2239.000000	99.811279 
2238.000000	99.822016 
2237.000000	99.835770 
2236.000000	99.844714 
2235.000000	99.843478 
2234.000000	99.835593 
2233.000000	99.828806 
2232.000000	99.827133 
2231.000000	99.829141 
2230.000000	99.830427 
2229.000000	99.825700 
2228.000000	99.812227 
2227.000000	99.794297 
2226.000000	99.781638 
2225.000000	99.780919 
2224.000000	99.790917 
2223.000000	99.806972 
2222.000000	99.825014 
2221.000000	99.838178 
2220.000000	99.836279 
2219.000000	99.816587 
2218.000000	99.792635 
2217.000000	99.784104 
2216.000000	99.796431 
2215.000000	99.815952 
2214.000000	99.826240 
2213.000000	99.823855 
2212.000000	99.816347 
2211.000000	99.810810 
2210.000000	99.809513 
2209.000000	99.813555 
2208.000000	99.823969 
2207.000000	99.837476 
2206.000000	99.844966 
2205.000000	99.838134 
2204.000000	99.818282 
2203.000000	99.796831 
2202.000000	99.786006 
2201.000000	99.789008 
2200.000000	99.799111 
2199.000000	99.807201 
2198.000000	99.808825 
2197.000000	99.805120 
2196.000000	99.800235 
2195.000000	99.799066 
2194.000000	99.804925 
2193.000000	99.816268 
2192.000000	99.825984 
2191.000000	99.826712 
2190.000000	99.818573 
2189.000000	99.810861 
2188.000000	99.813565 
2187.000000	99.825502 
2186.000000	99.832503 
2185.000000	99.821118 
2184.000000	99.795174 
2183.000000	99.774467 
2182.000000	99.774122 
2181.000000	99.788770 
2180.000000	99.801548 
2179.000000	99.805185 
2178.000000	99.806772 
2177.000000	99.813664 
2176.000000	99.823263 
2175.000000	99.828702 
2174.000000	99.827884 
2173.000000	99.823696 
2172.000000	99.820663 
2171.000000	99.824545 
2170.000000	99.839790 
2169.000000	99.862793 
2168.000000	99.881812 
2167.000000	99.888540 
2166.000000	99.887053 
2165.000000	99.887621 
2164.000000	99.894795 
2163.000000	99.905722 
2162.000000	99.916179 
2161.000000	99.921769 
2160.000000	99.915836 
2159.000000	99.893844 
2158.000000	99.859933 
2157.000000	99.823352 
2156.000000	99.790069 
2155.000000	99.764138 
2154.000000	99.753252 
2153.000000	99.763283 
2152.000000	99.787024 
2151.000000	99.806206 
2150.000000	99.807994 
2149.000000	99.796448 
2148.000000	99.786074 
2147.000000	99.786622 
2146.000000	99.795738 
2145.000000	99.803590 
2144.000000	99.802497 
2143.000000	99.793305 
2142.000000	99.783704 
2141.000000	99.780169 
2140.000000	99.782148 
2139.000000	99.785700 
2138.000000	99.791071 
2137.000000	99.802187 
2136.000000	99.818011 
2135.000000	99.829549 
2134.000000	99.829153 
2133.000000	99.820000 
2132.000000	99.811989 
2131.000000	99.809600 
2130.000000	99.808183 
2129.000000	99.801946 
2128.000000	99.791403 
2127.000000	99.781429 
2126.000000	99.775308 
2125.000000	99.773771 
2124.000000	99.778031 
2123.000000	99.789635 
2122.000000	99.806440 
2121.000000	99.821646 
2120.000000	99.829050 
2119.000000	99.828280 
2118.000000	99.823670 
2117.000000	99.819423 
2116.000000	99.817482 
2115.000000	99.818659 
2114.000000	99.822782 
2113.000000	99.827074 
2112.000000	99.826808 
2111.000000	99.819617 
2110.000000	99.808614 
2109.000000	99.799774 
2108.000000	99.795853 
2107.000000	99.793741 
2106.000000	99.788524 
2105.000000	99.779898 
2104.000000	99.773547 
2103.000000	99.775318 
2102.000000	99.784413 
2101.000000	99.793509 
2100.000000	99.795987 
2099.000000	99.791922 
2098.000000	99.786527 
2097.000000	99.784312 
2096.000000	99.786131 
2095.000000	99.790839 
2094.000000	99.797438 
2093.000000	99.804903 
2092.000000	99.811346 
2091.000000	99.814787 
2090.000000	99.815176 
2089.000000	99.815282 
2088.000000	99.818214 
2087.000000	99.822937 
2086.000000	99.823535 
2085.000000	99.815658 
2084.000000	99.803878 
2083.000000	99.799210 
2082.000000	99.807504 
2081.000000	99.822645 
2080.000000	99.833560 
2079.000000	99.836076 
2078.000000	99.835055 
2077.000000	99.836558 
2076.000000	99.841137 
2075.000000	99.844234 
2074.000000	99.840499 
2073.000000	99.828337 
2072.000000	99.812571 
2071.000000	99.801528 
2070.000000	99.799145 
2069.000000	99.800965 
2068.000000	99.800091 
2067.000000	99.795342 
2066.000000	99.790667 
2065.000000	99.789169 
2064.000000	99.792040 
2063.000000	99.801042 
2062.000000	99.815557 
2061.000000	99.827900 
2060.000000	99.829179 
2059.000000	99.821565 
2058.000000	99.818144 
2057.000000	99.827398 
2056.000000	99.842845 
2055.000000	99.851571 
2054.000000	99.849028 
2053.000000	99.841748 
2052.000000	99.838514 
2051.000000	99.842618 
2050.000000	99.850598 
2049.000000	99.855210 
2048.000000	99.851815 
2047.000000	99.844244 
2046.000000	99.841531 
2045.000000	99.846768 
2044.000000	99.852433 
2043.000000	99.849640 
2042.000000	99.839088 
2041.000000	99.829442 
2040.000000	99.826997 
2039.000000	99.831106 
2038.000000	99.838508 
2037.000000	99.846925 
2036.000000	99.853061 
2035.000000	99.850461 
2034.000000	99.832982 
2033.000000	99.802189 
2032.000000	99.770536 
2031.000000	99.754103 
2030.000000	99.759968 
2029.000000	99.780658 
2028.000000	99.802113 
2027.000000	99.816012 
2026.000000	99.821994 
2025.000000	99.821486 
2024.000000	99.815645 
2023.000000	99.808614 
2022.000000	99.806401 
2021.000000	99.810651 
2020.000000	99.817230 
2019.000000	99.821680 
2018.000000	99.822030 
2017.000000	99.816834 
2016.000000	99.806698 
2015.000000	99.798529 
2014.000000	99.801260 
2013.000000	99.814572 
2012.000000	99.827631 
2011.000000	99.832709 
2010.000000	99.835053 
2009.000000	99.844991 
2008.000000	99.863936 
2007.000000	99.882641 
2006.000000	99.890793 
2005.000000	99.884971 
2004.000000	99.870111 
2003.000000	99.856148 
2002.000000	99.850412 
2001.000000	99.849600 
2000.000000	99.841082 
1999.000000	99.815602 
1998.000000	99.777459 
1997.000000	99.740942 
1996.000000	99.719363 
1995.000000	99.719158 
1994.000000	99.739790 
1993.000000	99.772685 
1992.000000	99.801838 
1991.000000	99.813095 
1990.000000	99.804809 
1989.000000	99.787280 
1988.000000	99.773865 
1987.000000	99.774048 
1986.000000	99.790699 
1985.000000	99.818942 
1984.000000	99.847807 
1983.000000	99.866136 
1982.000000	99.868357 
1981.000000	99.855986 
1980.000000	99.836376 
1979.000000	99.820244 
1978.000000	99.815677 
1977.000000	99.820363 
1976.000000	99.822668 
1975.000000	99.814260 
1974.000000	99.799139 
1973.000000	99.788228 
1972.000000	99.788312 
1971.000000	99.798781 
1970.000000	99.815746 
1969.000000	99.834792 
1968.000000	99.850971 
1967.000000	99.860443 
1966.000000	99.863152 
1965.000000	99.861966 
1964.000000	99.859054 
1963.000000	99.854689 
1962.000000	99.849234 
1961.000000	99.844487 
1960.000000	99.842322 
1959.000000	99.842639 
1958.000000	99.843543 
1957.000000	99.843555 
1956.000000	99.842573 
1955.000000	99.839330 
1954.000000	99.828949 
1953.000000	99.806981 
1952.000000	99.777661 
1951.000000	99.754705 
1950.000000	99.750052 
1949.000000	99.762620 
1948.000000	99.780923 
1947.000000	99.795288 
1946.000000	99.803167 
1945.000000	99.804452 
1944.000000	99.798593 
1943.000000	99.788057 
1942.000000	99.778813 
1941.000000	99.773589 
1940.000000	99.769443 
1939.000000	99.764671 
1938.000000	99.763267 
1937.000000	99.769966 
1936.000000	99.783393 
1935.000000	99.796424 
1934.000000	99.801632 
1933.000000	99.795599 
1932.000000	99.781268 
1931.000000	99.767846 
1930.000000	99.765174 
1929.000000	99.774544 
1928.000000	99.786604 
1927.000000	99.790985 
1926.000000	99.785882 
1925.000000	99.776546 
1924.000000	99.768219 
1923.000000	99.763823 
1922.000000	99.765305 
1921.000000	99.772202 
1920.000000	99.779844 
1919.000000	99.782541 
1918.000000	99.778968 
1917.000000	99.772637 
1916.000000	99.767205 
1915.000000	99.764850 
1914.000000	99.768036 
1913.000000	99.777911 
1912.000000	99.790427 
1911.000000	99.798059 
1910.000000	99.797183 
1909.000000	99.791754 
1908.000000	99.788431 
1907.000000	99.789814 
1906.000000	99.793432 
1905.000000	99.794725 
1904.000000	99.789772 
1903.000000	99.777407 
1902.000000	99.760734 
1901.000000	99.746437 
1900.000000	99.741249 
1899.000000	99.747545 
1898.000000	99.761230 
1897.000000	99.774004 
1896.000000	99.779613 
1895.000000	99.779081 
1894.000000	99.778563 
1893.000000	99.781573 
1892.000000	99.785561 
1891.000000	99.786311 
1890.000000	99.783088 
1889.000000	99.778593 
1888.000000	99.775557 
1887.000000	99.775463 
1886.000000	99.778767 
1885.000000	99.783827 
1884.000000	99.786821 
1883.000000	99.784846 
1882.000000	99.778623 
1881.000000	99.771422 
1880.000000	99.766605 
1879.000000	99.765941 
1878.000000	99.767931 
1877.000000	99.767762 
1876.000000	99.762372 
1875.000000	99.756519 
1874.000000	99.759725 
1873.000000	99.774543 
1872.000000	99.791332 
1871.000000	99.797612 
1870.000000	99.790163 
1869.000000	99.776033 
1868.000000	99.762122 
1867.000000	99.749289 
1866.000000	99.737973 
1865.000000	99.731066 
1864.000000	99.730355 
1863.000000	99.734918 
1862.000000	99.743258 
1861.000000	99.753667 
1860.000000	99.762485 
1859.000000	99.766141 
1858.000000	99.765958 
1857.000000	99.767476 
1856.000000	99.773952 
1855.000000	99.783203 
1854.000000	99.790855 
1853.000000	99.793806 
1852.000000	99.790724 
1851.000000	99.782055 
1850.000000	99.771138 
1849.000000	99.763498 
1848.000000	99.762285 
1847.000000	99.765254 
1846.000000	99.767637 
1845.000000	99.766401 
1844.000000	99.761602 
1843.000000	99.755724 
1842.000000	99.752396 
1841.000000	99.754040 
1840.000000	99.760201 
1839.000000	99.767600 
1838.000000	99.772488 
1837.000000	99.773872 
1836.000000	99.773689 
1835.000000	99.773886 
1834.000000	99.774213 
1833.000000	99.772984 
1832.000000	99.769098 
1831.000000	99.762857 
1830.000000	99.756443 
1829.000000	99.753450 
1828.000000	99.756079 
1827.000000	99.762674 
1826.000000	99.768910 
1825.000000	99.771819 
1824.000000	99.772234 
1823.000000	99.772417 
1822.000000	99.772025 
1821.000000	99.768080 
1820.000000	99.758980 
1819.000000	99.747420 
1818.000000	99.738928 
1817.000000	99.737318 
1816.000000	99.741450 
1815.000000	99.747287 
1814.000000	99.752406 
1813.000000	99.757436 
1812.000000	99.763925 
1811.000000	99.771496 
1810.000000	99.778354 
1809.000000	99.783707 
1808.000000	99.787523 
1807.000000	99.788880 
1806.000000	99.786373 
1805.000000	99.780027 
1804.000000	99.772050 
1803.000000	99.765551 
1802.000000	99.762687 
1801.000000	99.763657 
1800.000000	99.766020 
1799.000000	99.766317 
1798.000000	99.763605 
1797.000000	99.760138 
1796.000000	99.759143 
1795.000000	99.762350 
1794.000000	99.768501 
1793.000000	99.773773 
1792.000000	99.775239 
1791.000000	99.773781 
1790.000000	99.772049 
1789.000000	99.771257 
1788.000000	99.771827 
1787.000000	99.774657 
1786.000000	99.779477 
1785.000000	99.782680 
1784.000000	99.780175 
1783.000000	99.773376 
1782.000000	99.767920 
1781.000000	99.766516 
1780.000000	99.765711 
1779.000000	99.761280 
1778.000000	99.755044 
1777.000000	99.752555 
1776.000000	99.756755 
1775.000000	99.766323 
1774.000000	99.777718 
1773.000000	99.786307 
1772.000000	99.787915 
1771.000000	99.783527 
1770.000000	99.778915 
1769.000000	99.777312 
1768.000000	99.777294 
1767.000000	99.775871 
1766.000000	99.772551 
1765.000000	99.769531 
1764.000000	99.768449 
1763.000000	99.769606 
1762.000000	99.772953 
1761.000000	99.778059 
1760.000000	99.783502 
1759.000000	99.787140 
1758.000000	99.787479 
1757.000000	99.785109 
1756.000000	99.782519 
1755.000000	99.781501 
1754.000000	99.781300 
1753.000000	99.780218 
1752.000000	99.779385 
1751.000000	99.783484 
1750.000000	99.794291 
1749.000000	99.806163 
1748.000000	99.811997 
1747.000000	99.810251 
1746.000000	99.804409 
1745.000000	99.797931 
1744.000000	99.791904 
1743.000000	99.786699 
1742.000000	99.783612 
1741.000000	99.783804 
1740.000000	99.786075 
1739.000000	99.787987 
1738.000000	99.789552 
1737.000000	99.792215 
1736.000000	99.794685 
1735.000000	99.792250 
1734.000000	99.782193 
1733.000000	99.770905 
1732.000000	99.767837 
1731.000000	99.773513 
1730.000000	99.781722 
1729.000000	99.786157 
1728.000000	99.784885 
1727.000000	99.780552 
1726.000000	99.776509 
1725.000000	99.774347 
1724.000000	99.774221 
1723.000000	99.776242 
1722.000000	99.780742 
1721.000000	99.786991 
1720.000000	99.792706 
1719.000000	99.795777 
1718.000000	99.796467 
1717.000000	99.796752 
1716.000000	99.796526 
1715.000000	99.794342 
1714.000000	99.790837 
1713.000000	99.788141 
1712.000000	99.787188 
1711.000000	99.787547 
1710.000000	99.788403 
1709.000000	99.788649 
1708.000000	99.787093 
1707.000000	99.783897 
1706.000000	99.782479 
1705.000000	99.786494 
1704.000000	99.793740 
1703.000000	99.797690 
1702.000000	99.793770 
1701.000000	99.783843 
1700.000000	99.776148 
1699.000000	99.774856 
1698.000000	99.778522 
1697.000000	99.784184 
1696.000000	99.789090 
1695.000000	99.790605 
1694.000000	99.789402 
1693.000000	99.787224 
1692.000000	99.783124 
1691.000000	99.777353 
1690.000000	99.773176 
1689.000000	99.772944 
1688.000000	99.774390 
1687.000000	99.772814 
1686.000000	99.766423 
1685.000000	99.759758 
1684.000000	99.760162 
1683.000000	99.766230 
1682.000000	99.772488 
1681.000000	99.775889 
1680.000000	99.776420 
1679.000000	99.775851 
1678.000000	99.775624 
1677.000000	99.775923 
1676.000000	99.776395 
1675.000000	99.776807 
1674.000000	99.776672 
1673.000000	99.776520 
1672.000000	99.777127 
1671.000000	99.779071 
1670.000000	99.782187 
1669.000000	99.784250 
1668.000000	99.784238 
1667.000000	99.783750 
1666.000000	99.782996 
1665.000000	99.780831 
1664.000000	99.778027 
1663.000000	99.778341 
1662.000000	99.783681 
1661.000000	99.790582 
1660.000000	99.794981 
1659.000000	99.796742 
1658.000000	99.798139 
1657.000000	99.799462 
1656.000000	99.797000 
1655.000000	99.787173 
1654.000000	99.774303 
1653.000000	99.768463 
1652.000000	99.768509 
1651.000000	99.772912 
1650.000000	99.778142 
1649.000000	99.779801 
1648.000000	99.776374 
1647.000000	99.769037 
1646.000000	99.761395 
1645.000000	99.758843 
1644.000000	99.763170 
1643.000000	99.771056 
1642.000000	99.778365 
1641.000000	99.783103 
1640.000000	99.785554 
1639.000000	99.786981 
1638.000000	99.788731 
1637.000000	99.791514 
1636.000000	99.793422 
1635.000000	99.790623 
1634.000000	99.785398 
1633.000000	99.782625 
1632.000000	99.782175 
1631.000000	99.782190 
1630.000000	99.781939 
1629.000000	99.781541 
1628.000000	99.781224 
1627.000000	99.781654 
1626.000000	99.783711 
1625.000000	99.787443 
1624.000000	99.791439 
1623.000000	99.793723 
1622.000000	99.793996 
1621.000000	99.793939 
1620.000000	99.794230 
1619.000000	99.793924 
1618.000000	99.792757 
1617.000000	99.791661 
1616.000000	99.791009 
1615.000000	99.790629 
1614.000000	99.789797 
1613.000000	99.787520 
1612.000000	99.784491 
1611.000000	99.782440 
1610.000000	99.781657 
1609.000000	99.780569 
1608.000000	99.778227 
1607.000000	99.775862 
1606.000000	99.775274 
1605.000000	99.777100 
1604.000000	99.780645 
1603.000000	99.784255 
1602.000000	99.786127 
1601.000000	99.785570 
1600.000000	99.783696 
1599.000000	99.782593 
1598.000000	99.783642 
1597.000000	99.786758 
1596.000000	99.790810 
1595.000000	99.794382 
1594.000000	99.796480 
1593.000000	99.797043 
1592.000000	99.796939 
1591.000000	99.797090 
1590.000000	99.797490 
1589.000000	99.797441 
1588.000000	99.797009 
1587.000000	99.797274 
1586.000000	99.798383 
1585.000000	99.798502 
1584.000000	99.796088 
1583.000000	99.791817 
1582.000000	99.787718 
1581.000000	99.785202 
1580.000000	99.784533 
1579.000000	99.785422 
1578.000000	99.787427 
1577.000000	99.789356 
1576.000000	99.789087 
1575.000000	99.787384 
1574.000000	99.787656 
1573.000000	99.788957 
1572.000000	99.787817 
1571.000000	99.784035 
1570.000000	99.782020 
1569.000000	99.784932 
1568.000000	99.790318 
1567.000000	99.793943 
1566.000000	99.793589 
1565.000000	99.790187 
1564.000000	99.786769 
1563.000000	99.785484 
1562.000000	99.785821 
1561.000000	99.785841 
1560.000000	99.784928 
1559.000000	99.784520 
1558.000000	99.781625 
1557.000000	99.780775 
1556.000000	99.784830 
1555.000000	99.788705 
1554.000000	99.788422 
1553.000000	99.785111 
1552.000000	99.783386 
1551.000000	99.786181 
1550.000000	99.792804 
1549.000000	99.799047 
1548.000000	99.800884 
1547.000000	99.797779 
1546.000000	99.791480 
1545.000000	99.784821 
1544.000000	99.779711 
1543.000000	99.775652 
1542.000000	99.772964 
1541.000000	99.774998 
1540.000000	99.781116 
1539.000000	99.784295 
1538.000000	99.784437 
1537.000000	99.784906 
1536.000000	99.784600 
1535.000000	99.782161 
1534.000000	99.779457 
1533.000000	99.778985 
1532.000000	99.779494 
1531.000000	99.778364 
1530.000000	99.775292 
1529.000000	99.771846 
1528.000000	99.769444 
1527.000000	99.768655 
1526.000000	99.768937 
1525.000000	99.768946 
1524.000000	99.767549 
1523.000000	99.765375 
1522.000000	99.766020 
1521.000000	99.771305 
1520.000000	99.775971 
1519.000000	99.775751 
1518.000000	99.771648 
1517.000000	99.767091 
1516.000000	99.763791 
1515.000000	99.760982 
1514.000000	99.758792 
1513.000000	99.758202 
1512.000000	99.758892 
1511.000000	99.758978 
1510.000000	99.757221 
1509.000000	99.755173 
1508.000000	99.757677 
1507.000000	99.766891 
1506.000000	99.771937 
1505.000000	99.768665 
1504.000000	99.765995 
1503.000000	99.766306 
1502.000000	99.767958 
1501.000000	99.770015 
1500.000000	99.771747 
1499.000000	99.771954 
1498.000000	99.770879 
1497.000000	99.772422 
1496.000000	99.779248 
1495.000000	99.787153 
1494.000000	99.790261 
1493.000000	99.786839 
1492.000000	99.778845 
1491.000000	99.770405 
1490.000000	99.765155 
1489.000000	99.762859 
1488.000000	99.760500 
1487.000000	99.757307 
1486.000000	99.755794 
1485.000000	99.757176 
1484.000000	99.759929 
1483.000000	99.762093 
1482.000000	99.762589 
1481.000000	99.761464 
1480.000000	99.759408 
1479.000000	99.757535 
1478.000000	99.756904 
1477.000000	99.757466 
1476.000000	99.757290 
1475.000000	99.754144 
1474.000000	99.749648 
1473.000000	99.749499 
1472.000000	99.755387 
1471.000000	99.761137 
1470.000000	99.762835 
1469.000000	99.762365 
1468.000000	99.762883 
1467.000000	99.765732 
1466.000000	99.770047 
1465.000000	99.773658 
1464.000000	99.774861 
1463.000000	99.774402 
1462.000000	99.774309 
1461.000000	99.775015 
1460.000000	99.774465 
1459.000000	99.770190 
1458.000000	99.763130 
1457.000000	99.758944 
1456.000000	99.759479 
1455.000000	99.760828 
1454.000000	99.760791 
1453.000000	99.759905 
1452.000000	99.759523 
1451.000000	99.759726 
1450.000000	99.759553 
1449.000000	99.758832 
1448.000000	99.758257 
1447.000000	99.758275 
1446.000000	99.759348 
1445.000000	99.762123 
1444.000000	99.765533 
1443.000000	99.766240 
1442.000000	99.762394 
1441.000000	99.756521 
1440.000000	99.752880 
1439.000000	99.752970 
1438.000000	99.754969 
1437.000000	99.756963 
1436.000000	99.758046 
1435.000000	99.757290 
1434.000000	99.754943 
1433.000000	99.752614 
1432.000000	99.752067 
1431.000000	99.754194 
1430.000000	99.757563 
1429.000000	99.759640 
1428.000000	99.759351 
1427.000000	99.757449 
1426.000000	99.755081 
1425.000000	99.753142 
1424.000000	99.752714 
1423.000000	99.753493 
1422.000000	99.753215 
1421.000000	99.750496 
1420.000000	99.747030 
1419.000000	99.745944 
1418.000000	99.745843 
1417.000000	99.743054 
1416.000000	99.737368 
1415.000000	99.730086 
1414.000000	99.721700 
1413.000000	99.712470 
1412.000000	99.703821 
1411.000000	99.697533 
1410.000000	99.693353 
1409.000000	99.689749 
1408.000000	99.686406 
1407.000000	99.684350 
1406.000000	99.684574 
1405.000000	99.687617 
1404.000000	99.693425 
1403.000000	99.699904 
1402.000000	99.703764 
1401.000000	99.703899 
1400.000000	99.702642 
1399.000000	99.702944 
1398.000000	99.703327 
1397.000000	99.699363 
1396.000000	99.689949 
1395.000000	99.679814 
1394.000000	99.675352 
1393.000000	99.678768 
1392.000000	99.688616 
1391.000000	99.701730 
1390.000000	99.714040 
1389.000000	99.721845 
1388.000000	99.723386 
1387.000000	99.719690 
1386.000000	99.713692 
1385.000000	99.708905 
1384.000000	99.707740 
1383.000000	99.709818 
1382.000000	99.712444 
1381.000000	99.714010 
1380.000000	99.715801 
1379.000000	99.719405 
1378.000000	99.723358 
1377.000000	99.724526 
1376.000000	99.722778 
1375.000000	99.722048 
1374.000000	99.725221 
1373.000000	99.729639 
1372.000000	99.731555 
1371.000000	99.732201 
1370.000000	99.735801 
1369.000000	99.743179 
1368.000000	99.750642 
1367.000000	99.754440 
1366.000000	99.754243 
1365.000000	99.751994 
1364.000000	99.749563 
1363.000000	99.748453 
1362.000000	99.749473 
1361.000000	99.751639 
1360.000000	99.753267 
1359.000000	99.754238 
1358.000000	99.756073 
1357.000000	99.759873 
1356.000000	99.765007 
1355.000000	99.769837 
1354.000000	99.772981 
1353.000000	99.773590 
1352.000000	99.771188 
1351.000000	99.766528 
1350.000000	99.762270 
1349.000000	99.760256 
1348.000000	99.760147 
1347.000000	99.761138 
1346.000000	99.763714 
1345.000000	99.768084 
1344.000000	99.772488 
1343.000000	99.774832 
1342.000000	99.775170 
1341.000000	99.774738 
1340.000000	99.773333 
1339.000000	99.769793 
1338.000000	99.765117 
1337.000000	99.762646 
1336.000000	99.764254 
1335.000000	99.768211 
1334.000000	99.771637 
1333.000000	99.773615 
1332.000000	99.774808 
1331.000000	99.775277 
1330.000000	99.774191 
1329.000000	99.771334 
1328.000000	99.767917 
1327.000000	99.765494 
1326.000000	99.764499 
1325.000000	99.763778 
1324.000000	99.762403 
1323.000000	99.761014 
1322.000000	99.760856 
1321.000000	99.761942 
1320.000000	99.763070 
1319.000000	99.763525 
1318.000000	99.763829 
1317.000000	99.764497 
1316.000000	99.764739 
1315.000000	99.763272 
1314.000000	99.760217 
1313.000000	99.757546 
1312.000000	99.757217 
1311.000000	99.759223 
1310.000000	99.761862 
1309.000000	99.763452 
1308.000000	99.763424 
1307.000000	99.762133 
1306.000000	99.760541 
1305.000000	99.759718 
1304.000000	99.760452 
1303.000000	99.762658 
1302.000000	99.765574 
1301.000000	99.768506 
1300.000000	99.770871 
1299.000000	99.771423 
1298.000000	99.768537 
1297.000000	99.762274 
1296.000000	99.755649 
1295.000000	99.752941 
1294.000000	99.756206 
1293.000000	99.763617 
1292.000000	99.770942 
1291.000000	99.774423 
1290.000000	99.773126 
1289.000000	99.769389 
1288.000000	99.766616 
1287.000000	99.765925 
1286.000000	99.765235 
1285.000000	99.762308 
1284.000000	99.757944 
1283.000000	99.754994 
1282.000000	99.754711 
1281.000000	99.755598 
1280.000000	99.755696 
1279.000000	99.754420 
1278.000000	99.751781 
1277.000000	99.747536 
1276.000000	99.741987 
1275.000000	99.736709 
1274.000000	99.733420 
1273.000000	99.732536 
1272.000000	99.733104 
1271.000000	99.733393 
1270.000000	99.731458 
1269.000000	99.726503 
1268.000000	99.720325 
1267.000000	99.716144 
1266.000000	99.714993 
1265.000000	99.714455 
1264.000000	99.711798 
1263.000000	99.707067 
1262.000000	99.702159 
1261.000000	99.698275 
1260.000000	99.695716 
1259.000000	99.695045 
1258.000000	99.696455 
1257.000000	99.698593 
1256.000000	99.699483 
1255.000000	99.698570 
1254.000000	99.697078 
1253.000000	99.696702 
1252.000000	99.698436 
1251.000000	99.701893 
1250.000000	99.705016 
1249.000000	99.705554 
1248.000000	99.703947 
1247.000000	99.703544 
1246.000000	99.706384 
1245.000000	99.709860 
1244.000000	99.709577 
1243.000000	99.704997 
1242.000000	99.700274 
1241.000000	99.699571 
1240.000000	99.703305 
1239.000000	99.708879 
1238.000000	99.713209 
1237.000000	99.714224 
1236.000000	99.711455 
1235.000000	99.705993 
1234.000000	99.699335 
1233.000000	99.692257 
1232.000000	99.685424 
1231.000000	99.680178 
1230.000000	99.677184 
1229.000000	99.674944 
1228.000000	99.671655 
1227.000000	99.668442 
1226.000000	99.668635 
1225.000000	99.673311 
1224.000000	99.679285 
1223.000000	99.682266 
1222.000000	99.680709 
1221.000000	99.676043 
1220.000000	99.670628 
1219.000000	99.666469 
1218.000000	99.664633 
1217.000000	99.664667 
1216.000000	99.664954 
1215.000000	99.664174 
1214.000000	99.662145 
1213.000000	99.659238 
1212.000000	99.655710 
1211.000000	99.651698 
1210.000000	99.647186 
1209.000000	99.641989 
1208.000000	99.636365 
1207.000000	99.631261 
1206.000000	99.627103 
1205.000000	99.622896 
1204.000000	99.617758 
1203.000000	99.612698 
1202.000000	99.609163 
1201.000000	99.606240 
1200.000000	99.601560 
1199.000000	99.595109 
1198.000000	99.589796 
1197.000000	99.587508 
1196.000000	99.586559 
1195.000000	99.583872 
1194.000000	99.577890 
1193.000000	99.568382 
1192.000000	99.555428 
1191.000000	99.540482 
1190.000000	99.527242 
1189.000000	99.519533 
1188.000000	99.518295 
1187.000000	99.521150 
1186.000000	99.524237 
1185.000000	99.524076 
1184.000000	99.518718 
1183.000000	99.508423 
1182.000000	99.495373 
1181.000000	99.482476 
1180.000000	99.472506 
1179.000000	99.467475 
1178.000000	99.466922 
1177.000000	99.466685 
1176.000000	99.461572 
1175.000000	99.450518 
1174.000000	99.437981 
1173.000000	99.429191 
1172.000000	99.425191 
1171.000000	99.423389 
1170.000000	99.421224 
1169.000000	99.417651 
1168.000000	99.412100 
1167.000000	99.404072 
1166.000000	99.394077 
1165.000000	99.384102 
1164.000000	99.377007 
1163.000000	99.375335 
1162.000000	99.379541 
1161.000000	99.386697 
1160.000000	99.391987 
1159.000000	99.392695 
1158.000000	99.390383 
1157.000000	99.388426 
1156.000000	99.388018 
1155.000000	99.387314 
1154.000000	99.383723 
1153.000000	99.376082 
1152.000000	99.365213 
1151.000000	99.353444 
1150.000000	99.343286 
1149.000000	99.335617 
1148.000000	99.329039 
1147.000000	99.321148 
1146.000000	99.310183 
1145.000000	99.295847 
1144.000000	99.279808 
1143.000000	99.265697 
1142.000000	99.256980 
1141.000000	99.253679 
1140.000000	99.252016 
1139.000000	99.248017 
1138.000000	99.240802 
1137.000000	99.232123 
1136.000000	99.224124 
1135.000000	99.218436 
1134.000000	99.215816 
1133.000000	99.214937 
1132.000000	99.212296 
1131.000000	99.204946 
1130.000000	99.193230 
1129.000000	99.179903 
1128.000000	99.167161 
1127.000000	99.155691 
1126.000000	99.146029 
1125.000000	99.139155 
1124.000000	99.135278 
1123.000000	99.132757 
1122.000000	99.128674 
1121.000000	99.120787 
1120.000000	99.109538 
1119.000000	99.098177 
1118.000000	99.089853 
1117.000000	99.084071 
1116.000000	99.077135 
1115.000000	99.066493 
1114.000000	99.053209 
1113.000000	99.039394 
1112.000000	99.025387 
1111.000000	99.011453 
1110.000000	99.000358 
1109.000000	98.994964 
1108.000000	98.993666 
1107.000000	98.990960 
1106.000000	98.983140 
1105.000000	98.971106 
1104.000000	98.957161 
1103.000000	98.942176 
1102.000000	98.927657 
1101.000000	98.917705 
1100.000000	98.915730 
1099.000000	98.919082 
1098.000000	98.920748 
1097.000000	98.916605 
1096.000000	98.909272 
1095.000000	98.903916 
1094.000000	98.902020 
1093.000000	98.900555 
1092.000000	98.895967 
1091.000000	98.887077 
1090.000000	98.874516 
1089.000000	98.859164 
1088.000000	98.841898 
1087.000000	98.824017 
1086.000000	98.807167 
1085.000000	98.792933 
1084.000000	98.782338 
1083.000000	98.775038 
1082.000000	98.769032 
1081.000000	98.762182 
1080.000000	98.754240 
1079.000000	98.746474 
1078.000000	98.739135 
1077.000000	98.730655 
1076.000000	98.720139 
1075.000000	98.709393 
1074.000000	98.701086 
1073.000000	98.695360 
1072.000000	98.689109 
1071.000000	98.678047 
1070.000000	98.659045 
1069.000000	98.632077 
1068.000000	98.601871 
1067.000000	98.576920 
1066.000000	98.564038 
1065.000000	98.562687 
1064.000000	98.565553 
1063.000000	98.564689 
1062.000000	98.556254 
1061.000000	98.540315 
1060.000000	98.519071 
1059.000000	98.496576 
1058.000000	98.477755 
1057.000000	98.464763 
1056.000000	98.454420 
1055.000000	98.440938 
1054.000000	98.421617 
1053.000000	98.399072 
1052.000000	98.377898 
1051.000000	98.360451 
1050.000000	98.346651 
1049.000000	98.336568 
1048.000000	98.330901 
1047.000000	98.328490 
1046.000000	98.325188 
1045.000000	98.316672 
1044.000000	98.302242 
1043.000000	98.285421 
1042.000000	98.270830 
1041.000000	98.260524 
1040.000000	98.253141 
1039.000000	98.246096 
1038.000000	98.238447 
1037.000000	98.231980 
1036.000000	98.229715 
1035.000000	98.233321 
1034.000000	98.241764 
1033.000000	98.251907 
1032.000000	98.259817 
1031.000000	98.262105 
1030.000000	98.258068 
1029.000000	98.251548 
1028.000000	98.249275 
1027.000000	98.255486 
1026.000000	98.268119 
1025.000000	98.281296 
1024.000000	98.290946 
1023.000000	98.296610 
1022.000000	98.298718 
1021.000000	98.296976 
1020.000000	98.292459 
1019.000000	98.289118 
1018.000000	98.290855 
1017.000000	98.297440 
1016.000000	98.305015 
1015.000000	98.310798 
1014.000000	98.315937 
1013.000000	98.322868 
1012.000000	98.330782 
1011.000000	98.335491 
1010.000000	98.334492 
1009.000000	98.331001 
1008.000000	98.331383 
1007.000000	98.338740 
1006.000000	98.350448 
1005.000000	98.362200 
1004.000000	98.372572 
1003.000000	98.382563 
1002.000000	98.392578 
1001.000000	98.402007 
1000.000000	98.410836 
999.000000	 98.419301 
998.000000	 98.426228 
997.000000	 98.430172 
996.000000	 98.432861 
995.000000	 98.439450 
994.000000	 98.453717 
993.000000	 98.473564 
992.000000	 98.492127 
991.000000	 98.503171 
990.000000	 98.505637 
989.000000	 98.503951 
988.000000	 98.504281 
987.000000	 98.509785 
986.000000	 98.519029 
985.000000	 98.529220 
984.000000	 98.540336 
983.000000	 98.554765 
982.000000	 98.573273 
981.000000	 98.593349 
980.000000	 98.612115 
979.000000	 98.629122 
978.000000	 98.645374 
977.000000	 98.661331 
976.000000	 98.677375 
975.000000	 98.694977 
974.000000	 98.715387 
973.000000	 98.737571 
972.000000	 98.759123 
971.000000	 98.779204 
970.000000	 98.799220 
969.000000	 98.820525 
968.000000	 98.842724 
967.000000	 98.864377 
966.000000	 98.884011 
965.000000	 98.899981 
964.000000	 98.910859 
963.000000	 98.917276 
962.000000	 98.922641 
961.000000	 98.930631 
960.000000	 98.941991 
959.000000	 98.954498 
958.000000	 98.965787 
957.000000	 98.975446 
956.000000	 98.984667 
955.000000	 98.994947 
954.000000	 99.007220 
953.000000	 99.021192 
952.000000	 99.034919 
951.000000	 99.045612 
950.000000	 99.051617 
949.000000	 99.053714 
948.000000	 99.054567 
947.000000	 99.057326 
946.000000	 99.064432 
945.000000	 99.076397 
944.000000	 99.090703 
943.000000	 99.102441 
942.000000	 99.107509 
941.000000	 99.105952 
940.000000	 99.101952 
939.000000	 99.100534 
938.000000	 99.104360 
937.000000	 99.113035 
936.000000	 99.124055 
935.000000	 99.133666 
934.000000	 99.137972 
933.000000	 99.135017 
932.000000	 99.126500 
931.000000	 99.117133 
930.000000	 99.112032 
929.000000	 99.114429 
928.000000	 99.124668 
927.000000	 99.139713 
926.000000	 99.153754 
925.000000	 99.161441 
924.000000	 99.161730 
923.000000	 99.157842 
922.000000	 99.153169 
921.000000	 99.148706 
920.000000	 99.145136 
919.000000	 99.144786 
918.000000	 99.148686 
917.000000	 99.153117 
916.000000	 99.152621 
915.000000	 99.146693 
914.000000	 99.140667 
913.000000	 99.139386 
912.000000	 99.142766 
911.000000	 99.148419 
910.000000	 99.155465 
909.000000	 99.163844 
908.000000	 99.172295 
907.000000	 99.179327 
906.000000	 99.184437 
905.000000	 99.186536 
904.000000	 99.183691 
903.000000	 99.177554 
902.000000	 99.175952 
901.000000	 99.186859 
900.000000	 99.209999 
899.000000	 99.237298 
898.000000	 99.260787 
897.000000	 99.276793 
896.000000	 99.283542 
895.000000	 99.280721 
894.000000	 99.273413 
893.000000	 99.271325 
892.000000	 99.280060 
891.000000	 99.295597 
890.000000	 99.310543 
889.000000	 99.323711 
888.000000	 99.339423 
887.000000	 99.358254 
886.000000	 99.373068 
885.000000	 99.376214 
884.000000	 99.368651 
883.000000	 99.360038 
882.000000	 99.359850 
881.000000	 99.368993 
880.000000	 99.380569 
879.000000	 99.388612 
878.000000	 99.394546 
877.000000	 99.403275 
876.000000	 99.413961 
875.000000	 99.418475 
874.000000	 99.410770 
873.000000	 99.395374 
872.000000	 99.384220 
871.000000	 99.385943 
870.000000	 99.398971 
869.000000	 99.413542 
868.000000	 99.419797 
867.000000	 99.416071 
866.000000	 99.410816 
865.000000	 99.414540 
864.000000	 99.428638 
863.000000	 99.444304 
862.000000	 99.453410 
861.000000	 99.456991 
860.000000	 99.460472 
859.000000	 99.464903 
858.000000	 99.468333 
857.000000	 99.473291 
856.000000	 99.485660 
855.000000	 99.504905 
854.000000	 99.521011 
853.000000	 99.524058 
852.000000	 99.513849 
851.000000	 99.498541 
850.000000	 99.486971 
849.000000	 99.483828 
848.000000	 99.488740 
847.000000	 99.496864 
846.000000	 99.502302 
845.000000	 99.503941 
844.000000	 99.506987 
843.000000	 99.516559 
842.000000	 99.530379 
841.000000	 99.539774 
840.000000	 99.538119 
839.000000	 99.527586 
838.000000	 99.517584 
837.000000	 99.516073 
836.000000	 99.521780 
835.000000	 99.525859 
834.000000	 99.522409 
833.000000	 99.515307 
832.000000	 99.511169 
831.000000	 99.507727 
830.000000	 99.496366 
829.000000	 99.477771 
828.000000	 99.466630 
827.000000	 99.473954 
826.000000	 99.490568 
825.000000	 99.498155 
824.000000	 99.494011 
823.000000	 99.492932 
822.000000	 99.504070 
821.000000	 99.517974 
820.000000	 99.520127 
819.000000	 99.507943 
818.000000	 99.490456 
817.000000	 99.477217 
816.000000	 99.471159 
815.000000	 99.468381 
814.000000	 99.461203 
813.000000	 99.443700 
812.000000	 99.417361 
811.000000	 99.390593 
810.000000	 99.371085 
809.000000	 99.359482 
808.000000	 99.350735 
807.000000	 99.338529 
806.000000	 99.317180 
805.000000	 99.283129 
804.000000	 99.238792 
803.000000	 99.194069 
802.000000	 99.160369 
801.000000	 99.142088 
800.000000	 99.134731 
799.000000	 99.130439 
798.000000	 99.124488 
797.000000	 99.118006 
796.000000	 99.116088 
795.000000	 99.122979 
794.000000	 99.138216 
793.000000	 99.157263 
792.000000	 99.174679 
791.000000	 99.185456 
790.000000	 99.185599 
789.000000	 99.175585 
788.000000	 99.163060 
787.000000	 99.157511 
786.000000	 99.160312 
785.000000	 99.163123 
784.000000	 99.158056 
783.000000	 99.146543 
782.000000	 99.136293 
781.000000	 99.132291 
780.000000	 99.133000 
779.000000	 99.133037 
778.000000	 99.128047 
777.000000	 99.119861 
776.000000	 99.118139 
775.000000	 99.132778 
774.000000	 99.162011 
773.000000	 99.192064 
772.000000	 99.211681 
771.000000	 99.222551 
770.000000	 99.231602 
769.000000	 99.238506 
768.000000	 99.238469 
767.000000	 99.234564 
766.000000	 99.237751 
765.000000	 99.252749 
764.000000	 99.270744 
763.000000	 99.279158 
762.000000	 99.274370 
761.000000	 99.262570 
760.000000	 99.252286 
759.000000	 99.248958 
758.000000	 99.253185 
757.000000	 99.260802 
756.000000	 99.266580 
755.000000	 99.270318 
754.000000	 99.277591 
753.000000	 99.292400 
752.000000	 99.310972 
751.000000	 99.324924 
750.000000	 99.329117 
749.000000	 99.324541 
748.000000	 99.315444 
747.000000	 99.307065 
746.000000	 99.305343 
745.000000	 99.314378 
744.000000	 99.331370 
743.000000	 99.345485 
742.000000	 99.345332 
741.000000	 99.329721 
740.000000	 99.310474 
739.000000	 99.302808 
738.000000	 99.311938 
737.000000	 99.329599 
736.000000	 99.343780 
735.000000	 99.350270 
734.000000	 99.353941 
733.000000	 99.360708 
732.000000	 99.370914 
731.000000	 99.380208 
730.000000	 99.384643 
729.000000	 99.384260 
728.000000	 99.382738 
727.000000	 99.384163 
726.000000	 99.389976 
725.000000	 99.399058 
724.000000	 99.410022 
723.000000	 99.421461 
722.000000	 99.429567 
721.000000	 99.428659 
720.000000	 99.416793 
719.000000	 99.399089 
718.000000	 99.382478 
717.000000	 99.368920 
716.000000	 99.357097 
715.000000	 99.348250 
714.000000	 99.345474 
713.000000	 99.348118 
712.000000	 99.352034 
711.000000	 99.356024 
710.000000	 99.363156 
709.000000	 99.373953 
708.000000	 99.382688 
707.000000	 99.383522 
706.000000	 99.377410 
705.000000	 99.369684 
704.000000	 99.363127 
703.000000	 99.357357 
702.000000	 99.353163 
701.000000	 99.352704 
700.000000	 99.354734 
699.000000	 99.353045 
698.000000	 99.341852 
697.000000	 99.321173 
696.000000	 99.295713 
695.000000	 99.270547 
694.000000	 99.250087 
693.000000	 99.239803 
692.000000	 99.243926 
691.000000	 99.258773 
690.000000	 99.272526 
689.000000	 99.276609 
688.000000	 99.276249 
687.000000	 99.284297 
686.000000	 99.304045 
685.000000	 99.325039 
684.000000	 99.337052 
683.000000	 99.341021 
682.000000	 99.344418 
681.000000	 99.352508 
680.000000	 99.367125 
679.000000	 99.387067 
678.000000	 99.403669 
677.000000	 99.402782 
676.000000	 99.380631 
675.000000	 99.352840 
674.000000	 99.341320 
673.000000	 99.353410 
672.000000	 99.378415 
671.000000	 99.402786 
670.000000	 99.419971 
669.000000	 99.422917 
668.000000	 99.399900 
667.000000	 99.365255 
666.000000	 99.358773 
665.000000	 99.387896 
664.000000	 99.426815 
663.000000	 99.447412 
662.000000	 99.442184 
661.000000	 99.430673 
660.000000	 99.435068 
659.000000	 99.452881 
658.000000	 99.459486 
657.000000	 99.436832 
656.000000	 99.395932 
655.000000	 99.367891 
654.000000	 99.371219 
653.000000	 99.386739 
652.000000	 99.374035 
651.000000	 99.318719 
650.000000	 99.258244 

