4000.000000	99.904587  
3999.000000	99.904585  
3998.000000	99.904562  
3997.000000	99.903533  
3996.000000	99.901033  
3995.000000	99.897708  
3994.000000	99.894719  
3993.000000	99.892879  
3992.000000	99.892371  
3991.000000	99.892876  
3990.000000	99.893815  
3989.000000	99.894835  
3988.000000	99.896360  
3987.000000	99.899369  
3986.000000	99.904203  
3985.000000	99.909632  
3984.000000	99.913499  
3983.000000	99.914431  
3982.000000	99.912709  
3981.000000	99.909387  
3980.000000	99.904875  
3979.000000	99.898872  
3978.000000	99.891872  
3977.000000	99.886313  
3976.000000	99.885421  
3975.000000	99.890419  
3974.000000	99.899034  
3973.000000	99.907083  
3972.000000	99.911634  
3971.000000	99.912654  
3970.000000	99.911980  
3969.000000	99.911189  
3968.000000	99.910656  
3967.000000	99.910149  
3966.000000	99.909696  
3965.000000	99.909568  
3964.000000	99.909694  
3963.000000	99.909284  
3962.000000	99.907194  
3961.000000	99.902878  
3960.000000	99.897118  
3959.000000	99.891810  
3958.000000	99.888718  
3957.000000	99.888090  
3956.000000	99.888727  
3955.000000	99.889376  
3954.000000	99.889833  
3953.000000	99.890396  
3952.000000	99.890871  
3951.000000	99.890719  
3950.000000	99.890098  
3949.000000	99.890335  
3948.000000	99.892685  
3947.000000	99.896531  
3946.000000	99.899390  
3945.000000	99.899431  
3944.000000	99.897885  
3943.000000	99.898059  
3942.000000	99.901460  
3941.000000	99.905500  
3940.000000	99.905993  
3939.000000	99.901481  
3938.000000	99.894114  
3937.000000	99.886827  
3936.000000	99.881210  
3935.000000	99.877926  
3934.000000	99.877981  
3933.000000	99.882105  
3932.000000	99.889042  
3931.000000	99.895486  
3930.000000	99.898037  
3929.000000	99.895457  
3928.000000	99.889071  
3927.000000	99.881893  
3926.000000	99.877698  
3925.000000	99.879186  
3924.000000	99.885514  
3923.000000	99.892346  
3922.000000	99.895936  
3921.000000	99.896289  
3920.000000	99.895292  
3919.000000	99.893859  
3918.000000	99.892548  
3917.000000	99.892837  
3916.000000	99.895630  
3915.000000	99.899292  
3914.000000	99.901576  
3913.000000	99.902779  
3912.000000	99.905115  
3911.000000	99.909445  
3910.000000	99.914705  
3909.000000	99.919246  
3908.000000	99.922098  
3907.000000	99.922112  
3906.000000	99.918202  
3905.000000	99.910814  
3904.000000	99.902765  
3903.000000	99.896562  
3902.000000	99.891687  
3901.000000	99.887297  
3900.000000	99.885631  
3899.000000	99.889549  
3898.000000	99.897618  
3897.000000	99.904937  
3896.000000	99.908374  
3895.000000	99.907998  
3894.000000	99.904168  
3893.000000	99.897076  
3892.000000	99.890266  
3891.000000	99.889669  
3890.000000	99.896255  
3889.000000	99.902639  
3888.000000	99.902427  
3887.000000	99.897105  
3886.000000	99.893120  
3885.000000	99.895110  
3884.000000	99.899634  
3883.000000	99.899254  
3882.000000	99.894050  
3881.000000	99.890876  
3880.000000	99.894679  
3879.000000	99.903777  
3878.000000	99.911198  
3877.000000	99.912915  
3876.000000	99.912351  
3875.000000	99.914852  
3874.000000	99.921492  
3873.000000	99.926708  
3872.000000	99.923436  
3871.000000	99.913469  
3870.000000	99.908120  
3869.000000	99.914403  
3868.000000	99.924454  
3867.000000	99.927021  
3866.000000	99.923606  
3865.000000	99.921754  
3864.000000	99.922648  
3863.000000	99.922514  
3862.000000	99.920076  
3861.000000	99.918306  
3860.000000	99.919790  
3859.000000	99.923798  
3858.000000	99.929469  
3857.000000	99.935905  
3856.000000	99.940461  
3855.000000	99.938634  
3854.000000	99.931465  
3853.000000	99.929230  
3852.000000	99.933223  
3851.000000	99.929790  
3850.000000	99.918397  
3849.000000	99.912086  
3848.000000	99.914658  
3847.000000	99.920139  
3846.000000	99.923671  
3845.000000	99.925341  
3844.000000	99.927491  
3843.000000	99.931760  
3842.000000	99.938002  
3841.000000	99.944270  
3840.000000	99.949156  
3839.000000	99.952331  
3838.000000	99.953504  
3837.000000	99.951465  
3836.000000	99.945750  
3835.000000	99.938115  
3834.000000	99.932498  
3833.000000	99.931813  
3832.000000	99.935773  
3831.000000	99.941384  
3830.000000	99.944457  
3829.000000	99.942252  
3828.000000	99.936022  
3827.000000	99.930639  
3826.000000	99.931134  
3825.000000	99.937527  
3824.000000	99.944711  
3823.000000	99.947732  
3822.000000	99.946267  
3821.000000	99.945678  
3820.000000	99.950203  
3819.000000	99.953736  
3818.000000	99.950863  
3817.000000	99.945896  
3816.000000	99.943183  
3815.000000	99.941530  
3814.000000	99.934954  
3813.000000	99.922225  
3812.000000	99.913612  
3811.000000	99.918058  
3810.000000	99.932072  
3809.000000	99.945734  
3808.000000	99.952862  
3807.000000	99.955328  
3806.000000	99.957652  
3805.000000	99.958560  
3804.000000	99.955192  
3803.000000	99.950456  
3802.000000	99.948493  
3801.000000	99.950729  
3800.000000	99.953106  
3799.000000	99.947376  
3798.000000	99.935129  
3797.000000	99.925659  
3796.000000	99.921954  
3795.000000	99.920067  
3794.000000	99.915636  
3793.000000	99.909262  
3792.000000	99.905007  
3791.000000	99.905043  
3790.000000	99.908115  
3789.000000	99.912103  
3788.000000	99.914953  
3787.000000	99.914841  
3786.000000	99.911837  
3785.000000	99.909420  
3784.000000	99.911716  
3783.000000	99.918948  
3782.000000	99.927145  
3781.000000	99.932251  
3780.000000	99.932988  
3779.000000	99.930394  
3778.000000	99.925566  
3777.000000	99.918444  
3776.000000	99.910637  
3775.000000	99.906143  
3774.000000	99.907571  
3773.000000	99.913215  
3772.000000	99.919412  
3771.000000	99.924298  
3770.000000	99.928296  
3769.000000	99.931025  
3768.000000	99.930058  
3767.000000	99.924810  
3766.000000	99.919217  
3765.000000	99.917392  
3764.000000	99.918899  
3763.000000	99.920027  
3762.000000	99.919463  
3761.000000	99.919679  
3760.000000	99.922084  
3759.000000	99.925229  
3758.000000	99.928629  
3757.000000	99.934174  
3756.000000	99.943247  
3755.000000	99.954410  
3754.000000	99.966128  
3753.000000	99.977757  
3752.000000	99.986613  
3751.000000	99.988673  
3750.000000	99.984624  
3749.000000	99.979963  
3748.000000	99.976785  
3747.000000	99.971801  
3746.000000	99.962350  
3745.000000	99.951267  
3744.000000	99.948512  
3743.000000	99.955641  
3742.000000	99.957011  
3741.000000	99.948803  
3740.000000	99.942150  
3739.000000	99.937846  
3738.000000	99.929505  
3737.000000	99.918485  
3736.000000	99.914261  
3735.000000	99.920689  
3734.000000	99.929876  
3733.000000	99.933621  
3732.000000	99.932839  
3731.000000	99.931209  
3730.000000	99.927709  
3729.000000	99.920879  
3728.000000	99.913580  
3727.000000	99.909886  
3726.000000	99.910347  
3725.000000	99.911567  
3724.000000	99.910442  
3723.000000	99.908457  
3722.000000	99.908677  
3721.000000	99.911103  
3720.000000	99.912982  
3719.000000	99.912247  
3718.000000	99.909621  
3717.000000	99.907159  
3716.000000	99.905773  
3715.000000	99.904992  
3714.000000	99.905288  
3713.000000	99.907884  
3712.000000	99.912584  
3711.000000	99.916616  
3710.000000	99.915278  
3709.000000	99.905827  
3708.000000	99.890849  
3707.000000	99.876108  
3706.000000	99.866278  
3705.000000	99.862544  
3704.000000	99.862842  
3703.000000	99.863103  
3702.000000	99.859747  
3701.000000	99.852226  
3700.000000	99.842380  
3699.000000	99.832247  
3698.000000	99.824121  
3697.000000	99.820420  
3696.000000	99.821734  
3695.000000	99.826449  
3694.000000	99.833352  
3693.000000	99.842902  
3692.000000	99.853621  
3691.000000	99.859789  
3690.000000	99.856257  
3689.000000	99.845107  
3688.000000	99.833401  
3687.000000	99.823516  
3686.000000	99.813062  
3685.000000	99.803541  
3684.000000	99.800108  
3683.000000	99.803655  
3682.000000	99.809325  
3681.000000	99.812256  
3680.000000	99.812375  
3679.000000	99.811697  
3678.000000	99.809506  
3677.000000	99.804755  
3676.000000	99.801118  
3675.000000	99.804609  
3674.000000	99.810237  
3673.000000	99.804705  
3672.000000	99.788203  
3671.000000	99.772337  
3670.000000	99.764544  
3669.000000	99.764560  
3668.000000	99.764836  
3667.000000	99.760345  
3666.000000	99.755120  
3665.000000	99.753081  
3664.000000	99.752693  
3663.000000	99.750514  
3662.000000	99.745195  
3661.000000	99.737597  
3660.000000	99.728504  
3659.000000	99.717671  
3658.000000	99.706162  
3657.000000	99.698407  
3656.000000	99.699080  
3655.000000	99.706572  
3654.000000	99.713134  
3653.000000	99.714994  
3652.000000	99.714411  
3651.000000	99.712068  
3650.000000	99.706017  
3649.000000	99.697349  
3648.000000	99.689458  
3647.000000	99.684190  
3646.000000	99.680982  
3645.000000	99.678016  
3644.000000	99.674934  
3643.000000	99.673514  
3642.000000	99.675659  
3641.000000	99.680987  
3640.000000	99.686897  
3639.000000	99.690543  
3638.000000	99.690555  
3637.000000	99.686486  
3636.000000	99.678881  
3635.000000	99.670567  
3634.000000	99.665017  
3633.000000	99.662206  
3632.000000	99.657992  
3631.000000	99.649662  
3630.000000	99.639603  
3629.000000	99.633962  
3628.000000	99.635471  
3627.000000	99.636094  
3626.000000	99.629653  
3625.000000	99.623373  
3624.000000	99.624290  
3623.000000	99.629563  
3622.000000	99.633233  
3621.000000	99.633925  
3620.000000	99.635194  
3619.000000	99.640256  
3618.000000	99.647817  
3617.000000	99.653840  
3616.000000	99.656891  
3615.000000	99.659012  
3614.000000	99.661674  
3613.000000	99.663851  
3612.000000	99.663970  
3611.000000	99.662653  
3610.000000	99.662876  
3609.000000	99.666904  
3608.000000	99.673701  
3607.000000	99.680672  
3606.000000	99.687008  
3605.000000	99.694208  
3604.000000	99.703416  
3603.000000	99.713372  
3602.000000	99.722448  
3601.000000	99.730868  
3600.000000	99.738856  
3599.000000	99.743733  
3598.000000	99.741813  
3597.000000	99.733289  
3596.000000	99.723465  
3595.000000	99.719645  
3594.000000	99.725468  
3593.000000	99.737481  
3592.000000	99.747404  
3591.000000	99.748476  
3590.000000	99.739536  
3589.000000	99.725873  
3588.000000	99.716370  
3587.000000	99.716426  
3586.000000	99.722869  
3585.000000	99.729181  
3584.000000	99.733592  
3583.000000	99.738103  
3582.000000	99.743105  
3581.000000	99.746508  
3580.000000	99.746705  
3579.000000	99.744232  
3578.000000	99.740634  
3577.000000	99.737190  
3576.000000	99.734768  
3575.000000	99.734177  
3574.000000	99.735560  
3573.000000	99.737839  
3572.000000	99.739233  
3571.000000	99.738296  
3570.000000	99.734271  
3569.000000	99.727447  
3568.000000	99.720280  
3567.000000	99.716671  
3566.000000	99.717847  
3565.000000	99.720440  
3564.000000	99.721331  
3563.000000	99.721603  
3562.000000	99.724277  
3561.000000	99.730384  
3560.000000	99.737828  
3559.000000	99.743416  
3558.000000	99.745527  
3557.000000	99.744912  
3556.000000	99.743333  
3555.000000	99.741777  
3554.000000	99.740103  
3553.000000	99.737886  
3552.000000	99.735140  
3551.000000	99.731839  
3550.000000	99.727310  
3549.000000	99.720943  
3548.000000	99.713693  
3547.000000	99.708290  
3546.000000	99.707105  
3545.000000	99.709260  
3544.000000	99.711157  
3543.000000	99.711001  
3542.000000	99.711522  
3541.000000	99.716724  
3540.000000	99.726416  
3539.000000	99.735300  
3538.000000	99.738172  
3537.000000	99.735177  
3536.000000	99.731066  
3535.000000	99.729503  
3534.000000	99.729672  
3533.000000	99.728740  
3532.000000	99.726071  
3531.000000	99.723998  
3530.000000	99.724716  
3529.000000	99.727450  
3528.000000	99.729041  
3527.000000	99.727284  
3526.000000	99.723089  
3525.000000	99.719455  
3524.000000	99.718614  
3523.000000	99.720212  
3522.000000	99.722006  
3521.000000	99.722029  
3520.000000	99.720259  
3519.000000	99.718526  
3518.000000	99.718861  
3517.000000	99.721583  
3516.000000	99.724893  
3515.000000	99.726363  
3514.000000	99.724650  
3513.000000	99.719964  
3512.000000	99.713755  
3511.000000	99.708503  
3510.000000	99.706854  
3509.000000	99.709906  
3508.000000	99.716128  
3507.000000	99.722523  
3506.000000	99.726879  
3505.000000	99.728610  
3504.000000	99.727996  
3503.000000	99.725850  
3502.000000	99.723948  
3501.000000	99.724580  
3500.000000	99.728654  
3499.000000	99.734352  
3498.000000	99.738041  
3497.000000	99.736819  
3496.000000	99.730495  
3495.000000	99.721526  
3494.000000	99.713383  
3493.000000	99.708505  
3492.000000	99.707167  
3491.000000	99.708047  
3490.000000	99.709819  
3489.000000	99.712150  
3488.000000	99.715117  
3487.000000	99.718124  
3486.000000	99.720036  
3485.000000	99.720434  
3484.000000	99.720050  
3483.000000	99.719587  
3482.000000	99.718594  
3481.000000	99.716109  
3480.000000	99.712274  
3479.000000	99.708585  
3478.000000	99.706250  
3477.000000	99.704965  
3476.000000	99.703972  
3475.000000	99.704017  
3474.000000	99.707045  
3473.000000	99.713367  
3472.000000	99.720044  
3471.000000	99.723277  
3470.000000	99.722318  
3469.000000	99.719952  
3468.000000	99.718994  
3467.000000	99.719224  
3466.000000	99.718322  
3465.000000	99.714997  
3464.000000	99.710125  
3463.000000	99.705084  
3462.000000	99.700281  
3461.000000	99.695851  
3460.000000	99.692912  
3459.000000	99.693009  
3458.000000	99.696233  
3457.000000	99.700503  
3456.000000	99.703034  
3455.000000	99.702489  
3454.000000	99.699805  
3453.000000	99.697207  
3452.000000	99.696361  
3451.000000	99.697057  
3450.000000	99.697510  
3449.000000	99.696147  
3448.000000	99.692987  
3447.000000	99.689318  
3446.000000	99.686352  
3445.000000	99.684785  
3444.000000	99.685327  
3443.000000	99.688388  
3442.000000	99.692740  
3441.000000	99.695548  
3440.000000	99.694698  
3439.000000	99.690891  
3438.000000	99.686797  
3437.000000	99.684262  
3436.000000	99.683050  
3435.000000	99.682317  
3434.000000	99.682286  
3433.000000	99.683778  
3432.000000	99.686372  
3431.000000	99.688052  
3430.000000	99.687289  
3429.000000	99.685171  
3428.000000	99.684631  
3427.000000	99.687198  
3426.000000	99.690847  
3425.000000	99.691533  
3424.000000	99.686893  
3423.000000	99.678367  
3422.000000	99.669812  
3421.000000	99.664400  
3420.000000	99.663029  
3419.000000	99.665099  
3418.000000	99.669680  
3417.000000	99.675454  
3416.000000	99.680364  
3415.000000	99.682479  
3414.000000	99.681443  
3413.000000	99.678628  
3412.000000	99.675785  
3411.000000	99.673930  
3410.000000	99.673364  
3409.000000	99.673824  
3408.000000	99.674170  
3407.000000	99.672685  
3406.000000	99.668682  
3405.000000	99.663697  
3404.000000	99.660418  
3403.000000	99.660191  
3402.000000	99.661837  
3401.000000	99.662993  
3400.000000	99.662450  
3399.000000	99.661138  
3398.000000	99.661051  
3397.000000	99.663193  
3396.000000	99.666420  
3395.000000	99.668251  
3394.000000	99.666834  
3393.000000	99.662376  
3392.000000	99.657044  
3391.000000	99.653656  
3390.000000	99.654153  
3389.000000	99.658630  
3388.000000	99.665309  
3387.000000	99.671646  
3386.000000	99.676032  
3385.000000	99.678639  
3384.000000	99.680357  
3383.000000	99.680865  
3382.000000	99.678263  
3381.000000	99.671177  
3380.000000	99.661285  
3379.000000	99.653264  
3378.000000	99.651553  
3377.000000	99.656883  
3376.000000	99.666055  
3375.000000	99.674959  
3374.000000	99.681444  
3373.000000	99.685511  
3372.000000	99.687749  
3371.000000	99.688294  
3370.000000	99.687000  
3369.000000	99.683939  
3368.000000	99.679780  
3367.000000	99.675995  
3366.000000	99.674303  
3365.000000	99.675063  
3364.000000	99.676329  
3363.000000	99.675417  
3362.000000	99.671738  
3361.000000	99.667323  
3360.000000	99.664177  
3359.000000	99.662102  
3358.000000	99.660060  
3357.000000	99.659001  
3356.000000	99.661631  
3355.000000	99.668829  
3354.000000	99.677425  
3353.000000	99.682586  
3352.000000	99.682188  
3351.000000	99.678409  
3350.000000	99.675360  
3349.000000	99.675717  
3348.000000	99.679311  
3347.000000	99.683843  
3346.000000	99.686436  
3345.000000	99.685241  
3344.000000	99.680635  
3343.000000	99.675050  
3342.000000	99.670987  
3341.000000	99.668838  
3340.000000	99.666897  
3339.000000	99.663766  
3338.000000	99.660370  
3337.000000	99.659135  
3336.000000	99.661369  
3335.000000	99.666103  
3334.000000	99.671612  
3333.000000	99.677225  
3332.000000	99.683032  
3331.000000	99.688272  
3330.000000	99.691172  
3329.000000	99.690830  
3328.000000	99.688650  
3327.000000	99.687052  
3326.000000	99.686739  
3325.000000	99.685855  
3324.000000	99.682203  
3323.000000	99.676127  
3322.000000	99.670799  
3321.000000	99.669582  
3320.000000	99.673301  
3319.000000	99.679998  
3318.000000	99.686863  
3317.000000	99.691986  
3316.000000	99.694600  
3315.000000	99.694737  
3314.000000	99.693410  
3313.000000	99.692693  
3312.000000	99.694472  
3311.000000	99.698501  
3310.000000	99.702068  
3309.000000	99.702138  
3308.000000	99.697945  
3307.000000	99.691501  
3306.000000	99.685965  
3305.000000	99.683817  
3304.000000	99.686011  
3303.000000	99.691682  
3302.000000	99.698115  
3301.000000	99.701604  
3300.000000	99.699545  
3299.000000	99.692568  
3298.000000	99.684677  
3297.000000	99.680653  
3296.000000	99.682381  
3295.000000	99.687440  
3294.000000	99.691659  
3293.000000	99.693289  
3292.000000	99.694207  
3291.000000	99.696667  
3290.000000	99.699641  
3289.000000	99.699685  
3288.000000	99.695353  
3287.000000	99.689388  
3286.000000	99.685881  
3285.000000	99.686162  
3284.000000	99.688380  
3283.000000	99.690451  
3282.000000	99.692134  
3281.000000	99.694171  
3280.000000	99.696590  
3279.000000	99.698603  
3278.000000	99.699616  
3277.000000	99.699623  
3276.000000	99.698616  
3275.000000	99.696152  
3274.000000	99.691945  
3273.000000	99.686961  
3272.000000	99.683528  
3271.000000	99.683705  
3270.000000	99.687234  
3269.000000	99.691462  
3268.000000	99.693704  
3267.000000	99.693495  
3266.000000	99.692278  
3265.000000	99.691479  
3264.000000	99.691687  
3263.000000	99.693502  
3262.000000	99.697802  
3261.000000	99.704341  
3260.000000	99.710752  
3259.000000	99.714038  
3258.000000	99.713190  
3257.000000	99.709920  
3256.000000	99.706732  
3255.000000	99.704619  
3254.000000	99.702897  
3253.000000	99.701004  
3252.000000	99.699875  
3251.000000	99.701181  
3250.000000	99.705425  
3249.000000	99.711197  
3248.000000	99.716320  
3247.000000	99.719262  
3246.000000	99.719434  
3245.000000	99.716981  
3244.000000	99.713023  
3243.000000	99.709611  
3242.000000	99.708420  
3241.000000	99.709377  
3240.000000	99.711247  
3239.000000	99.713582  
3238.000000	99.717283  
3237.000000	99.722967  
3236.000000	99.729470  
3235.000000	99.734493  
3234.000000	99.736458  
3233.000000	99.735552  
3232.000000	99.733377  
3231.000000	99.731846  
3230.000000	99.731992  
3229.000000	99.733313  
3228.000000	99.734248  
3227.000000	99.733437  
3226.000000	99.730544  
3225.000000	99.726187  
3224.000000	99.721639  
3223.000000	99.718589  
3222.000000	99.718391  
3221.000000	99.720906  
3220.000000	99.724249  
3219.000000	99.726198  
3218.000000	99.726053  
3217.000000	99.725266  
3216.000000	99.726486  
3215.000000	99.731646  
3214.000000	99.740117  
3213.000000	99.748438  
3212.000000	99.752402  
3211.000000	99.750041  
3210.000000	99.742917  
3209.000000	99.734834  
3208.000000	99.729429  
3207.000000	99.728387  
3206.000000	99.730891  
3205.000000	99.734453  
3204.000000	99.736876  
3203.000000	99.737780  
3202.000000	99.738075  
3201.000000	99.738260  
3200.000000	99.738091  
3199.000000	99.737839  
3198.000000	99.738608  
3197.000000	99.740852  
3196.000000	99.743550  
3195.000000	99.745479  
3194.000000	99.746424  
3193.000000	99.746388  
3192.000000	99.744583  
3191.000000	99.740485  
3190.000000	99.735485  
3189.000000	99.732264  
3188.000000	99.732429  
3187.000000	99.735528  
3186.000000	99.740175  
3185.000000	99.745157  
3184.000000	99.749401  
3183.000000	99.751888  
3182.000000	99.752241  
3181.000000	99.751163  
3180.000000	99.750027  
3179.000000	99.750034  
3178.000000	99.751510  
3177.000000	99.753653  
3176.000000	99.755140  
3175.000000	99.755419  
3174.000000	99.755237  
3173.000000	99.755481  
3172.000000	99.755836  
3171.000000	99.755403  
3170.000000	99.754576  
3169.000000	99.755209  
3168.000000	99.758385  
3167.000000	99.762631  
3166.000000	99.765094  
3165.000000	99.764344  
3164.000000	99.761603  
3163.000000	99.759243  
3162.000000	99.758436  
3161.000000	99.758475  
3160.000000	99.758187  
3159.000000	99.757574  
3158.000000	99.757673  
3157.000000	99.758839  
3156.000000	99.759695  
3155.000000	99.758238  
3154.000000	99.753850  
3153.000000	99.747960  
3152.000000	99.742976  
3151.000000	99.740902  
3150.000000	99.742549  
3149.000000	99.747162  
3148.000000	99.752600  
3147.000000	99.756603  
3146.000000	99.758448  
3145.000000	99.759234  
3144.000000	99.760384  
3143.000000	99.762156  
3142.000000	99.763770  
3141.000000	99.764521  
3140.000000	99.764365  
3139.000000	99.763631  
3138.000000	99.762612  
3137.000000	99.761590  
3136.000000	99.761072  
3135.000000	99.761780  
3134.000000	99.764024  
3133.000000	99.766921  
3132.000000	99.768607  
3131.000000	99.767875  
3130.000000	99.765707  
3129.000000	99.764746  
3128.000000	99.766957  
3127.000000	99.771867  
3126.000000	99.777045  
3125.000000	99.779988  
3124.000000	99.779478  
3123.000000	99.775831  
3122.000000	99.770605  
3121.000000	99.765999  
3120.000000	99.763796  
3119.000000	99.764413  
3118.000000	99.766897  
3117.000000	99.769816  
3116.000000	99.772223  
3115.000000	99.773982  
3114.000000	99.775391  
3113.000000	99.776564  
3112.000000	99.777138  
3111.000000	99.776661  
3110.000000	99.775298  
3109.000000	99.773900  
3108.000000	99.773100  
3107.000000	99.772403  
3106.000000	99.770524  
3105.000000	99.766901  
3104.000000	99.762795  
3103.000000	99.760736  
3102.000000	99.762734  
3101.000000	99.768752  
3100.000000	99.776770  
3099.000000	99.784380  
3098.000000	99.790315  
3097.000000	99.794472  
3096.000000	99.796936  
3095.000000	99.797634  
3094.000000	99.796846  
3093.000000	99.795206  
3092.000000	99.792900  
3091.000000	99.789652  
3090.000000	99.786069  
3089.000000	99.784137  
3088.000000	99.785177  
3087.000000	99.787647  
3086.000000	99.788286  
3085.000000	99.785668  
3084.000000	99.781491  
3083.000000	99.778012  
3082.000000	99.775427  
3081.000000	99.772698  
3080.000000	99.770199  
3079.000000	99.770210  
3078.000000	99.774692  
3077.000000	99.783165  
3076.000000	99.792803  
3075.000000	99.800178  
3074.000000	99.803111  
3073.000000	99.801717  
3072.000000	99.798064  
3071.000000	99.794487  
3070.000000	99.791950  
3069.000000	99.789911  
3068.000000	99.787604  
3067.000000	99.785387  
3066.000000	99.784997  
3065.000000	99.788388  
3064.000000	99.795652  
3063.000000	99.803739  
3062.000000	99.807944  
3061.000000	99.805557  
3060.000000	99.798149  
3059.000000	99.790000  
3058.000000	99.784622  
3057.000000	99.783226  
3056.000000	99.785616  
3055.000000	99.790927  
3054.000000	99.797193  
3053.000000	99.801534  
3052.000000	99.801836  
3051.000000	99.798079  
3050.000000	99.791964  
3049.000000	99.785868  
3048.000000	99.782124  
3047.000000	99.781919  
3046.000000	99.783928  
3045.000000	99.784901  
3044.000000	99.782929  
3043.000000	99.779852  
3042.000000	99.779289  
3041.000000	99.782400  
3040.000000	99.786648  
3039.000000	99.788767  
3038.000000	99.787709  
3037.000000	99.784339  
3036.000000	99.779571  
3035.000000	99.773860  
3034.000000	99.767908  
3033.000000	99.762562  
3032.000000	99.757828  
3031.000000	99.752709  
3030.000000	99.746498  
3029.000000	99.740101  
3028.000000	99.735826  
3027.000000	99.735578  
3026.000000	99.738813  
3025.000000	99.742111  
3024.000000	99.741320  
3023.000000	99.734765  
3022.000000	99.724409  
3021.000000	99.713547  
3020.000000	99.703540  
3019.000000	99.693373  
3018.000000	99.682362  
3017.000000	99.672208  
3016.000000	99.665397  
3015.000000	99.662021  
3014.000000	99.659367  
3013.000000	99.654911  
3012.000000	99.648830  
3011.000000	99.643052  
3010.000000	99.638570  
3009.000000	99.634532  
3008.000000	99.629653  
3007.000000	99.623609  
3006.000000	99.617016  
3005.000000	99.610639  
3004.000000	99.604750  
3003.000000	99.598819  
3002.000000	99.591833  
3001.000000	99.583415  
3000.000000	99.574606  
2999.000000	99.567062  
2998.000000	99.561529  
2997.000000	99.557639  
2996.000000	99.554911  
2995.000000	99.552795  
2994.000000	99.549494  
2993.000000	99.542114  
2992.000000	99.529160  
2991.000000	99.512523  
2990.000000	99.496392  
2989.000000	99.484573  
2988.000000	99.479162  
2987.000000	99.480674  
2986.000000	99.487916  
2985.000000	99.497758  
2984.000000	99.506247  
2983.000000	99.510706  
2982.000000	99.510887  
2981.000000	99.508583  
2980.000000	99.506589  
2979.000000	99.507270  
2978.000000	99.510783  
2977.000000	99.514451  
2976.000000	99.514735  
2975.000000	99.510321  
2974.000000	99.503140  
2973.000000	99.496633  
2972.000000	99.493589  
2971.000000	99.495226  
2970.000000	99.501006  
2969.000000	99.508714  
2968.000000	99.515506  
2967.000000	99.519801  
2966.000000	99.522235  
2965.000000	99.524666  
2964.000000	99.528434  
2963.000000	99.533528  
2962.000000	99.538948  
2961.000000	99.543648  
2960.000000	99.547323  
2959.000000	99.550404  
2958.000000	99.553240  
2957.000000	99.555591  
2956.000000	99.557302  
2955.000000	99.559136  
2954.000000	99.562329  
2953.000000	99.567353  
2952.000000	99.573579  
2951.000000	99.580005  
2950.000000	99.585758  
2949.000000	99.590087  
2948.000000	99.592651  
2947.000000	99.593930  
2946.000000	99.594882  
2945.000000	99.596174  
2944.000000	99.598107  
2943.000000	99.600835  
2942.000000	99.603757  
2941.000000	99.604961  
2940.000000	99.602700  
2939.000000	99.598001  
2938.000000	99.594831  
2937.000000	99.596800  
2936.000000	99.603883  
2935.000000	99.612600  
2934.000000	99.618991  
2933.000000	99.621150  
2932.000000	99.619611  
2931.000000	99.615999  
2930.000000	99.611508  
2929.000000	99.606687  
2928.000000	99.602423  
2927.000000	99.600180  
2926.000000	99.600391  
2925.000000	99.601262  
2924.000000	99.600465  
2923.000000	99.597860  
2922.000000	99.595247  
2921.000000	99.593504  
2920.000000	99.591626  
2919.000000	99.588911  
2918.000000	99.586411  
2917.000000	99.585245  
2916.000000	99.584707  
2915.000000	99.583197  
2914.000000	99.580310  
2913.000000	99.577004  
2912.000000	99.574268  
2911.000000	99.572569  
2910.000000	99.572155  
2909.000000	99.572890  
2908.000000	99.573884  
2907.000000	99.573989  
2906.000000	99.572512  
2905.000000	99.569047  
2904.000000	99.563127  
2903.000000	99.555074  
2902.000000	99.547307  
2901.000000	99.544031  
2900.000000	99.548785  
2899.000000	99.561457  
2898.000000	99.577238  
2897.000000	99.589054  
2896.000000	99.592417  
2895.000000	99.588815  
2894.000000	99.583958  
2893.000000	99.582484  
2892.000000	99.584962  
2891.000000	99.589599  
2890.000000	99.594999  
2889.000000	99.600248  
2888.000000	99.603941  
2887.000000	99.605240  
2886.000000	99.605506  
2885.000000	99.607288  
2884.000000	99.611630  
2883.000000	99.617572  
2882.000000	99.624205  
2881.000000	99.631749  
2880.000000	99.640188  
2879.000000	99.648110  
2878.000000	99.653773  
2877.000000	99.656891  
2876.000000	99.658859  
2875.000000	99.661502  
2874.000000	99.665770  
2873.000000	99.671177  
2872.000000	99.676213  
2871.000000	99.679642  
2870.000000	99.681656  
2869.000000	99.683685  
2868.000000	99.687075  
2867.000000	99.692072  
2866.000000	99.697855  
2865.000000	99.703181  
2864.000000	99.707194  
2863.000000	99.710078  
2862.000000	99.712833  
2861.000000	99.716116  
2860.000000	99.719617  
2859.000000	99.723016  
2858.000000	99.726991  
2857.000000	99.732276  
2856.000000	99.737951  
2855.000000	99.741801  
2854.000000	99.742680  
2853.000000	99.741801  
2852.000000	99.741452  
2851.000000	99.743109  
2850.000000	99.747009  
2849.000000	99.752709  
2848.000000	99.759447  
2847.000000	99.766319  
2846.000000	99.772624  
2845.000000	99.777872  
2844.000000	99.781429  
2843.000000	99.782748  
2842.000000	99.782390  
2841.000000	99.782353  
2840.000000	99.784673  
2839.000000	99.789566  
2838.000000	99.795180  
2837.000000	99.799213  
2836.000000	99.800812  
2835.000000	99.801160  
2834.000000	99.802385  
2833.000000	99.805637  
2832.000000	99.809930  
2831.000000	99.812993  
2830.000000	99.813426  
2829.000000	99.811951  
2828.000000	99.810558  
2827.000000	99.810659  
2826.000000	99.812269  
2825.000000	99.814617  
2824.000000	99.817026  
2823.000000	99.819136  
2822.000000	99.820654  
2821.000000	99.821349  
2820.000000	99.821408  
2819.000000	99.821547  
2818.000000	99.822399  
2817.000000	99.823704  
2816.000000	99.824399  
2815.000000	99.823686  
2814.000000	99.821720  
2813.000000	99.819174  
2812.000000	99.816678  
2811.000000	99.815193  
2810.000000	99.816263  
2809.000000	99.820711  
2808.000000	99.826962  
2807.000000	99.831670  
2806.000000	99.832584  
2805.000000	99.830316  
2804.000000	99.827139  
2803.000000	99.824836  
2802.000000	99.824106  
2801.000000	99.825060  
2800.000000	99.827164  
2799.000000	99.829086  
2798.000000	99.829646  
2797.000000	99.828882  
2796.000000	99.827483  
2795.000000	99.825449  
2794.000000	99.822386  
2793.000000	99.819073  
2792.000000	99.817423  
2791.000000	99.818321  
2790.000000	99.820505  
2789.000000	99.822427  
2788.000000	99.824433  
2787.000000	99.827911  
2786.000000	99.832592  
2785.000000	99.835954  
2784.000000	99.835698  
2783.000000	99.832129  
2782.000000	99.827742  
2781.000000	99.824964  
2780.000000	99.824592  
2779.000000	99.825884  
2778.000000	99.827563  
2777.000000	99.828833  
2776.000000	99.829872  
2775.000000	99.831422  
2774.000000	99.833830  
2773.000000	99.836621  
2772.000000	99.839201  
2771.000000	99.841660  
2770.000000	99.844410  
2769.000000	99.847099  
2768.000000	99.848525  
2767.000000	99.848009  
2766.000000	99.846455  
2765.000000	99.845416  
2764.000000	99.845095  
2763.000000	99.843881  
2762.000000	99.840266  
2761.000000	99.834893  
2760.000000	99.830204  
2759.000000	99.828170  
2758.000000	99.828926  
2757.000000	99.831577  
2756.000000	99.835346  
2755.000000	99.839299  
2754.000000	99.841734  
2753.000000	99.841288  
2752.000000	99.838904  
2751.000000	99.837628  
2750.000000	99.839624  
2749.000000	99.843835  
2748.000000	99.847242  
2747.000000	99.848149  
2746.000000	99.847495  
2745.000000	99.846986  
2744.000000	99.846800  
2743.000000	99.845721  
2742.000000	99.843157  
2741.000000	99.840382  
2740.000000	99.839476  
2739.000000	99.841274  
2738.000000	99.844696  
2737.000000	99.848044  
2736.000000	99.850558  
2735.000000	99.852340  
2734.000000	99.853209  
2733.000000	99.852459  
2732.000000	99.849924  
2731.000000	99.846598  
2730.000000	99.843740  
2729.000000	99.841817  
2728.000000	99.840741  
2727.000000	99.840605  
2726.000000	99.841408  
2725.000000	99.842342  
2724.000000	99.842338  
2723.000000	99.841523  
2722.000000	99.841374  
2721.000000	99.842982  
2720.000000	99.845588  
2719.000000	99.847303  
2718.000000	99.847040  
2717.000000	99.845387  
2716.000000	99.843790  
2715.000000	99.843309  
2714.000000	99.844175  
2713.000000	99.846072  
2712.000000	99.848473  
2711.000000	99.850805  
2710.000000	99.852673  
2709.000000	99.854105  
2708.000000	99.855343  
2707.000000	99.856155  
2706.000000	99.855658  
2705.000000	99.853410  
2704.000000	99.850615  
2703.000000	99.849429  
2702.000000	99.850674  
2701.000000	99.852801  
2700.000000	99.853744  
2699.000000	99.853410  
2698.000000	99.853628  
2697.000000	99.855770  
2696.000000	99.859083  
2695.000000	99.861448  
2694.000000	99.861345  
2693.000000	99.859068  
2692.000000	99.856390  
2691.000000	99.855007  
2690.000000	99.855013  
2689.000000	99.855038  
2688.000000	99.854210  
2687.000000	99.853546  
2686.000000	99.854720  
2685.000000	99.857751  
2684.000000	99.860860  
2683.000000	99.862572  
2682.000000	99.862882  
2681.000000	99.862054  
2680.000000	99.859531  
2679.000000	99.854998  
2678.000000	99.849970  
2677.000000	99.847280  
2676.000000	99.848836  
2675.000000	99.854126  
2674.000000	99.860614  
2673.000000	99.865233  
2672.000000	99.866024  
2671.000000	99.863238  
2670.000000	99.859016  
2669.000000	99.855584  
2668.000000	99.853602  
2667.000000	99.852394  
2666.000000	99.851448  
2665.000000	99.851029  
2664.000000	99.851241  
2663.000000	99.851213  
2662.000000	99.849869  
2661.000000	99.847377  
2660.000000	99.845297  
2659.000000	99.845048  
2658.000000	99.846577  
2657.000000	99.848832  
2656.000000	99.851085  
2655.000000	99.852977  
2654.000000	99.853465  
2653.000000	99.851227  
2652.000000	99.847096  
2651.000000	99.844903  
2650.000000	99.847879  
2649.000000	99.854156  
2648.000000	99.857793  
2647.000000	99.855288  
2646.000000	99.849788  
2645.000000	99.847459  
2644.000000	99.850406  
2643.000000	99.854731  
2642.000000	99.855369  
2641.000000	99.851386  
2640.000000	99.846138  
2639.000000	99.843453  
2638.000000	99.844524  
2637.000000	99.847845  
2636.000000	99.851058  
2635.000000	99.852741  
2634.000000	99.853030  
2633.000000	99.853093  
2632.000000	99.854088  
2631.000000	99.856396  
2630.000000	99.859442  
2629.000000	99.861998  
2628.000000	99.862839  
2627.000000	99.861523  
2626.000000	99.858759  
2625.000000	99.855937  
2624.000000	99.854160  
2623.000000	99.853679  
2622.000000	99.854216  
2621.000000	99.855681  
2620.000000	99.858391  
2619.000000	99.862425  
2618.000000	99.866840  
2617.000000	99.869945  
2616.000000	99.870766  
2615.000000	99.870175  
2614.000000	99.870236  
2613.000000	99.872379  
2612.000000	99.876289  
2611.000000	99.880343  
2610.000000	99.882749  
2609.000000	99.882504  
2608.000000	99.880027  
2607.000000	99.877143  
2606.000000	99.875935  
2605.000000	99.877154  
2604.000000	99.879804  
2603.000000	99.882349  
2602.000000	99.884192  
2601.000000	99.886091  
2600.000000	99.889464  
2599.000000	99.895024  
2598.000000	99.901376  
2597.000000	99.904963  
2596.000000	99.902435  
2595.000000	99.893857  
2594.000000	99.883305  
2593.000000	99.875817  
2592.000000	99.873787  
2591.000000	99.876249  
2590.000000	99.880923  
2589.000000	99.886264  
2588.000000	99.891757  
2587.000000	99.896973  
2586.000000	99.900843  
2585.000000	99.902155  
2584.000000	99.900894  
2583.000000	99.898696  
2582.000000	99.897354  
2581.000000	99.896943  
2580.000000	99.896103  
2579.000000	99.894169  
2578.000000	99.892122  
2577.000000	99.891071  
2576.000000	99.890642  
2575.000000	99.889588  
2574.000000	99.887505  
2573.000000	99.885310  
2572.000000	99.884282  
2571.000000	99.885094  
2570.000000	99.887431  
2569.000000	99.890030  
2568.000000	99.891440  
2567.000000	99.891314  
2566.000000	99.890817  
2565.000000	99.891341  
2564.000000	99.893002  
2563.000000	99.894822  
2562.000000	99.896116  
2561.000000	99.897019  
2560.000000	99.897539  
2559.000000	99.896753  
2558.000000	99.893756  
2557.000000	99.889684  
2556.000000	99.888212  
2555.000000	99.892823  
2554.000000	99.902924  
2553.000000	99.913379  
2552.000000	99.918978  
2551.000000	99.919150  
2550.000000	99.917245  
2549.000000	99.915524  
2548.000000	99.912537  
2547.000000	99.906015  
2546.000000	99.896998  
2545.000000	99.889862  
2544.000000	99.888547  
2543.000000	99.893090  
2542.000000	99.899309  
2541.000000	99.901851  
2540.000000	99.898746  
2539.000000	99.893484  
2538.000000	99.891456  
2537.000000	99.893805  
2536.000000	99.896297  
2535.000000	99.895130  
2534.000000	99.891839  
2533.000000	99.890358  
2532.000000	99.890868  
2531.000000	99.889933  
2530.000000	99.886645  
2529.000000	99.885027  
2528.000000	99.888466  
2527.000000	99.894082  
2526.000000	99.895337  
2525.000000	99.889626  
2524.000000	99.881177  
2523.000000	99.876384  
2522.000000	99.877962  
2521.000000	99.883960  
2520.000000	99.890639  
2519.000000	99.894958  
2518.000000	99.895259  
2517.000000	99.891517  
2516.000000	99.885517  
2515.000000	99.879963  
2514.000000	99.876874  
2513.000000	99.877050  
2512.000000	99.880773  
2511.000000	99.887877  
2510.000000	99.896788  
2509.000000	99.904793  
2508.000000	99.910392  
2507.000000	99.914548  
2506.000000	99.918301  
2505.000000	99.919896  
2504.000000	99.916231  
2503.000000	99.907291  
2502.000000	99.897426  
2501.000000	99.891634  
2500.000000	99.891749  
2499.000000	99.896498  
2498.000000	99.903388  
2497.000000	99.909376  
2496.000000	99.911407  
2495.000000	99.908533  
2494.000000	99.903285  
2493.000000	99.899564  
2492.000000	99.899183  
2491.000000	99.901374  
2490.000000	99.905203  
2489.000000	99.910967  
2488.000000	99.918915  
2487.000000	99.927581  
2486.000000	99.933928  
2485.000000	99.935088  
2484.000000	99.930377  
2483.000000	99.922232  
2482.000000	99.914851  
2481.000000	99.910948  
2480.000000	99.909655  
2479.000000	99.908045  
2478.000000	99.904532  
2477.000000	99.900284  
2476.000000	99.897704  
2475.000000	99.898453  
2474.000000	99.902763  
2473.000000	99.909427  
2472.000000	99.916070  
2471.000000	99.920265  
2470.000000	99.921113  
2469.000000	99.919657  
2468.000000	99.917725  
2467.000000	99.916607  
2466.000000	99.916554  
2465.000000	99.916815  
2464.000000	99.916133  
2463.000000	99.914000  
2462.000000	99.911716  
2461.000000	99.911425  
2460.000000	99.913574  
2459.000000	99.915832  
2458.000000	99.915192  
2457.000000	99.911108  
2456.000000	99.906179  
2455.000000	99.903801  
2454.000000	99.905302  
2453.000000	99.909078  
2452.000000	99.911975  
2451.000000	99.911370  
2450.000000	99.906460  
2449.000000	99.898476  
2448.000000	99.890335  
2447.000000	99.885778  
2446.000000	99.887558  
2445.000000	99.895201  
2444.000000	99.904441  
2443.000000	99.909749  
2442.000000	99.908280  
2441.000000	99.901809  
2440.000000	99.895056  
2439.000000	99.892174  
2438.000000	99.894240  
2437.000000	99.899213  
2436.000000	99.903823  
2435.000000	99.905915  
2434.000000	99.905726  
2433.000000	99.905386  
2432.000000	99.907136  
2431.000000	99.911489  
2430.000000	99.916515  
2429.000000	99.918924  
2428.000000	99.916616  
2427.000000	99.910672  
2426.000000	99.904527  
2425.000000	99.900809  
2424.000000	99.899475  
2423.000000	99.899536  
2422.000000	99.901728  
2421.000000	99.907718  
2420.000000	99.916446  
2419.000000	99.923044  
2418.000000	99.922943  
2417.000000	99.916502  
2416.000000	99.908303  
2415.000000	99.902101  
2414.000000	99.897885  
2413.000000	99.894014  
2412.000000	99.890491  
2411.000000	99.888887  
2410.000000	99.889923  
2409.000000	99.892547  
2408.000000	99.895239  
2407.000000	99.897131  
2406.000000	99.897900  
2405.000000	99.897685  
2404.000000	99.897435  
2403.000000	99.898375  
2402.000000	99.900577  
2401.000000	99.902591  
2400.000000	99.902767  
2399.000000	99.900486  
2398.000000	99.896164  
2397.000000	99.891019  
2396.000000	99.886971  
2395.000000	99.885459  
2394.000000	99.885697  
2393.000000	99.885232  
2392.000000	99.883068  
2391.000000	99.881097  
2390.000000	99.881345  
2389.000000	99.883088  
2388.000000	99.884396  
2387.000000	99.885550  
2386.000000	99.888611  
2385.000000	99.893764  
2384.000000	99.898353  
2383.000000	99.900078  
2382.000000	99.899211  
2381.000000	99.896803  
2380.000000	99.892735  
2379.000000	99.887255  
2378.000000	99.883206  
2377.000000	99.884396  
2376.000000	99.891558  
2375.000000	99.901259  
2374.000000	99.908951  
2373.000000	99.911864  
2372.000000	99.909375  
2371.000000	99.902678  
2370.000000	99.895071  
2369.000000	99.890948  
2368.000000	99.892990  
2367.000000	99.900327  
2366.000000	99.909920  
2365.000000	99.918783  
2364.000000	99.924106  
2363.000000	99.922535  
2362.000000	99.912450  
2361.000000	99.896995  
2360.000000	99.882608  
2359.000000	99.873848  
2358.000000	99.869740  
2357.000000	99.867462  
2356.000000	99.868010  
2355.000000	99.873972  
2354.000000	99.884000  
2353.000000	99.892029  
2352.000000	99.894147  
2351.000000	99.892406  
2350.000000	99.890941  
2349.000000	99.891569  
2348.000000	99.892205  
2347.000000	99.890891  
2346.000000	99.889668  
2345.000000	99.892076  
2344.000000	99.897777  
2343.000000	99.901565  
2342.000000	99.900762  
2341.000000	99.896091  
2340.000000	99.890068  
2339.000000	99.886254  
2338.000000	99.886993  
2337.000000	99.890660  
2336.000000	99.891011  
2335.000000	99.884177  
2334.000000	99.873982  
2333.000000	99.869779  
2332.000000	99.875940  
2331.000000	99.888032  
2330.000000	99.896964  
2329.000000	99.899225  
2328.000000	99.896594  
2327.000000	99.892810  
2326.000000	99.888457  
2325.000000	99.881949  
2324.000000	99.873401  
2323.000000	99.866918  
2322.000000	99.869007  
2321.000000	99.880920  
2320.000000	99.895480  
2319.000000	99.903310  
2318.000000	99.901782  
2317.000000	99.896639  
2316.000000	99.893595  
2315.000000	99.893889  
2314.000000	99.895684  
2313.000000	99.899413  
2312.000000	99.905456  
2311.000000	99.911625  
2310.000000	99.913531  
2309.000000	99.910927  
2308.000000	99.908106  
2307.000000	99.909379  
2306.000000	99.913696  
2305.000000	99.917345  
2304.000000	99.918904  
2303.000000	99.920832  
2302.000000	99.924795  
2301.000000	99.929157  
2300.000000	99.931042  
2299.000000	99.930631  
2298.000000	99.929969  
2297.000000	99.929254  
2296.000000	99.925714  
2295.000000	99.918103  
2294.000000	99.909770  
2293.000000	99.906354  
2292.000000	99.910338  
2291.000000	99.919101  
2290.000000	99.927559  
2289.000000	99.931883  
2288.000000	99.931469  
2287.000000	99.928560  
2286.000000	99.925930  
2285.000000	99.923900  
2284.000000	99.920261  
2283.000000	99.914171  
2282.000000	99.909324  
2281.000000	99.910760  
2280.000000	99.918328  
2279.000000	99.925611  
2278.000000	99.926620  
2277.000000	99.921992  
2276.000000	99.917480  
2275.000000	99.917823  
2274.000000	99.923551  
2273.000000	99.932434  
2272.000000	99.941582  
2271.000000	99.948265  
2270.000000	99.950648  
2269.000000	99.948965  
2268.000000	99.945614  
2267.000000	99.943679  
2266.000000	99.945086  
2265.000000	99.949339  
2264.000000	99.953330  
2263.000000	99.953256  
2262.000000	99.948109  
2261.000000	99.941328  
2260.000000	99.937908  
2259.000000	99.939593  
2258.000000	99.943884  
2257.000000	99.947598  
2256.000000	99.950041  
2255.000000	99.952131  
2254.000000	99.954076  
2253.000000	99.955738  
2252.000000	99.958430  
2251.000000	99.964140  
2250.000000	99.972283  
2249.000000	99.978790  
2248.000000	99.979495  
2247.000000	99.973778  
2246.000000	99.964393  
2245.000000	99.954709  
2244.000000	99.947116  
2243.000000	99.943184  
2242.000000	99.943798  
2241.000000	99.949221  
2240.000000	99.960021  
2239.000000	99.977020  
2238.000000	99.998025  
2237.000000	100.014928 
2236.000000	100.017828 
2235.000000	100.004611 
2234.000000	99.984993  
2233.000000	99.972466  
2232.000000	99.972070  
2231.000000	99.977335  
2230.000000	99.978507  
2229.000000	99.971851  
2228.000000	99.961200  
2227.000000	99.952843  
2226.000000	99.950232  
2225.000000	99.952587  
2224.000000	99.957215  
2223.000000	99.962558  
2222.000000	99.968257  
2221.000000	99.972248  
2220.000000	99.970211  
2219.000000	99.960665  
2218.000000	99.949832  
2217.000000	99.947799  
2216.000000	99.958460  
2215.000000	99.975763  
2214.000000	99.991112  
2213.000000	100.001618 
2212.000000	100.009110 
2211.000000	100.014313 
2210.000000	100.016569 
2209.000000	100.017960 
2208.000000	100.022031 
2207.000000	100.026853 
2206.000000	100.024333 
2205.000000	100.010494 
2204.000000	99.993985  
2203.000000	99.989389  
2202.000000	100.001576 
2201.000000	100.019531 
2200.000000	100.026925 
2199.000000	100.017414 
2198.000000	99.998920  
2197.000000	99.985162  
2196.000000	99.984649  
2195.000000	99.996466  
2194.000000	100.013422 
2193.000000	100.027245 
2192.000000	100.032427 
2191.000000	100.028653 
2190.000000	100.021784 
2189.000000	100.020889 
2188.000000	100.030256 
2187.000000	100.042842 
2186.000000	100.044633 
2185.000000	100.028713 
2184.000000	100.004231 
2183.000000	99.988429  
2182.000000	99.990191  
2181.000000	100.003609 
2180.000000	100.016800 
2179.000000	100.023459 
2178.000000	100.025070 
2177.000000	100.025930 
2176.000000	100.028329 
2175.000000	100.030740 
2174.000000	100.029806 
2173.000000	100.025880 
2172.000000	100.026212 
2171.000000	100.038747 
2170.000000	100.061619 
2169.000000	100.082778 
2168.000000	100.092842 
2167.000000	100.094799 
2166.000000	100.097539 
2165.000000	100.104017 
2164.000000	100.111633 
2163.000000	100.121424 
2162.000000	100.138213 
2161.000000	100.159920 
2160.000000	100.173501 
2159.000000	100.166119 
2158.000000	100.137241 
2157.000000	100.096867 
2156.000000	100.056348 
2155.000000	100.025205 
2154.000000	100.011555 
2153.000000	100.017683 
2152.000000	100.035257 
2151.000000	100.050231 
2150.000000	100.054850 
2149.000000	100.053941 
2148.000000	100.058417 
2147.000000	100.072543 
2146.000000	100.088194 
2145.000000	100.092005 
2144.000000	100.078230 
2143.000000	100.053916 
2142.000000	100.031526 
2141.000000	100.017836 
2140.000000	100.010655 
2139.000000	100.005241 
2138.000000	100.001382 
2137.000000	100.002899 
2136.000000	100.011324 
2135.000000	100.022215 
2134.000000	100.028964 
2133.000000	100.029664 
2132.000000	100.028219 
2131.000000	100.027549 
2130.000000	100.023828 
2129.000000	100.010583 
2128.000000	99.988384  
2127.000000	99.966943  
2126.000000	99.955868  
2125.000000	99.955955  
2124.000000	99.961783  
2123.000000	99.970127  
2122.000000	99.981428  
2121.000000	99.994073  
2120.000000	100.002642 
2119.000000	100.003601 
2118.000000	99.999261  
2117.000000	99.994221  
2116.000000	99.990481  
2115.000000	99.987949  
2114.000000	99.987161  
2113.000000	99.988548  
2112.000000	99.990486  
2111.000000	99.991115  
2110.000000	99.991495  
2109.000000	99.993960  
2108.000000	99.997006  
2107.000000	99.994672  
2106.000000	99.982947  
2105.000000	99.965952  
2104.000000	99.954144  
2103.000000	99.955689  
2102.000000	99.969374  
2101.000000	99.985444  
2100.000000	99.993403  
2099.000000	99.989850  
2098.000000	99.979944  
2097.000000	99.972423  
2096.000000	99.973052  
2095.000000	99.981277  
2094.000000	99.991641  
2093.000000	99.998186  
2092.000000	99.998586  
2091.000000	99.994968  
2090.000000	99.991218  
2089.000000	99.989591  
2088.000000	99.989281  
2087.000000	99.987232  
2086.000000	99.980458  
2085.000000	99.969399  
2084.000000	99.959829  
2083.000000	99.959217  
2082.000000	99.968849  
2081.000000	99.980675  
2080.000000	99.984944  
2079.000000	99.981156  
2078.000000	99.978915  
2077.000000	99.987489  
2076.000000	100.006095 
2075.000000	100.024378 
2074.000000	100.030582 
2073.000000	100.019857 
2072.000000	99.997836  
2071.000000	99.976768  
2070.000000	99.965960  
2069.000000	99.964978  
2068.000000	99.966890  
2067.000000	99.967279  
2066.000000	99.967470  
2065.000000	99.970152  
2064.000000	99.976171  
2063.000000	99.985870  
2062.000000	99.998565  
2061.000000	100.009198 
2060.000000	100.010876 
2059.000000	100.003942 
2058.000000	99.998284  
2057.000000	100.002566 
2056.000000	100.013824 
2055.000000	100.021750 
2054.000000	100.021592 
2053.000000	100.018925 
2052.000000	100.022403 
2051.000000	100.035066 
2050.000000	100.052116 
2049.000000	100.064641 
2048.000000	100.067151 
2047.000000	100.063468 
2046.000000	100.063085 
2045.000000	100.070105 
2044.000000	100.078236 
2043.000000	100.079199 
2042.000000	100.073684 
2041.000000	100.070420 
2040.000000	100.075301 
2039.000000	100.085229 
2038.000000	100.093158 
2037.000000	100.096068 
2036.000000	100.096675 
2035.000000	100.098053 
2034.000000	100.097696 
2033.000000	100.089077 
2032.000000	100.071405 
2031.000000	100.055885 
2030.000000	100.057198 
2029.000000	100.077175 
2028.000000	100.100813 
2027.000000	100.111055 
2026.000000	100.104004 
2025.000000	100.088302 
2024.000000	100.074725 
2023.000000	100.069799 
2022.000000	100.074635 
2021.000000	100.084174 
2020.000000	100.089736 
2019.000000	100.087037 
2018.000000	100.079948 
2017.000000	100.073216 
2016.000000	100.064870 
2015.000000	100.051255 
2014.000000	100.036532 
2013.000000	100.030148 
2012.000000	100.035742 
2011.000000	100.048518 
2010.000000	100.063297 
2009.000000	100.078805 
2008.000000	100.093179 
2007.000000	100.101548 
2006.000000	100.101409 
2005.000000	100.096500 
2004.000000	100.092090 
2003.000000	100.088837 
2002.000000	100.083117 
2001.000000	100.071453 
2000.000000	100.053058 
1999.000000	100.029915 
1998.000000	100.006531 
1997.000000	99.988603  
1996.000000	99.980740  
1995.000000	99.985290  
1994.000000	100.001803 
1993.000000	100.024812 
1992.000000	100.043430 
1991.000000	100.047683 
1990.000000	100.036611 
1989.000000	100.018630 
1988.000000	100.004673 
1987.000000	100.001897 
1986.000000	100.011488 
1985.000000	100.028923 
1984.000000	100.046350 
1983.000000	100.057295 
1982.000000	100.059904 
1981.000000	100.055815 
1980.000000	100.047865 
1979.000000	100.040677 
1978.000000	100.040356 
1977.000000	100.048007 
1976.000000	100.055470 
1975.000000	100.053671 
1974.000000	100.044070 
1973.000000	100.036053 
1972.000000	100.034145 
1971.000000	100.034415 
1970.000000	100.034198 
1969.000000	100.038139 
1968.000000	100.050756 
1967.000000	100.067561 
1966.000000	100.078972 
1965.000000	100.081090 
1964.000000	100.077815 
1963.000000	100.073828 
1962.000000	100.070277 
1961.000000	100.066871 
1960.000000	100.063779 
1959.000000	100.060074 
1958.000000	100.053253 
1957.000000	100.042385 
1956.000000	100.029910 
1955.000000	100.018023 
1954.000000	100.004655 
1953.000000	99.986161  
1952.000000	99.964685  
1951.000000	99.949723  
1950.000000	99.949699  
1949.000000	99.963539  
1948.000000	99.982157  
1947.000000	99.996701  
1946.000000	100.002502 
1945.000000	99.997160  
1944.000000	99.980868  
1943.000000	99.960666  
1942.000000	99.948757  
1941.000000	99.950688  
1940.000000	99.959185  
1939.000000	99.963759  
1938.000000	99.961814  
1937.000000	99.958450  
1936.000000	99.958497  
1935.000000	99.961541  
1934.000000	99.963958  
1933.000000	99.962913  
1932.000000	99.959007  
1931.000000	99.956746  
1930.000000	99.961343  
1929.000000	99.973104  
1928.000000	99.984682  
1927.000000	99.986642  
1926.000000	99.975561  
1925.000000	99.955706  
1924.000000	99.935196  
1923.000000	99.921747  
1922.000000	99.920248  
1921.000000	99.930087  
1920.000000	99.944765  
1919.000000	99.955424  
1918.000000	99.956527  
1917.000000	99.949861  
1916.000000	99.941678  
1915.000000	99.936951  
1914.000000	99.937532  
1913.000000	99.941932  
1912.000000	99.946124  
1911.000000	99.946517  
1910.000000	99.942975  
1909.000000	99.938189  
1908.000000	99.934248  
1907.000000	99.932348  
1906.000000	99.934515  
1905.000000	99.941270  
1904.000000	99.947598  
1903.000000	99.944651  
1902.000000	99.928950  
1901.000000	99.907843  
1900.000000	99.893052  
1899.000000	99.890208  
1898.000000	99.896099  
1897.000000	99.903571  
1896.000000	99.907644  
1895.000000	99.908043  
1894.000000	99.907954  
1893.000000	99.909916  
1892.000000	99.912588  
1891.000000	99.912282  
1890.000000	99.908153  
1889.000000	99.904615  
1888.000000	99.906002  
1887.000000	99.911063  
1886.000000	99.915457  
1885.000000	99.916522  
1884.000000	99.914284  
1883.000000	99.909457  
1882.000000	99.902707  
1881.000000	99.896048  
1880.000000	99.892417  
1879.000000	99.892955  
1878.000000	99.895294  
1877.000000	99.895197  
1876.000000	99.891162  
1875.000000	99.886903  
1874.000000	99.887850  
1873.000000	99.895034  
1872.000000	99.903243  
1871.000000	99.905701  
1870.000000	99.900135  
1869.000000	99.890725  
1868.000000	99.883425  
1867.000000	99.879591  
1866.000000	99.877047  
1865.000000	99.874737  
1864.000000	99.873716  
1863.000000	99.875998  
1862.000000	99.883108  
1861.000000	99.893820  
1860.000000	99.903311  
1859.000000	99.907048  
1858.000000	99.905942  
1857.000000	99.905399  
1856.000000	99.908872  
1855.000000	99.914853  
1854.000000	99.920514  
1853.000000	99.925064  
1852.000000	99.927621  
1851.000000	99.925519  
1850.000000	99.917967  
1849.000000	99.908586  
1848.000000	99.902536  
1847.000000	99.901274  
1846.000000	99.902410  
1845.000000	99.902718  
1844.000000	99.900473  
1843.000000	99.896090  
1842.000000	99.891342  
1841.000000	99.888993  
1840.000000	99.890986  
1839.000000	99.896826  
1838.000000	99.904331  
1837.000000	99.911277  
1836.000000	99.916286  
1835.000000	99.918628  
1834.000000	99.919052  
1833.000000	99.919515  
1832.000000	99.920693  
1831.000000	99.920725  
1830.000000	99.917954  
1829.000000	99.914237  
1828.000000	99.912825  
1827.000000	99.914234  
1826.000000	99.916519  
1825.000000	99.917433  
1824.000000	99.916322  
1823.000000	99.913435  
1822.000000	99.908673  
1821.000000	99.901890  
1820.000000	99.894016  
1819.000000	99.887881  
1818.000000	99.886320  
1817.000000	99.889274  
1816.000000	99.893117  
1815.000000	99.893389  
1814.000000	99.889676  
1813.000000	99.886576  
1812.000000	99.889716  
1811.000000	99.900458  
1810.000000	99.914054  
1809.000000	99.924512  
1808.000000	99.928968  
1807.000000	99.926936  
1806.000000	99.919002  
1805.000000	99.907946  
1804.000000	99.898807  
1803.000000	99.895483  
1802.000000	99.898222  
1801.000000	99.904065  
1800.000000	99.908725  
1799.000000	99.909136  
1798.000000	99.904769  
1797.000000	99.898328  
1796.000000	99.893661  
1795.000000	99.892562  
1794.000000	99.893916  
1793.000000	99.895301  
1792.000000	99.896209  
1791.000000	99.898539  
1790.000000	99.902076  
1789.000000	99.905160  
1788.000000	99.907793  
1787.000000	99.910873  
1786.000000	99.913903  
1785.000000	99.914836  
1784.000000	99.912159  
1783.000000	99.906757  
1782.000000	99.902069  
1781.000000	99.900343  
1780.000000	99.899274  
1779.000000	99.895083  
1778.000000	99.887286  
1777.000000	99.880515  
1776.000000	99.879704  
1775.000000	99.886103  
1774.000000	99.897524  
1773.000000	99.908260  
1772.000000	99.911742  
1771.000000	99.908219  
1770.000000	99.903292  
1769.000000	99.900678  
1768.000000	99.901325  
1767.000000	99.903638  
1766.000000	99.904767  
1765.000000	99.903447  
1764.000000	99.900338  
1763.000000	99.896855  
1762.000000	99.895023  
1761.000000	99.895702  
1760.000000	99.896906  
1759.000000	99.896876  
1758.000000	99.896152  
1757.000000	99.896802  
1756.000000	99.898901  
1755.000000	99.900188  
1754.000000	99.899672  
1753.000000	99.898963  
1752.000000	99.900559  
1751.000000	99.906625  
1750.000000	99.916146  
1749.000000	99.924236  
1748.000000	99.926427  
1747.000000	99.921416  
1746.000000	99.912273  
1745.000000	99.903913  
1744.000000	99.900317  
1743.000000	99.903002  
1742.000000	99.909606  
1741.000000	99.915245  
1740.000000	99.916051  
1739.000000	99.912574  
1738.000000	99.908249  
1737.000000	99.904665  
1736.000000	99.900179  
1735.000000	99.891292  
1734.000000	99.879541  
1733.000000	99.873867  
1732.000000	99.876324  
1731.000000	99.882346  
1730.000000	99.887953  
1729.000000	99.890994  
1728.000000	99.891407  
1727.000000	99.890144  
1726.000000	99.888630  
1725.000000	99.887415  
1724.000000	99.886695  
1723.000000	99.887475  
1722.000000	99.890717  
1721.000000	99.897056  
1720.000000	99.905533  
1719.000000	99.912070  
1718.000000	99.910760  
1717.000000	99.902096  
1716.000000	99.894100  
1715.000000	99.890341  
1714.000000	99.888034  
1713.000000	99.884504  
1712.000000	99.879811  
1711.000000	99.875072  
1710.000000	99.871255  
1709.000000	99.869198  
1708.000000	99.868754  
1707.000000	99.868882  
1706.000000	99.869132  
1705.000000	99.870563  
1704.000000	99.872607  
1703.000000	99.871458  
1702.000000	99.865113  
1701.000000	99.856525  
1700.000000	99.852992  
1699.000000	99.855497  
1698.000000	99.857435  
1697.000000	99.858021  
1696.000000	99.860270  
1695.000000	99.864753  
1694.000000	99.866888  
1693.000000	99.863427  
1692.000000	99.855703  
1691.000000	99.845320  
1690.000000	99.835325  
1689.000000	99.829514  
1688.000000	99.827465  
1687.000000	99.825334  
1686.000000	99.820797  
1685.000000	99.813128  
1684.000000	99.805948  
1683.000000	99.805000  
1682.000000	99.806859  
1681.000000	99.807835  
1680.000000	99.809757  
1679.000000	99.812821  
1678.000000	99.815378  
1677.000000	99.815893  
1676.000000	99.814011  
1675.000000	99.810695  
1674.000000	99.807767  
1673.000000	99.805814  
1672.000000	99.805161  
1671.000000	99.805475  
1670.000000	99.804956  
1669.000000	99.803656  
1668.000000	99.802314  
1667.000000	99.800082  
1666.000000	99.795964  
1665.000000	99.789761  
1664.000000	99.782610  
1663.000000	99.777430  
1662.000000	99.777227  
1661.000000	99.781248  
1660.000000	99.784834  
1659.000000	99.785166  
1658.000000	99.782748  
1657.000000	99.779058  
1656.000000	99.774409  
1655.000000	99.769955  
1654.000000	99.766008  
1653.000000	99.761241  
1652.000000	99.758699  
1651.000000	99.757987  
1650.000000	99.758200  
1649.000000	99.758726  
1648.000000	99.754855  
1647.000000	99.746686  
1646.000000	99.740288  
1645.000000	99.739796  
1644.000000	99.743388  
1643.000000	99.748788  
1642.000000	99.753582  
1641.000000	99.756057  
1640.000000	99.756235  
1639.000000	99.755691  
1638.000000	99.755710  
1637.000000	99.755809  
1636.000000	99.753661  
1635.000000	99.750355  
1634.000000	99.749815  
1633.000000	99.751926  
1632.000000	99.755726  
1631.000000	99.759167  
1630.000000	99.759956  
1629.000000	99.757490  
1628.000000	99.753538  
1627.000000	99.751226  
1626.000000	99.753040  
1625.000000	99.759380  
1624.000000	99.767452  
1623.000000	99.772586  
1622.000000	99.773264  
1621.000000	99.772349  
1620.000000	99.772355  
1619.000000	99.773811  
1618.000000	99.775752  
1617.000000	99.776987  
1616.000000	99.777812  
1615.000000	99.778848  
1614.000000	99.779145  
1613.000000	99.778368  
1612.000000	99.777582  
1611.000000	99.777458  
1610.000000	99.777802  
1609.000000	99.778607  
1608.000000	99.780437  
1607.000000	99.783184  
1606.000000	99.785911  
1605.000000	99.788175  
1604.000000	99.790394  
1603.000000	99.793445  
1602.000000	99.797100  
1601.000000	99.800017  
1600.000000	99.801565  
1599.000000	99.802924  
1598.000000	99.806078  
1597.000000	99.811915  
1596.000000	99.819704  
1595.000000	99.827548  
1594.000000	99.833124  
1593.000000	99.834911  
1592.000000	99.833220  
1591.000000	99.830133  
1590.000000	99.828315  
1589.000000	99.829494  
1588.000000	99.833579  
1587.000000	99.838889  
1586.000000	99.842996  
1585.000000	99.844328  
1584.000000	99.842871  
1583.000000	99.840044  
1582.000000	99.838106  
1581.000000	99.838172  
1580.000000	99.839658  
1579.000000	99.841519  
1578.000000	99.843067  
1577.000000	99.842332  
1576.000000	99.838387  
1575.000000	99.835754  
1574.000000	99.838500  
1573.000000	99.844443  
1572.000000	99.849585  
1571.000000	99.851954  
1570.000000	99.852405  
1569.000000	99.853690  
1568.000000	99.855987  
1567.000000	99.857106  
1566.000000	99.857196  
1565.000000	99.857580  
1564.000000	99.857979  
1563.000000	99.857448  
1562.000000	99.856492  
1561.000000	99.857796  
1560.000000	99.860367  
1559.000000	99.857172  
1558.000000	99.854391  
1557.000000	99.857039  
1556.000000	99.858628  
1555.000000	99.858322  
1554.000000	99.855481  
1553.000000	99.850452  
1552.000000	99.845249  
1551.000000	99.844327  
1550.000000	99.849816  
1549.000000	99.857790  
1548.000000	99.861237  
1547.000000	99.857638  
1546.000000	99.851049  
1545.000000	99.847104  
1544.000000	99.848757  
1543.000000	99.854766  
1542.000000	99.861940  
1541.000000	99.865803  
1540.000000	99.862917  
1539.000000	99.857480  
1538.000000	99.854731  
1537.000000	99.854063  
1536.000000	99.854754  
1535.000000	99.854897  
1534.000000	99.854036  
1533.000000	99.853910  
1532.000000	99.854919  
1531.000000	99.854836  
1530.000000	99.852384  
1529.000000	99.848772  
1528.000000	99.846117  
1527.000000	99.846687  
1526.000000	99.851257  
1525.000000	99.856618  
1524.000000	99.858175  
1523.000000	99.855151  
1522.000000	99.851694  
1521.000000	99.854218  
1520.000000	99.861378  
1519.000000	99.864723  
1518.000000	99.861570  
1517.000000	99.855720  
1516.000000	99.852643  
1515.000000	99.852799  
1514.000000	99.852430  
1513.000000	99.849897  
1512.000000	99.846220  
1511.000000	99.843623  
1510.000000	99.843874  
1509.000000	99.848762  
1508.000000	99.860014  
1507.000000	99.874689  
1506.000000	99.883309  
1505.000000	99.879882  
1504.000000	99.869694  
1503.000000	99.861892  
1502.000000	99.858946  
1501.000000	99.860034  
1500.000000	99.863110  
1499.000000	99.865610  
1498.000000	99.866539  
1497.000000	99.867592  
1496.000000	99.871253  
1495.000000	99.875994  
1494.000000	99.877652  
1493.000000	99.874514  
1492.000000	99.867538  
1491.000000	99.859544  
1490.000000	99.854351  
1489.000000	99.853261  
1488.000000	99.853118  
1487.000000	99.850860  
1486.000000	99.847521  
1485.000000	99.846685  
1484.000000	99.849052  
1483.000000	99.851759  
1482.000000	99.851752  
1481.000000	99.848181  
1480.000000	99.842917  
1479.000000	99.838114  
1478.000000	99.835189  
1477.000000	99.834409  
1476.000000	99.834833  
1475.000000	99.834234  
1474.000000	99.831630  
1473.000000	99.829508  
1472.000000	99.830924  
1471.000000	99.833933  
1470.000000	99.833759  
1469.000000	99.830431  
1468.000000	99.827667  
1467.000000	99.828203  
1466.000000	99.831560  
1465.000000	99.834573  
1464.000000	99.834231  
1463.000000	99.830737  
1462.000000	99.826153  
1461.000000	99.821857  
1460.000000	99.817231  
1459.000000	99.810885  
1458.000000	99.803481  
1457.000000	99.799625  
1456.000000	99.801093  
1455.000000	99.801526  
1454.000000	99.798664  
1453.000000	99.794519  
1452.000000	99.789783  
1451.000000	99.785987  
1450.000000	99.784894  
1449.000000	99.787098  
1448.000000	99.791101  
1447.000000	99.793811  
1446.000000	99.793554  
1445.000000	99.791280  
1444.000000	99.788368  
1443.000000	99.785970  
1442.000000	99.784235  
1441.000000	99.782669  
1440.000000	99.780837  
1439.000000	99.779844  
1438.000000	99.781636  
1437.000000	99.786449  
1436.000000	99.790580  
1435.000000	99.789109  
1434.000000	99.783115  
1433.000000	99.777989  
1432.000000	99.776857  
1431.000000	99.778886  
1430.000000	99.781346  
1429.000000	99.782344  
1428.000000	99.781802  
1427.000000	99.779661  
1426.000000	99.776434  
1425.000000	99.773602  
1424.000000	99.772190  
1423.000000	99.771798  
1422.000000	99.770176  
1421.000000	99.765933  
1420.000000	99.760036  
1419.000000	99.755591  
1418.000000	99.753718  
1417.000000	99.750873  
1416.000000	99.745050  
1415.000000	99.737664  
1414.000000	99.729728  
1413.000000	99.720527  
1412.000000	99.709731  
1411.000000	99.699547  
1410.000000	99.692619  
1409.000000	99.689064  
1408.000000	99.687525  
1407.000000	99.686988  
1406.000000	99.687883  
1405.000000	99.692023  
1404.000000	99.700036  
1403.000000	99.709470  
1402.000000	99.716731  
1401.000000	99.720999  
1400.000000	99.724486  
1399.000000	99.728987  
1398.000000	99.731464  
1397.000000	99.725815  
1396.000000	99.710648  
1395.000000	99.693716  
1394.000000	99.687467  
1393.000000	99.696870  
1392.000000	99.716491  
1391.000000	99.738359  
1390.000000	99.756359  
1389.000000	99.767284  
1388.000000	99.770873  
1387.000000	99.768886  
1386.000000	99.763656  
1385.000000	99.757803  
1384.000000	99.754261  
1383.000000	99.754625  
1382.000000	99.757394  
1381.000000	99.759782  
1380.000000	99.761095  
1379.000000	99.762682  
1378.000000	99.765285  
1377.000000	99.768000  
1376.000000	99.770283  
1375.000000	99.773447  
1374.000000	99.779320  
1373.000000	99.787070  
1372.000000	99.793816  
1371.000000	99.798964  
1370.000000	99.805139  
1369.000000	99.814468  
1368.000000	99.825546  
1367.000000	99.834955  
1366.000000	99.840079  
1365.000000	99.840189  
1364.000000	99.836260  
1363.000000	99.831763  
1362.000000	99.831389  
1361.000000	99.836164  
1360.000000	99.842435  
1359.000000	99.846568  
1358.000000	99.848233  
1357.000000	99.849378  
1356.000000	99.851583  
1355.000000	99.855141  
1354.000000	99.859640  
1353.000000	99.863837  
1352.000000	99.865436  
1351.000000	99.862474  
1350.000000	99.856262  
1349.000000	99.851030  
1348.000000	99.849643  
1347.000000	99.851800  
1346.000000	99.855848  
1345.000000	99.860601  
1344.000000	99.864589  
1343.000000	99.865961  
1342.000000	99.864290  
1341.000000	99.861357  
1340.000000	99.859207  
1339.000000	99.858299  
1338.000000	99.858342  
1337.000000	99.859889  
1336.000000	99.863444  
1335.000000	99.867792  
1334.000000	99.871184  
1333.000000	99.873568  
1332.000000	99.875839  
1331.000000	99.877344  
1330.000000	99.876155  
1329.000000	99.871902  
1328.000000	99.866820  
1327.000000	99.863539  
1326.000000	99.862864  
1325.000000	99.863764  
1324.000000	99.864735  
1323.000000	99.865050  
1322.000000	99.864756  
1321.000000	99.864155  
1320.000000	99.863440  
1319.000000	99.862877  
1318.000000	99.862817  
1317.000000	99.863094  
1316.000000	99.862546  
1315.000000	99.859933  
1314.000000	99.855749  
1313.000000	99.852533  
1312.000000	99.852548  
1311.000000	99.855340  
1310.000000	99.858484  
1309.000000	99.860247  
1308.000000	99.860580  
1307.000000	99.859682  
1306.000000	99.857171  
1305.000000	99.853325  
1304.000000	99.850231  
1303.000000	99.850602  
1302.000000	99.855034  
1301.000000	99.860948  
1300.000000	99.864327  
1299.000000	99.862637  
1298.000000	99.856510  
1297.000000	99.849130  
1296.000000	99.843900  
1295.000000	99.842300  
1294.000000	99.843507  
1293.000000	99.845469  
1292.000000	99.846051  
1291.000000	99.843712  
1290.000000	99.838244  
1289.000000	99.831237  
1288.000000	99.824915  
1287.000000	99.819959  
1286.000000	99.815166  
1285.000000	99.809843  
1284.000000	99.805538  
1283.000000	99.804161  
1282.000000	99.804935  
1281.000000	99.804819  
1280.000000	99.801965  
1279.000000	99.797255  
1278.000000	99.792077  
1277.000000	99.786155  
1276.000000	99.778647  
1275.000000	99.770402  
1274.000000	99.763803  
1273.000000	99.760312  
1272.000000	99.758726  
1271.000000	99.755824  
1270.000000	99.748849  
1269.000000	99.738096  
1268.000000	99.727199  
1267.000000	99.719995  
1266.000000	99.716551  
1265.000000	99.713185  
1264.000000	99.706886  
1263.000000	99.698376  
1262.000000	99.690073  
1261.000000	99.682928  
1260.000000	99.676999  
1259.000000	99.673559  
1258.000000	99.673726  
1257.000000	99.675395  
1256.000000	99.674308  
1255.000000	99.668763  
1254.000000	99.661421  
1253.000000	99.655670  
1252.000000	99.651932  
1251.000000	99.648569  
1250.000000	99.644941  
1249.000000	99.642111  
1248.000000	99.641174  
1247.000000	99.641869  
1246.000000	99.642215  
1245.000000	99.638916  
1244.000000	99.629362  
1243.000000	99.614706  
1242.000000	99.600474  
1241.000000	99.592548  
1240.000000	99.592137  
1239.000000	99.595037  
1238.000000	99.595631  
1237.000000	99.591214  
1236.000000	99.582756  
1235.000000	99.572478  
1234.000000	99.561311  
1233.000000	99.548633  
1232.000000	99.534209  
1231.000000	99.519704  
1230.000000	99.507458  
1229.000000	99.497869  
1228.000000	99.489035  
1227.000000	99.479328  
1226.000000	99.469270  
1225.000000	99.459979  
1224.000000	99.450470  
1223.000000	99.437827  
1222.000000	99.420311  
1221.000000	99.399475  
1220.000000	99.378772  
1219.000000	99.360304  
1218.000000	99.343061  
1217.000000	99.324107  
1216.000000	99.301378  
1215.000000	99.275463  
1214.000000	99.248977  
1213.000000	99.224290  
1212.000000	99.201523  
1211.000000	99.178193  
1210.000000	99.150953  
1209.000000	99.118510  
1208.000000	99.083162  
1207.000000	99.048908  
1206.000000	99.017806  
1205.000000	98.988846  
1204.000000	98.960298  
1203.000000	98.931507  
1202.000000	98.901678  
1201.000000	98.868845  
1200.000000	98.832005  
1199.000000	98.793469  
1198.000000	98.757226  
1197.000000	98.725237  
1196.000000	98.696689  
1195.000000	98.670009  
1194.000000	98.643594  
1193.000000	98.614908  
1192.000000	98.581253  
1191.000000	98.542446  
1190.000000	98.501671  
1189.000000	98.463049  
1188.000000	98.428825  
1187.000000	98.398494  
1186.000000	98.369247  
1185.000000	98.337155  
1184.000000	98.299295  
1183.000000	98.255617  
1182.000000	98.208783  
1181.000000	98.162258  
1180.000000	98.118627  
1179.000000	98.078615  
1178.000000	98.040343  
1177.000000	97.999954  
1176.000000	97.954494  
1175.000000	97.904565  
1174.000000	97.853531  
1173.000000	97.804150  
1172.000000	97.756633  
1171.000000	97.709645  
1170.000000	97.662032  
1169.000000	97.613516  
1168.000000	97.564649  
1167.000000	97.516708  
1166.000000	97.471912  
1165.000000	97.434141  
1164.000000	97.409198  
1163.000000	97.402703  
1162.000000	97.416116  
1161.000000	97.444469  
1160.000000	97.477999  
1159.000000	97.506175  
1158.000000	97.521575  
1157.000000	97.521567  
1156.000000	97.506819  
1155.000000	97.478577  
1154.000000	97.438199  
1153.000000	97.389191  
1152.000000	97.337701  
1151.000000	97.289073  
1150.000000	97.244287  
1149.000000	97.201136  
1148.000000	97.158039  
1147.000000	97.114628  
1146.000000	97.069541  
1145.000000	97.020901  
1144.000000	96.969622  
1143.000000	96.919598  
1142.000000	96.873472  
1141.000000	96.830022  
1140.000000	96.786348  
1139.000000	96.740446  
1138.000000	96.691129  
1137.000000	96.638070  
1136.000000	96.583371  
1135.000000	96.530987  
1134.000000	96.482962  
1133.000000	96.437457  
1132.000000	96.391285  
1131.000000	96.342646  
1130.000000	96.290866  
1129.000000	96.235751  
1128.000000	96.178498  
1127.000000	96.121521  
1126.000000	96.066121  
1125.000000	96.011559  
1124.000000	95.956830  
1123.000000	95.901534  
1122.000000	95.844775  
1121.000000	95.785610  
1120.000000	95.725298  
1119.000000	95.666745  
1118.000000	95.610833  
1117.000000	95.555499  
1116.000000	95.499207  
1115.000000	95.443037  
1114.000000	95.388492  
1113.000000	95.335566  
1112.000000	95.283960  
1111.000000	95.234251  
1110.000000	95.187042  
1109.000000	95.142293  
1108.000000	95.099405  
1107.000000	95.056327  
1106.000000	95.009587  
1105.000000	94.957824  
1104.000000	94.904353  
1103.000000	94.853581  
1102.000000	94.806208  
1101.000000	94.760811  
1100.000000	94.718000  
1099.000000	94.678430  
1098.000000	94.638770  
1097.000000	94.595484  
1096.000000	94.551425  
1095.000000	94.512575  
1094.000000	94.478527  
1093.000000	94.442646  
1092.000000	94.401881  
1091.000000	94.359563  
1090.000000	94.317403  
1089.000000	94.271733  
1088.000000	94.220420  
1087.000000	94.167719  
1086.000000	94.119225  
1085.000000	94.076404  
1084.000000	94.038218  
1083.000000	94.003525  
1082.000000	93.969771  
1081.000000	93.933692  
1080.000000	93.895311  
1079.000000	93.857527  
1078.000000	93.820873  
1077.000000	93.783003  
1076.000000	93.743827  
1075.000000	93.705879  
1074.000000	93.668481  
1073.000000	93.626518  
1072.000000	93.575669  
1071.000000	93.513606  
1070.000000	93.436221  
1069.000000	93.340045  
1068.000000	93.230723  
1067.000000	93.122591  
1066.000000	93.026164  
1065.000000	92.940434  
1064.000000	92.859253  
1063.000000	92.778903  
1062.000000	92.696494  
1061.000000	92.607707  
1060.000000	92.511342  
1059.000000	92.412587  
1058.000000	92.318067  
1057.000000	92.229785  
1056.000000	92.144825  
1055.000000	92.057150  
1054.000000	91.959468  
1053.000000	91.849013  
1052.000000	91.732789  
1051.000000	91.621126  
1050.000000	91.514748  
1049.000000	91.405521  
1048.000000	91.290584  
1047.000000	91.176031  
1046.000000	91.064994  
1045.000000	90.952080  
1044.000000	90.832833  
1043.000000	90.710918  
1042.000000	90.592426  
1041.000000	90.479126  
1040.000000	90.370455  
1039.000000	90.266815  
1038.000000	90.168286  
1037.000000	90.075250  
1036.000000	89.991957  
1035.000000	89.923918  
1034.000000	89.870241  
1033.000000	89.823784  
1032.000000	89.779157  
1031.000000	89.735032  
1030.000000	89.690217  
1029.000000	89.645599  
1028.000000	89.609404  
1027.000000	89.591058  
1026.000000	89.588250  
1025.000000	89.588221  
1024.000000	89.582643  
1023.000000	89.572781  
1022.000000	89.559868  
1021.000000	89.540678  
1020.000000	89.515267  
1019.000000	89.489878  
1018.000000	89.468338  
1017.000000	89.447849  
1016.000000	89.426088  
1015.000000	89.405307  
1014.000000	89.386612  
1013.000000	89.366835  
1012.000000	89.343699  
1011.000000	89.318495  
1010.000000	89.292569  
1009.000000	89.267375  
1008.000000	89.248372  
1007.000000	89.241567  
1006.000000	89.245165  
1005.000000	89.251764  
1004.000000	89.259310  
1003.000000	89.272300  
1002.000000	89.291874  
1001.000000	89.313297  
1000.000000	89.334386  
999.000000	 89.357864  
998.000000	 89.383605  
997.000000	 89.406959  
996.000000	 89.427392  
995.000000	 89.451381  
994.000000	 89.483838  
993.000000	 89.522635  
992.000000	 89.563403  
991.000000	 89.603985  
990.000000	 89.643329  
989.000000	 89.682086  
988.000000	 89.724805  
987.000000	 89.775540  
986.000000	 89.831580  
985.000000	 89.888158  
984.000000	 89.948340  
983.000000	 90.020322  
982.000000	 90.105353  
981.000000	 90.196664  
980.000000	 90.290208  
979.000000	 90.387754  
978.000000	 90.489286  
977.000000	 90.591805  
976.000000	 90.696984  
975.000000	 90.810974  
974.000000	 90.934294  
973.000000	 91.059812  
972.000000	 91.182794  
971.000000	 91.305485  
970.000000	 91.430015  
969.000000	 91.554529  
968.000000	 91.678752  
967.000000	 91.805867  
966.000000	 91.935459  
965.000000	 92.060797  
964.000000	 92.176547  
963.000000	 92.284267  
962.000000	 92.387809  
961.000000	 92.488099  
960.000000	 92.584918  
959.000000	 92.679281  
958.000000	 92.771251  
957.000000	 92.858857  
956.000000	 92.941314  
955.000000	 93.020385  
954.000000	 93.097332  
953.000000	 93.171414  
952.000000	 93.241983  
951.000000	 93.308876  
950.000000	 93.370498  
949.000000	 93.425089  
948.000000	 93.474230  
947.000000	 93.521687  
946.000000	 93.568657  
945.000000	 93.613598  
944.000000	 93.656304  
943.000000	 93.697774  
942.000000	 93.736142  
941.000000	 93.767497  
940.000000	 93.791649  
939.000000	 93.813303  
938.000000	 93.836874  
937.000000	 93.863415  
936.000000	 93.892291  
935.000000	 93.921700  
934.000000	 93.947781  
933.000000	 93.968094  
932.000000	 93.986538  
931.000000	 94.010464  
930.000000	 94.042286  
929.000000	 94.077869  
928.000000	 94.112968  
927.000000	 94.146355  
926.000000	 94.176581  
925.000000	 94.201212  
924.000000	 94.220498  
923.000000	 94.236976  
922.000000	 94.250228  
921.000000	 94.256786  
920.000000	 94.256836  
919.000000	 94.256535  
918.000000	 94.261478  
917.000000	 94.271307  
916.000000	 94.282381  
915.000000	 94.292542  
914.000000	 94.302403  
913.000000	 94.315600  
912.000000	 94.338588  
911.000000	 94.376098  
910.000000	 94.425557  
909.000000	 94.479871  
908.000000	 94.536542  
907.000000	 94.599765  
906.000000	 94.672684  
905.000000	 94.752258  
904.000000	 94.833682  
903.000000	 94.916209  
902.000000	 95.002622  
901.000000	 95.095414  
900.000000	 95.194615  
899.000000	 95.297256  
898.000000	 95.398339  
897.000000	 95.494051  
896.000000	 95.583886  
895.000000	 95.668494  
894.000000	 95.747401  
893.000000	 95.821169  
892.000000	 95.893590  
891.000000	 95.968046  
890.000000	 96.042830  
889.000000	 96.113640  
888.000000	 96.179475  
887.000000	 96.241900  
886.000000	 96.299162  
885.000000	 96.346045  
884.000000	 96.381019  
883.000000	 96.410281  
882.000000	 96.442951  
881.000000	 96.484061  
880.000000	 96.533047  
879.000000	 96.586750  
878.000000	 96.642018  
877.000000	 96.695965  
876.000000	 96.744712  
875.000000	 96.783518  
874.000000	 96.811144  
873.000000	 96.834850  
872.000000	 96.867527  
871.000000	 96.916494  
870.000000	 96.975938  
869.000000	 97.032537  
868.000000	 97.077543  
867.000000	 97.112346  
866.000000	 97.144895  
865.000000	 97.183112  
864.000000	 97.229866  
863.000000	 97.281250  
862.000000	 97.329956  
861.000000	 97.371861  
860.000000	 97.408702  
859.000000	 97.444399  
858.000000	 97.481447  
857.000000	 97.521555  
856.000000	 97.565592  
855.000000	 97.609871  
854.000000	 97.645950  
853.000000	 97.668332  
852.000000	 97.680638  
851.000000	 97.690748  
850.000000	 97.701492  
849.000000	 97.709853  
848.000000	 97.714206  
847.000000	 97.717905  
846.000000	 97.724959  
845.000000	 97.735182  
844.000000	 97.744721  
843.000000	 97.749435  
842.000000	 97.746830  
841.000000	 97.736036  
840.000000	 97.717325  
839.000000	 97.692288  
838.000000	 97.664207  
837.000000	 97.636583  
836.000000	 97.609836  
835.000000	 97.581078  
834.000000	 97.550152  
833.000000	 97.524274  
832.000000	 97.511173  
831.000000	 97.507151  
830.000000	 97.499215  
829.000000	 97.483166  
828.000000	 97.472314  
827.000000	 97.480451  
826.000000	 97.501501  
825.000000	 97.516860  
824.000000	 97.520668  
823.000000	 97.525463  
822.000000	 97.541868  
821.000000	 97.564330  
820.000000	 97.579955  
819.000000	 97.582553  
818.000000	 97.575132  
817.000000	 97.564317  
816.000000	 97.554221  
815.000000	 97.541666  
814.000000	 97.515991  
813.000000	 97.466945  
812.000000	 97.393609  
811.000000	 97.302642  
810.000000	 97.197691  
809.000000	 97.074362  
808.000000	 96.926475  
807.000000	 96.753226  
806.000000	 96.558593  
805.000000	 96.347984  
804.000000	 96.129157  
803.000000	 95.914370  
802.000000	 95.718337  
801.000000	 95.554243  
800.000000	 95.431102  
799.000000	 95.350887  
798.000000	 95.307699  
797.000000	 95.294145  
796.000000	 95.308687  
795.000000	 95.352349  
794.000000	 95.419559  
793.000000	 95.497860  
792.000000	 95.575203  
791.000000	 95.641519  
790.000000	 95.685858  
789.000000	 95.701006  
788.000000	 95.691654  
787.000000	 95.670290  
786.000000	 95.642617  
785.000000	 95.602749  
784.000000	 95.544713  
783.000000	 95.472845  
782.000000	 95.398295  
781.000000	 95.330745  
780.000000	 95.276532  
779.000000	 95.239845  
778.000000	 95.222442  
777.000000	 95.225976  
776.000000	 95.255854  
775.000000	 95.317057  
774.000000	 95.403663  
773.000000	 95.498108  
772.000000	 95.584037  
771.000000	 95.656104  
770.000000	 95.715738  
769.000000	 95.762956  
768.000000	 95.796849  
767.000000	 95.821059  
766.000000	 95.843104  
765.000000	 95.867078  
764.000000	 95.888949  
763.000000	 95.900228  
762.000000	 95.896837  
761.000000	 95.884727  
760.000000	 95.875969  
759.000000	 95.878482  
758.000000	 95.890481  
757.000000	 95.905617  
756.000000	 95.920929  
755.000000	 95.937600  
754.000000	 95.956935  
753.000000	 95.979451  
752.000000	 96.006084  
751.000000	 96.036102  
750.000000	 96.064785  
749.000000	 96.087176  
748.000000	 96.104120  
747.000000	 96.122043  
746.000000	 96.147374  
745.000000	 96.182792  
744.000000	 96.226452  
743.000000	 96.271920  
742.000000	 96.311605  
741.000000	 96.344108  
740.000000	 96.376407  
739.000000	 96.415833  
738.000000	 96.462160  
737.000000	 96.510189  
736.000000	 96.556465  
735.000000	 96.599694  
734.000000	 96.638445  
733.000000	 96.673067  
732.000000	 96.706429  
731.000000	 96.737781  
730.000000	 96.759604  
729.000000	 96.766505  
728.000000	 96.764146  
727.000000	 96.763284  
726.000000	 96.767732  
725.000000	 96.775155  
724.000000	 96.787152  
723.000000	 96.809624  
722.000000	 96.842885  
721.000000	 96.878453  
720.000000	 96.906633  
719.000000	 96.922342  
718.000000	 96.924753  
717.000000	 96.918478  
716.000000	 96.915132  
715.000000	 96.925509  
714.000000	 96.947480  
713.000000	 96.967872  
712.000000	 96.978526  
711.000000	 96.984164  
710.000000	 96.992006  
709.000000	 97.000067  
708.000000	 96.999936  
707.000000	 96.987333  
706.000000	 96.965673  
705.000000	 96.940967  
704.000000	 96.915752  
703.000000	 96.886155  
702.000000	 96.843166  
701.000000	 96.778018  
700.000000	 96.686820  
699.000000	 96.571034  
698.000000	 96.437655  
697.000000	 96.302199  
696.000000	 96.187674  
695.000000	 96.113528  
694.000000	 96.086115  
693.000000	 96.103022  
692.000000	 96.160144  
691.000000	 96.246745  
690.000000	 96.339565  
689.000000	 96.415043  
688.000000	 96.468757  
687.000000	 96.513409  
686.000000	 96.557771  
685.000000	 96.598211  
684.000000	 96.629858  
683.000000	 96.653899  
682.000000	 96.673607  
681.000000	 96.693889  
680.000000	 96.723885  
679.000000	 96.767180  
678.000000	 96.808584  
677.000000	 96.825041  
676.000000	 96.815769  
675.000000	 96.807350  
674.000000	 96.820887  
673.000000	 96.848245  
672.000000	 96.869540  
671.000000	 96.880781  
670.000000	 96.892133  
669.000000	 96.908098  
668.000000	 96.912048  
667.000000	 96.890359  
666.000000	 96.875214  
665.000000	 96.892193  
664.000000	 96.926451  
663.000000	 96.955848  
662.000000	 96.971651  
661.000000	 96.983848  
660.000000	 97.005650  
659.000000	 97.031343  
658.000000	 97.036143  
657.000000	 97.003308  
656.000000	 96.946726  
655.000000	 96.898381  
654.000000	 96.873036  
653.000000	 96.854778  
652.000000	 96.823428  
651.000000	 96.783078  
650.000000	 96.757828  

