4000.000000	99.074073 
3999.000000	99.075726 
3998.000000	99.076984 
3997.000000	99.076366 
3996.000000	99.073628 
3995.000000	99.070065 
3994.000000	99.067604 
3993.000000	99.067420 
3992.000000	99.069107 
3991.000000	99.071047 
3990.000000	99.071793 
3989.000000	99.071445 
3988.000000	99.071699 
3987.000000	99.074270 
3986.000000	99.079105 
3985.000000	99.084098 
3984.000000	99.086571 
3983.000000	99.085116 
3982.000000	99.080304 
3981.000000	99.073999 
3980.000000	99.067947 
3979.000000	99.062986 
3978.000000	99.059513 
3977.000000	99.058250 
3976.000000	99.060031 
3975.000000	99.064811 
3974.000000	99.071258 
3973.000000	99.077526 
3972.000000	99.082298 
3971.000000	99.085204 
3970.000000	99.086475 
3969.000000	99.086306 
3968.000000	99.084682 
3967.000000	99.081653 
3966.000000	99.077808 
3965.000000	99.074491 
3964.000000	99.073012 
3963.000000	99.073298 
3962.000000	99.073554 
3961.000000	99.071730 
3960.000000	99.067371 
3959.000000	99.062116 
3958.000000	99.058334 
3957.000000	99.057216 
3956.000000	99.058414 
3955.000000	99.060893 
3954.000000	99.063783 
3953.000000	99.066445 
3952.000000	99.068218 
3951.000000	99.068862 
3950.000000	99.068800 
3949.000000	99.068711 
3948.000000	99.068828 
3947.000000	99.068747 
3946.000000	99.068228 
3945.000000	99.067883 
3944.000000	99.068796 
3943.000000	99.070993 
3942.000000	99.073095 
3941.000000	99.073728 
3940.000000	99.072327 
3939.000000	99.068519 
3938.000000	99.062015 
3937.000000	99.053584 
3936.000000	99.046077 
3935.000000	99.043439 
3934.000000	99.048198 
3933.000000	99.059248 
3932.000000	99.071689 
3931.000000	99.079434 
3930.000000	99.078981 
3929.000000	99.071773 
3928.000000	99.063146 
3927.000000	99.058452 
3926.000000	99.059687 
3925.000000	99.064251 
3924.000000	99.067009 
3923.000000	99.065028 
3922.000000	99.059696 
3921.000000	99.054843 
3920.000000	99.053473 
3919.000000	99.056174 
3918.000000	99.061736 
3917.000000	99.068265 
3916.000000	99.073982 
3915.000000	99.077941 
3914.000000	99.080523 
3913.000000	99.082819 
3912.000000	99.085181 
3911.000000	99.087077 
3910.000000	99.088236 
3909.000000	99.089208 
3908.000000	99.090681 
3907.000000	99.091738 
3906.000000	99.089380 
3905.000000	99.080332 
3904.000000	99.064020 
3903.000000	99.045074 
3902.000000	99.031592 
3901.000000	99.029356 
3900.000000	99.038002 
3899.000000	99.051685 
3898.000000	99.063904 
3897.000000	99.071799 
3896.000000	99.075598 
3895.000000	99.076305 
3894.000000	99.074857 
3893.000000	99.071928 
3892.000000	99.067652 
3891.000000	99.061484 
3890.000000	99.053844 
3889.000000	99.046751 
3888.000000	99.042816 
3887.000000	99.044206 
3886.000000	99.050142 
3885.000000	99.055724 
3884.000000	99.056575 
3883.000000	99.053896 
3882.000000	99.053074 
3881.000000	99.057484 
3880.000000	99.064169 
3879.000000	99.067072 
3878.000000	99.064908 
3877.000000	99.062334 
3876.000000	99.064912 
3875.000000	99.072835 
3874.000000	99.079275 
3873.000000	99.077001 
3872.000000	99.066814 
3871.000000	99.057046 
3870.000000	99.054108 
3869.000000	99.056211 
3868.000000	99.058009 
3867.000000	99.057625 
3866.000000	99.057763 
3865.000000	99.061231 
3864.000000	99.065828 
3863.000000	99.067089 
3862.000000	99.064339 
3861.000000	99.061538 
3860.000000	99.062971 
3859.000000	99.069230 
3858.000000	99.076743 
3857.000000	99.080951 
3856.000000	99.079833 
3855.000000	99.076404 
3854.000000	99.074501 
3853.000000	99.072898 
3852.000000	99.070227 
3851.000000	99.068950 
3850.000000	99.069824 
3849.000000	99.071639 
3848.000000	99.072573 
3847.000000	99.071423 
3846.000000	99.068610 
3845.000000	99.065971 
3844.000000	99.065741 
3843.000000	99.069255 
3842.000000	99.074768 
3841.000000	99.078268 
3840.000000	99.077384 
3839.000000	99.073448 
3838.000000	99.069755 
3837.000000	99.068228 
3836.000000	99.068286 
3835.000000	99.069109 
3834.000000	99.071009 
3833.000000	99.074957 
3832.000000	99.080686 
3831.000000	99.085725 
3830.000000	99.087760 
3829.000000	99.087045 
3828.000000	99.085810 
3827.000000	99.085924 
3826.000000	99.086837 
3825.000000	99.086177 
3824.000000	99.082702 
3823.000000	99.078877 
3822.000000	99.078397 
3821.000000	99.080131 
3820.000000	99.079418 
3819.000000	99.076036 
3818.000000	99.074289 
3817.000000	99.077927 
3816.000000	99.085053 
3815.000000	99.088483 
3814.000000	99.084123 
3813.000000	99.075603 
3812.000000	99.069739 
3811.000000	99.070226 
3810.000000	99.075458 
3809.000000	99.081429 
3808.000000	99.085642 
3807.000000	99.087485 
3806.000000	99.086231 
3805.000000	99.081582 
3804.000000	99.075508 
3803.000000	99.072678 
3802.000000	99.075943 
3801.000000	99.080781 
3800.000000	99.081015 
3799.000000	99.077152 
3798.000000	99.074161 
3797.000000	99.075453 
3796.000000	99.079425 
3795.000000	99.081613 
3794.000000	99.079809 
3793.000000	99.075821 
3792.000000	99.072818 
3791.000000	99.072332 
3790.000000	99.073672 
3789.000000	99.075454 
3788.000000	99.077080 
3787.000000	99.078528 
3786.000000	99.079559 
3785.000000	99.079597 
3784.000000	99.078437 
3783.000000	99.076882 
3782.000000	99.076736 
3781.000000	99.079773 
3780.000000	99.085636 
3779.000000	99.090954 
3778.000000	99.092104 
3777.000000	99.088572 
3776.000000	99.082710 
3775.000000	99.077465 
3774.000000	99.074313 
3773.000000	99.072945 
3772.000000	99.072676 
3771.000000	99.073319 
3770.000000	99.073991 
3769.000000	99.073153 
3768.000000	99.071191 
3767.000000	99.070136 
3766.000000	99.070810 
3765.000000	99.071581 
3764.000000	99.070199 
3763.000000	99.066604 
3762.000000	99.063405 
3761.000000	99.063507 
3760.000000	99.066745 
3759.000000	99.069844 
3758.000000	99.070650 
3757.000000	99.070261 
3756.000000	99.070230 
3755.000000	99.070377 
3754.000000	99.069761 
3753.000000	99.068655 
3752.000000	99.068386 
3751.000000	99.068748 
3750.000000	99.068553 
3749.000000	99.068775 
3748.000000	99.071058 
3747.000000	99.074912 
3746.000000	99.079141 
3745.000000	99.082368 
3744.000000	99.082020 
3743.000000	99.077658 
3742.000000	99.071615 
3741.000000	99.064933 
3740.000000	99.057189 
3739.000000	99.048024 
3738.000000	99.039823 
3737.000000	99.038193 
3736.000000	99.046521 
3735.000000	99.060281 
3734.000000	99.070368 
3733.000000	99.072762 
3732.000000	99.070289 
3731.000000	99.066510 
3730.000000	99.061886 
3729.000000	99.055401 
3728.000000	99.048499 
3727.000000	99.044723 
3726.000000	99.045379 
3725.000000	99.048378 
3724.000000	99.051797 
3723.000000	99.056095 
3722.000000	99.061513 
3721.000000	99.066729 
3720.000000	99.069544 
3719.000000	99.067898 
3718.000000	99.061425 
3717.000000	99.051500 
3716.000000	99.040114 
3715.000000	99.028484 
3714.000000	99.016886 
3713.000000	99.006409 
3712.000000	98.999134 
3711.000000	98.996419 
3710.000000	98.996748 
3709.000000	98.996080 
3708.000000	98.991409 
3707.000000	98.982973 
3706.000000	98.973856 
3705.000000	98.967881 
3704.000000	98.966967 
3703.000000	98.969046 
3702.000000	98.967932 
3701.000000	98.958029 
3700.000000	98.939722 
3699.000000	98.918524 
3698.000000	98.900297 
3697.000000	98.887986 
3696.000000	98.880851 
3695.000000	98.876370 
3694.000000	98.873333 
3693.000000	98.872617 
3692.000000	98.874893 
3691.000000	98.878730 
3690.000000	98.880580 
3689.000000	98.877181 
3688.000000	98.868868 
3687.000000	98.858993 
3686.000000	98.850206 
3685.000000	98.843897 
3684.000000	98.840939 
3683.000000	98.840940 
3682.000000	98.841506 
3681.000000	98.839021 
3680.000000	98.830555 
3679.000000	98.815176 
3678.000000	98.795627 
3677.000000	98.780396 
3676.000000	98.777488 
3675.000000	98.781474 
3674.000000	98.779322 
3673.000000	98.766821 
3672.000000	98.749877 
3671.000000	98.739194 
3670.000000	98.739256 
3669.000000	98.742638 
3668.000000	98.741629 
3667.000000	98.736885 
3666.000000	98.732346 
3665.000000	98.729291 
3664.000000	98.725696 
3663.000000	98.719254 
3662.000000	98.709793 
3661.000000	98.698263 
3660.000000	98.685330 
3659.000000	98.672207 
3658.000000	98.661978 
3657.000000	98.657441 
3656.000000	98.656642 
3655.000000	98.654127 
3654.000000	98.646628 
3653.000000	98.634897 
3652.000000	98.621328 
3651.000000	98.608013 
3650.000000	98.596087 
3649.000000	98.586961 
3648.000000	98.582673 
3647.000000	98.582923 
3646.000000	98.584685 
3645.000000	98.585689 
3644.000000	98.586343 
3643.000000	98.588112 
3642.000000	98.591778 
3641.000000	98.596187 
3640.000000	98.599134 
3639.000000	98.598744 
3638.000000	98.594179 
3637.000000	98.586000 
3636.000000	98.575889 
3635.000000	98.565654 
3634.000000	98.555533 
3633.000000	98.544077 
3632.000000	98.530455 
3631.000000	98.516991 
3630.000000	98.508758 
3629.000000	98.506509 
3628.000000	98.503073 
3627.000000	98.494747 
3626.000000	98.486021 
3625.000000	98.482186 
3624.000000	98.484671 
3623.000000	98.491623 
3622.000000	98.500852 
3621.000000	98.512256 
3620.000000	98.525255 
3619.000000	98.535160 
3618.000000	98.537290 
3617.000000	98.534171 
3616.000000	98.533571 
3615.000000	98.541109 
3614.000000	98.554676 
3613.000000	98.566058 
3612.000000	98.569682 
3611.000000	98.568576 
3610.000000	98.570377 
3609.000000	98.579488 
3608.000000	98.592960 
3607.000000	98.604777 
3606.000000	98.613122 
3605.000000	98.620554 
3604.000000	98.629585 
3603.000000	98.640386 
3602.000000	98.651714 
3601.000000	98.662872 
3600.000000	98.672900 
3599.000000	98.679530 
3598.000000	98.680843 
3597.000000	98.677653 
3596.000000	98.673467 
3595.000000	98.672500 
3594.000000	98.676054 
3593.000000	98.681781 
3592.000000	98.686355 
3591.000000	98.688054 
3590.000000	98.688157 
3589.000000	98.689979 
3588.000000	98.694690 
3587.000000	98.698026 
3586.000000	98.695898 
3585.000000	98.690663 
3584.000000	98.688524 
3583.000000	98.692443 
3582.000000	98.699774 
3581.000000	98.705265 
3580.000000	98.705800 
3579.000000	98.702312 
3578.000000	98.697558 
3577.000000	98.693545 
3576.000000	98.690690 
3575.000000	98.688710 
3574.000000	98.687162 
3573.000000	98.685326 
3572.000000	98.682688 
3571.000000	98.679406 
3570.000000	98.675972 
3569.000000	98.673050 
3568.000000	98.671280 
3567.000000	98.670073 
3566.000000	98.667981 
3565.000000	98.665149 
3564.000000	98.663527 
3563.000000	98.664932 
3562.000000	98.669553 
3561.000000	98.675634 
3560.000000	98.680610 
3559.000000	98.682511 
3558.000000	98.680923 
3557.000000	98.676923 
3556.000000	98.672521 
3555.000000	98.669708 
3554.000000	98.669461 
3553.000000	98.670575 
3552.000000	98.670133 
3551.000000	98.666035 
3550.000000	98.658914 
3549.000000	98.651438 
3548.000000	98.646515 
3547.000000	98.645448 
3546.000000	98.647261 
3545.000000	98.649268 
3544.000000	98.649249 
3543.000000	98.647403 
3542.000000	98.646165 
3541.000000	98.647669 
3540.000000	98.651581 
3539.000000	98.655143 
3538.000000	98.655768 
3537.000000	98.653482 
3536.000000	98.650735 
3535.000000	98.649979 
3534.000000	98.651416 
3533.000000	98.653537 
3532.000000	98.655090 
3531.000000	98.656204 
3530.000000	98.657227 
3529.000000	98.657093 
3528.000000	98.653889 
3527.000000	98.647450 
3526.000000	98.640591 
3525.000000	98.636954 
3524.000000	98.637729 
3523.000000	98.640826 
3522.000000	98.643397 
3521.000000	98.644276 
3520.000000	98.644087 
3519.000000	98.643869 
3518.000000	98.644438 
3517.000000	98.646286 
3516.000000	98.648965 
3515.000000	98.650761 
3514.000000	98.649586 
3513.000000	98.644908 
3512.000000	98.638554 
3511.000000	98.633359 
3510.000000	98.630740 
3509.000000	98.629923 
3508.000000	98.629560 
3507.000000	98.629664 
3506.000000	98.631484 
3505.000000	98.635281 
3504.000000	98.638778 
3503.000000	98.638943 
3502.000000	98.636004 
3501.000000	98.634383 
3500.000000	98.638142 
3499.000000	98.645904 
3498.000000	98.651300 
3497.000000	98.648873 
3496.000000	98.639226 
3495.000000	98.628126 
3494.000000	98.621300 
3493.000000	98.620495 
3492.000000	98.623767 
3491.000000	98.628011 
3490.000000	98.631007 
3489.000000	98.632085 
3488.000000	98.631591 
3487.000000	98.629935 
3486.000000	98.627301 
3485.000000	98.624138 
3484.000000	98.621222 
3483.000000	98.618904 
3482.000000	98.616637 
3481.000000	98.613955 
3480.000000	98.611617 
3479.000000	98.610813 
3478.000000	98.611263 
3477.000000	98.611239 
3476.000000	98.610014 
3475.000000	98.609505 
3474.000000	98.612281 
3473.000000	98.617894 
3472.000000	98.622355 
3471.000000	98.622117 
3470.000000	98.618040 
3469.000000	98.614424 
3468.000000	98.614232 
3467.000000	98.616130 
3466.000000	98.616729 
3465.000000	98.614633 
3464.000000	98.611167 
3463.000000	98.607788 
3462.000000	98.604410 
3461.000000	98.600790 
3460.000000	98.598076 
3459.000000	98.597751 
3458.000000	98.599434 
3457.000000	98.600703 
3456.000000	98.599357 
3455.000000	98.595488 
3454.000000	98.591093 
3453.000000	98.588154 
3452.000000	98.587019 
3451.000000	98.586585 
3450.000000	98.585724 
3449.000000	98.584423 
3448.000000	98.583307 
3447.000000	98.582261 
3446.000000	98.580176 
3445.000000	98.576528 
3444.000000	98.572570 
3443.000000	98.570144 
3442.000000	98.569504 
3441.000000	98.568951 
3440.000000	98.566912 
3439.000000	98.563713 
3438.000000	98.560797 
3437.000000	98.558685 
3436.000000	98.556546 
3435.000000	98.553862 
3434.000000	98.551691 
3433.000000	98.551968 
3432.000000	98.555434 
3431.000000	98.560721 
3430.000000	98.565512 
3429.000000	98.568462 
3428.000000	98.569749 
3427.000000	98.569666 
3426.000000	98.567314 
3425.000000	98.561490 
3424.000000	98.552874 
3423.000000	98.544433 
3422.000000	98.538950 
3421.000000	98.536628 
3420.000000	98.535900 
3419.000000	98.536054 
3418.000000	98.537806 
3417.000000	98.541329 
3416.000000	98.544986 
3415.000000	98.546579 
3414.000000	98.545280 
3413.000000	98.541993 
3412.000000	98.538417 
3411.000000	98.536187 
3410.000000	98.536135 
3409.000000	98.537462 
3408.000000	98.537772 
3407.000000	98.534864 
3406.000000	98.529006 
3405.000000	98.523133 
3404.000000	98.520494 
3403.000000	98.521986 
3402.000000	98.525672 
3401.000000	98.528953 
3400.000000	98.531102 
3399.000000	98.533593 
3398.000000	98.537831 
3397.000000	98.542821 
3396.000000	98.545617 
3395.000000	98.544227 
3394.000000	98.539533 
3393.000000	98.534076 
3392.000000	98.529528 
3391.000000	98.526061 
3390.000000	98.523992 
3389.000000	98.524760 
3388.000000	98.529498 
3387.000000	98.537243 
3386.000000	98.545449 
3385.000000	98.552256 
3384.000000	98.557374 
3383.000000	98.560585 
3382.000000	98.560399 
3381.000000	98.555414 
3380.000000	98.546877 
3379.000000	98.538995 
3378.000000	98.535868 
3377.000000	98.538094 
3376.000000	98.542598 
3375.000000	98.545700 
3374.000000	98.546166 
3373.000000	98.545503 
3372.000000	98.545876 
3371.000000	98.548036 
3370.000000	98.550939 
3369.000000	98.552840 
3368.000000	98.552798 
3367.000000	98.551546 
3366.000000	98.551014 
3365.000000	98.552529 
3364.000000	98.555257 
3363.000000	98.556849 
3362.000000	98.555950 
3361.000000	98.553650 
3360.000000	98.551992 
3359.000000	98.551533 
3358.000000	98.551227 
3357.000000	98.550606 
3356.000000	98.550915 
3355.000000	98.553399 
3354.000000	98.557112 
3353.000000	98.559414 
3352.000000	98.558647 
3351.000000	98.555917 
3350.000000	98.554152 
3349.000000	98.555602 
3348.000000	98.560189 
3347.000000	98.565762 
3346.000000	98.569785 
3345.000000	98.571108 
3344.000000	98.570484 
3343.000000	98.569555 
3342.000000	98.569127 
3341.000000	98.568426 
3340.000000	98.566112 
3339.000000	98.562123 
3338.000000	98.558414 
3337.000000	98.557538 
3336.000000	98.560374 
3335.000000	98.565436 
3334.000000	98.570555 
3333.000000	98.574879 
3332.000000	98.578886 
3331.000000	98.582795 
3330.000000	98.585671 
3329.000000	98.586355 
3328.000000	98.584899 
3327.000000	98.582718 
3326.000000	98.581349 
3325.000000	98.581203 
3324.000000	98.581460 
3323.000000	98.581249 
3322.000000	98.580839 
3321.000000	98.581391 
3320.000000	98.583439 
3319.000000	98.586121 
3318.000000	98.588356 
3317.000000	98.590190 
3316.000000	98.592096 
3315.000000	98.593506 
3314.000000	98.593516 
3313.000000	98.593127 
3312.000000	98.594997 
3311.000000	98.599979 
3310.000000	98.605143 
3309.000000	98.606687 
3308.000000	98.604178 
3307.000000	98.600618 
3306.000000	98.598843 
3305.000000	98.599375 
3304.000000	98.601623 
3303.000000	98.605298 
3302.000000	98.609806 
3301.000000	98.613397 
3300.000000	98.614106 
3299.000000	98.611586 
3298.000000	98.607652 
3297.000000	98.605132 
3296.000000	98.605908 
3295.000000	98.609478 
3294.000000	98.613356 
3293.000000	98.615415 
3292.000000	98.615995 
3291.000000	98.617072 
3290.000000	98.619325 
3289.000000	98.621105 
3288.000000	98.620745 
3287.000000	98.618892 
3286.000000	98.617601 
3285.000000	98.617656 
3284.000000	98.617942 
3283.000000	98.617431 
3282.000000	98.616827 
3281.000000	98.617750 
3280.000000	98.620767 
3279.000000	98.624659 
3278.000000	98.627447 
3277.000000	98.627860 
3276.000000	98.625867 
3275.000000	98.622261 
3274.000000	98.618190 
3273.000000	98.615097 
3272.000000	98.614470 
3271.000000	98.616920 
3270.000000	98.621386 
3269.000000	98.625642 
3268.000000	98.627787 
3267.000000	98.627165 
3266.000000	98.624226 
3265.000000	98.620278 
3264.000000	98.617476 
3263.000000	98.618213 
3262.000000	98.623695 
3261.000000	98.632864 
3260.000000	98.642802 
3259.000000	98.650155 
3258.000000	98.652644 
3257.000000	98.650120 
3256.000000	98.644567 
3255.000000	98.638633 
3254.000000	98.633849 
3253.000000	98.630507 
3252.000000	98.629010 
3251.000000	98.630328 
3250.000000	98.634601 
3249.000000	98.640223 
3248.000000	98.645197 
3247.000000	98.648885 
3246.000000	98.651612 
3245.000000	98.653091 
3244.000000	98.652493 
3243.000000	98.650118 
3242.000000	98.647816 
3241.000000	98.647243 
3240.000000	98.648507 
3239.000000	98.651035 
3238.000000	98.655153 
3237.000000	98.661836 
3236.000000	98.670813 
3235.000000	98.679560 
3234.000000	98.684767 
3233.000000	98.685011 
3232.000000	98.681862 
3231.000000	98.678339 
3230.000000	98.676335 
3229.000000	98.675602 
3228.000000	98.674877 
3227.000000	98.673308 
3226.000000	98.670723 
3225.000000	98.667398 
3224.000000	98.664288 
3223.000000	98.663075 
3222.000000	98.665017 
3221.000000	98.669474 
3220.000000	98.674099 
3219.000000	98.676794 
3218.000000	98.677448 
3217.000000	98.677835 
3216.000000	98.680133 
3215.000000	98.685289 
3214.000000	98.692096 
3213.000000	98.697656 
3212.000000	98.699236 
3211.000000	98.696180 
3210.000000	98.690188 
3209.000000	98.683932 
3208.000000	98.679589 
3207.000000	98.678269 
3206.000000	98.679948 
3205.000000	98.683588 
3204.000000	98.687834 
3203.000000	98.691966 
3202.000000	98.695959 
3201.000000	98.699632 
3200.000000	98.702417 
3199.000000	98.704215 
3198.000000	98.705746 
3197.000000	98.707418 
3196.000000	98.708474 
3195.000000	98.708062 
3194.000000	98.706736 
3193.000000	98.705906 
3192.000000	98.705837 
3191.000000	98.705187 
3190.000000	98.702858 
3189.000000	98.699651 
3188.000000	98.697669 
3187.000000	98.698484 
3186.000000	98.702120 
3185.000000	98.707174 
3184.000000	98.711549 
3183.000000	98.713614 
3182.000000	98.713567 
3181.000000	98.713714 
3180.000000	98.716792 
3179.000000	98.723469 
3178.000000	98.731381 
3177.000000	98.736828 
3176.000000	98.737774 
3175.000000	98.735543 
3174.000000	98.733568 
3173.000000	98.734113 
3172.000000	98.736102 
3171.000000	98.736636 
3170.000000	98.734803 
3169.000000	98.733265 
3168.000000	98.735292 
3167.000000	98.740602 
3166.000000	98.745197 
3165.000000	98.745479 
3164.000000	98.741835 
3163.000000	98.737802 
3162.000000	98.736436 
3161.000000	98.738068 
3160.000000	98.741058 
3159.000000	98.743608 
3158.000000	98.744661 
3157.000000	98.743955 
3156.000000	98.742082 
3155.000000	98.740314 
3154.000000	98.739591 
3153.000000	98.739388 
3152.000000	98.738072 
3151.000000	98.734893 
3150.000000	98.731384 
3149.000000	98.730212 
3148.000000	98.732533 
3147.000000	98.736895 
3146.000000	98.740935 
3145.000000	98.743748 
3144.000000	98.746228 
3143.000000	98.749399 
3142.000000	98.753073 
3141.000000	98.756254 
3140.000000	98.758281 
3139.000000	98.759233 
3138.000000	98.759519 
3137.000000	98.759600 
3136.000000	98.760069 
3135.000000	98.761500 
3134.000000	98.763854 
3133.000000	98.766177 
3132.000000	98.767211 
3131.000000	98.766544 
3130.000000	98.765170 
3129.000000	98.764876 
3128.000000	98.766969 
3127.000000	98.771376 
3126.000000	98.776650 
3125.000000	98.780710 
3124.000000	98.781909 
3123.000000	98.779973 
3122.000000	98.776239 
3121.000000	98.772827 
3120.000000	98.771319 
3119.000000	98.771989 
3118.000000	98.774018 
3117.000000	98.776296 
3116.000000	98.778225 
3115.000000	98.780101 
3114.000000	98.782654 
3113.000000	98.785904 
3112.000000	98.788572 
3111.000000	98.789220 
3110.000000	98.788048 
3109.000000	98.786960 
3108.000000	98.787422 
3107.000000	98.788710 
3106.000000	98.788772 
3105.000000	98.786669 
3104.000000	98.783816 
3103.000000	98.782859 
3102.000000	98.785621 
3101.000000	98.791748 
3100.000000	98.798949 
3099.000000	98.804564 
3098.000000	98.807283 
3097.000000	98.807644 
3096.000000	98.807079 
3095.000000	98.806666 
3094.000000	98.806688 
3093.000000	98.806843 
3092.000000	98.806479 
3091.000000	98.805110 
3090.000000	98.803185 
3089.000000	98.802030 
3088.000000	98.802357 
3087.000000	98.803098 
3086.000000	98.802514 
3085.000000	98.800379 
3084.000000	98.798171 
3083.000000	98.796945 
3082.000000	98.796076 
3081.000000	98.794631 
3080.000000	98.793197 
3079.000000	98.793493 
3078.000000	98.796567 
3077.000000	98.802041 
3076.000000	98.808760 
3075.000000	98.815376 
3074.000000	98.820413 
3073.000000	98.822695 
3072.000000	98.822033 
3071.000000	98.819184 
3070.000000	98.815029 
3069.000000	98.810153 
3068.000000	98.805326 
3067.000000	98.801948 
3066.000000	98.801663 
3065.000000	98.805394 
3064.000000	98.812404 
3063.000000	98.819971 
3062.000000	98.824432 
3061.000000	98.823527 
3060.000000	98.818303 
3059.000000	98.812417 
3058.000000	98.809298 
3057.000000	98.810080 
3056.000000	98.813897 
3055.000000	98.819209 
3054.000000	98.824273 
3053.000000	98.827120 
3052.000000	98.826310 
3051.000000	98.822134 
3050.000000	98.816776 
3049.000000	98.812988 
3048.000000	98.812302 
3047.000000	98.813966 
3046.000000	98.815245 
3045.000000	98.813233 
3044.000000	98.807318 
3043.000000	98.800092 
3042.000000	98.795316 
3041.000000	98.794574 
3040.000000	98.796043 
3039.000000	98.796515 
3038.000000	98.794165 
3037.000000	98.789254 
3036.000000	98.782890 
3035.000000	98.775991 
3034.000000	98.769328 
3033.000000	98.763581 
3032.000000	98.758715 
3031.000000	98.753651 
3030.000000	98.747220 
3029.000000	98.739602 
3028.000000	98.732508 
3027.000000	98.727720 
3026.000000	98.725235 
3025.000000	98.722639 
3024.000000	98.716531 
3023.000000	98.705173 
3022.000000	98.690097 
3021.000000	98.674675 
3020.000000	98.660819 
3019.000000	98.647455 
3018.000000	98.632725 
3017.000000	98.616950 
3016.000000	98.602344 
3015.000000	98.589955 
3014.000000	98.578401 
3013.000000	98.566156 
3012.000000	98.553858 
3011.000000	98.543159 
3010.000000	98.533929 
3009.000000	98.523960 
3008.000000	98.511471 
3007.000000	98.496935 
3006.000000	98.482134 
3005.000000	98.468036 
3004.000000	98.454009 
3003.000000	98.438838 
3002.000000	98.422266 
3001.000000	98.405638 
3000.000000	98.391024 
2999.000000	98.379530 
2998.000000	98.370639 
2997.000000	98.363332 
2996.000000	98.357262 
2995.000000	98.351735 
2994.000000	98.343571 
2993.000000	98.327567 
2992.000000	98.300736 
2991.000000	98.266465 
2990.000000	98.233940 
2989.000000	98.212828 
2988.000000	98.207618 
2987.000000	98.215914 
2986.000000	98.230983 
2985.000000	98.245847 
2984.000000	98.255942 
2983.000000	98.259653 
2982.000000	98.257688 
2981.000000	98.252471 
2980.000000	98.247370 
2979.000000	98.245198 
2978.000000	98.246451 
2977.000000	98.248855 
2976.000000	98.248990 
2975.000000	98.244853 
2974.000000	98.237317 
2973.000000	98.229498 
2972.000000	98.224714 
2971.000000	98.224628 
2970.000000	98.228777 
2969.000000	98.235461 
2968.000000	98.243033 
2967.000000	98.250672 
2966.000000	98.258401 
2965.000000	98.266619 
2964.000000	98.275440 
2963.000000	98.284290 
2962.000000	98.292236 
2961.000000	98.298942 
2960.000000	98.305166 
2959.000000	98.312118 
2958.000000	98.320268 
2957.000000	98.328886 
2956.000000	98.336743 
2955.000000	98.343348 
2954.000000	98.349712 
2953.000000	98.357769 
2952.000000	98.368618 
2951.000000	98.381112 
2950.000000	98.392532 
2949.000000	98.400796 
2948.000000	98.405597 
2947.000000	98.407498 
2946.000000	98.407022 
2945.000000	98.405373 
2944.000000	98.405002 
2943.000000	98.407738 
2942.000000	98.412203 
2941.000000	98.414449 
2940.000000	98.411894 
2939.000000	98.406191 
2938.000000	98.401669 
2937.000000	98.401258 
2936.000000	98.404115 
2935.000000	98.406791 
2934.000000	98.406365 
2933.000000	98.402524 
2932.000000	98.396896 
2931.000000	98.390576 
2930.000000	98.382970 
2929.000000	98.373450 
2928.000000	98.363295 
2927.000000	98.354649 
2926.000000	98.347845 
2925.000000	98.341267 
2924.000000	98.334147 
2923.000000	98.327863 
2922.000000	98.323643 
2921.000000	98.320402 
2920.000000	98.316326 
2919.000000	98.311753 
2918.000000	98.309028 
2917.000000	98.309603 
2916.000000	98.312453 
2915.000000	98.315372 
2914.000000	98.317045 
2913.000000	98.317811 
2912.000000	98.319222 
2911.000000	98.322873 
2910.000000	98.328893 
2909.000000	98.335348 
2908.000000	98.339642 
2907.000000	98.340644 
2906.000000	98.338796 
2905.000000	98.334236 
2904.000000	98.326044 
2903.000000	98.314462 
2902.000000	98.303489 
2901.000000	98.300248 
2900.000000	98.309496 
2899.000000	98.329454 
2898.000000	98.352140 
2897.000000	98.368846 
2896.000000	98.376217 
2895.000000	98.377844 
2894.000000	98.380416 
2893.000000	98.388069 
2892.000000	98.399937 
2891.000000	98.412003 
2890.000000	98.420637 
2889.000000	98.424603 
2888.000000	98.424957 
2887.000000	98.424027 
2886.000000	98.424405 
2885.000000	98.427847 
2884.000000	98.434451 
2883.000000	98.442987 
2882.000000	98.452430 
2881.000000	98.462997 
2880.000000	98.475303 
2879.000000	98.488699 
2878.000000	98.501228 
2877.000000	98.511491 
2876.000000	98.519902 
2875.000000	98.527674 
2874.000000	98.535163 
2873.000000	98.541886 
2872.000000	98.547693 
2871.000000	98.552923 
2870.000000	98.557591 
2869.000000	98.561546 
2868.000000	98.565664 
2867.000000	98.571728 
2866.000000	98.580395 
2865.000000	98.589999 
2864.000000	98.598180 
2863.000000	98.604235 
2862.000000	98.609089 
2861.000000	98.613447 
2860.000000	98.617172 
2859.000000	98.620521 
2858.000000	98.624713 
2857.000000	98.630449 
2856.000000	98.636409 
2855.000000	98.640185 
2854.000000	98.640878 
2853.000000	98.640364 
2852.000000	98.641838 
2851.000000	98.647422 
2850.000000	98.657406 
2849.000000	98.671099 
2848.000000	98.687406 
2847.000000	98.704526 
2846.000000	98.720220 
2845.000000	98.733197 
2844.000000	98.743805 
2843.000000	98.752744 
2842.000000	98.759811 
2841.000000	98.764937 
2840.000000	98.769866 
2839.000000	98.777164 
2838.000000	98.787248 
2837.000000	98.797594 
2836.000000	98.805401 
2835.000000	98.810113 
2834.000000	98.812925 
2833.000000	98.815008 
2832.000000	98.816948 
2831.000000	98.818882 
2830.000000	98.820114 
2829.000000	98.819426 
2828.000000	98.816967 
2827.000000	98.815304 
2826.000000	98.817334 
2825.000000	98.823151 
2824.000000	98.829953 
2823.000000	98.834935 
2822.000000	98.837434 
2821.000000	98.838491 
2820.000000	98.839451 
2819.000000	98.841186 
2818.000000	98.843658 
2817.000000	98.845865 
2816.000000	98.846839 
2815.000000	98.846943 
2814.000000	98.847480 
2813.000000	98.848923 
2812.000000	98.850424 
2811.000000	98.851480 
2810.000000	98.853163 
2809.000000	98.856816 
2808.000000	98.861955 
2807.000000	98.866295 
2806.000000	98.867874 
2805.000000	98.866660 
2804.000000	98.864201 
2803.000000	98.862268 
2802.000000	98.861959 
2801.000000	98.863598 
2800.000000	98.866854 
2799.000000	98.870718 
2798.000000	98.873577 
2797.000000	98.873866 
2796.000000	98.871317 
2795.000000	98.867675 
2794.000000	98.865712 
2793.000000	98.866945 
2792.000000	98.870257 
2791.000000	98.872940 
2790.000000	98.873283 
2789.000000	98.872129 
2788.000000	98.871954 
2787.000000	98.874462 
2786.000000	98.878973 
2785.000000	98.882939 
2784.000000	98.884030 
2783.000000	98.881935 
2782.000000	98.878520 
2781.000000	98.876329 
2780.000000	98.876684 
2779.000000	98.878893 
2778.000000	98.881229 
2777.000000	98.882788 
2776.000000	98.884297 
2775.000000	98.886927 
2774.000000	98.890549 
2773.000000	98.893732 
2772.000000	98.895516 
2771.000000	98.896507 
2770.000000	98.897774 
2769.000000	98.899247 
2768.000000	98.900022 
2767.000000	98.900017 
2766.000000	98.900242 
2765.000000	98.900999 
2764.000000	98.900685 
2763.000000	98.897385 
2762.000000	98.891604 
2761.000000	98.886492 
2760.000000	98.884881 
2759.000000	98.886576 
2758.000000	98.889175 
2757.000000	98.891247 
2756.000000	98.893675 
2755.000000	98.897489 
2754.000000	98.901335 
2753.000000	98.902340 
2752.000000	98.899590 
2751.000000	98.895788 
2750.000000	98.894859 
2749.000000	98.898221 
2748.000000	98.903752 
2747.000000	98.908101 
2746.000000	98.909520 
2745.000000	98.908600 
2744.000000	98.906940 
2743.000000	98.905568 
2742.000000	98.904631 
2741.000000	98.904082 
2740.000000	98.904039 
2739.000000	98.904331 
2738.000000	98.904409 
2737.000000	98.904386 
2736.000000	98.905741 
2735.000000	98.909821 
2734.000000	98.915451 
2733.000000	98.919134 
2732.000000	98.918380 
2731.000000	98.914267 
2730.000000	98.910068 
2729.000000	98.907895 
2728.000000	98.907432 
2727.000000	98.907479 
2726.000000	98.907568 
2725.000000	98.908016 
2724.000000	98.909339 
2723.000000	98.911983 
2722.000000	98.915980 
2721.000000	98.920437 
2720.000000	98.923821 
2719.000000	98.925203 
2718.000000	98.924994 
2717.000000	98.924194 
2716.000000	98.923232 
2715.000000	98.921974 
2714.000000	98.920685 
2713.000000	98.920304 
2712.000000	98.921441 
2711.000000	98.923464 
2710.000000	98.925081 
2709.000000	98.925752 
2708.000000	98.925992 
2707.000000	98.926182 
2706.000000	98.925803 
2705.000000	98.924491 
2704.000000	98.923346 
2703.000000	98.924073 
2702.000000	98.926728 
2701.000000	98.929298 
2700.000000	98.930129 
2699.000000	98.930003 
2698.000000	98.931034 
2697.000000	98.933878 
2696.000000	98.936893 
2695.000000	98.938042 
2694.000000	98.937033 
2693.000000	98.935410 
2692.000000	98.934873 
2691.000000	98.935598 
2690.000000	98.936013 
2689.000000	98.934282 
2688.000000	98.930275 
2687.000000	98.926030 
2686.000000	98.924158 
2685.000000	98.925800 
2684.000000	98.930084 
2683.000000	98.935083 
2682.000000	98.938978 
2681.000000	98.940597 
2680.000000	98.939507 
2679.000000	98.935930 
2678.000000	98.930774 
2677.000000	98.925916 
2676.000000	98.924045 
2675.000000	98.927071 
2674.000000	98.933977 
2673.000000	98.940767 
2672.000000	98.943452 
2671.000000	98.941168 
2670.000000	98.936139 
2669.000000	98.931176 
2668.000000	98.927899 
2667.000000	98.926917 
2666.000000	98.928277 
2665.000000	98.931173 
2664.000000	98.933924 
2663.000000	98.935076 
2662.000000	98.934665 
2661.000000	98.934240 
2660.000000	98.935418 
2659.000000	98.938160 
2658.000000	98.940407 
2657.000000	98.939922 
2656.000000	98.936771 
2655.000000	98.933432 
2654.000000	98.931996 
2653.000000	98.932004 
2652.000000	98.932003 
2651.000000	98.932404 
2650.000000	98.934978 
2649.000000	98.939405 
2648.000000	98.942382 
2647.000000	98.941422 
2646.000000	98.938432 
2645.000000	98.937864 
2644.000000	98.941511 
2643.000000	98.946383 
2642.000000	98.947968 
2641.000000	98.944862 
2640.000000	98.939935 
2639.000000	98.937457 
2638.000000	98.939366 
2637.000000	98.943870 
2636.000000	98.947230 
2635.000000	98.946921 
2634.000000	98.943403 
2633.000000	98.939257 
2632.000000	98.936877 
2631.000000	98.936890 
2630.000000	98.938253 
2629.000000	98.939397 
2628.000000	98.939412 
2627.000000	98.938621 
2626.000000	98.938188 
2625.000000	98.938988 
2624.000000	98.940617 
2623.000000	98.941552 
2622.000000	98.940518 
2621.000000	98.937882 
2620.000000	98.935589 
2619.000000	98.935511 
2618.000000	98.937839 
2617.000000	98.941201 
2616.000000	98.944245 
2615.000000	98.946750 
2614.000000	98.949209 
2613.000000	98.951885 
2612.000000	98.954557 
2611.000000	98.956710 
2610.000000	98.957515 
2609.000000	98.955975 
2608.000000	98.951825 
2607.000000	98.946466 
2606.000000	98.942656 
2605.000000	98.942960 
2604.000000	98.948061 
2603.000000	98.956001 
2602.000000	98.962991 
2601.000000	98.965815 
2600.000000	98.964220 
2599.000000	98.960764 
2598.000000	98.957894 
2597.000000	98.955645 
2596.000000	98.952692 
2595.000000	98.949009 
2594.000000	98.946328 
2593.000000	98.946007 
2592.000000	98.947452 
2591.000000	98.949090 
2590.000000	98.950273 
2589.000000	98.951672 
2588.000000	98.953879 
2587.000000	98.955990 
2586.000000	98.955998 
2585.000000	98.953038 
2584.000000	98.949071 
2583.000000	98.947508 
2582.000000	98.949855 
2581.000000	98.954469 
2580.000000	98.958918 
2579.000000	98.962376 
2578.000000	98.964820 
2577.000000	98.965184 
2576.000000	98.962209 
2575.000000	98.956859 
2574.000000	98.952161 
2573.000000	98.950277 
2572.000000	98.950721 
2571.000000	98.951614 
2570.000000	98.951754 
2569.000000	98.951408 
2568.000000	98.952033 
2567.000000	98.955161 
2566.000000	98.960531 
2565.000000	98.965380 
2564.000000	98.966805 
2563.000000	98.964979 
2562.000000	98.962817 
2561.000000	98.962191 
2560.000000	98.961683 
2559.000000	98.958551 
2558.000000	98.952074 
2557.000000	98.944713 
2556.000000	98.940847 
2555.000000	98.944116 
2554.000000	98.954298 
2553.000000	98.966169 
2552.000000	98.972998 
2551.000000	98.972264 
2550.000000	98.967109 
2549.000000	98.961740 
2548.000000	98.956856 
2547.000000	98.950656 
2546.000000	98.943000 
2545.000000	98.936816 
2544.000000	98.935514 
2543.000000	98.939805 
2542.000000	98.946683 
2541.000000	98.951134 
2540.000000	98.949914 
2539.000000	98.944590 
2538.000000	98.939994 
2537.000000	98.938776 
2536.000000	98.938693 
2535.000000	98.936590 
2534.000000	98.933514 
2533.000000	98.933377 
2532.000000	98.937082 
2531.000000	98.940982 
2530.000000	98.941842 
2529.000000	98.940677 
2528.000000	98.939920 
2527.000000	98.938911 
2526.000000	98.935061 
2525.000000	98.929081 
2524.000000	98.926278 
2523.000000	98.931419 
2522.000000	98.943433 
2521.000000	98.956051 
2520.000000	98.962920 
2519.000000	98.961468 
2518.000000	98.953057 
2517.000000	98.941311 
2516.000000	98.930442 
2515.000000	98.923554 
2514.000000	98.921469 
2513.000000	98.923381 
2512.000000	98.928702 
2511.000000	98.937400 
2510.000000	98.948268 
2509.000000	98.958250 
2508.000000	98.964773 
2507.000000	98.968047 
2506.000000	98.969651 
2505.000000	98.969368 
2504.000000	98.965217 
2503.000000	98.956926 
2502.000000	98.947808 
2501.000000	98.942292 
2500.000000	98.942334 
2499.000000	98.946713 
2498.000000	98.952773 
2497.000000	98.957917 
2496.000000	98.960089 
2495.000000	98.958326 
2494.000000	98.953345 
2493.000000	98.947212 
2492.000000	98.942148 
2491.000000	98.939603 
2490.000000	98.940321 
2489.000000	98.945015 
2488.000000	98.954398 
2487.000000	98.967614 
2486.000000	98.980356 
2485.000000	98.986064 
2484.000000	98.981184 
2483.000000	98.969452 
2482.000000	98.959263 
2481.000000	98.956025 
2480.000000	98.958061 
2479.000000	98.960358 
2478.000000	98.960500 
2477.000000	98.959706 
2476.000000	98.959651 
2475.000000	98.960492 
2474.000000	98.961571 
2473.000000	98.962079 
2472.000000	98.960903 
2471.000000	98.957485 
2470.000000	98.953279 
2469.000000	98.951008 
2468.000000	98.951730 
2467.000000	98.953559 
2466.000000	98.953891 
2465.000000	98.952236 
2464.000000	98.950298 
2463.000000	98.949910 
2462.000000	98.951435 
2461.000000	98.953673 
2460.000000	98.954754 
2459.000000	98.953522 
2458.000000	98.950634 
2457.000000	98.948091 
2456.000000	98.947359 
2455.000000	98.948250 
2454.000000	98.949879 
2453.000000	98.951920 
2452.000000	98.954093 
2451.000000	98.954931 
2450.000000	98.952493 
2449.000000	98.946775 
2448.000000	98.940630 
2447.000000	98.937615 
2446.000000	98.939121 
2445.000000	98.943661 
2444.000000	98.948259 
2443.000000	98.950122 
2442.000000	98.947919 
2441.000000	98.942962 
2440.000000	98.939229 
2439.000000	98.940722 
2438.000000	98.947534 
2437.000000	98.954966 
2436.000000	98.957723 
2435.000000	98.955140 
2434.000000	98.951489 
2433.000000	98.951195 
2432.000000	98.954881 
2431.000000	98.960470 
2430.000000	98.966427 
2429.000000	98.972109 
2428.000000	98.975651 
2427.000000	98.974106 
2426.000000	98.966824 
2425.000000	98.957423 
2424.000000	98.951329 
2423.000000	98.951923 
2422.000000	98.959409 
2421.000000	98.971533 
2420.000000	98.983685 
2419.000000	98.989796 
2418.000000	98.986350 
2417.000000	98.976167 
2416.000000	98.966140 
2415.000000	98.960306 
2414.000000	98.956816 
2413.000000	98.952386 
2412.000000	98.947477 
2411.000000	98.945207 
2410.000000	98.946638 
2409.000000	98.949541 
2408.000000	98.951460 
2407.000000	98.952097 
2406.000000	98.952689 
2405.000000	98.954542 
2404.000000	98.958234 
2403.000000	98.962884 
2402.000000	98.966170 
2401.000000	98.966239 
2400.000000	98.963536 
2399.000000	98.959684 
2398.000000	98.955193 
2397.000000	98.950024 
2396.000000	98.945888 
2395.000000	98.945315 
2394.000000	98.947887 
2393.000000	98.949898 
2392.000000	98.948953 
2391.000000	98.946806 
2390.000000	98.946125 
2389.000000	98.946648 
2388.000000	98.946810 
2387.000000	98.947339 
2386.000000	98.950132 
2385.000000	98.954182 
2384.000000	98.956072 
2383.000000	98.955179 
2382.000000	98.955505 
2381.000000	98.960514 
2380.000000	98.968196 
2379.000000	98.973951 
2378.000000	98.977750 
2377.000000	98.984754 
2376.000000	98.997247 
2375.000000	99.009014 
2374.000000	99.011296 
2373.000000	99.002446 
2372.000000	98.988615 
2371.000000	98.976322 
2370.000000	98.968420 
2369.000000	98.965843 
2368.000000	98.967719 
2367.000000	98.969965 
2366.000000	98.969473 
2365.000000	98.969377 
2364.000000	98.974516 
2363.000000	98.981404 
2362.000000	98.980336 
2361.000000	98.968589 
2360.000000	98.953135 
2359.000000	98.941889 
2358.000000	98.937984 
2357.000000	98.940723 
2356.000000	98.949552 
2355.000000	98.962586 
2354.000000	98.980402 
2353.000000	98.998259 
2352.000000	99.006630 
2351.000000	99.001004 
2350.000000	98.984481 
2349.000000	98.964633 
2348.000000	98.947971 
2347.000000	98.941937 
2346.000000	98.948967 
2345.000000	98.959681 
2344.000000	98.965229 
2343.000000	98.964690 
2342.000000	98.965467 
2341.000000	98.968657 
2340.000000	98.970460 
2339.000000	98.969736 
2338.000000	98.970037 
2337.000000	98.973619 
2336.000000	98.973858 
2335.000000	98.966917 
2334.000000	98.957934 
2333.000000	98.957198 
2332.000000	98.962698 
2331.000000	98.968740 
2330.000000	98.969213 
2329.000000	98.967648 
2328.000000	98.963484 
2327.000000	98.959731 
2326.000000	98.958036 
2325.000000	98.958502 
2324.000000	98.957605 
2323.000000	98.954320 
2322.000000	98.953015 
2321.000000	98.956096 
2320.000000	98.958667 
2319.000000	98.956798 
2318.000000	98.951524 
2317.000000	98.950157 
2316.000000	98.953684 
2315.000000	98.960773 
2314.000000	98.966545 
2313.000000	98.971945 
2312.000000	98.976673 
2311.000000	98.982355 
2310.000000	98.986180 
2309.000000	98.986442 
2308.000000	98.981376 
2307.000000	98.974945 
2306.000000	98.971200 
2305.000000	98.972609 
2304.000000	98.976608 
2303.000000	98.981071 
2302.000000	98.983624 
2301.000000	98.984097 
2300.000000	98.983034 
2299.000000	98.985029 
2298.000000	98.992277 
2297.000000	99.002093 
2296.000000	99.006196 
2295.000000	99.001224 
2294.000000	98.991449 
2293.000000	98.985153 
2292.000000	98.985930 
2291.000000	98.992199 
2290.000000	99.000427 
2289.000000	99.007532 
2288.000000	99.011364 
2287.000000	99.011326 
2286.000000	99.008799 
2285.000000	99.004696 
2284.000000	98.998841 
2283.000000	98.991748 
2282.000000	98.986510 
2281.000000	98.985672 
2280.000000	98.988139 
2279.000000	98.990591 
2278.000000	98.991855 
2277.000000	98.993562 
2276.000000	98.996929 
2275.000000	99.001230 
2274.000000	99.004808 
2273.000000	99.006348 
2272.000000	99.005078 
2271.000000	99.002196 
2270.000000	99.001170 
2269.000000	99.004784 
2268.000000	99.011630 
2267.000000	99.017604 
2266.000000	99.020361 
2265.000000	99.020637 
2264.000000	99.019471 
2263.000000	99.016853 
2262.000000	99.013620 
2261.000000	99.012139 
2260.000000	99.013960 
2259.000000	99.017691 
2258.000000	99.020827 
2257.000000	99.022629 
2256.000000	99.024575 
2255.000000	99.027997 
2254.000000	99.032258 
2253.000000	99.035935 
2252.000000	99.039111 
2251.000000	99.043563 
2250.000000	99.049548 
2249.000000	99.053943 
2248.000000	99.052536 
2247.000000	99.045065 
2246.000000	99.035439 
2245.000000	99.027927 
2244.000000	99.024332 
2243.000000	99.024781 
2242.000000	99.028747 
2241.000000	99.034714 
2240.000000	99.041337 
2239.000000	99.049718 
2238.000000	99.061629 
2237.000000	99.074043 
2236.000000	99.078962 
2235.000000	99.071818 
2234.000000	99.058137 
2233.000000	99.048498 
2232.000000	99.047671 
2231.000000	99.051296 
2230.000000	99.052372 
2229.000000	99.048081 
2228.000000	99.040471 
2227.000000	99.033078 
2226.000000	99.027831 
2225.000000	99.024536 
2224.000000	99.023485 
2223.000000	99.028052 
2222.000000	99.041377 
2221.000000	99.058643 
2220.000000	99.066888 
2219.000000	99.057829 
2218.000000	99.039419 
2217.000000	99.029360 
2216.000000	99.036482 
2215.000000	99.052971 
2214.000000	99.065501 
2213.000000	99.068787 
2212.000000	99.066240 
2211.000000	99.062830 
2210.000000	99.062625 
2209.000000	99.070397 
2208.000000	99.088484 
2207.000000	99.110260 
2206.000000	99.121290 
2205.000000	99.111616 
2204.000000	99.087090 
2203.000000	99.065711 
2202.000000	99.061336 
2201.000000	99.071467 
2200.000000	99.081698 
2199.000000	99.081427 
2198.000000	99.073341 
2197.000000	99.067764 
2196.000000	99.070955 
2195.000000	99.081247 
2194.000000	99.094236 
2193.000000	99.107137 
2192.000000	99.117661 
2191.000000	99.122870 
2190.000000	99.122077 
2189.000000	99.118858 
2188.000000	99.116872 
2187.000000	99.114227 
2186.000000	99.105354 
2185.000000	99.089259 
2184.000000	99.072993 
2183.000000	99.064855 
2182.000000	99.066099 
2181.000000	99.071724 
2180.000000	99.078211 
2179.000000	99.087094 
2178.000000	99.100418 
2177.000000	99.115787 
2176.000000	99.127581 
2175.000000	99.131454 
2174.000000	99.126762 
2173.000000	99.117226 
2172.000000	99.111058 
2171.000000	99.117384 
2170.000000	99.138291 
2169.000000	99.164426 
2168.000000	99.181891 
2167.000000	99.184544 
2166.000000	99.177661 
2165.000000	99.170434 
2164.000000	99.168292 
2163.000000	99.172613 
2162.000000	99.182924 
2161.000000	99.195514 
2160.000000	99.202332 
2159.000000	99.195857 
2158.000000	99.175785 
2157.000000	99.149012 
2156.000000	99.123650 
2155.000000	99.105218 
2154.000000	99.096841 
2153.000000	99.099186 
2152.000000	99.109539 
2151.000000	99.122514 
2150.000000	99.132376 
2149.000000	99.135545 
2148.000000	99.132487 
2147.000000	99.127405 
2146.000000	99.124459 
2145.000000	99.123471 
2144.000000	99.120563 
2143.000000	99.113606 
2142.000000	99.105115 
2141.000000	99.098452 
2140.000000	99.092980 
2139.000000	99.085582 
2138.000000	99.076434 
2137.000000	99.070354 
2136.000000	99.071166 
2135.000000	99.076639 
2134.000000	99.081073 
2133.000000	99.082186 
2132.000000	99.083057 
2131.000000	99.086477 
2130.000000	99.089442 
2129.000000	99.085497 
2128.000000	99.072466 
2127.000000	99.056024 
2126.000000	99.044714 
2125.000000	99.042538 
2124.000000	99.047155 
2123.000000	99.054000 
2122.000000	99.060165 
2121.000000	99.064653 
2120.000000	99.067307 
2119.000000	99.068649 
2118.000000	99.069806 
2117.000000	99.071772 
2116.000000	99.074919 
2115.000000	99.079076 
2114.000000	99.083155 
2113.000000	99.084712 
2112.000000	99.081344 
2111.000000	99.073612 
2110.000000	99.066027 
2109.000000	99.063903 
2108.000000	99.068399 
2107.000000	99.074634 
2106.000000	99.075265 
2105.000000	99.067155 
2104.000000	99.055184 
2103.000000	99.048581 
2102.000000	99.052329 
2101.000000	99.062163 
2100.000000	99.068787 
2099.000000	99.066894 
2098.000000	99.059608 
2097.000000	99.054816 
2096.000000	99.058037 
2095.000000	99.068269 
2094.000000	99.079322 
2093.000000	99.084914 
2092.000000	99.083761 
2091.000000	99.080524 
2090.000000	99.081705 
2089.000000	99.089830 
2088.000000	99.100609 
2087.000000	99.105405 
2086.000000	99.097755 
2085.000000	99.080266 
2084.000000	99.065583 
2083.000000	99.067261 
2082.000000	99.086943 
2081.000000	99.111399 
2080.000000	99.124526 
2079.000000	99.122242 
2078.000000	99.114524 
2077.000000	99.114538 
2076.000000	99.127269 
2075.000000	99.146633 
2074.000000	99.160422 
2073.000000	99.159048 
2072.000000	99.143269 
2071.000000	99.123614 
2070.000000	99.110717 
2069.000000	99.106998 
2068.000000	99.108569 
2067.000000	99.112453 
2066.000000	99.118454 
2065.000000	99.126261 
2064.000000	99.135335 
2063.000000	99.146393 
2062.000000	99.157978 
2061.000000	99.162922 
2060.000000	99.154889 
2059.000000	99.139019 
2058.000000	99.129607 
2057.000000	99.134783 
2056.000000	99.148346 
2055.000000	99.159192 
2054.000000	99.164151 
2053.000000	99.168514 
2052.000000	99.178064 
2051.000000	99.194091 
2050.000000	99.213001 
2049.000000	99.227394 
2048.000000	99.230704 
2047.000000	99.224261 
2046.000000	99.217125 
2045.000000	99.216128 
2044.000000	99.218676 
2043.000000	99.218292 
2042.000000	99.214422 
2041.000000	99.212491 
2040.000000	99.215501 
2039.000000	99.220174 
2038.000000	99.221912 
2037.000000	99.220278 
2036.000000	99.218204 
2035.000000	99.216941 
2034.000000	99.213550 
2033.000000	99.205166 
2032.000000	99.196200 
2031.000000	99.197904 
2030.000000	99.216652 
2029.000000	99.243434 
2028.000000	99.259681 
2027.000000	99.254677 
2026.000000	99.233904 
2025.000000	99.211699 
2024.000000	99.200558 
2023.000000	99.206500 
2022.000000	99.227073 
2021.000000	99.250303 
2020.000000	99.261558 
2019.000000	99.256174 
2018.000000	99.242359 
2017.000000	99.230107 
2016.000000	99.221664 
2015.000000	99.215661 
2014.000000	99.213747 
2013.000000	99.216855 
2012.000000	99.220266 
2011.000000	99.219532 
2010.000000	99.218426 
2009.000000	99.224234 
2008.000000	99.236333 
2007.000000	99.245968 
2006.000000	99.247150 
2005.000000	99.242149 
2004.000000	99.236083 
2003.000000	99.230875 
2002.000000	99.225064 
2001.000000	99.215644 
2000.000000	99.200103 
1999.000000	99.179740 
1998.000000	99.160558 
1997.000000	99.148527 
1996.000000	99.144697 
1995.000000	99.146879 
1994.000000	99.154205 
1993.000000	99.166493 
1992.000000	99.179769 
1991.000000	99.186939 
1990.000000	99.184581 
1989.000000	99.176453 
1988.000000	99.170374 
1987.000000	99.173184 
1986.000000	99.187101 
1985.000000	99.207750 
1984.000000	99.225753 
1983.000000	99.233008 
1982.000000	99.228649 
1981.000000	99.218558 
1980.000000	99.209856 
1979.000000	99.206778 
1978.000000	99.209769 
1977.000000	99.215386 
1976.000000	99.217475 
1975.000000	99.211412 
1974.000000	99.198603 
1973.000000	99.185984 
1972.000000	99.180252 
1971.000000	99.182874 
1970.000000	99.190870 
1969.000000	99.201042 
1968.000000	99.211869 
1967.000000	99.221700 
1966.000000	99.227658 
1965.000000	99.227977 
1964.000000	99.224588 
1963.000000	99.221747 
1962.000000	99.221931 
1961.000000	99.223695 
1960.000000	99.223236 
1959.000000	99.217137 
1958.000000	99.204221 
1957.000000	99.186836 
1956.000000	99.170239 
1955.000000	99.158189 
1954.000000	99.148240 
1953.000000	99.133796 
1952.000000	99.112635 
1951.000000	99.091849 
1950.000000	99.082254 
1949.000000	99.088092 
1948.000000	99.103499 
1947.000000	99.118369 
1946.000000	99.124902 
1945.000000	99.119359 
1944.000000	99.102222 
1943.000000	99.079301 
1942.000000	99.059997 
1941.000000	99.050035 
1940.000000	99.047543 
1939.000000	99.048139 
1938.000000	99.050423 
1937.000000	99.055409 
1936.000000	99.063044 
1935.000000	99.070678 
1934.000000	99.074534 
1933.000000	99.072451 
1932.000000	99.065847 
1931.000000	99.059755 
1930.000000	99.060123 
1929.000000	99.068488 
1928.000000	99.079358 
1927.000000	99.084616 
1926.000000	99.080015 
1925.000000	99.066968 
1924.000000	99.050273 
1923.000000	99.036207 
1922.000000	99.031092 
1921.000000	99.037234 
1920.000000	99.050245 
1919.000000	99.061459 
1918.000000	99.063366 
1917.000000	99.055045 
1916.000000	99.042406 
1915.000000	99.033379 
1914.000000	99.032779 
1913.000000	99.039196 
1912.000000	99.046095 
1911.000000	99.047618 
1910.000000	99.043331 
1909.000000	99.036735 
1908.000000	99.031244 
1907.000000	99.029293 
1906.000000	99.032555 
1905.000000	99.039456 
1904.000000	99.043758 
1903.000000	99.039267 
1902.000000	99.025959 
1901.000000	99.009751 
1900.000000	98.997888 
1899.000000	98.995073 
1898.000000	99.001036 
1897.000000	99.009707 
1896.000000	99.012969 
1895.000000	99.008797 
1894.000000	99.003964 
1893.000000	99.004983 
1892.000000	99.009554 
1891.000000	99.010496 
1890.000000	99.005289 
1889.000000	98.998659 
1888.000000	98.995475 
1887.000000	98.995958 
1886.000000	98.998285 
1885.000000	99.000834 
1884.000000	99.001662 
1883.000000	98.999212 
1882.000000	98.994024 
1881.000000	98.988067 
1880.000000	98.983229 
1879.000000	98.980881 
1878.000000	98.980888 
1877.000000	98.980421 
1876.000000	98.976316 
1875.000000	98.970183 
1874.000000	98.968526 
1873.000000	98.975008 
1872.000000	98.984778 
1871.000000	98.989477 
1870.000000	98.985900 
1869.000000	98.977287 
1868.000000	98.966218 
1867.000000	98.951993 
1866.000000	98.936370 
1865.000000	98.924778 
1864.000000	98.922330 
1863.000000	98.931134 
1862.000000	98.949595 
1861.000000	98.971455 
1860.000000	98.987409 
1859.000000	98.992348 
1858.000000	98.990574 
1857.000000	98.990290 
1856.000000	98.994465 
1855.000000	99.000530 
1854.000000	99.005950 
1853.000000	99.009479 
1852.000000	99.009001 
1851.000000	99.002952 
1850.000000	98.993895 
1849.000000	98.987414 
1848.000000	98.986733 
1847.000000	98.990455 
1846.000000	98.995469 
1845.000000	98.998060 
1844.000000	98.993896 
1843.000000	98.982857 
1842.000000	98.971666 
1841.000000	98.967507 
1840.000000	98.972813 
1839.000000	98.984613 
1838.000000	98.997268 
1837.000000	99.006683 
1836.000000	99.011939 
1835.000000	99.014213 
1834.000000	99.015180 
1833.000000	99.016188 
1832.000000	99.017893 
1831.000000	99.018704 
1830.000000	99.015565 
1829.000000	99.009185 
1828.000000	99.004408 
1827.000000	99.003565 
1826.000000	99.004451 
1825.000000	99.004458 
1824.000000	99.003941 
1823.000000	99.004702 
1822.000000	99.006870 
1821.000000	99.008240 
1820.000000	99.006087 
1819.000000	98.999727 
1818.000000	98.992119 
1817.000000	98.987464 
1816.000000	98.986039 
1815.000000	98.984545 
1814.000000	98.982073 
1813.000000	98.982363 
1812.000000	98.988811 
1811.000000	98.998688 
1810.000000	99.007209 
1809.000000	99.014126 
1808.000000	99.020275 
1807.000000	99.023069 
1806.000000	99.019676 
1805.000000	99.010962 
1804.000000	98.999933 
1803.000000	98.988720 
1802.000000	98.979448 
1801.000000	98.975863 
1800.000000	98.978788 
1799.000000	98.983265 
1798.000000	98.985075 
1797.000000	98.984676 
1796.000000	98.983996 
1795.000000	98.983814 
1794.000000	98.984009 
1793.000000	98.984085 
1792.000000	98.983344 
1791.000000	98.981298 
1790.000000	98.979545 
1789.000000	98.980754 
1788.000000	98.985716 
1787.000000	98.992607 
1786.000000	98.998582 
1785.000000	99.001546 
1784.000000	99.000778 
1783.000000	98.998091 
1782.000000	98.996852 
1781.000000	98.998096 
1780.000000	98.998520 
1779.000000	98.994519 
1778.000000	98.987732 
1777.000000	98.982947 
1776.000000	98.983116 
1775.000000	98.988734 
1774.000000	98.998922 
1773.000000	99.009916 
1772.000000	99.015269 
1771.000000	99.011814 
1770.000000	99.002847 
1769.000000	98.993593 
1768.000000	98.988117 
1767.000000	98.987026 
1766.000000	98.988043 
1765.000000	98.989613 
1764.000000	98.991796 
1763.000000	98.994276 
1762.000000	98.995615 
1761.000000	98.995908 
1760.000000	98.996556 
1759.000000	98.997099 
1758.000000	98.995993 
1757.000000	98.992916 
1756.000000	98.989881 
1755.000000	98.988088 
1754.000000	98.985391 
1753.000000	98.979868 
1752.000000	98.974433 
1751.000000	98.976008 
1750.000000	98.985859 
1749.000000	98.996131 
1748.000000	99.000426 
1747.000000	98.999575 
1746.000000	98.996995 
1745.000000	98.994615 
1744.000000	98.993563 
1743.000000	98.994115 
1742.000000	98.995080 
1741.000000	98.995805 
1740.000000	98.996643 
1739.000000	98.996731 
1738.000000	98.994349 
1737.000000	98.989818 
1736.000000	98.985498 
1735.000000	98.982015 
1734.000000	98.977404 
1733.000000	98.972641 
1732.000000	98.971542 
1731.000000	98.975028 
1730.000000	98.980950 
1729.000000	98.985157 
1728.000000	98.985952 
1727.000000	98.985138 
1726.000000	98.984077 
1725.000000	98.982252 
1724.000000	98.980058 
1723.000000	98.979963 
1722.000000	98.983529 
1721.000000	98.989774 
1720.000000	98.996533 
1719.000000	99.000734 
1718.000000	98.998263 
1717.000000	98.991650 
1716.000000	98.986079 
1715.000000	98.981166 
1714.000000	98.977069 
1713.000000	98.975005 
1712.000000	98.973428 
1711.000000	98.971148 
1710.000000	98.969486 
1709.000000	98.970075 
1708.000000	98.972044 
1707.000000	98.972988 
1706.000000	98.972920 
1705.000000	98.973962 
1704.000000	98.974042 
1703.000000	98.966991 
1702.000000	98.952009 
1701.000000	98.937745 
1700.000000	98.934483 
1699.000000	98.935802 
1698.000000	98.934740 
1697.000000	98.934924 
1696.000000	98.939819 
1695.000000	98.944670 
1694.000000	98.945335 
1693.000000	98.943107 
1692.000000	98.939372 
1691.000000	98.934045 
1690.000000	98.926852 
1689.000000	98.918758 
1688.000000	98.910974 
1687.000000	98.903253 
1686.000000	98.897010 
1685.000000	98.894849 
1684.000000	98.895330 
1683.000000	98.894516 
1682.000000	98.892973 
1681.000000	98.889451 
1680.000000	98.885228 
1679.000000	98.881657 
1678.000000	98.878828 
1677.000000	98.876151 
1676.000000	98.873897 
1675.000000	98.873162 
1674.000000	98.872796 
1673.000000	98.871040 
1672.000000	98.868543 
1671.000000	98.867672 
1670.000000	98.868382 
1669.000000	98.867281 
1668.000000	98.863750 
1667.000000	98.860189 
1666.000000	98.855840 
1665.000000	98.849185 
1664.000000	98.841638 
1663.000000	98.836950 
1662.000000	98.837049 
1661.000000	98.839072 
1660.000000	98.839432 
1659.000000	98.838830 
1658.000000	98.838572 
1657.000000	98.836946 
1656.000000	98.830080 
1655.000000	98.820443 
1654.000000	98.814698 
1653.000000	98.814416 
1652.000000	98.812609 
1651.000000	98.810494 
1650.000000	98.804105 
1649.000000	98.794927 
1648.000000	98.783778 
1647.000000	98.772406 
1646.000000	98.765194 
1645.000000	98.766457 
1644.000000	98.773147 
1643.000000	98.779764 
1642.000000	98.783882 
1641.000000	98.785258 
1640.000000	98.784156 
1639.000000	98.781615 
1638.000000	98.779915 
1637.000000	98.780728 
1636.000000	98.780982 
1635.000000	98.778584 
1634.000000	98.777581 
1633.000000	98.779587 
1632.000000	98.782555 
1631.000000	98.785952 
1630.000000	98.789948 
1629.000000	98.793270 
1628.000000	98.793631 
1627.000000	98.791878 
1626.000000	98.791780 
1625.000000	98.795706 
1624.000000	98.802334 
1623.000000	98.808379 
1622.000000	98.812235 
1621.000000	98.813939 
1620.000000	98.813934 
1619.000000	98.814196 
1618.000000	98.817819 
1617.000000	98.824426 
1616.000000	98.829327 
1615.000000	98.831231 
1614.000000	98.831442 
1613.000000	98.829959 
1612.000000	98.827723 
1611.000000	98.826946 
1610.000000	98.829084 
1609.000000	98.832575 
1608.000000	98.835374 
1607.000000	98.838101 
1606.000000	98.841663 
1605.000000	98.844838 
1604.000000	98.846948 
1603.000000	98.850026 
1602.000000	98.855617 
1601.000000	98.861818 
1600.000000	98.866352 
1599.000000	98.870024 
1598.000000	98.874542 
1597.000000	98.879837 
1596.000000	98.885384 
1595.000000	98.892009 
1594.000000	98.900068 
1593.000000	98.906920 
1592.000000	98.909736 
1591.000000	98.909657 
1590.000000	98.910257 
1589.000000	98.912650 
1588.000000	98.915549 
1587.000000	98.918787 
1586.000000	98.922584 
1585.000000	98.924628 
1584.000000	98.922356 
1583.000000	98.917416 
1582.000000	98.914355 
1581.000000	98.914650 
1580.000000	98.916406 
1579.000000	98.919054 
1578.000000	98.924175 
1577.000000	98.930079 
1576.000000	98.931237 
1575.000000	98.929021 
1574.000000	98.929159 
1573.000000	98.930524 
1572.000000	98.931151 
1571.000000	98.933026 
1570.000000	98.938826 
1569.000000	98.945820 
1568.000000	98.950008 
1567.000000	98.952056 
1566.000000	98.953562 
1565.000000	98.955048 
1564.000000	98.956198 
1563.000000	98.957097 
1562.000000	98.957940 
1561.000000	98.957964 
1560.000000	98.957394 
1559.000000	98.955023 
1558.000000	98.952738 
1557.000000	98.953875 
1556.000000	98.954377 
1555.000000	98.953373 
1554.000000	98.951469 
1553.000000	98.949070 
1552.000000	98.947239 
1551.000000	98.947419 
1550.000000	98.950123 
1549.000000	98.953145 
1548.000000	98.953435 
1547.000000	98.949581 
1546.000000	98.941929 
1545.000000	98.932304 
1544.000000	98.923258 
1543.000000	98.916625 
1542.000000	98.914904 
1541.000000	98.920319 
1540.000000	98.925958 
1539.000000	98.925343 
1538.000000	98.924047 
1537.000000	98.923912 
1536.000000	98.923665 
1535.000000	98.924468 
1534.000000	98.927974 
1533.000000	98.932424 
1532.000000	98.933511 
1531.000000	98.929628 
1530.000000	98.923936 
1529.000000	98.920845 
1528.000000	98.920694 
1527.000000	98.920654 
1526.000000	98.918986 
1525.000000	98.916818 
1524.000000	98.914730 
1523.000000	98.912754 
1522.000000	98.912533 
1521.000000	98.916249 
1520.000000	98.920810 
1519.000000	98.921267 
1518.000000	98.916594 
1517.000000	98.909231 
1516.000000	98.901799 
1515.000000	98.896136 
1514.000000	98.892837 
1513.000000	98.891935 
1512.000000	98.892724 
1511.000000	98.892412 
1510.000000	98.888548 
1509.000000	98.882223 
1508.000000	98.878573 
1507.000000	98.878629 
1506.000000	98.878834 
1505.000000	98.879767 
1504.000000	98.880491 
1503.000000	98.879011 
1502.000000	98.877115 
1501.000000	98.877237 
1500.000000	98.879990 
1499.000000	98.882326 
1498.000000	98.880227 
1497.000000	98.876464 
1496.000000	98.877968 
1495.000000	98.882434 
1494.000000	98.881945 
1493.000000	98.874426 
1492.000000	98.863526 
1491.000000	98.853303 
1490.000000	98.844969 
1489.000000	98.838816 
1488.000000	98.833759 
1487.000000	98.827803 
1486.000000	98.823302 
1485.000000	98.822719 
1484.000000	98.824388 
1483.000000	98.824912 
1482.000000	98.821414 
1481.000000	98.814231 
1480.000000	98.806133 
1479.000000	98.798937 
1478.000000	98.792474 
1477.000000	98.785949 
1476.000000	98.778484 
1475.000000	98.768470 
1474.000000	98.757345 
1473.000000	98.750421 
1472.000000	98.750450 
1471.000000	98.751565 
1470.000000	98.748652 
1469.000000	98.743073 
1468.000000	98.738489 
1467.000000	98.735868 
1466.000000	98.734053 
1465.000000	98.732167 
1464.000000	98.730377 
1463.000000	98.729122 
1462.000000	98.728391 
1461.000000	98.728611 
1460.000000	98.729058 
1459.000000	98.726337 
1458.000000	98.713257 
1457.000000	98.689744 
1456.000000	98.671132 
1455.000000	98.664626 
1454.000000	98.663278 
1453.000000	98.662747 
1452.000000	98.661903 
1451.000000	98.660060 
1450.000000	98.657873 
1449.000000	98.658407 
1448.000000	98.663099 
1447.000000	98.667959 
1446.000000	98.668893 
1445.000000	98.667084 
1444.000000	98.665531 
1443.000000	98.664461 
1442.000000	98.662230 
1441.000000	98.658578 
1440.000000	98.655313 
1439.000000	98.653458 
1438.000000	98.650779 
1437.000000	98.644849 
1436.000000	98.637865 
1435.000000	98.631938 
1434.000000	98.626237 
1433.000000	98.621729 
1432.000000	98.620393 
1431.000000	98.622218 
1430.000000	98.624152 
1429.000000	98.624047 
1428.000000	98.622967 
1427.000000	98.621569 
1426.000000	98.618637 
1425.000000	98.613060 
1424.000000	98.607135 
1423.000000	98.603575 
1422.000000	98.599968 
1421.000000	98.592724 
1420.000000	98.582557 
1419.000000	98.573219 
1418.000000	98.564160 
1417.000000	98.553733 
1416.000000	98.544332 
1415.000000	98.537053 
1414.000000	98.528835 
1413.000000	98.516783 
1412.000000	98.503493 
1411.000000	98.493851 
1410.000000	98.487790 
1409.000000	98.482855 
1408.000000	98.480037 
1407.000000	98.481354 
1406.000000	98.486045 
1405.000000	98.493083 
1404.000000	98.505105 
1403.000000	98.522536 
1402.000000	98.539304 
1401.000000	98.550809 
1400.000000	98.559282 
1399.000000	98.568742 
1398.000000	98.574568 
1397.000000	98.566570 
1396.000000	98.543056 
1395.000000	98.518002 
1394.000000	98.511047 
1393.000000	98.528585 
1392.000000	98.562796 
1391.000000	98.601125 
1390.000000	98.632502 
1389.000000	98.650239 
1388.000000	98.653684 
1387.000000	98.647917 
1386.000000	98.639537 
1385.000000	98.632762 
1384.000000	98.629365 
1383.000000	98.629509 
1382.000000	98.632079 
1381.000000	98.636525 
1380.000000	98.643050 
1379.000000	98.651266 
1378.000000	98.659420 
1377.000000	98.665692 
1376.000000	98.670447 
1375.000000	98.676379 
1374.000000	98.685792 
1373.000000	98.697906 
1372.000000	98.710565 
1371.000000	98.723518 
1370.000000	98.738155 
1369.000000	98.753613 
1368.000000	98.767826 
1367.000000	98.780152 
1366.000000	98.790970 
1365.000000	98.799921 
1364.000000	98.805409 
1363.000000	98.807175 
1362.000000	98.808669 
1361.000000	98.813268 
1360.000000	98.820066 
1359.000000	98.826484 
1358.000000	98.832403 
1357.000000	98.839516 
1356.000000	98.848251 
1355.000000	98.856643 
1354.000000	98.862467 
1353.000000	98.865302 
1352.000000	98.865316 
1351.000000	98.862696 
1350.000000	98.859911 
1349.000000	98.859620 
1348.000000	98.862742 
1347.000000	98.868307 
1346.000000	98.875053 
1345.000000	98.881686 
1344.000000	98.886769 
1343.000000	98.889461 
1342.000000	98.890276 
1341.000000	98.889863 
1340.000000	98.887945 
1339.000000	98.884769 
1338.000000	98.882281 
1337.000000	98.882573 
1336.000000	98.885825 
1335.000000	98.890443 
1334.000000	98.895270 
1333.000000	98.900568 
1332.000000	98.906292 
1331.000000	98.910892 
1330.000000	98.912684 
1329.000000	98.911472 
1328.000000	98.908549 
1327.000000	98.905515 
1326.000000	98.903328 
1325.000000	98.901520 
1324.000000	98.899994 
1323.000000	98.899765 
1322.000000	98.901309 
1321.000000	98.903198 
1320.000000	98.903628 
1319.000000	98.902699 
1318.000000	98.902102 
1317.000000	98.902804 
1316.000000	98.903792 
1315.000000	98.903316 
1314.000000	98.900819 
1313.000000	98.897719 
1312.000000	98.896112 
1311.000000	98.896766 
1310.000000	98.898705 
1309.000000	98.900593 
1308.000000	98.901742 
1307.000000	98.901562 
1306.000000	98.899443 
1305.000000	98.895451 
1304.000000	98.891642 
1303.000000	98.890487 
1302.000000	98.892089 
1301.000000	98.893796 
1300.000000	98.892922 
1299.000000	98.888849 
1298.000000	98.882638 
1297.000000	98.875823 
1296.000000	98.869815 
1295.000000	98.865773 
1294.000000	98.863855 
1293.000000	98.862788 
1292.000000	98.860355 
1291.000000	98.854514 
1290.000000	98.845031 
1289.000000	98.834477 
1288.000000	98.826407 
1287.000000	98.821453 
1286.000000	98.816110 
1285.000000	98.807007 
1284.000000	98.795422 
1283.000000	98.785457 
1282.000000	98.778557 
1281.000000	98.772307 
1280.000000	98.764445 
1279.000000	98.755465 
1278.000000	98.746438 
1277.000000	98.736962 
1276.000000	98.726397 
1275.000000	98.715516 
1274.000000	98.705451 
1273.000000	98.696389 
1272.000000	98.688179 
1271.000000	98.680549 
1270.000000	98.671810 
1269.000000	98.659476 
1268.000000	98.643643 
1267.000000	98.627799 
1266.000000	98.614574 
1265.000000	98.602819 
1264.000000	98.590325 
1263.000000	98.577041 
1262.000000	98.563811 
1261.000000	98.550292 
1260.000000	98.536528 
1259.000000	98.524587 
1258.000000	98.515494 
1257.000000	98.506591 
1256.000000	98.494849 
1255.000000	98.481476 
1254.000000	98.470118 
1253.000000	98.461333 
1252.000000	98.452011 
1251.000000	98.440276 
1250.000000	98.428060 
1249.000000	98.418557 
1248.000000	98.413434 
1247.000000	98.412152 
1246.000000	98.410971 
1245.000000	98.402986 
1244.000000	98.383064 
1243.000000	98.354762 
1242.000000	98.329908 
1241.000000	98.318665 
1240.000000	98.320450 
1239.000000	98.325363 
1238.000000	98.323316 
1237.000000	98.310788 
1236.000000	98.290051 
1235.000000	98.264677 
1234.000000	98.236928 
1233.000000	98.208202 
1232.000000	98.180109 
1231.000000	98.153884 
1230.000000	98.128971 
1229.000000	98.103350 
1228.000000	98.075830 
1227.000000	98.047384 
1226.000000	98.019636 
1225.000000	97.992312 
1224.000000	97.962744 
1223.000000	97.927778 
1222.000000	97.886022 
1221.000000	97.838686 
1220.000000	97.788562 
1219.000000	97.737871 
1218.000000	97.686608 
1217.000000	97.633189 
1216.000000	97.576587 
1215.000000	97.517183 
1214.000000	97.455789 
1213.000000	97.392952 
1212.000000	97.329047 
1211.000000	97.263550 
1210.000000	97.194547 
1209.000000	97.120858 
1208.000000	97.044571 
1207.000000	96.969357 
1206.000000	96.896245 
1205.000000	96.823489 
1204.000000	96.750546 
1203.000000	96.678934 
1202.000000	96.608474 
1201.000000	96.536286 
1200.000000	96.461223 
1199.000000	96.386195 
1198.000000	96.313975 
1197.000000	96.243487 
1196.000000	96.172237 
1195.000000	96.099704 
1194.000000	96.026161 
1193.000000	95.950427 
1192.000000	95.871223 
1191.000000	95.789191 
1190.000000	95.705933 
1189.000000	95.622695 
1188.000000	95.540951 
1187.000000	95.461741 
1186.000000	95.383031 
1185.000000	95.300269 
1184.000000	95.210872 
1183.000000	95.116013 
1182.000000	95.017585 
1181.000000	94.916525 
1180.000000	94.814593 
1179.000000	94.713579 
1178.000000	94.610952 
1177.000000	94.500454 
1176.000000	94.379481 
1175.000000	94.252655 
1174.000000	94.126150 
1173.000000	94.001867 
1172.000000	93.879280 
1171.000000	93.758873 
1170.000000	93.640927 
1169.000000	93.524557 
1168.000000	93.410981 
1167.000000	93.305229 
1166.000000	93.213364 
1165.000000	93.141802 
1164.000000	93.100216 
1163.000000	93.098879 
1162.000000	93.138976 
1161.000000	93.208018 
1160.000000	93.285741 
1159.000000	93.351452 
1158.000000	93.387468 
1157.000000	93.383162 
1156.000000	93.339292 
1155.000000	93.265480 
1154.000000	93.171789 
1153.000000	93.065012 
1152.000000	92.952311 
1151.000000	92.842162 
1150.000000	92.738968 
1149.000000	92.641087 
1148.000000	92.546091 
1147.000000	92.453551 
1146.000000	92.361573 
1145.000000	92.266450 
1144.000000	92.168260 
1143.000000	92.071824 
1142.000000	91.979745 
1141.000000	91.889105 
1140.000000	91.796782 
1139.000000	91.702863 
1138.000000	91.607144 
1137.000000	91.507927 
1136.000000	91.406355 
1135.000000	91.306421 
1134.000000	91.208447 
1133.000000	91.107815 
1132.000000	91.001921 
1131.000000	90.892894 
1130.000000	90.782133 
1129.000000	90.668398 
1128.000000	90.553008 
1127.000000	90.440304 
1126.000000	90.330817 
1125.000000	90.220241 
1124.000000	90.106936 
1123.000000	89.993820 
1122.000000	89.881301 
1121.000000	89.765736 
1120.000000	89.646907 
1119.000000	89.529592 
1118.000000	89.415601 
1117.000000	89.301864 
1116.000000	89.188430 
1115.000000	89.080073 
1114.000000	88.977376 
1113.000000	88.874416 
1112.000000	88.768285 
1111.000000	88.663218 
1110.000000	88.562662 
1109.000000	88.464851 
1108.000000	88.368502 
1107.000000	88.274516 
1106.000000	88.180420 
1105.000000	88.081615 
1104.000000	87.979740 
1103.000000	87.881261 
1102.000000	87.786931 
1101.000000	87.691954 
1100.000000	87.597804 
1099.000000	87.511187 
1098.000000	87.431888 
1097.000000	87.351665 
1096.000000	87.267925 
1095.000000	87.186644 
1094.000000	87.109202 
1093.000000	87.028540 
1092.000000	86.941968 
1091.000000	86.856013 
1090.000000	86.774546 
1089.000000	86.693586 
1088.000000	86.612114 
1087.000000	86.536716 
1086.000000	86.470765 
1085.000000	86.409368 
1084.000000	86.349003 
1083.000000	86.291751 
1082.000000	86.236651 
1081.000000	86.177772 
1080.000000	86.114633 
1079.000000	86.054177 
1078.000000	85.999265 
1077.000000	85.945602 
1076.000000	85.892104 
1075.000000	85.842268 
1074.000000	85.792386 
1073.000000	85.730231 
1072.000000	85.647771 
1071.000000	85.543147 
1070.000000	85.409149 
1069.000000	85.235604 
1068.000000	85.028872 
1067.000000	84.815359 
1066.000000	84.618174 
1065.000000	84.440192 
1064.000000	84.273878 
1063.000000	84.113405 
1062.000000	83.950596 
1061.000000	83.773743 
1060.000000	83.581217 
1059.000000	83.387703 
1058.000000	83.209390 
1057.000000	83.049442 
1056.000000	82.900565 
1055.000000	82.751482 
1054.000000	82.588381 
1053.000000	82.402885 
1052.000000	82.203716 
1051.000000	82.008916 
1050.000000	81.822632 
1049.000000	81.633382 
1048.000000	81.436990 
1047.000000	81.242718 
1046.000000	81.053812 
1045.000000	80.861025 
1044.000000	80.660099 
1043.000000	80.459390 
1042.000000	80.265165 
1041.000000	80.073699 
1040.000000	79.883457 
1039.000000	79.701939 
1038.000000	79.535381 
1037.000000	79.383877 
1036.000000	79.250061 
1035.000000	79.139355 
1034.000000	79.048427 
1033.000000	78.966102 
1032.000000	78.887221 
1031.000000	78.813072 
1030.000000	78.740325 
1029.000000	78.666468 
1028.000000	78.605048 
1027.000000	78.575577 
1026.000000	78.575483 
1025.000000	78.580143 
1024.000000	78.572838 
1023.000000	78.556558 
1022.000000	78.535338 
1021.000000	78.504870 
1020.000000	78.466268 
1019.000000	78.429673 
1018.000000	78.397816 
1017.000000	78.362578 
1016.000000	78.322606 
1015.000000	78.287695 
1014.000000	78.261340 
1013.000000	78.235573 
1012.000000	78.207327 
1011.000000	78.183335 
1010.000000	78.165002 
1009.000000	78.145586 
1008.000000	78.126712 
1007.000000	78.120707 
1006.000000	78.131820 
1005.000000	78.151185 
1004.000000	78.174288 
1003.000000	78.206783 
1002.000000	78.249205 
1001.000000	78.293047 
1000.000000	78.336480 
999.000000	 78.387403 
998.000000	 78.446450 
997.000000	 78.503478 
996.000000	 78.555687 
995.000000	 78.613231 
994.000000	 78.681968 
993.000000	 78.755939 
992.000000	 78.831314 
991.000000	 78.912448 
990.000000	 78.999820 
989.000000	 79.087214 
988.000000	 79.175241 
987.000000	 79.273028 
986.000000	 79.382874 
985.000000	 79.498122 
984.000000	 79.619359 
983.000000	 79.756892 
982.000000	 79.913194 
981.000000	 80.078325 
980.000000	 80.246870 
979.000000	 80.424355 
978.000000	 80.613159 
977.000000	 80.807303 
976.000000	 81.005354 
975.000000	 81.213661 
974.000000	 81.432317 
973.000000	 81.652085 
972.000000	 81.869492 
971.000000	 82.091235 
970.000000	 82.319452 
969.000000	 82.546193 
968.000000	 82.766906 
967.000000	 82.986211 
966.000000	 83.205486 
965.000000	 83.417140 
964.000000	 83.616515 
963.000000	 83.808628 
962.000000	 83.998502 
961.000000	 84.184811 
960.000000	 84.366776 
959.000000	 84.547046 
958.000000	 84.723902 
957.000000	 84.890317 
956.000000	 85.044493 
955.000000	 85.192572 
954.000000	 85.338166 
953.000000	 85.477902 
952.000000	 85.609308 
951.000000	 85.733836 
950.000000	 85.850176 
949.000000	 85.954181 
948.000000	 86.047610 
947.000000	 86.137686 
946.000000	 86.225970 
945.000000	 86.306924 
944.000000	 86.379049 
943.000000	 86.447472 
942.000000	 86.513651 
941.000000	 86.573014 
940.000000	 86.625712 
939.000000	 86.679635 
938.000000	 86.739260 
937.000000	 86.800466 
936.000000	 86.859471 
935.000000	 86.918095 
934.000000	 86.977418 
933.000000	 87.034907 
932.000000	 87.090553 
931.000000	 87.147721 
930.000000	 87.206102 
929.000000	 87.262179 
928.000000	 87.317657 
927.000000	 87.377992 
926.000000	 87.441246 
925.000000	 87.498292 
924.000000	 87.545854 
923.000000	 87.589379 
922.000000	 87.631148 
921.000000	 87.665953 
920.000000	 87.691473 
919.000000	 87.713078 
918.000000	 87.735083 
917.000000	 87.756243 
916.000000	 87.776913 
915.000000	 87.801991 
914.000000	 87.834319 
913.000000	 87.873981 
912.000000	 87.925959 
911.000000	 87.998589 
910.000000	 88.091905 
909.000000	 88.197284 
908.000000	 88.310884 
907.000000	 88.437398 
906.000000	 88.578504 
905.000000	 88.728354 
904.000000	 88.883430 
903.000000	 89.046970 
902.000000	 89.220538 
901.000000	 89.399884 
900.000000	 89.581263 
899.000000	 89.763156 
898.000000	 89.940312 
897.000000	 90.104955 
896.000000	 90.255965 
895.000000	 90.399326 
894.000000	 90.538801 
893.000000	 90.673912 
892.000000	 90.806798 
891.000000	 90.941621 
890.000000	 91.076177 
889.000000	 91.203047 
888.000000	 91.319932 
887.000000	 91.429798 
886.000000	 91.530421 
885.000000	 91.614650 
884.000000	 91.683852 
883.000000	 91.751124 
882.000000	 91.826798 
881.000000	 91.908887 
880.000000	 91.991744 
879.000000	 92.075761 
878.000000	 92.163841 
877.000000	 92.255221 
876.000000	 92.347144 
875.000000	 92.437223 
874.000000	 92.522463 
873.000000	 92.602737 
872.000000	 92.686482 
871.000000	 92.784878 
870.000000	 92.897594 
869.000000	 93.011100 
868.000000	 93.113448 
867.000000	 93.204921 
866.000000	 93.293104 
865.000000	 93.383906 
864.000000	 93.479251 
863.000000	 93.577608 
862.000000	 93.674109 
861.000000	 93.764109 
860.000000	 93.847851 
859.000000	 93.928371 
858.000000	 94.005848 
857.000000	 94.078844 
856.000000	 94.149633 
855.000000	 94.221775 
854.000000	 94.292626 
853.000000	 94.354854 
852.000000	 94.405813 
851.000000	 94.449210 
850.000000	 94.487435 
849.000000	 94.519379 
848.000000	 94.546900 
847.000000	 94.575957 
846.000000	 94.608433 
845.000000	 94.638696 
844.000000	 94.660903 
843.000000	 94.674342 
842.000000	 94.679225 
841.000000	 94.672919 
840.000000	 94.654228 
839.000000	 94.627467 
838.000000	 94.598372 
837.000000	 94.567912 
836.000000	 94.532643 
835.000000	 94.490241 
834.000000	 94.444266 
833.000000	 94.404345 
832.000000	 94.379451 
831.000000	 94.368166 
830.000000	 94.359337 
829.000000	 94.348190 
828.000000	 94.347248 
827.000000	 94.371303 
826.000000	 94.414246 
825.000000	 94.454159 
824.000000	 94.481471 
823.000000	 94.506735 
822.000000	 94.538233 
821.000000	 94.568231 
820.000000	 94.586025 
819.000000	 94.590263 
818.000000	 94.583169 
817.000000	 94.563128 
816.000000	 94.527534 
815.000000	 94.474288 
814.000000	 94.395650 
813.000000	 94.278061 
812.000000	 94.113208 
811.000000	 93.902668 
810.000000	 93.646582 
809.000000	 93.334955 
808.000000	 92.957553 
807.000000	 92.517377 
806.000000	 92.028097 
805.000000	 91.504553 
804.000000	 90.965258 
803.000000	 90.439568 
802.000000	 89.961338 
801.000000	 89.556092 
800.000000	 89.238704 
799.000000	 89.016640 
798.000000	 88.888571 
797.000000	 88.845357 
796.000000	 88.876004 
795.000000	 88.966545 
794.000000	 89.094282 
793.000000	 89.233997 
792.000000	 89.370116 
791.000000	 89.493158 
790.000000	 89.587286 
789.000000	 89.635391 
788.000000	 89.636134 
787.000000	 89.601331 
786.000000	 89.534420 
785.000000	 89.425494 
784.000000	 89.271707 
783.000000	 89.089273 
782.000000	 88.900354 
781.000000	 88.721421 
780.000000	 88.570259 
779.000000	 88.469380 
778.000000	 88.432561 
777.000000	 88.458472 
776.000000	 88.543172 
775.000000	 88.685076 
774.000000	 88.870881 
773.000000	 89.071348 
772.000000	 89.260936 
771.000000	 89.431905 
770.000000	 89.583383 
769.000000	 89.708814 
768.000000	 89.803441 
767.000000	 89.874872 
766.000000	 89.935862 
765.000000	 89.991479 
764.000000	 90.040243 
763.000000	 90.082145 
762.000000	 90.119154 
761.000000	 90.153389 
760.000000	 90.190702 
759.000000	 90.240417 
758.000000	 90.305395 
757.000000	 90.377150 
756.000000	 90.445877 
755.000000	 90.511010 
754.000000	 90.578196 
753.000000	 90.650720 
752.000000	 90.727469 
751.000000	 90.804004 
750.000000	 90.872152 
749.000000	 90.924374 
748.000000	 90.963369 
747.000000	 91.003631 
746.000000	 91.059651 
745.000000	 91.134494 
744.000000	 91.221049 
743.000000	 91.310812 
742.000000	 91.400176 
741.000000	 91.491621 
740.000000	 91.589963 
739.000000	 91.695193 
738.000000	 91.799889 
737.000000	 91.896566 
736.000000	 91.985210 
735.000000	 92.070046 
734.000000	 92.152433 
733.000000	 92.231710 
732.000000	 92.308601 
731.000000	 92.379837 
730.000000	 92.432601 
729.000000	 92.453609 
728.000000	 92.446447 
727.000000	 92.431914 
726.000000	 92.428360 
725.000000	 92.441248 
724.000000	 92.471367 
723.000000	 92.520261 
722.000000	 92.583318 
721.000000	 92.647968 
720.000000	 92.705240 
719.000000	 92.756760 
718.000000	 92.806655 
717.000000	 92.854932 
716.000000	 92.901515 
715.000000	 92.948079 
714.000000	 92.991951 
713.000000	 93.025125 
712.000000	 93.044731 
711.000000	 93.058303 
710.000000	 93.074656 
709.000000	 93.093673 
708.000000	 93.108522 
707.000000	 93.113653 
706.000000	 93.104239 
705.000000	 93.075646 
704.000000	 93.027729 
703.000000	 92.960539 
702.000000	 92.864157 
701.000000	 92.719125 
700.000000	 92.508314 
699.000000	 92.229735 
698.000000	 91.899314 
697.000000	 91.553144 
696.000000	 91.248391 
695.000000	 91.042138 
694.000000	 90.962185 
693.000000	 90.998812 
692.000000	 91.120349 
691.000000	 91.291532 
690.000000	 91.477273 
689.000000	 91.648432 
688.000000	 91.793948 
687.000000	 91.919124 
686.000000	 92.031510 
685.000000	 92.131442 
684.000000	 92.214623 
683.000000	 92.279672 
682.000000	 92.331060 
681.000000	 92.379218 
680.000000	 92.435665 
679.000000	 92.503181 
678.000000	 92.570323 
677.000000	 92.616818 
676.000000	 92.639739 
675.000000	 92.663900 
674.000000	 92.713083 
673.000000	 92.784813 
672.000000	 92.868090 
671.000000	 92.970042 
670.000000	 93.110349 
669.000000	 93.276755 
668.000000	 93.371450 
667.000000	 93.333899 
666.000000	 93.265139 
665.000000	 93.225038 
664.000000	 93.203651 
663.000000	 93.186254 
662.000000	 93.169338 
661.000000	 93.156895 
660.000000	 93.156409 
659.000000	 93.166470 
658.000000	 93.164185 
657.000000	 93.120431 
656.000000	 93.045050 
655.000000	 92.985109 
654.000000	 92.958156 
653.000000	 92.927678 
652.000000	 92.865589 
651.000000	 92.792387 
650.000000	 92.741173 

