4000.000000	98.619425 
3999.000000	98.619361 
3998.000000	98.619208 
3997.000000	98.618996 
3996.000000	98.618660 
3995.000000	98.618167 
3994.000000	98.617611 
3993.000000	98.617130 
3992.000000	98.616729 
3991.000000	98.616329 
3990.000000	98.615982 
3989.000000	98.615833 
3988.000000	98.615862 
3987.000000	98.615896 
3986.000000	98.615872 
3985.000000	98.615941 
3984.000000	98.616214 
3983.000000	98.616493 
3982.000000	98.616423 
3981.000000	98.615854 
3980.000000	98.614963 
3979.000000	98.614049 
3978.000000	98.613280 
3977.000000	98.612696 
3976.000000	98.612342 
3975.000000	98.612297 
3974.000000	98.612607 
3973.000000	98.613185 
3972.000000	98.613729 
3971.000000	98.613817 
3970.000000	98.613213 
3969.000000	98.612108 
3968.000000	98.610995 
3967.000000	98.610250 
3966.000000	98.609863 
3965.000000	98.609561 
3964.000000	98.609094 
3963.000000	98.608443 
3962.000000	98.607840 
3961.000000	98.607577 
3960.000000	98.607701 
3959.000000	98.607964 
3958.000000	98.608082 
3957.000000	98.608069 
3956.000000	98.608113 
3955.000000	98.608293 
3954.000000	98.608530 
3953.000000	98.608675 
3952.000000	98.608584 
3951.000000	98.608099 
3950.000000	98.607153 
3949.000000	98.605885 
3948.000000	98.604669 
3947.000000	98.603932 
3946.000000	98.603843 
3945.000000	98.604112 
3944.000000	98.604185 
3943.000000	98.603894 
3942.000000	98.603579 
3941.000000	98.603562 
3940.000000	98.603778 
3939.000000	98.603969 
3938.000000	98.604018 
3937.000000	98.604018 
3936.000000	98.604012 
3935.000000	98.603887 
3934.000000	98.603603 
3933.000000	98.603327 
3932.000000	98.603261 
3931.000000	98.603367 
3930.000000	98.603455 
3929.000000	98.603443 
3928.000000	98.603389 
3927.000000	98.603332 
3926.000000	98.603268 
3925.000000	98.603209 
3924.000000	98.603171 
3923.000000	98.603140 
3922.000000	98.603108 
3921.000000	98.603073 
3920.000000	98.603043 
3919.000000	98.603030 
3918.000000	98.603038 
3917.000000	98.603060 
3916.000000	98.603085 
3915.000000	98.603110 
3914.000000	98.603134 
3913.000000	98.603158 
3912.000000	98.603175 
3911.000000	98.603183 
3910.000000	98.603186 
3909.000000	98.603189 
3908.000000	98.603190 
3907.000000	98.603177 
3906.000000	98.603138 
3905.000000	98.603075 
3904.000000	98.603002 
3903.000000	98.602931 
3902.000000	98.602864 
3901.000000	98.602793 
3900.000000	98.602708 
3899.000000	98.602613 
3898.000000	98.602521 
3897.000000	98.602445 
3896.000000	98.602381 
3895.000000	98.602318 
3894.000000	98.602251 
3893.000000	98.602178 
3892.000000	98.602095 
3891.000000	98.602002 
3890.000000	98.601902 
3889.000000	98.601805 
3888.000000	98.601715 
3887.000000	98.601630 
3886.000000	98.601557 
3885.000000	98.601512 
3884.000000	98.601503 
3883.000000	98.601520 
3882.000000	98.601540 
3881.000000	98.601556 
3880.000000	98.601581 
3879.000000	98.601632 
3878.000000	98.601711 
3877.000000	98.601800 
3876.000000	98.601880 
3875.000000	98.601944 
3874.000000	98.602009 
3873.000000	98.602095 
3872.000000	98.602211 
3871.000000	98.602352 
3870.000000	98.602519 
3869.000000	98.602724 
3868.000000	98.602970 
3867.000000	98.603244 
3866.000000	98.603531 
3865.000000	98.603839 
3864.000000	98.604184 
3863.000000	98.604568 
3862.000000	98.604969 
3861.000000	98.605374 
3860.000000	98.605782 
3859.000000	98.606198 
3858.000000	98.606622 
3857.000000	98.607056 
3856.000000	98.607500 
3855.000000	98.607949 
3854.000000	98.608404 
3853.000000	98.608877 
3852.000000	98.609380 
3851.000000	98.609909 
3850.000000	98.610455 
3849.000000	98.611011 
3848.000000	98.611573 
3847.000000	98.612140 
3846.000000	98.612704 
3845.000000	98.613253 
3844.000000	98.613773 
3843.000000	98.614249 
3842.000000	98.614683 
3841.000000	98.615089 
3840.000000	98.615486 
3839.000000	98.615884 
3838.000000	98.616280 
3837.000000	98.616658 
3836.000000	98.617003 
3835.000000	98.617315 
3834.000000	98.617603 
3833.000000	98.617877 
3832.000000	98.618142 
3831.000000	98.618391 
3830.000000	98.618613 
3829.000000	98.618802 
3828.000000	98.618956 
3827.000000	98.619073 
3826.000000	98.619158 
3825.000000	98.619223 
3824.000000	98.619280 
3823.000000	98.619328 
3822.000000	98.619351 
3821.000000	98.619345 
3820.000000	98.619325 
3819.000000	98.619303 
3818.000000	98.619274 
3817.000000	98.619228 
3816.000000	98.619172 
3815.000000	98.619126 
3814.000000	98.619098 
3813.000000	98.619073 
3812.000000	98.619039 
3811.000000	98.618993 
3810.000000	98.618942 
3809.000000	98.618890 
3808.000000	98.618830 
3807.000000	98.618765 
3806.000000	98.618703 
3805.000000	98.618654 
3804.000000	98.618614 
3803.000000	98.618575 
3802.000000	98.618543 
3801.000000	98.618537 
3800.000000	98.618569 
3799.000000	98.618621 
3798.000000	98.618664 
3797.000000	98.618688 
3796.000000	98.618704 
3795.000000	98.618725 
3794.000000	98.618753 
3793.000000	98.618787 
3792.000000	98.618829 
3791.000000	98.618879 
3790.000000	98.618931 
3789.000000	98.618982 
3788.000000	98.619034 
3787.000000	98.619086 
3786.000000	98.619137 
3785.000000	98.619186 
3784.000000	98.619242 
3783.000000	98.619302 
3782.000000	98.619351 
3781.000000	98.619377 
3780.000000	98.619381 
3779.000000	98.619373 
3778.000000	98.619353 
3777.000000	98.619315 
3776.000000	98.619262 
3775.000000	98.619202 
3774.000000	98.619139 
3773.000000	98.619067 
3772.000000	98.618974 
3771.000000	98.618856 
3770.000000	98.618719 
3769.000000	98.618565 
3768.000000	98.618380 
3767.000000	98.618149 
3766.000000	98.617869 
3765.000000	98.617551 
3764.000000	98.617207 
3763.000000	98.616839 
3762.000000	98.616443 
3761.000000	98.616022 
3760.000000	98.615586 
3759.000000	98.615130 
3758.000000	98.614631 
3757.000000	98.614066 
3756.000000	98.613442 
3755.000000	98.612953 
3754.000000	98.612587 
3753.000000	98.611866 
3752.000000	98.610784 
3751.000000	98.610073 
3750.000000	98.609478 
3749.000000	98.608130 
3748.000000	98.606909 
3747.000000	98.607410 
3746.000000	98.608258 
3745.000000	98.606004 
3744.000000	98.602258 
3743.000000	98.601422 
3742.000000	98.602363 
3741.000000	98.600893 
3740.000000	98.596356 
3739.000000	98.593187 
3738.000000	98.594003 
3737.000000	98.595109 
3736.000000	98.593424 
3735.000000	98.592323 
3734.000000	98.594852 
3733.000000	98.596926 
3732.000000	98.594695 
3731.000000	98.590904 
3730.000000	98.589794 
3729.000000	98.590501 
3728.000000	98.588218 
3727.000000	98.581130 
3726.000000	98.573925 
3725.000000	98.570845 
3724.000000	98.570009 
3723.000000	98.568211 
3722.000000	98.566342 
3721.000000	98.566746 
3720.000000	98.568543 
3719.000000	98.568991 
3718.000000	98.565708 
3717.000000	98.559480 
3716.000000	98.553489 
3715.000000	98.548117 
3714.000000	98.540114 
3713.000000	98.528161 
3712.000000	98.516996 
3711.000000	98.511333 
3710.000000	98.508513 
3709.000000	98.503584 
3708.000000	98.494872 
3707.000000	98.483844 
3706.000000	98.473042 
3705.000000	98.463090 
3704.000000	98.451926 
3703.000000	98.437651 
3702.000000	98.421759 
3701.000000	98.407997 
3700.000000	98.398531 
3699.000000	98.392005 
3698.000000	98.384103 
3697.000000	98.372306 
3696.000000	98.360723 
3695.000000	98.354491 
3694.000000	98.352485 
3693.000000	98.350787 
3692.000000	98.349449 
3691.000000	98.351305 
3690.000000	98.353943 
3689.000000	98.350879 
3688.000000	98.341807 
3687.000000	98.334120 
3686.000000	98.332265 
3685.000000	98.332331 
3684.000000	98.329785 
3683.000000	98.326265 
3682.000000	98.324237 
3681.000000	98.319081 
3680.000000	98.305698 
3679.000000	98.288032 
3678.000000	98.273742 
3677.000000	98.258763 
3676.000000	98.236472 
3675.000000	98.214991 
3674.000000	98.203093 
3673.000000	98.197458 
3672.000000	98.187971 
3671.000000	98.169194 
3670.000000	98.150437 
3669.000000	98.141610 
3668.000000	98.135843 
3667.000000	98.122905 
3666.000000	98.102874 
3665.000000	98.081725 
3664.000000	98.063721 
3663.000000	98.048566 
3662.000000	98.032610 
3661.000000	98.013246 
3660.000000	97.992682 
3659.000000	97.974797 
3658.000000	97.960414 
3657.000000	97.945396 
3656.000000	97.927853 
3655.000000	97.910953 
3654.000000	97.897099 
3653.000000	97.883557 
3652.000000	97.864267 
3651.000000	97.839278 
3650.000000	97.818913 
3649.000000	97.806774 
3648.000000	97.791764 
3647.000000	97.768039 
3646.000000	97.742459 
3645.000000	97.722200 
3644.000000	97.707563 
3643.000000	97.695988 
3642.000000	97.686444 
3641.000000	97.679184 
3640.000000	97.671672 
3639.000000	97.659210 
3638.000000	97.641380 
3637.000000	97.622479 
3636.000000	97.604956 
3635.000000	97.585807 
3634.000000	97.564036 
3633.000000	97.545056 
3632.000000	97.532467 
3631.000000	97.518370 
3630.000000	97.491973 
3629.000000	97.463590 
3628.000000	97.452377 
3627.000000	97.455535 
3626.000000	97.457387 
3625.000000	97.451369 
3624.000000	97.443054 
3623.000000	97.440881 
3622.000000	97.445711 
3621.000000	97.450886 
3620.000000	97.452791 
3619.000000	97.455154 
3618.000000	97.460888 
3617.000000	97.469879 
3616.000000	97.482913 
3615.000000	97.499217 
3614.000000	97.515811 
3613.000000	97.531230 
3612.000000	97.546784 
3611.000000	97.563954 
3610.000000	97.582777 
3609.000000	97.602903 
3608.000000	97.623490 
3607.000000	97.641113 
3606.000000	97.651366 
3605.000000	97.654944 
3604.000000	97.658109 
3603.000000	97.666386 
3602.000000	97.679445 
3601.000000	97.692203 
3600.000000	97.702190 
3599.000000	97.710922 
3598.000000	97.720077 
3597.000000	97.729433 
3596.000000	97.738112 
3595.000000	97.743829 
3594.000000	97.745128 
3593.000000	97.743326 
3592.000000	97.742336 
3591.000000	97.745970 
3590.000000	97.753624 
3589.000000	97.760770 
3588.000000	97.765029 
3587.000000	97.768079 
3586.000000	97.770908 
3585.000000	97.772517 
3584.000000	97.772237 
3583.000000	97.770019 
3582.000000	97.766308 
3581.000000	97.761546 
3580.000000	97.756805 
3579.000000	97.753871 
3578.000000	97.754388 
3577.000000	97.758319 
3576.000000	97.763271 
3575.000000	97.765817 
3574.000000	97.763902 
3573.000000	97.758819 
3572.000000	97.753640 
3571.000000	97.750272 
3570.000000	97.746940 
3569.000000	97.739584 
3568.000000	97.728124 
3567.000000	97.718501 
3566.000000	97.714798 
3565.000000	97.715051 
3564.000000	97.716087 
3563.000000	97.717203 
3562.000000	97.719230 
3561.000000	97.722096 
3560.000000	97.723775 
3559.000000	97.722153 
3558.000000	97.717187 
3557.000000	97.711186 
3556.000000	97.706742 
3555.000000	97.704526 
3554.000000	97.702963 
3553.000000	97.700498 
3552.000000	97.697429 
3551.000000	97.694739 
3550.000000	97.691998 
3549.000000	97.687674 
3548.000000	97.681621 
3547.000000	97.676016 
3546.000000	97.672915 
3545.000000	97.672037 
3544.000000	97.671826 
3543.000000	97.671383 
3542.000000	97.670552 
3541.000000	97.669194 
3540.000000	97.667109 
3539.000000	97.664401 
3538.000000	97.661580 
3537.000000	97.659268 
3536.000000	97.657732 
3535.000000	97.656496 
3534.000000	97.654829 
3533.000000	97.652514 
3532.000000	97.650047 
3531.000000	97.648023 
3530.000000	97.646508 
3529.000000	97.645053 
3528.000000	97.643214 
3527.000000	97.641050 
3526.000000	97.639005 
3525.000000	97.637411 
3524.000000	97.636257 
3523.000000	97.635328 
3522.000000	97.634336 
3521.000000	97.633097 
3520.000000	97.631663 
3519.000000	97.630236 
3518.000000	97.628922 
3517.000000	97.627546 
3516.000000	97.625779 
3515.000000	97.623435 
3514.000000	97.620756 
3513.000000	97.618341 
3512.000000	97.616769 
3511.000000	97.616252 
3510.000000	97.616476 
3509.000000	97.616640 
3508.000000	97.615933 
3507.000000	97.614142 
3506.000000	97.611746 
3505.000000	97.609543 
3504.000000	97.608138 
3503.000000	97.607566 
3502.000000	97.607272 
3501.000000	97.606520 
3500.000000	97.604870 
3499.000000	97.602363 
3498.000000	97.599539 
3497.000000	97.597301 
3496.000000	97.596340 
3495.000000	97.596517 
3494.000000	97.596906 
3493.000000	97.596647 
3492.000000	97.595631 
3491.000000	97.594303 
3490.000000	97.593055 
3489.000000	97.591851 
3488.000000	97.590373 
3487.000000	97.588370 
3486.000000	97.585807 
3485.000000	97.582781 
3484.000000	97.579390 
3483.000000	97.575741 
3482.000000	97.572113 
3481.000000	97.568919 
3480.000000	97.566392 
3479.000000	97.564331 
3478.000000	97.562293 
3477.000000	97.560049 
3476.000000	97.557734 
3475.000000	97.555572 
3474.000000	97.553574 
3473.000000	97.551592 
3472.000000	97.549475 
3471.000000	97.547060 
3470.000000	97.544161 
3469.000000	97.540722 
3468.000000	97.536972 
3467.000000	97.533371 
3466.000000	97.530317 
3465.000000	97.527881 
3464.000000	97.525757 
3463.000000	97.523427 
3462.000000	97.520517 
3461.000000	97.517034 
3460.000000	97.513316 
3459.000000	97.509784 
3458.000000	97.506652 
3457.000000	97.503847 
3456.000000	97.501101 
3455.000000	97.498166 
3454.000000	97.495019 
3453.000000	97.491832 
3452.000000	97.488776 
3451.000000	97.485842 
3450.000000	97.482860 
3449.000000	97.479681 
3448.000000	97.476310 
3447.000000	97.472886 
3446.000000	97.469563 
3445.000000	97.466439 
3444.000000	97.463584 
3443.000000	97.461013 
3442.000000	97.458575 
3441.000000	97.455936 
3440.000000	97.452820 
3439.000000	97.449279 
3438.000000	97.445701 
3437.000000	97.442380 
3436.000000	97.439244 
3435.000000	97.436148 
3434.000000	97.433266 
3433.000000	97.430871 
3432.000000	97.428860 
3431.000000	97.426744 
3430.000000	97.424099 
3429.000000	97.420913 
3428.000000	97.417517 
3427.000000	97.414295 
3426.000000	97.411405 
3425.000000	97.408779 
3424.000000	97.406391 
3423.000000	97.404446 
3422.000000	97.403155 
3421.000000	97.402315 
3420.000000	97.401283 
3419.000000	97.399499 
3418.000000	97.397067 
3417.000000	97.394734 
3416.000000	97.393229 
3415.000000	97.392533 
3414.000000	97.391729 
3413.000000	97.389691 
3412.000000	97.386114 
3411.000000	97.381964 
3410.000000	97.378865 
3409.000000	97.377908 
3408.000000	97.378917 
3407.000000	97.380619 
3406.000000	97.381554 
3405.000000	97.380971 
3404.000000	97.378931 
3403.000000	97.375872 
3402.000000	97.372451 
3401.000000	97.369590 
3400.000000	97.367975 
3399.000000	97.367246 
3398.000000	97.366171 
3397.000000	97.364076 
3396.000000	97.361847 
3395.000000	97.361167 
3394.000000	97.362926 
3393.000000	97.366550 
3392.000000	97.370559 
3391.000000	97.373568 
3390.000000	97.375100 
3389.000000	97.375741 
3388.000000	97.376418 
3387.000000	97.377362 
3386.000000	97.377926 
3385.000000	97.377547 
3384.000000	97.376588 
3383.000000	97.375967 
3382.000000	97.376213 
3381.000000	97.377049 
3380.000000	97.377708 
3379.000000	97.377526 
3378.000000	97.376506 
3377.000000	97.375422 
3376.000000	97.375058 
3375.000000	97.375332 
3374.000000	97.375477 
3373.000000	97.375158 
3372.000000	97.374938 
3371.000000	97.375551 
3370.000000	97.377206 
3369.000000	97.379733 
3368.000000	97.382913 
3367.000000	97.386346 
3366.000000	97.389416 
3365.000000	97.391798 
3364.000000	97.393728 
3363.000000	97.395487 
3362.000000	97.396971 
3361.000000	97.398078 
3360.000000	97.399130 
3359.000000	97.400452 
3358.000000	97.401791 
3357.000000	97.402689 
3356.000000	97.403359 
3355.000000	97.404679 
3354.000000	97.407131 
3353.000000	97.410122 
3352.000000	97.412513 
3351.000000	97.413800 
3350.000000	97.414611 
3349.000000	97.416051 
3348.000000	97.418571 
3347.000000	97.421598 
3346.000000	97.424180 
3345.000000	97.425955 
3344.000000	97.427284 
3343.000000	97.428651 
3342.000000	97.430173 
3341.000000	97.431750 
3340.000000	97.433412 
3339.000000	97.435286 
3338.000000	97.437336 
3337.000000	97.439334 
3336.000000	97.441075 
3335.000000	97.442539 
3334.000000	97.443876 
3333.000000	97.445314 
3332.000000	97.447040 
3331.000000	97.449087 
3330.000000	97.451319 
3329.000000	97.453579 
3328.000000	97.455822 
3327.000000	97.458096 
3326.000000	97.460416 
3325.000000	97.462707 
3324.000000	97.464857 
3323.000000	97.466806 
3322.000000	97.468584 
3321.000000	97.470263 
3320.000000	97.471882 
3319.000000	97.473452 
3318.000000	97.475043 
3317.000000	97.476826 
3316.000000	97.478954 
3315.000000	97.481405 
3314.000000	97.483991 
3313.000000	97.486473 
3312.000000	97.488654 
3311.000000	97.490411 
3310.000000	97.491775 
3309.000000	97.492988 
3308.000000	97.494359 
3307.000000	97.495990 
3306.000000	97.497762 
3305.000000	97.499601 
3304.000000	97.501607 
3303.000000	97.503876 
3302.000000	97.506323 
3301.000000	97.508754 
3300.000000	97.511027 
3299.000000	97.513097 
3298.000000	97.515006 
3297.000000	97.516877 
3296.000000	97.518862 
3295.000000	97.520997 
3294.000000	97.523175 
3293.000000	97.525268 
3292.000000	97.527273 
3291.000000	97.529288 
3290.000000	97.531387 
3289.000000	97.533554 
3288.000000	97.535736 
3287.000000	97.537894 
3286.000000	97.540018 
3285.000000	97.542118 
3284.000000	97.544211 
3283.000000	97.546307 
3282.000000	97.548397 
3281.000000	97.550460 
3280.000000	97.552481 
3279.000000	97.554472 
3278.000000	97.556509 
3277.000000	97.558677 
3276.000000	97.561001 
3275.000000	97.563389 
3274.000000	97.565715 
3273.000000	97.567948 
3272.000000	97.570150 
3271.000000	97.572398 
3270.000000	97.574695 
3269.000000	97.577006 
3268.000000	97.579335 
3267.000000	97.581707 
3266.000000	97.584102 
3265.000000	97.586458 
3264.000000	97.588770 
3263.000000	97.591118 
3262.000000	97.593576 
3261.000000	97.596130 
3260.000000	97.598718 
3259.000000	97.601301 
3258.000000	97.603854 
3257.000000	97.606318 
3256.000000	97.608644 
3255.000000	97.610904 
3254.000000	97.613322 
3253.000000	97.616117 
3252.000000	97.619317 
3251.000000	97.622684 
3250.000000	97.625841 
3249.000000	97.628513 
3248.000000	97.630697 
3247.000000	97.632702 
3246.000000	97.634981 
3245.000000	97.637795 
3244.000000	97.640988 
3243.000000	97.644078 
3242.000000	97.646711 
3241.000000	97.649028 
3240.000000	97.651488 
3239.000000	97.654383 
3238.000000	97.657707 
3237.000000	97.661434 
3236.000000	97.665611 
3235.000000	97.670042 
3234.000000	97.674102 
3233.000000	97.677225 
3232.000000	97.679471 
3231.000000	97.681547 
3230.000000	97.684240 
3229.000000	97.687828 
3228.000000	97.692052 
3227.000000	97.696408 
3226.000000	97.700497 
3225.000000	97.704186 
3224.000000	97.707516 
3223.000000	97.710507 
3222.000000	97.713164 
3221.000000	97.715679 
3220.000000	97.718437 
3219.000000	97.721656 
3218.000000	97.725135 
3217.000000	97.728500 
3216.000000	97.731630 
3215.000000	97.734674 
3214.000000	97.737707 
3213.000000	97.740611 
3212.000000	97.743406 
3211.000000	97.746482 
3210.000000	97.750248 
3209.000000	97.754533 
3208.000000	97.758535 
3207.000000	97.761504 
3206.000000	97.763421 
3205.000000	97.764932 
3204.000000	97.766629 
3203.000000	97.768596 
3202.000000	97.770722 
3201.000000	97.773196 
3200.000000	97.776441 
3199.000000	97.780618 
3198.000000	97.785357 
3197.000000	97.789984 
3196.000000	97.793874 
3195.000000	97.796648 
3194.000000	97.798337 
3193.000000	97.799545 
3192.000000	97.801172 
3191.000000	97.803636 
3190.000000	97.806488 
3189.000000	97.808992 
3188.000000	97.811058 
3187.000000	97.813388 
3186.000000	97.816703 
3185.000000	97.821071 
3184.000000	97.825894 
3183.000000	97.830347 
3182.000000	97.833925 
3181.000000	97.836775 
3180.000000	97.839579 
3179.000000	97.842982 
3178.000000	97.847020 
3177.000000	97.851151 
3176.000000	97.854863 
3175.000000	97.858150 
3174.000000	97.861354 
3173.000000	97.864707 
3172.000000	97.868144 
3171.000000	97.871517 
3170.000000	97.874809 
3169.000000	97.878029 
3168.000000	97.881011 
3167.000000	97.883514 
3166.000000	97.885561 
3165.000000	97.887581 
3164.000000	97.890123 
3163.000000	97.893432 
3162.000000	97.897308 
3161.000000	97.901242 
3160.000000	97.904721 
3159.000000	97.907520 
3158.000000	97.909784 
3157.000000	97.911892 
3156.000000	97.914194 
3155.000000	97.916817 
3154.000000	97.919697 
3153.000000	97.922678 
3152.000000	97.925585 
3151.000000	97.928321 
3150.000000	97.930960 
3149.000000	97.933705 
3148.000000	97.936677 
3147.000000	97.939790 
3146.000000	97.942856 
3145.000000	97.945759 
3144.000000	97.948487 
3143.000000	97.951064 
3142.000000	97.953533 
3141.000000	97.955995 
3140.000000	97.958586 
3139.000000	97.961346 
3138.000000	97.964151 
3137.000000	97.966813 
3136.000000	97.969266 
3135.000000	97.971592 
3134.000000	97.973929 
3133.000000	97.976355 
3132.000000	97.978865 
3131.000000	97.981399 
3130.000000	97.983870 
3129.000000	97.986220 
3128.000000	97.988453 
3127.000000	97.990653 
3126.000000	97.992926 
3125.000000	97.995322 
3124.000000	97.997816 
3123.000000	98.000342 
3122.000000	98.002832 
3121.000000	98.005233 
3120.000000	98.007527 
3119.000000	98.009774 
3118.000000	98.012103 
3117.000000	98.014617 
3116.000000	98.017290 
3115.000000	98.019981 
3114.000000	98.022563 
3113.000000	98.024992 
3112.000000	98.027267 
3111.000000	98.029386 
3110.000000	98.031370 
3109.000000	98.033305 
3108.000000	98.035319 
3107.000000	98.037514 
3106.000000	98.039909 
3105.000000	98.042392 
3104.000000	98.044750 
3103.000000	98.046856 
3102.000000	98.048793 
3101.000000	98.050773 
3100.000000	98.052876 
3099.000000	98.054947 
3098.000000	98.056822 
3097.000000	98.058533 
3096.000000	98.060257 
3095.000000	98.062094 
3094.000000	98.064026 
3093.000000	98.066015 
3092.000000	98.068046 
3091.000000	98.070090 
3090.000000	98.072103 
3089.000000	98.074064 
3088.000000	98.075983 
3087.000000	98.077875 
3086.000000	98.079744 
3085.000000	98.081612 
3084.000000	98.083531 
3083.000000	98.085543 
3082.000000	98.087598 
3081.000000	98.089571 
3080.000000	98.091391 
3079.000000	98.093128 
3078.000000	98.094968 
3077.000000	98.097058 
3076.000000	98.099335 
3075.000000	98.101482 
3074.000000	98.103126 
3073.000000	98.104179 
3072.000000	98.104993 
3071.000000	98.106107 
3070.000000	98.107814 
3069.000000	98.110054 
3068.000000	98.112549 
3067.000000	98.114871 
3066.000000	98.116495 
3065.000000	98.117092 
3064.000000	98.116934 
3063.000000	98.116869 
3062.000000	98.117704 
3061.000000	98.119694 
3060.000000	98.122496 
3059.000000	98.125487 
3058.000000	98.128188 
3057.000000	98.130448 
3056.000000	98.132211 
3055.000000	98.133163 
3054.000000	98.132981 
3053.000000	98.132125 
3052.000000	98.132044 
3051.000000	98.134070 
3050.000000	98.138150 
3049.000000	98.142891 
3048.000000	98.146783 
3047.000000	98.149187 
3046.000000	98.150325 
3045.000000	98.150755 
3044.000000	98.150849 
3043.000000	98.150561 
3042.000000	98.149869 
3041.000000	98.149392 
3040.000000	98.149934 
3039.000000	98.151155 
3038.000000	98.151416 
3037.000000	98.149718 
3036.000000	98.147324 
3035.000000	98.146630 
3034.000000	98.148469 
3033.000000	98.151191 
3032.000000	98.152366 
3031.000000	98.150899 
3030.000000	98.147692 
3029.000000	98.144795 
3028.000000	98.143807 
3027.000000	98.144638 
3026.000000	98.145778 
3025.000000	98.145970 
3024.000000	98.145332 
3023.000000	98.144484 
3022.000000	98.143132 
3021.000000	98.140442 
3020.000000	98.136575 
3019.000000	98.132941 
3018.000000	98.130813 
3017.000000	98.130304 
3016.000000	98.130628 
3015.000000	98.130625 
3014.000000	98.129176 
3013.000000	98.126039 
3012.000000	98.122365 
3011.000000	98.119575 
3010.000000	98.117551 
3009.000000	98.114713 
3008.000000	98.110048 
3007.000000	98.104281 
3006.000000	98.098806 
3005.000000	98.094175 
3004.000000	98.089982 
3003.000000	98.085592 
3002.000000	98.080622 
3001.000000	98.075275 
3000.000000	98.070587 
2999.000000	98.067712 
2998.000000	98.066553 
2997.000000	98.065672 
2996.000000	98.064055 
2995.000000	98.062355 
2994.000000	98.061499 
2993.000000	98.060458 
2992.000000	98.056639 
2991.000000	98.048830 
2990.000000	98.039138 
2989.000000	98.031460 
2988.000000	98.028273 
2987.000000	98.029341 
2986.000000	98.032846 
2985.000000	98.036935 
2984.000000	98.040180 
2983.000000	98.041489 
2982.000000	98.040493 
2981.000000	98.037990 
2980.000000	98.035454 
2979.000000	98.033892 
2978.000000	98.033353 
2977.000000	98.033363 
2976.000000	98.033284 
2975.000000	98.032271 
2974.000000	98.029668 
2973.000000	98.025994 
2972.000000	98.023076 
2971.000000	98.022610 
2970.000000	98.024690 
2969.000000	98.027969 
2968.000000	98.030876 
2967.000000	98.032413 
2966.000000	98.032324 
2965.000000	98.031375 
2964.000000	98.031370 
2963.000000	98.033972 
2962.000000	98.039025 
2961.000000	98.044354 
2960.000000	98.047642 
2959.000000	98.048509 
2958.000000	98.048621 
2957.000000	98.049960 
2956.000000	98.053092 
2955.000000	98.057042 
2954.000000	98.060666 
2953.000000	98.063975 
2952.000000	98.067952 
2951.000000	98.073120 
2950.000000	98.078580 
2949.000000	98.082644 
2948.000000	98.084250 
2947.000000	98.083638 
2946.000000	98.082005 
2945.000000	98.080840 
2944.000000	98.081258 
2943.000000	98.083467 
2942.000000	98.086726 
2941.000000	98.089823 
2940.000000	98.091511 
2939.000000	98.090730 
2938.000000	98.087103 
2937.000000	98.081672 
2936.000000	98.076704 
2935.000000	98.074044 
2934.000000	98.073610 
2933.000000	98.073815 
2932.000000	98.073257 
2931.000000	98.071614 
2930.000000	98.069134 
2929.000000	98.065957 
2928.000000	98.062227 
2927.000000	98.058561 
2926.000000	98.056087 
2925.000000	98.055841 
2924.000000	98.057935 
2923.000000	98.061296 
2922.000000	98.064439 
2921.000000	98.066572 
2920.000000	98.067638 
2919.000000	98.067509 
2918.000000	98.066057 
2917.000000	98.064345 
2916.000000	98.064677 
2915.000000	98.068484 
2914.000000	98.074531 
2913.000000	98.080127 
2912.000000	98.084128 
2911.000000	98.087744 
2910.000000	98.092253 
2909.000000	98.097012 
2908.000000	98.100247 
2907.000000	98.101113 
2906.000000	98.100293 
2905.000000	98.098945 
2904.000000	98.097699 
2903.000000	98.096963 
2902.000000	98.097548 
2901.000000	98.100446 
2900.000000	98.106092 
2899.000000	98.113668 
2898.000000	98.121446 
2897.000000	98.127844 
2896.000000	98.132256 
2895.000000	98.134989 
2894.000000	98.136735 
2893.000000	98.138234 
2892.000000	98.140186 
2891.000000	98.143089 
2890.000000	98.147015 
2889.000000	98.151571 
2888.000000	98.156075 
2887.000000	98.159885 
2886.000000	98.162726 
2885.000000	98.164844 
2884.000000	98.166769 
2883.000000	98.168900 
2882.000000	98.171426 
2881.000000	98.174525 
2880.000000	98.178279 
2879.000000	98.182291 
2878.000000	98.185783 
2877.000000	98.188437 
2876.000000	98.190933 
2875.000000	98.194262 
2874.000000	98.198574 
2873.000000	98.203014 
2872.000000	98.206683 
2871.000000	98.209458 
2870.000000	98.211786 
2869.000000	98.214083 
2868.000000	98.216552 
2867.000000	98.219471 
2866.000000	98.223280 
2865.000000	98.228210 
2864.000000	98.233779 
2863.000000	98.238748 
2862.000000	98.241914 
2861.000000	98.243158 
2860.000000	98.243717 
2859.000000	98.245133 
2858.000000	98.247820 
2857.000000	98.250918 
2856.000000	98.253420 
2855.000000	98.255081 
2854.000000	98.256180 
2853.000000	98.256956 
2852.000000	98.257706 
2851.000000	98.259205 
2850.000000	98.262513 
2849.000000	98.268234 
2848.000000	98.275976 
2847.000000	98.284493 
2846.000000	98.292368 
2845.000000	98.298710 
2844.000000	98.303428 
2843.000000	98.307087 
2842.000000	98.310597 
2841.000000	98.314809 
2840.000000	98.319933 
2839.000000	98.325118 
2838.000000	98.328926 
2837.000000	98.330620 
2836.000000	98.330892 
2835.000000	98.331126 
2834.000000	98.332087 
2833.000000	98.333685 
2832.000000	98.335821 
2831.000000	98.338795 
2830.000000	98.342714 
2829.000000	98.346976 
2828.000000	98.350672 
2827.000000	98.353327 
2826.000000	98.355124 
2825.000000	98.356673 
2824.000000	98.358621 
2823.000000	98.361186 
2822.000000	98.363917 
2821.000000	98.366130 
2820.000000	98.367640 
2819.000000	98.368873 
2818.000000	98.370251 
2817.000000	98.371810 
2816.000000	98.373465 
2815.000000	98.375259 
2814.000000	98.377123 
2813.000000	98.378790 
2812.000000	98.380262 
2811.000000	98.382129 
2810.000000	98.385054 
2809.000000	98.388986 
2808.000000	98.393012 
2807.000000	98.395978 
2806.000000	98.397198 
2805.000000	98.396747 
2804.000000	98.395295 
2803.000000	98.393649 
2802.000000	98.392318 
2801.000000	98.391516 
2800.000000	98.391506 
2799.000000	98.392643 
2798.000000	98.394934 
2797.000000	98.397771 
2796.000000	98.400371 
2795.000000	98.402424 
2794.000000	98.404143 
2793.000000	98.405743 
2792.000000	98.407083 
2791.000000	98.407809 
2790.000000	98.407702 
2789.000000	98.406868 
2788.000000	98.405785 
2787.000000	98.405205 
2786.000000	98.405782 
2785.000000	98.407628 
2784.000000	98.410178 
2783.000000	98.412559 
2782.000000	98.414247 
2781.000000	98.415327 
2780.000000	98.416150 
2779.000000	98.416911 
2778.000000	98.417608 
2777.000000	98.418296 
2776.000000	98.419141 
2775.000000	98.420192 
2774.000000	98.421249 
2773.000000	98.422085 
2772.000000	98.422718 
2771.000000	98.423354 
2770.000000	98.424109 
2769.000000	98.424885 
2768.000000	98.425520 
2767.000000	98.425965 
2766.000000	98.426306 
2765.000000	98.426672 
2764.000000	98.427161 
2763.000000	98.427820 
2762.000000	98.428662 
2761.000000	98.429688 
2760.000000	98.430852 
2759.000000	98.432043 
2758.000000	98.433142 
2757.000000	98.434133 
2756.000000	98.435079 
2755.000000	98.435985 
2754.000000	98.436743 
2753.000000	98.437295 
2752.000000	98.437813 
2751.000000	98.438569 
2750.000000	98.439645 
2749.000000	98.440848 
2748.000000	98.441937 
2747.000000	98.442888 
2746.000000	98.443830 
2745.000000	98.444795 
2744.000000	98.445675 
2743.000000	98.446410 
2742.000000	98.447104 
2741.000000	98.447922 
2740.000000	98.448945 
2739.000000	98.450163 
2738.000000	98.451499 
2737.000000	98.452784 
2736.000000	98.453791 
2735.000000	98.454401 
2734.000000	98.454726 
2733.000000	98.455033 
2732.000000	98.455526 
2731.000000	98.456227 
2730.000000	98.457062 
2729.000000	98.457986 
2728.000000	98.459005 
2727.000000	98.460095 
2726.000000	98.461124 
2725.000000	98.461906 
2724.000000	98.462367 
2723.000000	98.462666 
2722.000000	98.463087 
2721.000000	98.463776 
2720.000000	98.464643 
2719.000000	98.465541 
2718.000000	98.466492 
2717.000000	98.467629 
2716.000000	98.468919 
2715.000000	98.470031 
2714.000000	98.470620 
2713.000000	98.470683 
2712.000000	98.470607 
2711.000000	98.470854 
2710.000000	98.471597 
2709.000000	98.472618 
2708.000000	98.473455 
2707.000000	98.473719 
2706.000000	98.473343 
2705.000000	98.472591 
2704.000000	98.471908 
2703.000000	98.471700 
2702.000000	98.472165 
2701.000000	98.473151 
2700.000000	98.474189 
2699.000000	98.474833 
2698.000000	98.475001 
2697.000000	98.474908 
2696.000000	98.474705 
2695.000000	98.474432 
2694.000000	98.474350 
2693.000000	98.474956 
2692.000000	98.476439 
2691.000000	98.478258 
2690.000000	98.479490 
2689.000000	98.479529 
2688.000000	98.478348 
2687.000000	98.476347 
2686.000000	98.474204 
2685.000000	98.472631 
2684.000000	98.471952 
2683.000000	98.471979 
2682.000000	98.472514 
2681.000000	98.473759 
2680.000000	98.475879 
2679.000000	98.478353 
2678.000000	98.480261 
2677.000000	98.481226 
2676.000000	98.481544 
2675.000000	98.481408 
2674.000000	98.480629 
2673.000000	98.479317 
2672.000000	98.478235 
2671.000000	98.478039 
2670.000000	98.478453 
2669.000000	98.478610 
2668.000000	98.478018 
2667.000000	98.476877 
2666.000000	98.475577 
2665.000000	98.474254 
2664.000000	98.472762 
2663.000000	98.470808 
2662.000000	98.468185 
2661.000000	98.465140 
2660.000000	98.462507 
2659.000000	98.461134 
2658.000000	98.461041 
2657.000000	98.461227 
2656.000000	98.460472 
2655.000000	98.458386 
2654.000000	98.455674 
2653.000000	98.453424 
2652.000000	98.452224 
2651.000000	98.451968 
2650.000000	98.452270 
2649.000000	98.452772 
2648.000000	98.453084 
2647.000000	98.452770 
2646.000000	98.451647 
2645.000000	98.449965 
2644.000000	98.448163 
2643.000000	98.446565 
2642.000000	98.445406 
2641.000000	98.444865 
2640.000000	98.444904 
2639.000000	98.445223 
2638.000000	98.445511 
2637.000000	98.445574 
2636.000000	98.445146 
2635.000000	98.443920 
2634.000000	98.441999 
2633.000000	98.440029 
2632.000000	98.438595 
2631.000000	98.437768 
2630.000000	98.437461 
2629.000000	98.437848 
2628.000000	98.438921 
2627.000000	98.439953 
2626.000000	98.440084 
2625.000000	98.439400 
2624.000000	98.438837 
2623.000000	98.439029 
2622.000000	98.439748 
2621.000000	98.440464 
2620.000000	98.440943 
2619.000000	98.441126 
2618.000000	98.440947 
2617.000000	98.440589 
2616.000000	98.440543 
2615.000000	98.441009 
2614.000000	98.441531 
2613.000000	98.441608 
2612.000000	98.441435 
2611.000000	98.441612 
2610.000000	98.442235 
2609.000000	98.442769 
2608.000000	98.442863 
2607.000000	98.442848 
2606.000000	98.443225 
2605.000000	98.443905 
2604.000000	98.444270 
2603.000000	98.443905 
2602.000000	98.442996 
2601.000000	98.442112 
2600.000000	98.441708 
2599.000000	98.441905 
2598.000000	98.442607 
2597.000000	98.443605 
2596.000000	98.444579 
2595.000000	98.445225 
2594.000000	98.445536 
2593.000000	98.445882 
2592.000000	98.446661 
2591.000000	98.447912 
2590.000000	98.449310 
2589.000000	98.450452 
2588.000000	98.451143 
2587.000000	98.451425 
2586.000000	98.451511 
2585.000000	98.451705 
2584.000000	98.452215 
2583.000000	98.452976 
2582.000000	98.453705 
2581.000000	98.454198 
2580.000000	98.454518 
2579.000000	98.454858 
2578.000000	98.455341 
2577.000000	98.456004 
2576.000000	98.456857 
2575.000000	98.457812 
2574.000000	98.458674 
2573.000000	98.459396 
2572.000000	98.460195 
2571.000000	98.461258 
2570.000000	98.462424 
2569.000000	98.463316 
2568.000000	98.463772 
2567.000000	98.464009 
2566.000000	98.464380 
2565.000000	98.465034 
2564.000000	98.465857 
2563.000000	98.466623 
2562.000000	98.467180 
2561.000000	98.467542 
2560.000000	98.467883 
2559.000000	98.468381 
2558.000000	98.469040 
2557.000000	98.469727 
2556.000000	98.470357 
2555.000000	98.471021 
2554.000000	98.471895 
2553.000000	98.473034 
2552.000000	98.474265 
2551.000000	98.475273 
2550.000000	98.475842 
2549.000000	98.475998 
2548.000000	98.475962 
2547.000000	98.475935 
2546.000000	98.475975 
2545.000000	98.476088 
2544.000000	98.476336 
2543.000000	98.476791 
2542.000000	98.477432 
2541.000000	98.478125 
2540.000000	98.478736 
2539.000000	98.479231 
2538.000000	98.479637 
2537.000000	98.479961 
2536.000000	98.480171 
2535.000000	98.480269 
2534.000000	98.480351 
2533.000000	98.480558 
2532.000000	98.480949 
2531.000000	98.481471 
2530.000000	98.481979 
2529.000000	98.482339 
2528.000000	98.482513 
2527.000000	98.482560 
2526.000000	98.482573 
2525.000000	98.482600 
2524.000000	98.482628 
2523.000000	98.482636 
2522.000000	98.482645 
2521.000000	98.482705 
2520.000000	98.482842 
2519.000000	98.483020 
2518.000000	98.483154 
2517.000000	98.483197 
2516.000000	98.483168 
2515.000000	98.483125 
2514.000000	98.483108 
2513.000000	98.483114 
2512.000000	98.483104 
2511.000000	98.483031 
2510.000000	98.482887 
2509.000000	98.482719 
2508.000000	98.482613 
2507.000000	98.482634 
2506.000000	98.482769 
2505.000000	98.482939 
2504.000000	98.483053 
2503.000000	98.483060 
2502.000000	98.482973 
2501.000000	98.482852 
2500.000000	98.482760 
2499.000000	98.482714 
2498.000000	98.482707 
2497.000000	98.482750 
2496.000000	98.482854 
2495.000000	98.482980 
2494.000000	98.483024 
2493.000000	98.482906 
2492.000000	98.482648 
2491.000000	98.482363 
2490.000000	98.482136 
2489.000000	98.481959 
2488.000000	98.481776 
2487.000000	98.481568 
2486.000000	98.481376 
2485.000000	98.481240 
2484.000000	98.481142 
2483.000000	98.481048 
2482.000000	98.481000 
2481.000000	98.481095 
2480.000000	98.481332 
2479.000000	98.481524 
2478.000000	98.481495 
2477.000000	98.481317 
2476.000000	98.481246 
2475.000000	98.481378 
2474.000000	98.481492 
2473.000000	98.481334 
2472.000000	98.480957 
2471.000000	98.480683 
2470.000000	98.480748 
2469.000000	98.481065 
2468.000000	98.481291 
2467.000000	98.481146 
2466.000000	98.480676 
2465.000000	98.480257 
2464.000000	98.480254 
2463.000000	98.480602 
2462.000000	98.480790 
2461.000000	98.480369 
2460.000000	98.479409 
2459.000000	98.478512 
2458.000000	98.478251 
2457.000000	98.478717 
2456.000000	98.479500 
2455.000000	98.480008 
2454.000000	98.479940 
2453.000000	98.479507 
2452.000000	98.479282 
2451.000000	98.479620 
2450.000000	98.480204 
2449.000000	98.480318 
2448.000000	98.479657 
2447.000000	98.478711 
2446.000000	98.478267 
2445.000000	98.478635 
2444.000000	98.479505 
2443.000000	98.480442 
2442.000000	98.481377 
2441.000000	98.482572 
2440.000000	98.484205 
2439.000000	98.486086 
2438.000000	98.487763 
2437.000000	98.488883 
2436.000000	98.489430 
2435.000000	98.489695 
2434.000000	98.490115 
2433.000000	98.491057 
2432.000000	98.492569 
2431.000000	98.494276 
2430.000000	98.495698 
2429.000000	98.496802 
2428.000000	98.498075 
2427.000000	98.499906 
2426.000000	98.502012 
2425.000000	98.503680 
2424.000000	98.504525 
2423.000000	98.504784 
2422.000000	98.504950 
2421.000000	98.505336 
2420.000000	98.506030 
2419.000000	98.507111 
2418.000000	98.508771 
2417.000000	98.511137 
2416.000000	98.514016 
2415.000000	98.516799 
2414.000000	98.518794 
2413.000000	98.519760 
2412.000000	98.520101 
2411.000000	98.520644 
2410.000000	98.522120 
2409.000000	98.524776 
2408.000000	98.528127 
2407.000000	98.531061 
2406.000000	98.532640 
2405.000000	98.533000 
2404.000000	98.533257 
2403.000000	98.534340 
2402.000000	98.536206 
2401.000000	98.538320 
2400.000000	98.540443 
2399.000000	98.542526 
2398.000000	98.544223 
2397.000000	98.545201 
2396.000000	98.545835 
2395.000000	98.546924 
2394.000000	98.548593 
2393.000000	98.549963 
2392.000000	98.550111 
2391.000000	98.549171 
2390.000000	98.548413 
2389.000000	98.549263 
2388.000000	98.552154 
2387.000000	98.556178 
2386.000000	98.559974 
2385.000000	98.563228 
2384.000000	98.566873 
2383.000000	98.571764 
2382.000000	98.577742 
2381.000000	98.584086 
2380.000000	98.590057 
2379.000000	98.594524 
2378.000000	98.596133 
2377.000000	98.594747 
2376.000000	98.592116 
2375.000000	98.590267 
2374.000000	98.589665 
2373.000000	98.589648 
2372.000000	98.590064 
2371.000000	98.591496 
2370.000000	98.594288 
2369.000000	98.597924 
2368.000000	98.601019 
2367.000000	98.601934 
2366.000000	98.600290 
2365.000000	98.597818 
2364.000000	98.596757 
2363.000000	98.597255 
2362.000000	98.598007 
2361.000000	98.598474 
2360.000000	98.598520 
2359.000000	98.597948 
2358.000000	98.596809 
2357.000000	98.596059 
2356.000000	98.596394 
2355.000000	98.597252 
2354.000000	98.599108 
2353.000000	98.601434 
2352.000000	98.602811 
2351.000000	98.601120 
2350.000000	98.594998 
2349.000000	98.586590 
2348.000000	98.580429 
2347.000000	98.580411 
2346.000000	98.583997 
2345.000000	98.584902 
2344.000000	98.581116 
2343.000000	98.575033 
2342.000000	98.570495 
2341.000000	98.567860 
2340.000000	98.566571 
2339.000000	98.566254 
2338.000000	98.567061 
2337.000000	98.568103 
2336.000000	98.567390 
2335.000000	98.565093 
2334.000000	98.563552 
2333.000000	98.564102 
2332.000000	98.564357 
2331.000000	98.562505 
2330.000000	98.557558 
2329.000000	98.550104 
2328.000000	98.537556 
2327.000000	98.520227 
2326.000000	98.500207 
2325.000000	98.482039 
2324.000000	98.468879 
2323.000000	98.462061 
2322.000000	98.461121 
2321.000000	98.463426 
2320.000000	98.466537 
2319.000000	98.469628 
2318.000000	98.472375 
2317.000000	98.474429 
2316.000000	98.475383 
2315.000000	98.477404 
2314.000000	98.481461 
2313.000000	98.486532 
2312.000000	98.488483 
2311.000000	98.486248 
2310.000000	98.481359 
2309.000000	98.477369 
2308.000000	98.475389 
2307.000000	98.475546 
2306.000000	98.476661 
2305.000000	98.477957 
2304.000000	98.478423 
2303.000000	98.478206 
2302.000000	98.477414 
2301.000000	98.476126 
2300.000000	98.473487 
2299.000000	98.469488 
2298.000000	98.464662 
2297.000000	98.460632 
2296.000000	98.458093 
2295.000000	98.456969 
2294.000000	98.455807 
2293.000000	98.453465 
2292.000000	98.449428 
2291.000000	98.444236 
2290.000000	98.438583 
2289.000000	98.433339 
2288.000000	98.429714 
2287.000000	98.428944 
2286.000000	98.431371 
2285.000000	98.435887 
2284.000000	98.440573 
2283.000000	98.443433 
2282.000000	98.443319 
2281.000000	98.440709 
2280.000000	98.438097 
2279.000000	98.438264 
2278.000000	98.442203 
2277.000000	98.448869 
2276.000000	98.456682 
2275.000000	98.464386 
2274.000000	98.470462 
2273.000000	98.473306 
2272.000000	98.472761 
2271.000000	98.470940 
2270.000000	98.470320 
2269.000000	98.471261 
2268.000000	98.472062 
2267.000000	98.471167 
2266.000000	98.468531 
2265.000000	98.465453 
2264.000000	98.463508 
2263.000000	98.463429 
2262.000000	98.464488 
2261.000000	98.465138 
2260.000000	98.464616 
2259.000000	98.463593 
2258.000000	98.463117 
2257.000000	98.463315 
2256.000000	98.463697 
2255.000000	98.464159 
2254.000000	98.465063 
2253.000000	98.466418 
2252.000000	98.467645 
2251.000000	98.468471 
2250.000000	98.469285 
2249.000000	98.470442 
2248.000000	98.471701 
2247.000000	98.472604 
2246.000000	98.473157 
2245.000000	98.473705 
2244.000000	98.474369 
2243.000000	98.475020 
2242.000000	98.475604 
2241.000000	98.476172 
2240.000000	98.476731 
2239.000000	98.477281 
2238.000000	98.477808 
2237.000000	98.478295 
2236.000000	98.478732 
2235.000000	98.479124 
2234.000000	98.479477 
2233.000000	98.479793 
2232.000000	98.480075 
2231.000000	98.480336 
2230.000000	98.480587 
2229.000000	98.480840 
2228.000000	98.481095 
2227.000000	98.481344 
2226.000000	98.481580 
2225.000000	98.481804 
2224.000000	98.482024 
2223.000000	98.482250 
2222.000000	98.482484 
2221.000000	98.482723 
2220.000000	98.482969 
2219.000000	98.483224 
2218.000000	98.483493 
2217.000000	98.483770 
2216.000000	98.484045 
2215.000000	98.484304 
2214.000000	98.484538 
2213.000000	98.484747 
2212.000000	98.484940 
2211.000000	98.485127 
2210.000000	98.485303 
2209.000000	98.485445 
2208.000000	98.485527 
2207.000000	98.485546 
2206.000000	98.485512 
2205.000000	98.485437 
2204.000000	98.485324 
2203.000000	98.485169 
2202.000000	98.485040 
2201.000000	98.485052 
2200.000000	98.485282 
2199.000000	98.485598 
2198.000000	98.485553 
2197.000000	98.484591 
2196.000000	98.482776 
2195.000000	98.481385 
2194.000000	98.482038 
2193.000000	98.484806 
2192.000000	98.487624 
2191.000000	98.488381 
2190.000000	98.487041 
2189.000000	98.485151 
2188.000000	98.483811 
2187.000000	98.483045 
2186.000000	98.482790 
2185.000000	98.483300 
2184.000000	98.484442 
2183.000000	98.485713 
2182.000000	98.487488 
2181.000000	98.491400 
2180.000000	98.498446 
2179.000000	98.506818 
2178.000000	98.512593 
2177.000000	98.513129 
2176.000000	98.509411 
2175.000000	98.504748 
2174.000000	98.501619 
2173.000000	98.500536 
2172.000000	98.501147 
2171.000000	98.502626 
2170.000000	98.502985 
2169.000000	98.500243 
2168.000000	98.495560 
2167.000000	98.493277 
2166.000000	98.495739 
2165.000000	98.499154 
2164.000000	98.497231 
2163.000000	98.489649 
2162.000000	98.484503 
2161.000000	98.490885 
2160.000000	98.510701 
2159.000000	98.537832 
2158.000000	98.563770 
2157.000000	98.583443 
2156.000000	98.595505 
2155.000000	98.600060 
2154.000000	98.598409 
2153.000000	98.593873 
2152.000000	98.590420 
2151.000000	98.589673 
2150.000000	98.590448 
2149.000000	98.591619 
2148.000000	98.594108 
2147.000000	98.598885 
2146.000000	98.603812 
2145.000000	98.604284 
2144.000000	98.597402 
2143.000000	98.584717 
2142.000000	98.571177 
2141.000000	98.561935 
2140.000000	98.559649 
2139.000000	98.563802 
2138.000000	98.572057 
2137.000000	98.582459 
2136.000000	98.594343 
2135.000000	98.606986 
2134.000000	98.618254 
2133.000000	98.625702 
2132.000000	98.628538 
2131.000000	98.627577 
2130.000000	98.623818 
2129.000000	98.618016 
2128.000000	98.611144 
2127.000000	98.604123 
2126.000000	98.597327 
2125.000000	98.591189 
2124.000000	98.586766 
2123.000000	98.584626 
2122.000000	98.583513 
2121.000000	98.581335 
2120.000000	98.577395 
2119.000000	98.572769 
2118.000000	98.568957 
2117.000000	98.567154 
2116.000000	98.568125 
2115.000000	98.571086 
2114.000000	98.572772 
2113.000000	98.570012 
2112.000000	98.563758 
2111.000000	98.558599 
2110.000000	98.557686 
2109.000000	98.559844 
2108.000000	98.562037 
2107.000000	98.563031 
2106.000000	98.563475 
2105.000000	98.563832 
2104.000000	98.563930 
2103.000000	98.563818 
2102.000000	98.563595 
2101.000000	98.562743 
2100.000000	98.560788 
2099.000000	98.558382 
2098.000000	98.556869 
2097.000000	98.556911 
2096.000000	98.558136 
2095.000000	98.559804 
2094.000000	98.561090 
2093.000000	98.561027 
2092.000000	98.559224 
2091.000000	98.556528 
2090.000000	98.554327 
2089.000000	98.553400 
2088.000000	98.553419 
2087.000000	98.553518 
2086.000000	98.553089 
2085.000000	98.552023 
2084.000000	98.550571 
2083.000000	98.549126 
2082.000000	98.548091 
2081.000000	98.547749 
2080.000000	98.548052 
2079.000000	98.548551 
2078.000000	98.548729 
2077.000000	98.548490 
2076.000000	98.548182 
2075.000000	98.548173 
2074.000000	98.548489 
2073.000000	98.548893 
2072.000000	98.549160 
2071.000000	98.549144 
2070.000000	98.548737 
2069.000000	98.547913 
2068.000000	98.546801 
2067.000000	98.545625 
2066.000000	98.544674 
2065.000000	98.544364 
2064.000000	98.545029 
2063.000000	98.546480 
2062.000000	98.547986 
2061.000000	98.548946 
2060.000000	98.549468 
2059.000000	98.550027 
2058.000000	98.550757 
2057.000000	98.551416 
2056.000000	98.551827 
2055.000000	98.551888 
2054.000000	98.551222 
2053.000000	98.549482 
2052.000000	98.547325 
2051.000000	98.546544 
2050.000000	98.548555 
2049.000000	98.553187 
2048.000000	98.558809 
2047.000000	98.563440 
2046.000000	98.566021 
2045.000000	98.566572 
2044.000000	98.565995 
2043.000000	98.565617 
2042.000000	98.566270 
2041.000000	98.567871 
2040.000000	98.569740 
2039.000000	98.571328 
2038.000000	98.572764 
2037.000000	98.574823 
2036.000000	98.578206 
2035.000000	98.582647 
2034.000000	98.586709 
2033.000000	98.589024 
2032.000000	98.589599 
2031.000000	98.589484 
2030.000000	98.589336 
2029.000000	98.588976 
2028.000000	98.588373 
2027.000000	98.588196 
2026.000000	98.589119 
2025.000000	98.591065 
2024.000000	98.593330 
2023.000000	98.595155 
2022.000000	98.596012 
2021.000000	98.595828 
2020.000000	98.595375 
2019.000000	98.596039 
2018.000000	98.598635 
2017.000000	98.602521 
2016.000000	98.606116 
2015.000000	98.608255 
2014.000000	98.608728 
2013.000000	98.607903 
2012.000000	98.606343 
2011.000000	98.604633 
2010.000000	98.603405 
2009.000000	98.603587 
2008.000000	98.606150 
2007.000000	98.610747 
2006.000000	98.614693 
2005.000000	98.614868 
2004.000000	98.610883 
2003.000000	98.605722 
2002.000000	98.602910 
2001.000000	98.603428 
2000.000000	98.605787 
1999.000000	98.607640 
1998.000000	98.606975 
1997.000000	98.603234 
1996.000000	98.598227 
1995.000000	98.595003 
1994.000000	98.594902 
1993.000000	98.596302 
1992.000000	98.596643 
1991.000000	98.595191 
1990.000000	98.592956 
1989.000000	98.590632 
1988.000000	98.587903 
1987.000000	98.584525 
1986.000000	98.581298 
1985.000000	98.579560 
1984.000000	98.579499 
1983.000000	98.579095 
1982.000000	98.576049 
1981.000000	98.571753 
1980.000000	98.571820 
1979.000000	98.580350 
1978.000000	98.594631 
1977.000000	98.607211 
1976.000000	98.614082 
1975.000000	98.617067 
1974.000000	98.618314 
1973.000000	98.616973 
1972.000000	98.612159 
1971.000000	98.605639 
1970.000000	98.600121 
1969.000000	98.597279 
1968.000000	98.598321 
1967.000000	98.603921 
1966.000000	98.612144 
1965.000000	98.618554 
1964.000000	98.620364 
1963.000000	98.618715 
1962.000000	98.616468 
1961.000000	98.615333 
1960.000000	98.615747 
1959.000000	98.617806 
1958.000000	98.620724 
1957.000000	98.622609 
1956.000000	98.622222 
1955.000000	98.620281 
1954.000000	98.618364 
1953.000000	98.617467 
1952.000000	98.617953 
1951.000000	98.619656 
1950.000000	98.621237 
1949.000000	98.620426 
1948.000000	98.616327 
1947.000000	98.610840 
1946.000000	98.606923 
1945.000000	98.605759 
1944.000000	98.606278 
1943.000000	98.606683 
1942.000000	98.605948 
1941.000000	98.604297 
1940.000000	98.602753 
1939.000000	98.602079 
1938.000000	98.602061 
1937.000000	98.602016 
1936.000000	98.601780 
1935.000000	98.601726 
1934.000000	98.601712 
1933.000000	98.600833 
1932.000000	98.598623 
1931.000000	98.595797 
1930.000000	98.593565 
1929.000000	98.592374 
1928.000000	98.591934 
1927.000000	98.591890 
1926.000000	98.591989 
1925.000000	98.591780 
1924.000000	98.590668 
1923.000000	98.588619 
1922.000000	98.586131 
1921.000000	98.583670 
1920.000000	98.581444 
1919.000000	98.579456 
1918.000000	98.577601 
1917.000000	98.575722 
1916.000000	98.573919 
1915.000000	98.572574 
1914.000000	98.571779 
1913.000000	98.571153 
1912.000000	98.570218 
1911.000000	98.568842 
1910.000000	98.567195 
1909.000000	98.565538 
1908.000000	98.564112 
1907.000000	98.563071 
1906.000000	98.562428 
1905.000000	98.561917 
1904.000000	98.561098 
1903.000000	98.559830 
1902.000000	98.558348 
1901.000000	98.556752 
1900.000000	98.555082 
1899.000000	98.553717 
1898.000000	98.553056 
1897.000000	98.552892 
1896.000000	98.552597 
1895.000000	98.552106 
1894.000000	98.551705 
1893.000000	98.550871 
1892.000000	98.548670 
1891.000000	98.545221 
1890.000000	98.541826 
1889.000000	98.539425 
1888.000000	98.537889 
1887.000000	98.537340 
1886.000000	98.538276 
1885.000000	98.540209 
1884.000000	98.541705 
1883.000000	98.542126 
1882.000000	98.541919 
1881.000000	98.541278 
1880.000000	98.540346 
1879.000000	98.539846 
1878.000000	98.540034 
1877.000000	98.539827 
1876.000000	98.538038 
1875.000000	98.535427 
1874.000000	98.534132 
1873.000000	98.534488 
1872.000000	98.534176 
1871.000000	98.530976 
1870.000000	98.525361 
1869.000000	98.520334 
1868.000000	98.518456 
1867.000000	98.520027 
1866.000000	98.523548 
1865.000000	98.526388 
1864.000000	98.526933 
1863.000000	98.526665 
1862.000000	98.528537 
1861.000000	98.533338 
1860.000000	98.539097 
1859.000000	98.543818 
1858.000000	98.547030 
1857.000000	98.548941 
1856.000000	98.550287 
1855.000000	98.552293 
1854.000000	98.554996 
1853.000000	98.556185 
1852.000000	98.554952 
1851.000000	98.553888 
1850.000000	98.555464 
1849.000000	98.559071 
1848.000000	98.562424 
1847.000000	98.564797 
1846.000000	98.566482 
1845.000000	98.566758 
1844.000000	98.565154 
1843.000000	98.563385 
1842.000000	98.563663 
1841.000000	98.565897 
1840.000000	98.568666 
1839.000000	98.571044 
1838.000000	98.572946 
1837.000000	98.574084 
1836.000000	98.574253 
1835.000000	98.574707 
1834.000000	98.576602 
1833.000000	98.578970 
1832.000000	98.580057 
1831.000000	98.579183 
1830.000000	98.577249 
1829.000000	98.575753 
1828.000000	98.575125 
1827.000000	98.574935 
1826.000000	98.574526 
1825.000000	98.573853 
1824.000000	98.573575 
1823.000000	98.574354 
1822.000000	98.576281 
1821.000000	98.578554 
1820.000000	98.580279 
1819.000000	98.581587 
1818.000000	98.583543 
1817.000000	98.586161 
1816.000000	98.587637 
1815.000000	98.587224 
1814.000000	98.586321 
1813.000000	98.586394 
1812.000000	98.586839 
1811.000000	98.586067 
1810.000000	98.584539 
1809.000000	98.583866 
1808.000000	98.584117 
1807.000000	98.584428 
1806.000000	98.584564 
1805.000000	98.584455 
1804.000000	98.583416 
1803.000000	98.581461 
1802.000000	98.579923 
1801.000000	98.580173 
1800.000000	98.581623 
1799.000000	98.582459 
1798.000000	98.582525 
1797.000000	98.582776 
1796.000000	98.583455 
1795.000000	98.584108 
1794.000000	98.583955 
1793.000000	98.582441 
1792.000000	98.579836 
1791.000000	98.577399 
1790.000000	98.576799 
1789.000000	98.578488 
1788.000000	98.581437 
1787.000000	98.584222 
1786.000000	98.586044 
1785.000000	98.586654 
1784.000000	98.586239 
1783.000000	98.586142 
1782.000000	98.587288 
1781.000000	98.589173 
1780.000000	98.590798 
1779.000000	98.591695 
1778.000000	98.592514 
1777.000000	98.593426 
1776.000000	98.594043 
1775.000000	98.594386 
1774.000000	98.594792 
1773.000000	98.595832 
1772.000000	98.597493 
1771.000000	98.598103 
1770.000000	98.597174 
1769.000000	98.596069 
1768.000000	98.595410 
1767.000000	98.594655 
1766.000000	98.593502 
1765.000000	98.592931 
1764.000000	98.594018 
1763.000000	98.596424 
1762.000000	98.598318 
1761.000000	98.598273 
1760.000000	98.596480 
1759.000000	98.594309 
1758.000000	98.593092 
1757.000000	98.593059 
1756.000000	98.593937 
1755.000000	98.594551 
1754.000000	98.593761 
1753.000000	98.591500 
1752.000000	98.588891 
1751.000000	98.587175 
1750.000000	98.586382 
1749.000000	98.586093 
1748.000000	98.586541 
1747.000000	98.587910 
1746.000000	98.588651 
1745.000000	98.587538 
1744.000000	98.585044 
1743.000000	98.581850 
1742.000000	98.578310 
1741.000000	98.575197 
1740.000000	98.573165 
1739.000000	98.571703 
1738.000000	98.569674 
1737.000000	98.566900 
1736.000000	98.563361 
1735.000000	98.559359 
1734.000000	98.557737 
1733.000000	98.557562 
1732.000000	98.555999 
1731.000000	98.553553 
1730.000000	98.551009 
1729.000000	98.548184 
1728.000000	98.546094 
1727.000000	98.545929 
1726.000000	98.546349 
1725.000000	98.545138 
1724.000000	98.541473 
1723.000000	98.536957 
1722.000000	98.534792 
1721.000000	98.535775 
1720.000000	98.537487 
1719.000000	98.536645 
1718.000000	98.533182 
1717.000000	98.528429 
1716.000000	98.520499 
1715.000000	98.510750 
1714.000000	98.504028 
1713.000000	98.500861 
1712.000000	98.497752 
1711.000000	98.494136 
1710.000000	98.492514 
1709.000000	98.492869 
1708.000000	98.491930 
1707.000000	98.487598 
1706.000000	98.481473 
1705.000000	98.475494 
1704.000000	98.468280 
1703.000000	98.459387 
1702.000000	98.449611 
1701.000000	98.439990 
1700.000000	98.431782 
1699.000000	98.422656 
1698.000000	98.415870 
1697.000000	98.413429 
1696.000000	98.410435 
1695.000000	98.402403 
1694.000000	98.391398 
1693.000000	98.381979 
1692.000000	98.374948 
1691.000000	98.368931 
1690.000000	98.363227 
1689.000000	98.357718 
1688.000000	98.352758 
1687.000000	98.348119 
1686.000000	98.342318 
1685.000000	98.334314 
1684.000000	98.324394 
1683.000000	98.312263 
1682.000000	98.299748 
1681.000000	98.288855 
1680.000000	98.281014 
1679.000000	98.276197 
1678.000000	98.272398 
1677.000000	98.267092 
1676.000000	98.259490 
1675.000000	98.250578 
1674.000000	98.239616 
1673.000000	98.227979 
1672.000000	98.219248 
1671.000000	98.214348 
1670.000000	98.210436 
1669.000000	98.202937 
1668.000000	98.192053 
1667.000000	98.181405 
1666.000000	98.171670 
1665.000000	98.162455 
1664.000000	98.154885 
1663.000000	98.150883 
1662.000000	98.147393 
1661.000000	98.138268 
1660.000000	98.125019 
1659.000000	98.112670 
1658.000000	98.102579 
1657.000000	98.094345 
1656.000000	98.089324 
1655.000000	98.087384 
1654.000000	98.087069 
1653.000000	98.089997 
1652.000000	98.082616 
1651.000000	98.067697 
1650.000000	98.056822 
1649.000000	98.052146 
1648.000000	98.050148 
1647.000000	98.049039 
1646.000000	98.046594 
1645.000000	98.040942 
1644.000000	98.034518 
1643.000000	98.030722 
1642.000000	98.029936 
1641.000000	98.029326 
1640.000000	98.028071 
1639.000000	98.026975 
1638.000000	98.026750 
1637.000000	98.026274 
1636.000000	98.025311 
1635.000000	98.023962 
1634.000000	98.021290 
1633.000000	98.020309 
1632.000000	98.022443 
1631.000000	98.027522 
1630.000000	98.034436 
1629.000000	98.041021 
1628.000000	98.045840 
1627.000000	98.050115 
1626.000000	98.054822 
1625.000000	98.059629 
1624.000000	98.065354 
1623.000000	98.073144 
1622.000000	98.080465 
1621.000000	98.084859 
1620.000000	98.089924 
1619.000000	98.099273 
1618.000000	98.111656 
1617.000000	98.123122 
1616.000000	98.132837 
1615.000000	98.143792 
1614.000000	98.156905 
1613.000000	98.169329 
1612.000000	98.179564 
1611.000000	98.189727 
1610.000000	98.200409 
1609.000000	98.209807 
1608.000000	98.219702 
1607.000000	98.233974 
1606.000000	98.250083 
1605.000000	98.262081 
1604.000000	98.270566 
1603.000000	98.279740 
1602.000000	98.290030 
1601.000000	98.299232 
1600.000000	98.307924 
1599.000000	98.318465 
1598.000000	98.329779 
1597.000000	98.338919 
1596.000000	98.345745 
1595.000000	98.352560 
1594.000000	98.359726 
1593.000000	98.365277 
1592.000000	98.369271 
1591.000000	98.374356 
1590.000000	98.381298 
1589.000000	98.387753 
1588.000000	98.392700 
1587.000000	98.397755 
1586.000000	98.403311 
1585.000000	98.406690 
1584.000000	98.408296 
1583.000000	98.412352 
1582.000000	98.419614 
1581.000000	98.426865 
1580.000000	98.432615 
1579.000000	98.437606 
1578.000000	98.441105 
1577.000000	98.442721 
1576.000000	98.444574 
1575.000000	98.446658 
1574.000000	98.446810 
1573.000000	98.445772 
1572.000000	98.445901 
1571.000000	98.448050 
1570.000000	98.450704 
1569.000000	98.450022 
1568.000000	98.447337 
1567.000000	98.446974 
1566.000000	98.448705 
1565.000000	98.449797 
1564.000000	98.450721 
1563.000000	98.452122 
1562.000000	98.453119 
1561.000000	98.448999 
1560.000000	98.442878 
1559.000000	98.444838 
1558.000000	98.446892 
1557.000000	98.442308 
1556.000000	98.439111 
1555.000000	98.440460 
1554.000000	98.443093 
1553.000000	98.444591 
1552.000000	98.445600 
1551.000000	98.446093 
1550.000000	98.445783 
1549.000000	98.445431 
1548.000000	98.446233 
1547.000000	98.448554 
1546.000000	98.451017 
1545.000000	98.452337 
1544.000000	98.452676 
1543.000000	98.452337 
1542.000000	98.451588 
1541.000000	98.451654 
1540.000000	98.453535 
1539.000000	98.456338 
1538.000000	98.458541 
1537.000000	98.460153 
1536.000000	98.461561 
1535.000000	98.462845 
1534.000000	98.463924 
1533.000000	98.464857 
1532.000000	98.465827 
1531.000000	98.466976 
1530.000000	98.468368 
1529.000000	98.469962 
1528.000000	98.471526 
1527.000000	98.472782 
1526.000000	98.473661 
1525.000000	98.474453 
1524.000000	98.475624 
1523.000000	98.477540 
1522.000000	98.480300 
1521.000000	98.482935 
1520.000000	98.483814 
1519.000000	98.483387 
1518.000000	98.483576 
1517.000000	98.485297 
1516.000000	98.487544 
1515.000000	98.489335 
1514.000000	98.491407 
1513.000000	98.494607 
1512.000000	98.497895 
1511.000000	98.499197 
1510.000000	98.498527 
1509.000000	98.497079 
1508.000000	98.496180 
1507.000000	98.497998 
1506.000000	98.503050 
1505.000000	98.506237 
1504.000000	98.506488 
1503.000000	98.505716 
1502.000000	98.504757 
1501.000000	98.503947 
1500.000000	98.503423 
1499.000000	98.502348 
1498.000000	98.500303 
1497.000000	98.500662 
1496.000000	98.505377 
1495.000000	98.512267 
1494.000000	98.519858 
1493.000000	98.527772 
1492.000000	98.534252 
1491.000000	98.537712 
1490.000000	98.539293 
1489.000000	98.540783 
1488.000000	98.540465 
1487.000000	98.537505 
1486.000000	98.535141 
1485.000000	98.533218 
1484.000000	98.529857 
1483.000000	98.525480 
1482.000000	98.521365 
1481.000000	98.518529 
1480.000000	98.516547 
1479.000000	98.515048 
1478.000000	98.513394 
1477.000000	98.509914 
1476.000000	98.502722 
1475.000000	98.493451 
1474.000000	98.486441 
1473.000000	98.483592 
1472.000000	98.481763 
1471.000000	98.477166 
1470.000000	98.471893 
1469.000000	98.468996 
1468.000000	98.467531 
1467.000000	98.465091 
1466.000000	98.460872 
1465.000000	98.455258 
1464.000000	98.448943 
1463.000000	98.442307 
1462.000000	98.437231 
1461.000000	98.435609 
1460.000000	98.436659 
1459.000000	98.436254 
1458.000000	98.430087 
1457.000000	98.420142 
1456.000000	98.411003 
1455.000000	98.403729 
1454.000000	98.398899 
1453.000000	98.398323 
1452.000000	98.402189 
1451.000000	98.407221 
1450.000000	98.409808 
1449.000000	98.409847 
1448.000000	98.408680 
1447.000000	98.407219 
1446.000000	98.405563 
1445.000000	98.404207 
1444.000000	98.403652 
1443.000000	98.402058 
1442.000000	98.398533 
1441.000000	98.395417 
1440.000000	98.395215 
1439.000000	98.396262 
1438.000000	98.394753 
1437.000000	98.391086 
1436.000000	98.389297 
1435.000000	98.389762 
1434.000000	98.390871 
1433.000000	98.392778 
1432.000000	98.395300 
1431.000000	98.396529 
1430.000000	98.394774 
1429.000000	98.391649 
1428.000000	98.389654 
1427.000000	98.389540 
1426.000000	98.390011 
1425.000000	98.390084 
1424.000000	98.391081 
1423.000000	98.392693 
1422.000000	98.393324 
1421.000000	98.393199 
1420.000000	98.394271 
1419.000000	98.396087 
1418.000000	98.395589 
1417.000000	98.393989 
1416.000000	98.394807 
1415.000000	98.397654 
1414.000000	98.399618 
1413.000000	98.399959 
1412.000000	98.400680 
1411.000000	98.402362 
1410.000000	98.403526 
1409.000000	98.404300 
1408.000000	98.405923 
1407.000000	98.408521 
1406.000000	98.411179 
1405.000000	98.414406 
1404.000000	98.420410 
1403.000000	98.428603 
1402.000000	98.436121 
1401.000000	98.441933 
1400.000000	98.447219 
1399.000000	98.452428 
1398.000000	98.455838 
1397.000000	98.456316 
1396.000000	98.454937 
1395.000000	98.454308 
1394.000000	98.456296 
1393.000000	98.461220 
1392.000000	98.468561 
1391.000000	98.476434 
1390.000000	98.482483 
1389.000000	98.485682 
1388.000000	98.486591 
1387.000000	98.486491 
1386.000000	98.486607 
1385.000000	98.488094 
1384.000000	98.491619 
1383.000000	98.496142 
1382.000000	98.499772 
1381.000000	98.501948 
1380.000000	98.503606 
1379.000000	98.505709 
1378.000000	98.508264 
1377.000000	98.510964 
1376.000000	98.513902 
1375.000000	98.517243 
1374.000000	98.520484 
1373.000000	98.523280 
1372.000000	98.526299 
1371.000000	98.530478 
1370.000000	98.535543 
1369.000000	98.540142 
1368.000000	98.543859 
1367.000000	98.547294 
1366.000000	98.550956 
1365.000000	98.555030 
1364.000000	98.559396 
1363.000000	98.563516 
1362.000000	98.566736 
1361.000000	98.569076 
1360.000000	98.571329 
1359.000000	98.574079 
1358.000000	98.576949 
1357.000000	98.579418 
1356.000000	98.581818 
1355.000000	98.584601 
1354.000000	98.587281 
1353.000000	98.589478 
1352.000000	98.591166 
1351.000000	98.593018 
1350.000000	98.595724 
1349.000000	98.599029 
1348.000000	98.602806 
1347.000000	98.606654 
1346.000000	98.609327 
1345.000000	98.609675 
1344.000000	98.608071 
1343.000000	98.606125 
1342.000000	98.605006 
1341.000000	98.604688 
1340.000000	98.604719 
1339.000000	98.604912 
1338.000000	98.605249 
1337.000000	98.606274 
1336.000000	98.608974 
1335.000000	98.613300 
1334.000000	98.617640 
1333.000000	98.620369 
1332.000000	98.621176 
1331.000000	98.620868 
1330.000000	98.620353 
1329.000000	98.620430 
1328.000000	98.621575 
1327.000000	98.623369 
1326.000000	98.624256 
1325.000000	98.623033 
1324.000000	98.620705 
1323.000000	98.618860 
1322.000000	98.617468 
1321.000000	98.615862 
1320.000000	98.614721 
1319.000000	98.615164 
1318.000000	98.616725 
1317.000000	98.618110 
1316.000000	98.619006 
1315.000000	98.619544 
1314.000000	98.619133 
1313.000000	98.617724 
1312.000000	98.616998 
1311.000000	98.618419 
1310.000000	98.620901 
1309.000000	98.622385 
1308.000000	98.622516 
1307.000000	98.622438 
1306.000000	98.622514 
1305.000000	98.622106 
1304.000000	98.621447 
1303.000000	98.621299 
1302.000000	98.621472 
1301.000000	98.621290 
1300.000000	98.621099 
1299.000000	98.621609 
1298.000000	98.622259 
1297.000000	98.621812 
1296.000000	98.620289 
1295.000000	98.619038 
1294.000000	98.619038 
1293.000000	98.620404 
1292.000000	98.622893 
1291.000000	98.625479 
1290.000000	98.626191 
1289.000000	98.623929 
1288.000000	98.620146 
1287.000000	98.617467 
1286.000000	98.616852 
1285.000000	98.617372 
1284.000000	98.618176 
1283.000000	98.619063 
1282.000000	98.619728 
1281.000000	98.619828 
1280.000000	98.619634 
1279.000000	98.619518 
1278.000000	98.619341 
1277.000000	98.619477 
1276.000000	98.621311 
1275.000000	98.625009 
1274.000000	98.627594 
1273.000000	98.625684 
1272.000000	98.620061 
1271.000000	98.615403 
1270.000000	98.615005 
1269.000000	98.617426 
1268.000000	98.618771 
1267.000000	98.616413 
1266.000000	98.610502 
1265.000000	98.603939 
1264.000000	98.600946 
1263.000000	98.603647 
1262.000000	98.609735 
1261.000000	98.614818 
1260.000000	98.617203 
1259.000000	98.618681 
1258.000000	98.620786 
1257.000000	98.622732 
1256.000000	98.623250 
1255.000000	98.622411 
1254.000000	98.621066 
1253.000000	98.619968 
1252.000000	98.619967 
1251.000000	98.621610 
1250.000000	98.623839 
1249.000000	98.624274 
1248.000000	98.621684 
1247.000000	98.617374 
1246.000000	98.613594 
1245.000000	98.611119 
1244.000000	98.608627 
1243.000000	98.604341 
1242.000000	98.598476 
1241.000000	98.593799 
1240.000000	98.592721 
1239.000000	98.593622 
1238.000000	98.591735 
1237.000000	98.584491 
1236.000000	98.574302 
1235.000000	98.564908 
1234.000000	98.556567 
1233.000000	98.546512 
1232.000000	98.532699 
1231.000000	98.515196 
1230.000000	98.495317 
1229.000000	98.475366 
1228.000000	98.457826 
1227.000000	98.442524 
1226.000000	98.425573 
1225.000000	98.403058 
1224.000000	98.374614 
1223.000000	98.341599 
1222.000000	98.303706 
1221.000000	98.260043 
1220.000000	98.212025 
1219.000000	98.161942 
1218.000000	98.109684 
1217.000000	98.054326 
1216.000000	97.997837 
1215.000000	97.943113 
1214.000000	97.888744 
1213.000000	97.830209 
1212.000000	97.766577 
1211.000000	97.701759 
1210.000000	97.638392 
1209.000000	97.574463 
1208.000000	97.507261 
1207.000000	97.437080 
1206.000000	97.365877 
1205.000000	97.295534 
1204.000000	97.228190 
1203.000000	97.164778 
1202.000000	97.102159 
1201.000000	97.034930 
1200.000000	96.961318 
1199.000000	96.884832 
1198.000000	96.809704 
1197.000000	96.737587 
1196.000000	96.668552 
1195.000000	96.601363 
1194.000000	96.532248 
1193.000000	96.457353 
1192.000000	96.377535 
1191.000000	96.297699 
1190.000000	96.220872 
1189.000000	96.145998 
1188.000000	96.071249 
1187.000000	95.995336 
1186.000000	95.915640 
1185.000000	95.830097 
1184.000000	95.741754 
1183.000000	95.656662 
1182.000000	95.575753 
1181.000000	95.493147 
1180.000000	95.403944 
1179.000000	95.309264 
1178.000000	95.211980 
1177.000000	95.112109 
1176.000000	95.008685 
1175.000000	94.902195 
1174.000000	94.792818 
1173.000000	94.679749 
1172.000000	94.564131 
1171.000000	94.449132 
1170.000000	94.335606 
1169.000000	94.221544 
1168.000000	94.107342 
1167.000000	93.997900 
1166.000000	93.898708 
1165.000000	93.814617 
1164.000000	93.753533 
1163.000000	93.725474 
1162.000000	93.734658 
1161.000000	93.774941 
1160.000000	93.832887 
1159.000000	93.891477 
1158.000000	93.932472 
1157.000000	93.942500 
1156.000000	93.919450 
1155.000000	93.870120 
1154.000000	93.801665 
1153.000000	93.718428 
1152.000000	93.625682 
1151.000000	93.530226 
1150.000000	93.435814 
1149.000000	93.342497 
1148.000000	93.250973 
1147.000000	93.162728 
1146.000000	93.075830 
1145.000000	92.986223 
1144.000000	92.893630 
1143.000000	92.800900 
1142.000000	92.707661 
1141.000000	92.610664 
1140.000000	92.510331 
1139.000000	92.410505 
1138.000000	92.311596 
1137.000000	92.210433 
1136.000000	92.106667 
1135.000000	92.002276 
1134.000000	91.895131 
1133.000000	91.781016 
1132.000000	91.662092 
1131.000000	91.545154 
1130.000000	91.430986 
1129.000000	91.313774 
1128.000000	91.191501 
1127.000000	91.068101 
1126.000000	90.944803 
1125.000000	90.818633 
1124.000000	90.690320 
1123.000000	90.563928 
1122.000000	90.437627 
1121.000000	90.305345 
1120.000000	90.169095 
1119.000000	90.038527 
1118.000000	89.915947 
1117.000000	89.793568 
1116.000000	89.668355 
1115.000000	89.547418 
1114.000000	89.434709 
1113.000000	89.324279 
1112.000000	89.211530 
1111.000000	89.099848 
1110.000000	88.991200 
1109.000000	88.881282 
1108.000000	88.768507 
1107.000000	88.657554 
1106.000000	88.550151 
1105.000000	88.441968 
1104.000000	88.331428 
1103.000000	88.221524 
1102.000000	88.110399 
1101.000000	87.992072 
1100.000000	87.868549 
1099.000000	87.749808 
1098.000000	87.639155 
1097.000000	87.529641 
1096.000000	87.417757 
1095.000000	87.307775 
1094.000000	87.199954 
1093.000000	87.088038 
1092.000000	86.972504 
1091.000000	86.863203 
1090.000000	86.764469 
1089.000000	86.669975 
1088.000000	86.575949 
1087.000000	86.486679 
1086.000000	86.403415 
1085.000000	86.321071 
1084.000000	86.239522 
1083.000000	86.164705 
1082.000000	86.094816 
1081.000000	86.019175 
1080.000000	85.934908 
1079.000000	85.851381 
1078.000000	85.774126 
1077.000000	85.697623 
1076.000000	85.617618 
1075.000000	85.536451 
1074.000000	85.452202 
1073.000000	85.356313 
1072.000000	85.245563 
1071.000000	85.122844 
1070.000000	84.983645 
1069.000000	84.817136 
1068.000000	84.624863 
1067.000000	84.423941 
1066.000000	84.226835 
1065.000000	84.031599 
1064.000000	83.836377 
1063.000000	83.647354 
1062.000000	83.466262 
1061.000000	83.285228 
1060.000000	83.100645 
1059.000000	82.918423 
1058.000000	82.740211 
1057.000000	82.558330 
1056.000000	82.369351 
1055.000000	82.178862 
1054.000000	81.988145 
1053.000000	81.789850 
1052.000000	81.581342 
1051.000000	81.367641 
1050.000000	81.147256 
1049.000000	80.912384 
1048.000000	80.666695 
1047.000000	80.423532 
1046.000000	80.183781 
1045.000000	79.935081 
1044.000000	79.674686 
1043.000000	79.413741 
1042.000000	79.156540 
1041.000000	78.895082 
1040.000000	78.628380 
1039.000000	78.368165 
1038.000000	78.120545 
1037.000000	77.881002 
1036.000000	77.652074 
1035.000000	77.446142 
1034.000000	77.265130 
1033.000000	77.096358 
1032.000000	76.933343 
1031.000000	76.782291 
1030.000000	76.644837 
1029.000000	76.514903 
1028.000000	76.396167 
1027.000000	76.301038 
1026.000000	76.227484 
1025.000000	76.157596 
1024.000000	76.083370 
1023.000000	76.012800 
1022.000000	75.947000 
1021.000000	75.874537 
1020.000000	75.793502 
1019.000000	75.716295 
1018.000000	75.646386 
1017.000000	75.572180 
1016.000000	75.489747 
1015.000000	75.409956 
1014.000000	75.336994 
1013.000000	75.261484 
1012.000000	75.181346 
1011.000000	75.108412 
1010.000000	75.047667 
1009.000000	74.990151 
1008.000000	74.932428 
1007.000000	74.883446 
1006.000000	74.846905 
1005.000000	74.816575 
1004.000000	74.793204 
1003.000000	74.785577 
1002.000000	74.790970 
1001.000000	74.795741 
1000.000000	74.799411 
999.000000	 74.816696 
998.000000	 74.851549 
997.000000	 74.890855 
996.000000	 74.927947 
995.000000	 74.970416 
994.000000	 75.020126 
993.000000	 75.067942 
992.000000	 75.113459 
991.000000	 75.168134 
990.000000	 75.233634 
989.000000	 75.298783 
988.000000	 75.363105 
987.000000	 75.441576 
986.000000	 75.540417 
985.000000	 75.649628 
984.000000	 75.764933 
983.000000	 75.895860 
982.000000	 76.046238 
981.000000	 76.207609 
980.000000	 76.377728 
979.000000	 76.565314 
978.000000	 76.770972 
977.000000	 76.983718 
976.000000	 77.201789 
975.000000	 77.436932 
974.000000	 77.692542 
973.000000	 77.956856 
972.000000	 78.222826 
971.000000	 78.495605 
970.000000	 78.775278 
969.000000	 79.051424 
968.000000	 79.320641 
967.000000	 79.591953 
966.000000	 79.869497 
965.000000	 80.146089 
964.000000	 80.417804 
963.000000	 80.688377 
962.000000	 80.955586 
961.000000	 81.209818 
960.000000	 81.450049 
959.000000	 81.686010 
958.000000	 81.921740 
957.000000	 82.151962 
956.000000	 82.376072 
955.000000	 82.599218 
954.000000	 82.817636 
953.000000	 83.019590 
952.000000	 83.203145 
951.000000	 83.377222 
950.000000	 83.543919 
949.000000	 83.696333 
948.000000	 83.835113 
947.000000	 83.969574 
946.000000	 84.100188 
945.000000	 84.217525 
944.000000	 84.321224 
943.000000	 84.422510 
942.000000	 84.524869 
941.000000	 84.619886 
940.000000	 84.706158 
939.000000	 84.794366 
938.000000	 84.888667 
937.000000	 84.979988 
936.000000	 85.063254 
935.000000	 85.145410 
934.000000	 85.231606 
933.000000	 85.319013 
932.000000	 85.408625 
931.000000	 85.506988 
930.000000	 85.611437 
929.000000	 85.709469 
928.000000	 85.797484 
927.000000	 85.884706 
926.000000	 85.974244 
925.000000	 86.056468 
924.000000	 86.126571 
923.000000	 86.193222 
922.000000	 86.263590 
921.000000	 86.333575 
920.000000	 86.397970 
919.000000	 86.456793 
918.000000	 86.507434 
917.000000	 86.544765 
916.000000	 86.573774 
915.000000	 86.609130 
914.000000	 86.658895 
913.000000	 86.721917 
912.000000	 86.802560 
911.000000	 86.911540 
910.000000	 87.049013 
909.000000	 87.203455 
908.000000	 87.371343 
907.000000	 87.561686 
906.000000	 87.777407 
905.000000	 88.009205 
904.000000	 88.251574 
903.000000	 88.507803 
902.000000	 88.774932 
901.000000	 89.040876 
900.000000	 89.301527 
899.000000	 89.564719 
898.000000	 89.832497 
897.000000	 90.094929 
896.000000	 90.346055 
895.000000	 90.590745 
894.000000	 90.830699 
893.000000	 91.058201 
892.000000	 91.269554 
891.000000	 91.471796 
890.000000	 91.670623 
889.000000	 91.863088 
888.000000	 92.046675 
887.000000	 92.224438 
886.000000	 92.397671 
885.000000	 92.564788 
884.000000	 92.729964 
883.000000	 92.900412 
882.000000	 93.072196 
881.000000	 93.232188 
880.000000	 93.377840 
879.000000	 93.521858 
878.000000	 93.673348 
877.000000	 93.827933 
876.000000	 93.981142 
875.000000	 94.137256 
874.000000	 94.299210 
873.000000	 94.462684 
872.000000	 94.625282 
871.000000	 94.789547 
870.000000	 94.953244 
869.000000	 95.109488 
868.000000	 95.260541 
867.000000	 95.418891 
866.000000	 95.589211 
865.000000	 95.759682 
864.000000	 95.916394 
863.000000	 96.057518 
862.000000	 96.189792 
861.000000	 96.319999 
860.000000	 96.453602 
859.000000	 96.592995 
858.000000	 96.732268 
857.000000	 96.860548 
856.000000	 96.973847 
855.000000	 97.077899 
854.000000	 97.178420 
853.000000	 97.275612 
852.000000	 97.368927 
851.000000	 97.458888 
850.000000	 97.542621 
849.000000	 97.615364 
848.000000	 97.677584 
847.000000	 97.732867 
846.000000	 97.778829 
845.000000	 97.809439 
844.000000	 97.826847 
843.000000	 97.840417 
842.000000	 97.851722 
841.000000	 97.850169 
840.000000	 97.826257 
839.000000	 97.780289 
838.000000	 97.716449 
837.000000	 97.638823 
836.000000	 97.557009 
835.000000	 97.485411 
834.000000	 97.430692 
833.000000	 97.387060 
832.000000	 97.348412 
831.000000	 97.317711 
830.000000	 97.300613 
829.000000	 97.298321 
828.000000	 97.311652 
827.000000	 97.343982 
826.000000	 97.394508 
825.000000	 97.454837 
824.000000	 97.515501 
823.000000	 97.569859 
822.000000	 97.612434 
821.000000	 97.642477 
820.000000	 97.667390 
819.000000	 97.692243 
818.000000	 97.707342 
817.000000	 97.696208 
816.000000	 97.654408 
815.000000	 97.590283 
814.000000	 97.507654 
813.000000	 97.398404 
812.000000	 97.251803 
811.000000	 97.058418 
810.000000	 96.803292 
809.000000	 96.469828 
808.000000	 96.057380 
807.000000	 95.585651 
806.000000	 95.076705 
805.000000	 94.542975 
804.000000	 93.998419 
803.000000	 93.468028 
802.000000	 92.976672 
801.000000	 92.539525 
800.000000	 92.171212 
799.000000	 91.891091 
798.000000	 91.710009 
797.000000	 91.622685 
796.000000	 91.618460 
795.000000	 91.686231 
794.000000	 91.804764 
793.000000	 91.943914 
792.000000	 92.081605 
791.000000	 92.207977 
790.000000	 92.311982 
789.000000	 92.379212 
788.000000	 92.405215 
787.000000	 92.395290 
786.000000	 92.347171 
785.000000	 92.248338 
784.000000	 92.095434 
783.000000	 91.904104 
782.000000	 91.697084 
781.000000	 91.496800 
780.000000	 91.331789 
779.000000	 91.231471 
778.000000	 91.206150 
777.000000	 91.245623 
776.000000	 91.340849 
775.000000	 91.490190 
774.000000	 91.681116 
773.000000	 91.886105 
772.000000	 92.084972 
771.000000	 92.275910 
770.000000	 92.458842 
769.000000	 92.623736 
768.000000	 92.761714 
767.000000	 92.873548 
766.000000	 92.961681 
765.000000	 93.027707 
764.000000	 93.082676 
763.000000	 93.144799 
762.000000	 93.219381 
761.000000	 93.293361 
760.000000	 93.355841 
759.000000	 93.411805 
758.000000	 93.470674 
757.000000	 93.534972 
756.000000	 93.606356 
755.000000	 93.689883 
754.000000	 93.785472 
753.000000	 93.885579 
752.000000	 93.985226 
751.000000	 94.083121 
750.000000	 94.171680 
749.000000	 94.241573 
748.000000	 94.300735 
747.000000	 94.373787 
746.000000	 94.475504 
745.000000	 94.596739 
744.000000	 94.721603 
743.000000	 94.845910 
742.000000	 94.973791 
741.000000	 95.109686 
740.000000	 95.259639 
739.000000	 95.427141 
738.000000	 95.600778 
737.000000	 95.758036 
736.000000	 95.888195 
735.000000	 96.001584 
734.000000	 96.111862 
733.000000	 96.220035 
732.000000	 96.320110 
731.000000	 96.408555 
730.000000	 96.482092 
729.000000	 96.536385 
728.000000	 96.574751 
727.000000	 96.608681 
726.000000	 96.643527 
725.000000	 96.674771 
724.000000	 96.703559 
723.000000	 96.744657 
722.000000	 96.812507 
721.000000	 96.907821 
720.000000	 97.021793 
719.000000	 97.142680 
718.000000	 97.254060 
717.000000	 97.339940 
716.000000	 97.399460 
715.000000	 97.448478 
714.000000	 97.500741 
713.000000	 97.553867 
712.000000	 97.598067 
711.000000	 97.629502 
710.000000	 97.649780 
709.000000	 97.659838 
708.000000	 97.660519 
707.000000	 97.653114 
706.000000	 97.633934 
705.000000	 97.596284 
704.000000	 97.539077 
703.000000	 97.461873 
702.000000	 97.351454 
701.000000	 97.185372 
700.000000	 96.952707 
699.000000	 96.665742 
698.000000	 96.350816 
697.000000	 96.042193 
696.000000	 95.785798 
695.000000	 95.627084 
694.000000	 95.586813 
693.000000	 95.654837 
692.000000	 95.806524 
691.000000	 96.014428 
690.000000	 96.242233 
689.000000	 96.448275 
688.000000	 96.607542 
687.000000	 96.722615 
686.000000	 96.811893 
685.000000	 96.895339 
684.000000	 96.989779 
683.000000	 97.101988 
682.000000	 97.219255 
681.000000	 97.318535 
680.000000	 97.390838 
679.000000	 97.449461 
678.000000	 97.510596 
677.000000	 97.574405 
676.000000	 97.637506 
675.000000	 97.710948 
674.000000	 97.805281 
673.000000	 97.910425 
672.000000	 98.008548 
671.000000	 98.096781 
670.000000	 98.187597 
669.000000	 98.276130 
668.000000	 98.328881 
667.000000	 98.363453 
666.000000	 98.409970 
665.000000	 98.440626 
664.000000	 98.451147 
663.000000	 98.465009 
662.000000	 98.500148 
661.000000	 98.550467 
660.000000	 98.604317 
659.000000	 98.658358 
658.000000	 98.700014 
657.000000	 98.704515 
656.000000	 98.670597 
655.000000	 98.632233 
654.000000	 98.610259 
653.000000	 98.589087 
652.000000	 98.562504 
651.000000	 98.558797 
650.000000	 98.596346 

