4000.000000	99.558063 
3999.000000	99.560869 
3998.000000	99.563664 
3997.000000	99.564859 
3996.000000	99.563759 
3995.000000	99.561083 
3994.000000	99.558662 
3993.000000	99.558243 
3992.000000	99.560126 
3991.000000	99.562886 
3990.000000	99.564660 
3989.000000	99.564918 
3988.000000	99.564915 
3987.000000	99.566395 
3986.000000	99.569926 
3985.000000	99.574353 
3984.000000	99.577545 
3983.000000	99.577650 
3982.000000	99.574164 
3981.000000	99.568225 
3980.000000	99.561738 
3979.000000	99.556191 
3978.000000	99.552472 
3977.000000	99.551401 
3976.000000	99.553761 
3975.000000	99.559431 
3974.000000	99.566858 
3973.000000	99.573727 
3972.000000	99.578238 
3971.000000	99.579960 
3970.000000	99.579617 
3969.000000	99.578145 
3968.000000	99.576023 
3967.000000	99.573294 
3966.000000	99.570197 
3965.000000	99.567669 
3964.000000	99.566601 
3963.000000	99.566473 
3962.000000	99.565339 
3961.000000	99.561770 
3960.000000	99.556689 
3959.000000	99.552978 
3958.000000	99.552810 
3957.000000	99.555349 
3956.000000	99.557628 
3955.000000	99.557443 
3954.000000	99.555322 
3953.000000	99.553532 
3952.000000	99.553563 
3951.000000	99.555114 
3950.000000	99.556881 
3949.000000	99.558051 
3948.000000	99.558783 
3947.000000	99.559456 
3946.000000	99.560233 
3945.000000	99.561115 
3944.000000	99.561863 
3943.000000	99.561487 
3942.000000	99.559059 
3941.000000	99.555096 
3940.000000	99.551033 
3939.000000	99.547393 
3938.000000	99.543353 
3937.000000	99.538314 
3936.000000	99.533844 
3935.000000	99.533110 
3934.000000	99.538418 
3933.000000	99.548859 
3932.000000	99.560148 
3931.000000	99.567011 
3930.000000	99.566573 
3929.000000	99.560562 
3928.000000	99.554079 
3927.000000	99.551590 
3926.000000	99.553925 
3925.000000	99.557988 
3924.000000	99.559586 
3923.000000	99.557328 
3922.000000	99.553124 
3921.000000	99.549926 
3920.000000	99.549402 
3919.000000	99.551413 
3918.000000	99.554984 
3917.000000	99.559018 
3916.000000	99.562606 
3915.000000	99.565283 
3914.000000	99.567306 
3913.000000	99.569128 
3912.000000	99.570553 
3911.000000	99.571207 
3910.000000	99.571566 
3909.000000	99.572802 
3908.000000	99.575640 
3907.000000	99.578617 
3906.000000	99.578045 
3905.000000	99.570240 
3904.000000	99.554982 
3903.000000	99.537836 
3902.000000	99.527065 
3901.000000	99.527292 
3900.000000	99.536701 
3899.000000	99.548950 
3898.000000	99.558262 
3897.000000	99.562810 
3896.000000	99.563617 
3895.000000	99.562388 
3894.000000	99.560427 
3893.000000	99.557787 
3892.000000	99.553291 
3891.000000	99.546073 
3890.000000	99.537800 
3889.000000	99.531683 
3888.000000	99.530057 
3887.000000	99.532771 
3886.000000	99.536312 
3885.000000	99.536494 
3884.000000	99.533192 
3883.000000	99.530646 
3882.000000	99.533058 
3881.000000	99.539960 
3880.000000	99.546364 
3879.000000	99.548011 
3878.000000	99.546046 
3877.000000	99.545248 
3876.000000	99.549299 
3875.000000	99.556545 
3874.000000	99.560639 
3873.000000	99.556933 
3872.000000	99.547763 
3871.000000	99.539884 
3870.000000	99.537412 
3869.000000	99.539397 
3868.000000	99.543192 
3867.000000	99.547486 
3866.000000	99.552523 
3865.000000	99.557739 
3864.000000	99.560209 
3863.000000	99.558146 
3862.000000	99.553352 
3861.000000	99.549497 
3860.000000	99.549023 
3859.000000	99.551127 
3858.000000	99.552347 
3857.000000	99.550053 
3856.000000	99.545665 
3855.000000	99.545005 
3854.000000	99.549899 
3853.000000	99.554797 
3852.000000	99.556681 
3851.000000	99.557757 
3850.000000	99.559325 
3849.000000	99.561700 
3848.000000	99.564408 
3847.000000	99.566452 
3846.000000	99.566879 
3845.000000	99.565310 
3844.000000	99.562694 
3843.000000	99.561242 
3842.000000	99.561902 
3841.000000	99.563178 
3840.000000	99.563075 
3839.000000	99.560907 
3838.000000	99.557521 
3837.000000	99.554128 
3836.000000	99.551490 
3835.000000	99.550697 
3834.000000	99.553294 
3833.000000	99.560176 
3832.000000	99.569725 
3831.000000	99.577688 
3830.000000	99.580477 
3829.000000	99.577798 
3828.000000	99.572151 
3827.000000	99.566666 
3826.000000	99.563065 
3825.000000	99.561322 
3824.000000	99.561253 
3823.000000	99.563718 
3822.000000	99.567725 
3821.000000	99.568663 
3820.000000	99.564394 
3819.000000	99.559115 
3818.000000	99.558228 
3817.000000	99.563498 
3816.000000	99.570770 
3815.000000	99.573487 
3814.000000	99.569837 
3813.000000	99.563871 
3812.000000	99.560887 
3811.000000	99.563216 
3810.000000	99.569202 
3809.000000	99.575387 
3808.000000	99.578941 
3807.000000	99.578637 
3806.000000	99.574943 
3805.000000	99.569741 
3804.000000	99.565924 
3803.000000	99.566938 
3802.000000	99.573119 
3801.000000	99.579421 
3800.000000	99.581235 
3799.000000	99.578662 
3798.000000	99.574275 
3797.000000	99.570500 
3796.000000	99.568100 
3795.000000	99.566558 
3794.000000	99.565302 
3793.000000	99.564358 
3792.000000	99.563981 
3791.000000	99.564179 
3790.000000	99.564769 
3789.000000	99.565854 
3788.000000	99.567733 
3787.000000	99.570073 
3786.000000	99.571646 
3785.000000	99.571175 
3784.000000	99.568532 
3783.000000	99.564882 
3782.000000	99.561966 
3781.000000	99.561192 
3780.000000	99.562597 
3779.000000	99.564718 
3778.000000	99.565894 
3777.000000	99.565279 
3776.000000	99.562874 
3775.000000	99.559610 
3774.000000	99.556858 
3773.000000	99.555649 
3772.000000	99.556399 
3771.000000	99.558615 
3770.000000	99.560541 
3769.000000	99.560623 
3768.000000	99.559584 
3767.000000	99.559119 
3766.000000	99.559673 
3765.000000	99.560191 
3764.000000	99.559467 
3763.000000	99.557498 
3762.000000	99.555573 
3761.000000	99.554887 
3760.000000	99.554929 
3759.000000	99.554244 
3758.000000	99.552751 
3757.000000	99.551458 
3756.000000	99.550319 
3755.000000	99.548319 
3754.000000	99.545062 
3753.000000	99.541483 
3752.000000	99.538311 
3751.000000	99.534521 
3750.000000	99.530214 
3749.000000	99.528120 
3748.000000	99.529937 
3747.000000	99.534436 
3746.000000	99.539371 
3745.000000	99.541942 
3744.000000	99.541087 
3743.000000	99.539890 
3742.000000	99.540315 
3741.000000	99.539941 
3740.000000	99.535923 
3739.000000	99.528096 
3738.000000	99.520857 
3737.000000	99.521296 
3736.000000	99.532440 
3735.000000	99.548818 
3734.000000	99.560693 
3733.000000	99.563160 
3732.000000	99.558622 
3731.000000	99.551647 
3730.000000	99.544586 
3729.000000	99.538023 
3728.000000	99.533487 
3727.000000	99.532706 
3726.000000	99.534674 
3725.000000	99.536463 
3724.000000	99.537061 
3723.000000	99.538277 
3722.000000	99.541184 
3721.000000	99.544610 
3720.000000	99.546242 
3719.000000	99.544429 
3718.000000	99.539488 
3717.000000	99.532752 
3716.000000	99.525405 
3715.000000	99.518076 
3714.000000	99.511434 
3713.000000	99.507022 
3712.000000	99.505781 
3711.000000	99.507146 
3710.000000	99.509425 
3709.000000	99.510821 
3708.000000	99.510770 
3707.000000	99.509675 
3706.000000	99.508368 
3705.000000	99.507896 
3704.000000	99.509029 
3703.000000	99.510899 
3702.000000	99.509896 
3701.000000	99.502215 
3700.000000	99.487606 
3699.000000	99.469390 
3698.000000	99.451786 
3697.000000	99.437458 
3696.000000	99.426445 
3695.000000	99.417389 
3694.000000	99.409903 
3693.000000	99.405104 
3692.000000	99.403462 
3691.000000	99.403201 
3690.000000	99.400530 
3689.000000	99.392873 
3688.000000	99.382041 
3687.000000	99.371934 
3686.000000	99.364787 
3685.000000	99.361591 
3684.000000	99.362936 
3683.000000	99.367899 
3682.000000	99.373039 
3681.000000	99.373224 
3680.000000	99.364291 
3679.000000	99.345657 
3678.000000	99.322345 
3677.000000	99.305346 
3676.000000	99.303677 
3675.000000	99.313510 
3674.000000	99.323453 
3673.000000	99.327692 
3672.000000	99.328172 
3671.000000	99.330654 
3670.000000	99.336607 
3669.000000	99.342223 
3668.000000	99.345683 
3667.000000	99.348737 
3666.000000	99.352946 
3665.000000	99.357750 
3664.000000	99.361237 
3663.000000	99.362263 
3662.000000	99.361276 
3661.000000	99.358925 
3660.000000	99.355431 
3659.000000	99.351863 
3658.000000	99.351000 
3657.000000	99.354992 
3656.000000	99.362189 
3655.000000	99.368793 
3654.000000	99.372677 
3653.000000	99.374281 
3652.000000	99.374644 
3651.000000	99.374019 
3650.000000	99.372693 
3649.000000	99.373853 
3648.000000	99.381186 
3647.000000	99.392988 
3646.000000	99.404481 
3645.000000	99.413875 
3644.000000	99.423228 
3643.000000	99.434955 
3642.000000	99.449417 
3641.000000	99.464440 
3640.000000	99.477221 
3639.000000	99.485898 
3638.000000	99.489893 
3637.000000	99.489839 
3636.000000	99.487123 
3635.000000	99.483329 
3634.000000	99.479352 
3633.000000	99.475455 
3632.000000	99.472339 
3631.000000	99.471816 
3630.000000	99.475246 
3629.000000	99.479860 
3628.000000	99.481223 
3627.000000	99.480057 
3626.000000	99.480665 
3625.000000	99.486132 
3624.000000	99.496673 
3623.000000	99.510174 
3622.000000	99.523923 
3621.000000	99.536158 
3620.000000	99.544477 
3619.000000	99.544941 
3618.000000	99.536224 
3617.000000	99.522882 
3616.000000	99.512091 
3615.000000	99.508655 
3614.000000	99.511289 
3613.000000	99.513854 
3612.000000	99.511904 
3611.000000	99.507080 
3610.000000	99.504352 
3609.000000	99.506644 
3608.000000	99.512038 
3607.000000	99.517058 
3606.000000	99.521437 
3605.000000	99.527202 
3604.000000	99.535039 
3603.000000	99.543103 
3602.000000	99.549310 
3601.000000	99.554084 
3600.000000	99.558521 
3599.000000	99.561174 
3598.000000	99.558897 
3597.000000	99.550721 
3596.000000	99.539876 
3595.000000	99.532005 
3594.000000	99.530139 
3593.000000	99.532812 
3592.000000	99.536584 
3591.000000	99.538962 
3590.000000	99.539863 
3589.000000	99.541019 
3588.000000	99.543539 
3587.000000	99.545708 
3586.000000	99.545241 
3585.000000	99.542345 
3584.000000	99.539858 
3583.000000	99.540146 
3582.000000	99.543351 
3581.000000	99.547480 
3580.000000	99.550032 
3579.000000	99.549484 
3578.000000	99.545633 
3577.000000	99.539943 
3576.000000	99.535113 
3575.000000	99.533826 
3574.000000	99.536532 
3573.000000	99.540682 
3572.000000	99.542930 
3571.000000	99.541823 
3570.000000	99.538126 
3569.000000	99.533864 
3568.000000	99.531050 
3567.000000	99.530162 
3566.000000	99.530043 
3565.000000	99.529852 
3564.000000	99.530504 
3563.000000	99.533990 
3562.000000	99.541019 
3561.000000	99.549458 
3560.000000	99.555893 
3559.000000	99.558674 
3558.000000	99.559164 
3557.000000	99.559802 
3556.000000	99.561571 
3555.000000	99.563307 
3554.000000	99.563109 
3553.000000	99.559648 
3552.000000	99.553188 
3551.000000	99.545893 
3550.000000	99.540564 
3549.000000	99.538664 
3548.000000	99.539751 
3547.000000	99.542204 
3546.000000	99.544633 
3545.000000	99.546040 
3544.000000	99.545694 
3543.000000	99.543825 
3542.000000	99.542341 
3541.000000	99.543641 
3540.000000	99.548559 
3539.000000	99.555239 
3538.000000	99.560601 
3537.000000	99.562783 
3536.000000	99.562285 
3535.000000	99.560916 
3534.000000	99.559943 
3533.000000	99.559919 
3532.000000	99.561315 
3531.000000	99.564376 
3530.000000	99.567637 
3529.000000	99.567855 
3528.000000	99.562974 
3527.000000	99.555170 
3526.000000	99.549461 
3525.000000	99.548913 
3524.000000	99.551958 
3523.000000	99.554720 
3522.000000	99.555311 
3521.000000	99.554812 
3520.000000	99.555081 
3519.000000	99.556767 
3518.000000	99.559490 
3517.000000	99.562591 
3516.000000	99.565131 
3515.000000	99.566068 
3514.000000	99.564859 
3513.000000	99.561994 
3512.000000	99.558606 
3511.000000	99.555695 
3510.000000	99.553607 
3509.000000	99.552198 
3508.000000	99.551322 
3507.000000	99.551170 
3506.000000	99.552115 
3505.000000	99.553773 
3504.000000	99.554614 
3503.000000	99.553541 
3502.000000	99.552290 
3501.000000	99.554875 
3500.000000	99.563358 
3499.000000	99.574566 
3498.000000	99.581820 
3497.000000	99.580550 
3496.000000	99.572148 
3495.000000	99.562309 
3494.000000	99.556146 
3493.000000	99.554964 
3492.000000	99.556889 
3491.000000	99.559333 
3490.000000	99.560967 
3489.000000	99.562258 
3488.000000	99.564466 
3487.000000	99.567951 
3486.000000	99.571465 
3485.000000	99.573268 
3484.000000	99.572744 
3483.000000	99.570843 
3482.000000	99.568979 
3481.000000	99.567806 
3480.000000	99.567038 
3479.000000	99.565983 
3478.000000	99.564110 
3477.000000	99.561585 
3476.000000	99.559743 
3475.000000	99.560680 
3474.000000	99.565423 
3473.000000	99.572111 
3472.000000	99.576770 
3471.000000	99.576902 
3470.000000	99.574269 
3469.000000	99.573331 
3468.000000	99.576688 
3467.000000	99.582549 
3466.000000	99.587139 
3465.000000	99.588818 
3464.000000	99.588938 
3463.000000	99.589130 
3462.000000	99.589103 
3461.000000	99.587745 
3460.000000	99.585423 
3459.000000	99.584096 
3458.000000	99.585092 
3457.000000	99.587330 
3456.000000	99.588280 
3455.000000	99.586520 
3454.000000	99.582969 
3453.000000	99.579768 
3452.000000	99.578176 
3451.000000	99.578024 
3450.000000	99.578700 
3449.000000	99.579931 
3448.000000	99.581314 
3447.000000	99.581865 
3446.000000	99.580852 
3445.000000	99.579000 
3444.000000	99.578080 
3443.000000	99.578983 
3442.000000	99.580549 
3441.000000	99.580575 
3440.000000	99.578005 
3439.000000	99.573806 
3438.000000	99.569713 
3437.000000	99.566522 
3436.000000	99.564055 
3435.000000	99.562627 
3434.000000	99.563693 
3433.000000	99.568558 
3432.000000	99.576275 
3431.000000	99.583648 
3430.000000	99.587765 
3429.000000	99.588603 
3428.000000	99.588759 
3427.000000	99.590305 
3426.000000	99.592277 
3425.000000	99.591709 
3424.000000	99.587102 
3423.000000	99.580264 
3422.000000	99.574504 
3421.000000	99.571551 
3420.000000	99.571014 
3419.000000	99.572277 
3418.000000	99.575526 
3417.000000	99.580472 
3416.000000	99.585124 
3415.000000	99.586979 
3414.000000	99.585476 
3413.000000	99.582714 
3412.000000	99.581554 
3411.000000	99.583220 
3410.000000	99.586629 
3409.000000	99.589497 
3408.000000	99.589791 
3407.000000	99.586630 
3406.000000	99.580718 
3405.000000	99.574217 
3404.000000	99.569717 
3403.000000	99.568562 
3402.000000	99.569988 
3401.000000	99.572259 
3400.000000	99.574569 
3399.000000	99.577544 
3398.000000	99.581836 
3397.000000	99.586710 
3396.000000	99.590212 
3395.000000	99.590416 
3394.000000	99.586432 
3393.000000	99.578851 
3392.000000	99.569822 
3391.000000	99.562322 
3390.000000	99.558707 
3389.000000	99.559602 
3388.000000	99.563947 
3387.000000	99.569808 
3386.000000	99.575311 
3385.000000	99.579530 
3384.000000	99.582890 
3383.000000	99.586267 
3382.000000	99.589177 
3381.000000	99.589497 
3380.000000	99.585783 
3379.000000	99.579784 
3378.000000	99.575547 
3377.000000	99.575560 
3376.000000	99.578348 
3375.000000	99.580296 
3374.000000	99.579444 
3373.000000	99.577085 
3372.000000	99.576035 
3371.000000	99.577872 
3370.000000	99.581655 
3369.000000	99.584710 
3368.000000	99.584755 
3367.000000	99.581811 
3366.000000	99.578260 
3365.000000	99.576677 
3364.000000	99.577486 
3363.000000	99.579018 
3362.000000	99.579730 
3361.000000	99.579682 
3360.000000	99.579590 
3359.000000	99.579206 
3358.000000	99.577563 
3357.000000	99.574792 
3356.000000	99.572713 
3355.000000	99.572933 
3354.000000	99.574624 
3353.000000	99.574999 
3352.000000	99.572299 
3351.000000	99.568110 
3350.000000	99.566319 
3349.000000	99.569584 
3348.000000	99.576829 
3347.000000	99.583956 
3346.000000	99.586955 
3345.000000	99.584685 
3344.000000	99.579420 
3343.000000	99.575070 
3342.000000	99.574143 
3341.000000	99.575665 
3340.000000	99.576008 
3339.000000	99.572473 
3338.000000	99.566319 
3337.000000	99.561820 
3336.000000	99.562111 
3335.000000	99.566359 
3334.000000	99.571259 
3333.000000	99.574505 
3332.000000	99.576122 
3331.000000	99.576946 
3330.000000	99.576986 
3329.000000	99.575705 
3328.000000	99.573227 
3327.000000	99.570536 
3326.000000	99.568473 
3325.000000	99.566795 
3324.000000	99.564383 
3323.000000	99.560661 
3322.000000	99.556845 
3321.000000	99.555411 
3320.000000	99.557751 
3319.000000	99.562388 
3318.000000	99.566029 
3317.000000	99.566524 
3316.000000	99.564427 
3315.000000	99.561892 
3314.000000	99.560837 
3313.000000	99.562196 
3312.000000	99.565791 
3311.000000	99.570086 
3310.000000	99.572736 
3309.000000	99.572476 
3308.000000	99.570411 
3307.000000	99.568787 
3306.000000	99.568682 
3305.000000	99.569562 
3304.000000	99.570800 
3303.000000	99.572422 
3302.000000	99.574033 
3301.000000	99.573972 
3300.000000	99.570514 
3299.000000	99.563967 
3298.000000	99.557120 
3297.000000	99.553389 
3296.000000	99.554164 
3295.000000	99.557764 
3294.000000	99.561044 
3293.000000	99.562276 
3292.000000	99.562416 
3291.000000	99.563268 
3290.000000	99.564750 
3289.000000	99.564822 
3288.000000	99.562134 
3287.000000	99.557857 
3286.000000	99.554357 
3285.000000	99.552597 
3284.000000	99.551475 
3283.000000	99.549529 
3282.000000	99.546826 
3281.000000	99.545139 
3280.000000	99.546476 
3279.000000	99.551107 
3278.000000	99.556710 
3277.000000	99.559636 
3276.000000	99.557548 
3275.000000	99.551121 
3274.000000	99.543323 
3273.000000	99.537258 
3272.000000	99.534569 
3271.000000	99.535117 
3270.000000	99.537401 
3269.000000	99.539435 
3268.000000	99.539863 
3267.000000	99.538587 
3266.000000	99.536379 
3265.000000	99.534159 
3264.000000	99.532827 
3263.000000	99.533431 
3262.000000	99.536761 
3261.000000	99.542338 
3260.000000	99.548014 
3259.000000	99.550966 
3258.000000	99.549558 
3257.000000	99.544539 
3256.000000	99.538431 
3255.000000	99.533533 
3254.000000	99.530594 
3253.000000	99.529470 
3252.000000	99.530425 
3251.000000	99.533865 
3250.000000	99.538740 
3249.000000	99.542411 
3248.000000	99.542892 
3247.000000	99.540754 
3246.000000	99.538200 
3245.000000	99.536635 
3244.000000	99.535787 
3243.000000	99.534797 
3242.000000	99.533190 
3241.000000	99.530862 
3240.000000	99.528151 
3239.000000	99.526319 
3238.000000	99.527302 
3237.000000	99.532252 
3236.000000	99.540221 
3235.000000	99.548331 
3234.000000	99.553310 
3233.000000	99.553349 
3232.000000	99.549188 
3231.000000	99.543684 
3230.000000	99.539888 
3229.000000	99.539061 
3228.000000	99.540180 
3227.000000	99.540982 
3226.000000	99.539428 
3225.000000	99.534882 
3224.000000	99.528718 
3223.000000	99.523776 
3222.000000	99.522347 
3221.000000	99.524136 
3220.000000	99.526400 
3219.000000	99.526417 
3218.000000	99.523912 
3217.000000	99.521261 
3216.000000	99.521597 
3215.000000	99.526368 
3214.000000	99.533920 
3213.000000	99.540253 
3212.000000	99.541755 
3211.000000	99.537784 
3210.000000	99.530751 
3209.000000	99.523897 
3208.000000	99.519230 
3207.000000	99.517165 
3206.000000	99.517130 
3205.000000	99.518078 
3204.000000	99.519019 
3203.000000	99.519584 
3202.000000	99.519916 
3201.000000	99.519961 
3200.000000	99.519505 
3199.000000	99.519115 
3198.000000	99.520251 
3197.000000	99.523673 
3196.000000	99.528193 
3195.000000	99.531685 
3194.000000	99.533083 
3193.000000	99.532772 
3192.000000	99.531355 
3191.000000	99.528889 
3190.000000	99.525393 
3189.000000	99.521424 
3188.000000	99.517911 
3187.000000	99.515726 
3186.000000	99.515398 
3185.000000	99.516694 
3184.000000	99.518422 
3183.000000	99.519106 
3182.000000	99.518278 
3181.000000	99.517039 
3180.000000	99.517300 
3179.000000	99.520323 
3178.000000	99.525547 
3177.000000	99.530551 
3176.000000	99.532719 
3175.000000	99.531628 
3174.000000	99.529578 
3173.000000	99.529027 
3172.000000	99.529612 
3171.000000	99.528655 
3170.000000	99.524769 
3169.000000	99.519902 
3168.000000	99.517082 
3167.000000	99.516936 
3166.000000	99.517461 
3165.000000	99.516884 
3164.000000	99.515658 
3163.000000	99.515357 
3162.000000	99.516505 
3161.000000	99.518191 
3160.000000	99.519504 
3159.000000	99.520506 
3158.000000	99.521438 
3157.000000	99.521550 
3156.000000	99.519517 
3155.000000	99.515111 
3154.000000	99.509777 
3153.000000	99.505143 
3152.000000	99.501450 
3151.000000	99.498045 
3150.000000	99.495017 
3149.000000	99.493502 
3148.000000	99.494417 
3147.000000	99.497600 
3146.000000	99.502191 
3145.000000	99.507109 
3144.000000	99.511082 
3143.000000	99.513136 
3142.000000	99.513464 
3141.000000	99.513182 
3140.000000	99.512808 
3139.000000	99.511672 
3138.000000	99.509255 
3137.000000	99.506395 
3136.000000	99.504533 
3135.000000	99.504404 
3134.000000	99.506136 
3133.000000	99.509703 
3132.000000	99.514058 
3131.000000	99.516484 
3130.000000	99.514599 
3129.000000	99.509432 
3128.000000	99.505241 
3127.000000	99.505566 
3126.000000	99.509987 
3125.000000	99.515078 
3124.000000	99.517752 
3123.000000	99.517134 
3122.000000	99.514053 
3121.000000	99.509831 
3120.000000	99.505617 
3119.000000	99.502157 
3118.000000	99.499761 
3117.000000	99.498507 
3116.000000	99.498447 
3115.000000	99.499495 
3114.000000	99.501215 
3113.000000	99.502913 
3112.000000	99.503968 
3111.000000	99.504120 
3110.000000	99.503551 
3109.000000	99.502726 
3108.000000	99.501947 
3107.000000	99.500973 
3106.000000	99.499127 
3105.000000	99.496010 
3104.000000	99.492255 
3103.000000	99.489553 
3102.000000	99.489733 
3101.000000	99.493355 
3100.000000	99.499066 
3099.000000	99.504520 
3098.000000	99.508177 
3097.000000	99.510113 
3096.000000	99.511131 
3095.000000	99.511439 
3094.000000	99.510618 
3093.000000	99.508603 
3092.000000	99.506032 
3091.000000	99.503648 
3090.000000	99.501859 
3089.000000	99.500940 
3088.000000	99.501000 
3087.000000	99.501535 
3086.000000	99.501566 
3085.000000	99.500504 
3084.000000	99.498410 
3083.000000	99.495180 
3082.000000	99.490373 
3081.000000	99.484570 
3080.000000	99.480287 
3079.000000	99.480372 
3078.000000	99.485388 
3077.000000	99.493072 
3076.000000	99.500283 
3075.000000	99.504908 
3074.000000	99.506210 
3073.000000	99.504565 
3072.000000	99.501257 
3071.000000	99.497819 
3070.000000	99.494886 
3069.000000	99.491898 
3068.000000	99.488279 
3067.000000	99.484735 
3066.000000	99.483126 
3065.000000	99.485063 
3064.000000	99.490423 
3063.000000	99.496823 
3062.000000	99.500622 
3061.000000	99.499173 
3060.000000	99.492784 
3059.000000	99.484534 
3058.000000	99.478208 
3057.000000	99.476402 
3056.000000	99.479756 
3055.000000	99.486748 
3054.000000	99.493902 
3053.000000	99.497377 
3052.000000	99.495456 
3051.000000	99.489613 
3050.000000	99.483024 
3049.000000	99.478364 
3048.000000	99.476678 
3047.000000	99.477039 
3046.000000	99.476573 
3045.000000	99.472082 
3044.000000	99.463240 
3043.000000	99.453910 
3042.000000	99.448928 
3041.000000	99.449296 
3040.000000	99.451367 
3039.000000	99.450736 
3038.000000	99.445923 
3037.000000	99.438206 
3036.000000	99.429182 
3035.000000	99.419465 
3034.000000	99.409059 
3033.000000	99.397904 
3032.000000	99.386019 
3031.000000	99.373714 
3030.000000	99.361790 
3029.000000	99.351205 
3028.000000	99.342482 
3027.000000	99.335459 
3026.000000	99.329228 
3025.000000	99.321934 
3024.000000	99.311150 
3023.000000	99.295489 
3022.000000	99.276148 
3021.000000	99.256104 
3020.000000	99.237305 
3019.000000	99.219060 
3018.000000	99.199807 
3017.000000	99.179793 
3016.000000	99.160821 
3015.000000	99.143324 
3014.000000	99.125231 
3013.000000	99.104644 
3012.000000	99.082705 
3011.000000	99.062433 
3010.000000	99.045071 
3009.000000	99.028953 
3008.000000	99.011955 
3007.000000	98.993649 
3006.000000	98.974535 
3005.000000	98.954381 
3004.000000	98.932440 
3003.000000	98.908908 
3002.000000	98.885355 
3001.000000	98.863796 
3000.000000	98.845580 
2999.000000	98.830712 
2998.000000	98.817956 
2997.000000	98.806087 
2996.000000	98.795148 
2995.000000	98.785193 
2994.000000	98.773047 
2993.000000	98.752048 
2992.000000	98.717604 
2991.000000	98.673491 
2990.000000	98.631318 
2989.000000	98.602980 
2988.000000	98.593559 
2987.000000	98.600439 
2986.000000	98.616798 
2985.000000	98.635134 
2984.000000	98.649406 
2983.000000	98.656593 
2982.000000	98.657109 
2981.000000	98.653422 
2980.000000	98.648126 
2979.000000	98.643129 
2978.000000	98.639490 
2977.000000	98.636828 
2976.000000	98.633126 
2975.000000	98.626376 
2974.000000	98.617046 
2973.000000	98.608579 
2972.000000	98.605069 
2971.000000	98.608387 
2970.000000	98.617397 
2969.000000	98.629479 
2968.000000	98.642590 
2967.000000	98.656149 
2966.000000	98.670380 
2965.000000	98.685111 
2964.000000	98.699295 
2963.000000	98.711609 
2962.000000	98.721395 
2961.000000	98.729028 
2960.000000	98.735532 
2959.000000	98.741913 
2958.000000	98.748702 
2957.000000	98.755967 
2956.000000	98.763732 
2955.000000	98.772428 
2954.000000	98.782923 
2953.000000	98.795952 
2952.000000	98.811257 
2951.000000	98.827080 
2950.000000	98.840611 
2949.000000	98.849387 
2948.000000	98.852653 
2947.000000	98.851520 
2946.000000	98.848015 
2945.000000	98.844224 
2944.000000	98.841980 
2943.000000	98.842232 
2942.000000	98.843898 
2941.000000	98.843964 
2940.000000	98.839853 
2939.000000	98.832057 
2938.000000	98.823839 
2937.000000	98.818175 
2936.000000	98.815408 
2935.000000	98.813815 
2934.000000	98.811629 
2933.000000	98.807898 
2932.000000	98.801933 
2931.000000	98.792866 
2930.000000	98.780381 
2929.000000	98.765879 
2928.000000	98.752429 
2927.000000	98.742666 
2926.000000	98.736425 
2925.000000	98.731035 
2924.000000	98.724638 
2923.000000	98.718686 
2922.000000	98.716306 
2921.000000	98.718533 
2920.000000	98.723321 
2919.000000	98.728112 
2918.000000	98.732039 
2917.000000	98.735155 
2916.000000	98.736771 
2915.000000	98.735717 
2914.000000	98.732083 
2913.000000	98.727952 
2912.000000	98.726220 
2911.000000	98.728451 
2910.000000	98.733471 
2909.000000	98.738159 
2908.000000	98.740102 
2907.000000	98.739341 
2906.000000	98.736650 
2905.000000	98.730534 
2904.000000	98.718006 
2903.000000	98.699792 
2902.000000	98.683633 
2901.000000	98.680617 
2900.000000	98.695960 
2899.000000	98.724714 
2898.000000	98.755184 
2897.000000	98.777026 
2896.000000	98.787278 
2895.000000	98.790428 
2894.000000	98.793535 
2893.000000	98.800568 
2892.000000	98.810621 
2891.000000	98.820484 
2890.000000	98.828048 
2889.000000	98.833110 
2888.000000	98.836284 
2887.000000	98.838508 
2886.000000	98.841420 
2885.000000	98.846888 
2884.000000	98.855755 
2883.000000	98.867538 
2882.000000	98.881419 
2881.000000	98.896836 
2880.000000	98.912980 
2879.000000	98.928571 
2878.000000	98.942625 
2877.000000	98.955089 
2876.000000	98.966297 
2875.000000	98.976163 
2874.000000	98.984305 
2873.000000	98.990822 
2872.000000	98.996519 
2871.000000	99.002271 
2870.000000	99.008412 
2869.000000	99.014936 
2868.000000	99.022272 
2867.000000	99.031403 
2866.000000	99.042666 
2865.000000	99.054554 
2864.000000	99.064517 
2863.000000	99.071395 
2862.000000	99.076471 
2861.000000	99.081657 
2860.000000	99.087313 
2859.000000	99.092650 
2858.000000	99.097509 
2857.000000	99.102454 
2856.000000	99.107510 
2855.000000	99.112382 
2854.000000	99.118166 
2853.000000	99.127296 
2852.000000	99.141022 
2851.000000	99.157841 
2850.000000	99.175232 
2849.000000	99.192203 
2848.000000	99.209250 
2847.000000	99.226452 
2846.000000	99.242654 
2845.000000	99.256416 
2844.000000	99.267008 
2843.000000	99.274665 
2842.000000	99.280704 
2841.000000	99.287323 
2840.000000	99.296336 
2839.000000	99.307584 
2838.000000	99.318950 
2837.000000	99.328213 
2836.000000	99.334728 
2835.000000	99.339416 
2834.000000	99.343618 
2833.000000	99.348090 
2832.000000	99.352603 
2831.000000	99.356160 
2830.000000	99.357829 
2829.000000	99.357630 
2828.000000	99.356620 
2827.000000	99.356153 
2826.000000	99.357265 
2825.000000	99.360514 
2824.000000	99.365683 
2823.000000	99.371336 
2822.000000	99.375360 
2821.000000	99.376733 
2820.000000	99.376716 
2819.000000	99.377709 
2818.000000	99.380817 
2817.000000	99.384915 
2816.000000	99.388127 
2815.000000	99.389734 
2814.000000	99.390309 
2813.000000	99.390500 
2812.000000	99.390393 
2811.000000	99.390172 
2810.000000	99.390779 
2809.000000	99.393313 
2808.000000	99.397739 
2807.000000	99.402470 
2806.000000	99.405413 
2805.000000	99.405451 
2804.000000	99.403124 
2803.000000	99.400127 
2802.000000	99.398202 
2801.000000	99.398181 
2800.000000	99.399778 
2799.000000	99.402121 
2798.000000	99.404328 
2797.000000	99.405511 
2796.000000	99.404760 
2795.000000	99.401967 
2794.000000	99.398861 
2793.000000	99.398288 
2792.000000	99.401555 
2791.000000	99.406774 
2790.000000	99.410662 
2789.000000	99.411956 
2788.000000	99.412300 
2787.000000	99.413681 
2786.000000	99.415893 
2785.000000	99.416964 
2784.000000	99.415491 
2783.000000	99.412020 
2782.000000	99.408569 
2781.000000	99.407233 
2780.000000	99.408838 
2779.000000	99.412297 
2778.000000	99.415524 
2777.000000	99.417487 
2776.000000	99.419126 
2775.000000	99.421721 
2774.000000	99.424804 
2773.000000	99.426648 
2772.000000	99.426774 
2771.000000	99.426841 
2770.000000	99.428506 
2769.000000	99.431172 
2768.000000	99.432723 
2767.000000	99.432194 
2766.000000	99.430877 
2765.000000	99.430600 
2764.000000	99.431453 
2763.000000	99.431649 
2762.000000	99.429589 
2761.000000	99.425749 
2760.000000	99.422349 
2759.000000	99.421263 
2758.000000	99.422543 
2757.000000	99.425011 
2756.000000	99.427677 
2755.000000	99.430050 
2754.000000	99.431473 
2753.000000	99.431286 
2752.000000	99.430053 
2751.000000	99.429794 
2750.000000	99.432133 
2749.000000	99.436370 
2748.000000	99.440000 
2747.000000	99.441123 
2746.000000	99.439840 
2745.000000	99.437384 
2744.000000	99.434655 
2743.000000	99.431989 
2742.000000	99.429908 
2741.000000	99.429324 
2740.000000	99.430792 
2739.000000	99.433864 
2738.000000	99.437463 
2737.000000	99.440842 
2736.000000	99.443954 
2735.000000	99.446793 
2734.000000	99.448752 
2733.000000	99.449083 
2732.000000	99.447963 
2731.000000	99.446583 
2730.000000	99.445939 
2729.000000	99.445913 
2728.000000	99.445882 
2727.000000	99.445816 
2726.000000	99.446147 
2725.000000	99.446820 
2724.000000	99.447341 
2723.000000	99.447930 
2722.000000	99.449708 
2721.000000	99.453082 
2720.000000	99.456461 
2719.000000	99.457520 
2718.000000	99.455700 
2717.000000	99.452762 
2716.000000	99.450873 
2715.000000	99.450853 
2714.000000	99.452465 
2713.000000	99.455320 
2712.000000	99.458700 
2711.000000	99.461175 
2710.000000	99.461693 
2709.000000	99.461078 
2708.000000	99.461346 
2707.000000	99.463123 
2706.000000	99.464666 
2705.000000	99.464104 
2704.000000	99.461998 
2703.000000	99.460668 
2702.000000	99.461264 
2701.000000	99.462505 
2700.000000	99.462632 
2699.000000	99.461832 
2698.000000	99.462100 
2697.000000	99.464807 
2696.000000	99.468875 
2695.000000	99.471560 
2694.000000	99.471073 
2693.000000	99.468288 
2692.000000	99.465658 
2691.000000	99.464477 
2690.000000	99.463688 
2689.000000	99.461690 
2688.000000	99.458847 
2687.000000	99.457451 
2686.000000	99.459240 
2685.000000	99.463521 
2684.000000	99.467891 
2683.000000	99.470302 
2682.000000	99.470198 
2681.000000	99.468131 
2680.000000	99.464893 
2679.000000	99.461155 
2678.000000	99.457802 
2677.000000	99.456326 
2676.000000	99.458341 
2675.000000	99.464118 
2674.000000	99.471630 
2673.000000	99.477523 
2672.000000	99.479445 
2671.000000	99.477441 
2670.000000	99.473347 
2669.000000	99.469242 
2668.000000	99.466414 
2667.000000	99.465218 
2666.000000	99.465424 
2665.000000	99.466711 
2664.000000	99.468854 
2663.000000	99.471443 
2662.000000	99.473779 
2661.000000	99.475400 
2660.000000	99.476464 
2659.000000	99.477183 
2658.000000	99.477307 
2657.000000	99.476969 
2656.000000	99.477571 
2655.000000	99.480355 
2654.000000	99.483904 
2653.000000	99.484841 
2652.000000	99.482128 
2651.000000	99.479308 
2650.000000	99.480675 
2649.000000	99.485732 
2648.000000	99.489388 
2647.000000	99.487948 
2646.000000	99.483394 
2645.000000	99.480921 
2644.000000	99.483131 
2643.000000	99.487668 
2642.000000	99.490097 
2641.000000	99.488279 
2640.000000	99.483914 
2639.000000	99.480504 
2638.000000	99.480239 
2637.000000	99.482610 
2636.000000	99.485446 
2635.000000	99.486824 
2634.000000	99.486151 
2633.000000	99.484210 
2632.000000	99.482726 
2631.000000	99.483462 
2630.000000	99.486842 
2629.000000	99.491237 
2628.000000	99.494139 
2627.000000	99.494472 
2626.000000	99.493529 
2625.000000	99.493255 
2624.000000	99.493731 
2623.000000	99.492956 
2622.000000	99.489609 
2621.000000	99.485664 
2620.000000	99.485067 
2619.000000	99.489167 
2618.000000	99.494333 
2617.000000	99.495473 
2616.000000	99.491797 
2615.000000	99.487608 
2614.000000	99.487091 
2613.000000	99.489916 
2612.000000	99.492926 
2611.000000	99.494657 
2610.000000	99.496217 
2609.000000	99.498169 
2608.000000	99.498712 
2607.000000	99.495936 
2606.000000	99.491003 
2605.000000	99.488047 
2604.000000	99.490663 
2603.000000	99.498477 
2602.000000	99.507184 
2601.000000	99.512278 
2600.000000	99.512959 
2599.000000	99.512067 
2598.000000	99.512147 
2597.000000	99.512447 
2596.000000	99.510377 
2595.000000	99.505103 
2594.000000	99.498646 
2593.000000	99.493834 
2592.000000	99.492218 
2591.000000	99.493881 
2590.000000	99.498114 
2589.000000	99.503756 
2588.000000	99.509272 
2587.000000	99.512929 
2586.000000	99.513281 
2585.000000	99.510223 
2584.000000	99.505774 
2583.000000	99.502800 
2582.000000	99.502162 
2581.000000	99.501837 
2580.000000	99.499670 
2579.000000	99.496134 
2578.000000	99.493176 
2577.000000	99.491110 
2576.000000	99.488335 
2575.000000	99.484010 
2574.000000	99.479508 
2573.000000	99.477035 
2572.000000	99.477884 
2571.000000	99.481967 
2570.000000	99.487715 
2569.000000	99.492377 
2568.000000	99.493882 
2567.000000	99.492857 
2566.000000	99.491750 
2565.000000	99.491792 
2564.000000	99.491980 
2563.000000	99.491222 
2562.000000	99.489986 
2561.000000	99.489152 
2560.000000	99.488490 
2559.000000	99.487227 
2558.000000	99.485420 
2557.000000	99.484158 
2556.000000	99.484960 
2555.000000	99.489087 
2554.000000	99.496313 
2553.000000	99.503880 
2552.000000	99.507842 
2551.000000	99.506367 
2550.000000	99.501050 
2549.000000	99.494556 
2548.000000	99.488070 
2547.000000	99.481898 
2546.000000	99.477449 
2545.000000	99.476999 
2544.000000	99.481284 
2543.000000	99.487880 
2542.000000	99.492021 
2541.000000	99.489458 
2540.000000	99.479961 
2539.000000	99.468659 
2538.000000	99.462623 
2537.000000	99.464696 
2536.000000	99.471083 
2535.000000	99.475732 
2534.000000	99.476096 
2533.000000	99.473462 
2532.000000	99.469115 
2531.000000	99.462957 
2530.000000	99.456071 
2529.000000	99.451840 
2528.000000	99.452578 
2527.000000	99.456138 
2526.000000	99.457777 
2525.000000	99.455416 
2524.000000	99.451884 
2523.000000	99.451791 
2522.000000	99.457023 
2521.000000	99.465454 
2520.000000	99.472884 
2519.000000	99.475373 
2518.000000	99.470675 
2517.000000	99.459457 
2516.000000	99.445955 
2515.000000	99.436365 
2514.000000	99.435099 
2513.000000	99.442034 
2512.000000	99.453199 
2511.000000	99.463703 
2510.000000	99.470169 
2509.000000	99.471870 
2508.000000	99.470945 
2507.000000	99.470851 
2506.000000	99.472963 
2505.000000	99.474491 
2504.000000	99.471078 
2503.000000	99.461850 
2502.000000	99.450978 
2501.000000	99.444032 
2500.000000	99.443713 
2499.000000	99.449140 
2498.000000	99.457589 
2497.000000	99.465936 
2496.000000	99.471482 
2495.000000	99.473061 
2494.000000	99.471395 
2493.000000	99.467954 
2492.000000	99.463876 
2491.000000	99.460413 
2490.000000	99.459629 
2489.000000	99.463609 
2488.000000	99.472824 
2487.000000	99.485285 
2486.000000	99.496663 
2485.000000	99.501494 
2484.000000	99.496288 
2483.000000	99.483089 
2482.000000	99.469101 
2481.000000	99.460988 
2480.000000	99.459398 
2479.000000	99.459935 
2478.000000	99.458878 
2477.000000	99.456489 
2476.000000	99.455150 
2475.000000	99.456334 
2474.000000	99.459951 
2473.000000	99.464918 
2472.000000	99.469287 
2471.000000	99.470928 
2470.000000	99.469336 
2469.000000	99.466370 
2468.000000	99.464413 
2467.000000	99.464104 
2466.000000	99.464398 
2465.000000	99.464346 
2464.000000	99.464172 
2463.000000	99.464960 
2462.000000	99.467757 
2461.000000	99.472433 
2460.000000	99.476787 
2459.000000	99.477416 
2458.000000	99.472661 
2457.000000	99.464800 
2456.000000	99.458534 
2455.000000	99.457085 
2454.000000	99.460015 
2453.000000	99.464396 
2452.000000	99.467036 
2451.000000	99.465653 
2450.000000	99.459402 
2449.000000	99.449651 
2448.000000	99.440132 
2447.000000	99.435257 
2446.000000	99.437348 
2445.000000	99.444887 
2444.000000	99.453240 
2443.000000	99.457529 
2442.000000	99.455687 
2441.000000	99.449483 
2440.000000	99.442800 
2439.000000	99.438972 
2438.000000	99.439342 
2437.000000	99.443282 
2436.000000	99.448551 
2435.000000	99.452121 
2434.000000	99.452265 
2433.000000	99.450594 
2432.000000	99.451205 
2431.000000	99.456765 
2430.000000	99.465396 
2429.000000	99.471824 
2428.000000	99.471717 
2427.000000	99.465066 
2426.000000	99.455907 
2425.000000	99.449107 
2424.000000	99.447171 
2423.000000	99.449737 
2422.000000	99.455596 
2421.000000	99.463919 
2420.000000	99.472642 
2419.000000	99.477026 
2418.000000	99.472649 
2417.000000	99.460646 
2416.000000	99.447869 
2415.000000	99.440300 
2414.000000	99.437675 
2413.000000	99.435952 
2412.000000	99.433477 
2411.000000	99.432394 
2410.000000	99.434708 
2409.000000	99.439466 
2408.000000	99.444031 
2407.000000	99.446332 
2406.000000	99.445616 
2405.000000	99.442760 
2404.000000	99.440272 
2403.000000	99.440342 
2402.000000	99.442270 
2401.000000	99.443022 
2400.000000	99.440799 
2399.000000	99.436895 
2398.000000	99.433736 
2397.000000	99.432445 
2396.000000	99.432736 
2395.000000	99.433656 
2394.000000	99.433748 
2393.000000	99.431923 
2392.000000	99.429044 
2391.000000	99.427318 
2390.000000	99.427319 
2389.000000	99.427252 
2388.000000	99.426387 
2387.000000	99.427284 
2386.000000	99.432350 
2385.000000	99.439215 
2384.000000	99.442360 
2383.000000	99.439601 
2382.000000	99.434746 
2381.000000	99.432913 
2380.000000	99.435091 
2379.000000	99.439010 
2378.000000	99.444263 
2377.000000	99.453157 
2376.000000	99.465270 
2375.000000	99.474286 
2374.000000	99.473704 
2373.000000	99.464128 
2372.000000	99.451770 
2371.000000	99.441034 
2370.000000	99.432658 
2369.000000	99.428015 
2368.000000	99.429479 
2367.000000	99.436213 
2366.000000	99.444863 
2365.000000	99.454318 
2364.000000	99.464614 
2363.000000	99.471270 
2362.000000	99.467471 
2361.000000	99.453634 
2360.000000	99.437479 
2359.000000	99.425668 
2358.000000	99.420670 
2357.000000	99.422445 
2356.000000	99.430524 
2355.000000	99.442633 
2354.000000	99.459099 
2353.000000	99.475628 
2352.000000	99.483457 
2351.000000	99.478421 
2350.000000	99.463295 
2349.000000	99.444687 
2348.000000	99.429202 
2347.000000	99.424874 
2346.000000	99.433252 
2345.000000	99.443845 
2344.000000	99.447772 
2343.000000	99.445304 
2342.000000	99.443121 
2341.000000	99.441591 
2340.000000	99.438792 
2339.000000	99.436743 
2338.000000	99.440253 
2337.000000	99.448631 
2336.000000	99.451713 
2335.000000	99.444824 
2334.000000	99.435438 
2333.000000	99.434850 
2332.000000	99.440401 
2331.000000	99.445170 
2330.000000	99.444134 
2329.000000	99.441522 
2328.000000	99.438190 
2327.000000	99.438605 
2326.000000	99.444795 
2325.000000	99.453531 
2324.000000	99.455781 
2323.000000	99.448887 
2322.000000	99.441082 
2321.000000	99.439485 
2320.000000	99.439509 
2319.000000	99.434210 
2318.000000	99.423518 
2317.000000	99.416190 
2316.000000	99.415849 
2315.000000	99.422309 
2314.000000	99.430988 
2313.000000	99.440790 
2312.000000	99.448345 
2311.000000	99.452966 
2310.000000	99.453694 
2309.000000	99.452645 
2308.000000	99.450396 
2307.000000	99.449216 
2306.000000	99.450179 
2305.000000	99.454167 
2304.000000	99.459860 
2303.000000	99.467303 
2302.000000	99.475337 
2301.000000	99.481922 
2300.000000	99.483821 
2299.000000	99.482942 
2298.000000	99.483507 
2297.000000	99.488166 
2296.000000	99.492596 
2295.000000	99.492334 
2294.000000	99.487600 
2293.000000	99.484056 
2292.000000	99.485841 
2291.000000	99.492943 
2290.000000	99.502126 
2289.000000	99.509660 
2288.000000	99.513295 
2287.000000	99.513224 
2286.000000	99.511204 
2285.000000	99.507345 
2284.000000	99.500431 
2283.000000	99.491567 
2282.000000	99.486280 
2281.000000	99.488944 
2280.000000	99.496849 
2279.000000	99.502134 
2278.000000	99.500363 
2277.000000	99.494494 
2276.000000	99.490188 
2275.000000	99.489883 
2274.000000	99.492003 
2273.000000	99.494169 
2272.000000	99.495376 
2271.000000	99.496622 
2270.000000	99.499781 
2269.000000	99.505381 
2268.000000	99.510943 
2267.000000	99.512739 
2266.000000	99.509194 
2265.000000	99.502106 
2264.000000	99.494540 
2263.000000	99.488591 
2262.000000	99.485036 
2261.000000	99.483689 
2260.000000	99.483709 
2259.000000	99.483859 
2258.000000	99.483146 
2257.000000	99.481040 
2256.000000	99.478011 
2255.000000	99.476003 
2254.000000	99.477578 
2253.000000	99.483657 
2252.000000	99.491978 
2251.000000	99.498526 
2250.000000	99.500192 
2249.000000	99.497005 
2248.000000	99.491869 
2247.000000	99.488887 
2246.000000	99.489548 
2245.000000	99.491460 
2244.000000	99.491452 
2243.000000	99.489611 
2242.000000	99.488552 
2241.000000	99.489488 
2240.000000	99.491834 
2239.000000	99.496539 
2238.000000	99.505800 
2237.000000	99.517637 
2236.000000	99.524343 
2235.000000	99.519742 
2234.000000	99.506682 
2233.000000	99.494671 
2232.000000	99.490622 
2231.000000	99.493327 
2230.000000	99.495864 
2229.000000	99.491942 
2228.000000	99.481249 
2227.000000	99.470096 
2226.000000	99.465730 
2225.000000	99.469318 
2224.000000	99.476190 
2223.000000	99.483071 
2222.000000	99.490698 
2221.000000	99.497515 
2220.000000	99.496595 
2219.000000	99.484615 
2218.000000	99.470623 
2217.000000	99.468785 
2216.000000	99.482412 
2215.000000	99.501064 
2214.000000	99.513771 
2213.000000	99.519213 
2212.000000	99.521400 
2211.000000	99.521677 
2210.000000	99.519463 
2209.000000	99.516855 
2208.000000	99.516623 
2207.000000	99.516401 
2206.000000	99.509862 
2205.000000	99.495488 
2204.000000	99.481700 
2203.000000	99.480561 
2202.000000	99.495844 
2201.000000	99.517794 
2200.000000	99.530890 
2199.000000	99.527580 
2198.000000	99.513857 
2197.000000	99.501306 
2196.000000	99.495653 
2195.000000	99.495085 
2194.000000	99.497379 
2193.000000	99.503119 
2192.000000	99.510872 
2191.000000	99.514794 
2190.000000	99.511567 
2189.000000	99.506822 
2188.000000	99.508983 
2187.000000	99.516938 
2186.000000	99.519259 
2185.000000	99.507507 
2184.000000	99.486276 
2183.000000	99.467302 
2182.000000	99.457395 
2181.000000	99.455851 
2180.000000	99.460348 
2179.000000	99.469712 
2178.000000	99.481527 
2177.000000	99.492340 
2176.000000	99.501167 
2175.000000	99.508520 
2174.000000	99.511730 
2173.000000	99.507388 
2172.000000	99.500685 
2171.000000	99.505495 
2170.000000	99.529512 
2169.000000	99.562649 
2168.000000	99.586141 
2167.000000	99.591721 
2166.000000	99.586597 
2165.000000	99.581913 
2164.000000	99.583148 
2163.000000	99.590848 
2162.000000	99.601502 
2161.000000	99.604063 
2160.000000	99.583661 
2159.000000	99.536484 
2158.000000	99.477657 
2157.000000	99.428284 
2156.000000	99.398408 
2155.000000	99.387558 
2154.000000	99.394268 
2153.000000	99.416344 
2152.000000	99.444995 
2151.000000	99.466718 
2150.000000	99.473375 
2149.000000	99.468746 
2148.000000	99.464329 
2147.000000	99.468799 
2146.000000	99.480604 
2145.000000	99.489495 
2144.000000	99.486106 
2143.000000	99.471418 
2142.000000	99.456273 
2141.000000	99.450624 
2140.000000	99.453756 
2139.000000	99.456455 
2138.000000	99.452128 
2137.000000	99.443480 
2136.000000	99.437693 
2135.000000	99.437372 
2134.000000	99.439036 
2133.000000	99.439856 
2132.000000	99.441912 
2131.000000	99.447401 
2130.000000	99.452378 
2129.000000	99.449602 
2128.000000	99.437817 
2127.000000	99.424415 
2126.000000	99.417342 
2125.000000	99.417673 
2124.000000	99.422580 
2123.000000	99.432190 
2122.000000	99.448487 
2121.000000	99.468500 
2120.000000	99.484091 
2119.000000	99.490008 
2118.000000	99.488581 
2117.000000	99.485219 
2116.000000	99.482544 
2115.000000	99.480578 
2114.000000	99.479367 
2113.000000	99.478354 
2112.000000	99.475253 
2111.000000	99.469049 
2110.000000	99.463402 
2109.000000	99.463717 
2108.000000	99.470037 
2107.000000	99.475177 
2106.000000	99.471535 
2105.000000	99.459351 
2104.000000	99.447396 
2103.000000	99.445211 
2102.000000	99.454543 
2101.000000	99.467944 
2100.000000	99.475500 
2099.000000	99.472965 
2098.000000	99.464081 
2097.000000	99.456422 
2096.000000	99.455445 
2095.000000	99.461222 
2094.000000	99.469359 
2093.000000	99.474918 
2092.000000	99.476435 
2091.000000	99.476308 
2090.000000	99.477290 
2089.000000	99.479311 
2088.000000	99.479901 
2087.000000	99.476458 
2086.000000	99.467556 
2085.000000	99.454268 
2084.000000	99.441977 
2083.000000	99.438743 
2082.000000	99.448641 
2081.000000	99.467001 
2080.000000	99.484770 
2079.000000	99.497358 
2078.000000	99.506695 
2077.000000	99.515287 
2076.000000	99.521566 
2075.000000	99.521547 
2074.000000	99.512536 
2073.000000	99.495173 
2072.000000	99.474332 
2071.000000	99.457656 
2070.000000	99.450301 
2069.000000	99.450337 
2068.000000	99.450967 
2067.000000	99.447314 
2066.000000	99.439668 
2065.000000	99.432148 
2064.000000	99.431016 
2063.000000	99.441726 
2062.000000	99.462162 
2061.000000	99.479648 
2060.000000	99.481640 
2059.000000	99.470725 
2058.000000	99.462750 
2057.000000	99.468160 
2056.000000	99.481363 
2055.000000	99.491506 
2054.000000	99.497213 
2053.000000	99.505105 
2052.000000	99.517970 
2051.000000	99.530486 
2050.000000	99.535237 
2049.000000	99.529481 
2048.000000	99.517490 
2047.000000	99.508332 
2046.000000	99.509111 
2045.000000	99.516982 
2044.000000	99.519568 
2043.000000	99.507574 
2042.000000	99.486476 
2041.000000	99.472220 
2040.000000	99.474844 
2039.000000	99.489543 
2038.000000	99.503886 
2037.000000	99.509846 
2036.000000	99.507676 
2035.000000	99.500290 
2034.000000	99.487157 
2033.000000	99.466783 
2032.000000	99.445307 
2031.000000	99.437494 
2030.000000	99.453384 
2029.000000	99.484139 
2028.000000	99.506746 
2027.000000	99.505082 
2026.000000	99.482424 
2025.000000	99.453976 
2024.000000	99.433245 
2023.000000	99.426978 
2022.000000	99.435672 
2021.000000	99.452381 
2020.000000	99.464556 
2019.000000	99.463510 
2018.000000	99.451797 
2017.000000	99.438928 
2016.000000	99.431168 
2015.000000	99.428251 
2014.000000	99.427621 
2013.000000	99.427622 
2012.000000	99.428269 
2011.000000	99.431902 
2010.000000	99.441552 
2009.000000	99.456574 
2008.000000	99.471856 
2007.000000	99.483274 
2006.000000	99.490958 
2005.000000	99.495592 
2004.000000	99.495565 
2003.000000	99.490068 
2002.000000	99.481122 
2001.000000	99.469763 
2000.000000	99.453910 
1999.000000	99.433138 
1998.000000	99.412340 
1997.000000	99.397698 
1996.000000	99.391856 
1995.000000	99.395133 
1994.000000	99.407555 
1993.000000	99.425956 
1992.000000	99.442143 
1991.000000	99.448951 
1990.000000	99.446631 
1989.000000	99.439781 
1988.000000	99.431959 
1987.000000	99.427006 
1986.000000	99.431248 
1985.000000	99.448322 
1984.000000	99.472804 
1983.000000	99.493478 
1982.000000	99.502559 
1981.000000	99.499276 
1980.000000	99.487151 
1979.000000	99.472024 
1978.000000	99.460729 
1977.000000	99.455771 
1976.000000	99.451271 
1975.000000	99.439210 
1974.000000	99.419997 
1973.000000	99.402681 
1972.000000	99.394553 
1971.000000	99.394974 
1970.000000	99.400905 
1969.000000	99.413836 
1968.000000	99.436604 
1967.000000	99.464476 
1966.000000	99.485111 
1965.000000	99.489798 
1964.000000	99.481265 
1963.000000	99.468520 
1962.000000	99.457630 
1961.000000	99.449686 
1960.000000	99.444315 
1959.000000	99.440540 
1958.000000	99.435270 
1957.000000	99.426330 
1956.000000	99.417515 
1955.000000	99.415350 
1954.000000	99.419039 
1953.000000	99.418838 
1952.000000	99.407798 
1951.000000	99.391204 
1950.000000	99.380562 
1949.000000	99.381256 
1948.000000	99.390120 
1947.000000	99.402306 
1946.000000	99.414040 
1945.000000	99.419868 
1944.000000	99.414668 
1943.000000	99.400815 
1942.000000	99.388151 
1941.000000	99.382987 
1940.000000	99.382063 
1939.000000	99.379536 
1938.000000	99.374540 
1937.000000	99.370952 
1936.000000	99.372958 
1935.000000	99.381170 
1934.000000	99.390860 
1933.000000	99.394396 
1932.000000	99.388468 
1931.000000	99.379451 
1930.000000	99.378390 
1929.000000	99.388812 
1928.000000	99.402410 
1927.000000	99.408634 
1926.000000	99.404748 
1925.000000	99.394603 
1924.000000	99.382825 
1923.000000	99.373633 
1922.000000	99.371606 
1921.000000	99.377995 
1920.000000	99.388127 
1919.000000	99.395702 
1918.000000	99.398474 
1917.000000	99.398051 
1916.000000	99.396197 
1915.000000	99.395016 
1914.000000	99.397755 
1913.000000	99.405502 
1912.000000	99.414282 
1911.000000	99.418434 
1910.000000	99.416411 
1909.000000	99.410865 
1908.000000	99.404936 
1907.000000	99.401536 
1906.000000	99.403697 
1905.000000	99.410754 
1904.000000	99.415597 
1903.000000	99.410397 
1902.000000	99.395211 
1901.000000	99.378031 
1900.000000	99.367567 
1899.000000	99.367427 
1898.000000	99.374999 
1897.000000	99.383280 
1896.000000	99.385694 
1895.000000	99.382500 
1894.000000	99.381088 
1893.000000	99.386863 
1892.000000	99.396765 
1891.000000	99.404251 
1890.000000	99.407121 
1889.000000	99.407738 
1888.000000	99.407770 
1887.000000	99.407608 
1886.000000	99.408512 
1885.000000	99.411012 
1884.000000	99.412747 
1883.000000	99.411057 
1882.000000	99.406784 
1881.000000	99.402862 
1880.000000	99.401063 
1879.000000	99.401511 
1878.000000	99.402893 
1877.000000	99.401991 
1876.000000	99.396353 
1875.000000	99.389404 
1874.000000	99.389235 
1873.000000	99.398874 
1872.000000	99.410735 
1871.000000	99.414368 
1870.000000	99.407590 
1869.000000	99.396994 
1868.000000	99.387245 
1867.000000	99.377416 
1866.000000	99.368116 
1865.000000	99.362032 
1864.000000	99.360411 
1863.000000	99.364347 
1862.000000	99.376336 
1861.000000	99.395455 
1860.000000	99.413045 
1859.000000	99.419931 
1858.000000	99.417211 
1857.000000	99.413771 
1856.000000	99.414566 
1855.000000	99.417481 
1854.000000	99.419622 
1853.000000	99.420254 
1852.000000	99.418360 
1851.000000	99.412452 
1850.000000	99.404107 
1849.000000	99.397907 
1848.000000	99.396367 
1847.000000	99.397529 
1846.000000	99.398417 
1845.000000	99.397294 
1844.000000	99.392692 
1843.000000	99.385092 
1842.000000	99.379559 
1841.000000	99.380853 
1840.000000	99.388647 
1839.000000	99.398491 
1838.000000	99.406220 
1837.000000	99.410938 
1836.000000	99.413657 
1835.000000	99.415169 
1834.000000	99.415836 
1833.000000	99.416061 
1832.000000	99.416361 
1831.000000	99.416128 
1830.000000	99.413991 
1829.000000	99.410184 
1828.000000	99.407285 
1827.000000	99.406954 
1826.000000	99.408645 
1825.000000	99.411771 
1824.000000	99.415293 
1823.000000	99.416750 
1822.000000	99.414230 
1821.000000	99.407913 
1820.000000	99.399820 
1819.000000	99.392404 
1818.000000	99.388091 
1817.000000	99.388331 
1816.000000	99.391003 
1815.000000	99.392035 
1814.000000	99.391035 
1813.000000	99.392931 
1812.000000	99.402595 
1811.000000	99.417858 
1810.000000	99.432058 
1809.000000	99.441611 
1808.000000	99.445618 
1807.000000	99.443071 
1806.000000	99.435208 
1805.000000	99.426722 
1804.000000	99.421165 
1803.000000	99.417188 
1802.000000	99.411876 
1801.000000	99.406471 
1800.000000	99.403651 
1799.000000	99.402739 
1798.000000	99.402801 
1797.000000	99.404891 
1796.000000	99.409244 
1795.000000	99.414145 
1794.000000	99.417543 
1793.000000	99.418600 
1792.000000	99.417806 
1791.000000	99.415459 
1790.000000	99.413133 
1789.000000	99.413843 
1788.000000	99.418893 
1787.000000	99.426608 
1786.000000	99.433830 
1785.000000	99.437665 
1784.000000	99.436311 
1783.000000	99.431087 
1782.000000	99.425681 
1781.000000	99.422441 
1780.000000	99.419747 
1779.000000	99.415067 
1778.000000	99.410313 
1777.000000	99.409627 
1776.000000	99.414037 
1775.000000	99.421616 
1774.000000	99.430286 
1773.000000	99.438168 
1772.000000	99.442588 
1771.000000	99.441557 
1770.000000	99.436611 
1769.000000	99.430441 
1768.000000	99.425408 
1767.000000	99.422562 
1766.000000	99.421966 
1765.000000	99.424023 
1764.000000	99.428289 
1763.000000	99.432664 
1762.000000	99.434400 
1761.000000	99.432944 
1760.000000	99.430341 
1759.000000	99.427886 
1758.000000	99.425013 
1757.000000	99.421217 
1756.000000	99.417320 
1755.000000	99.414040 
1754.000000	99.409947 
1753.000000	99.402623 
1752.000000	99.393318 
1751.000000	99.388856 
1750.000000	99.393415 
1749.000000	99.402506 
1748.000000	99.409807 
1747.000000	99.412457 
1746.000000	99.410230 
1745.000000	99.404818 
1744.000000	99.400073 
1743.000000	99.399153 
1742.000000	99.401079 
1741.000000	99.403071 
1740.000000	99.404120 
1739.000000	99.404819 
1738.000000	99.405362 
1737.000000	99.404825 
1736.000000	99.400843 
1735.000000	99.391556 
1734.000000	99.380928 
1733.000000	99.376153 
1732.000000	99.381078 
1731.000000	99.394142 
1730.000000	99.409974 
1729.000000	99.421718 
1728.000000	99.426225 
1727.000000	99.426009 
1726.000000	99.424596 
1725.000000	99.423016 
1724.000000	99.420990 
1723.000000	99.419692 
1722.000000	99.421447 
1721.000000	99.427076 
1720.000000	99.434082 
1719.000000	99.437667 
1718.000000	99.434535 
1717.000000	99.428298 
1716.000000	99.423128 
1715.000000	99.418636 
1714.000000	99.416421 
1713.000000	99.418869 
1712.000000	99.423626 
1711.000000	99.426583 
1710.000000	99.426627 
1709.000000	99.425952 
1708.000000	99.426667 
1707.000000	99.428525 
1706.000000	99.432099 
1705.000000	99.438585 
1704.000000	99.444293 
1703.000000	99.441979 
1702.000000	99.429470 
1701.000000	99.417076 
1700.000000	99.419315 
1699.000000	99.428015 
1698.000000	99.433521 
1697.000000	99.438608 
1696.000000	99.446199 
1695.000000	99.451124 
1694.000000	99.450791 
1693.000000	99.448668 
1692.000000	99.445282 
1691.000000	99.440543 
1690.000000	99.436787 
1689.000000	99.436147 
1688.000000	99.436649 
1687.000000	99.433405 
1686.000000	99.425098 
1685.000000	99.418216 
1684.000000	99.420771 
1683.000000	99.427191 
1682.000000	99.432153 
1681.000000	99.434496 
1680.000000	99.435724 
1679.000000	99.437425 
1678.000000	99.439691 
1677.000000	99.441343 
1676.000000	99.441857 
1675.000000	99.442461 
1674.000000	99.442947 
1673.000000	99.443239 
1672.000000	99.444178 
1671.000000	99.447343 
1670.000000	99.453403 
1669.000000	99.458575 
1668.000000	99.459589 
1667.000000	99.458390 
1666.000000	99.455994 
1665.000000	99.451989 
1664.000000	99.447957 
1663.000000	99.447754 
1662.000000	99.452386 
1661.000000	99.457858 
1660.000000	99.460327 
1659.000000	99.460270 
1658.000000	99.460250 
1657.000000	99.460801 
1656.000000	99.458615 
1655.000000	99.452748 
1654.000000	99.450631 
1653.000000	99.455867 
1652.000000	99.453634 
1651.000000	99.451107 
1650.000000	99.450359 
1649.000000	99.447032 
1648.000000	99.439117 
1647.000000	99.429946 
1646.000000	99.423613 
1645.000000	99.423176 
1644.000000	99.428292 
1643.000000	99.435321 
1642.000000	99.441392 
1641.000000	99.445982 
1640.000000	99.449059 
1639.000000	99.449890 
1638.000000	99.448065 
1637.000000	99.444756 
1636.000000	99.441868 
1635.000000	99.440170 
1634.000000	99.441421 
1633.000000	99.445521 
1632.000000	99.448779 
1631.000000	99.449475 
1630.000000	99.448847 
1629.000000	99.448346 
1628.000000	99.447710 
1627.000000	99.446974 
1626.000000	99.447384 
1625.000000	99.449808 
1624.000000	99.453836 
1623.000000	99.458643 
1622.000000	99.463322 
1621.000000	99.466767 
1620.000000	99.467718 
1619.000000	99.465965 
1618.000000	99.463478 
1617.000000	99.461694 
1616.000000	99.458568 
1615.000000	99.454317 
1614.000000	99.450841 
1613.000000	99.447111 
1612.000000	99.442465 
1611.000000	99.438327 
1610.000000	99.436288 
1609.000000	99.435642 
1608.000000	99.435016 
1607.000000	99.435017 
1606.000000	99.436173 
1605.000000	99.437118 
1604.000000	99.436645 
1603.000000	99.435596 
1602.000000	99.435061 
1601.000000	99.434407 
1600.000000	99.433282 
1599.000000	99.433381 
1598.000000	99.435877 
1597.000000	99.439457 
1596.000000	99.442483 
1595.000000	99.445332 
1594.000000	99.448678 
1593.000000	99.450631 
1592.000000	99.449051 
1591.000000	99.445720 
1590.000000	99.444904 
1589.000000	99.447771 
1588.000000	99.451731 
1587.000000	99.454811 
1586.000000	99.456616 
1585.000000	99.455803 
1584.000000	99.451115 
1583.000000	99.444093 
1582.000000	99.438519 
1581.000000	99.436206 
1580.000000	99.436036 
1579.000000	99.436585 
1578.000000	99.437614 
1577.000000	99.438301 
1576.000000	99.436634 
1575.000000	99.434699 
1574.000000	99.436575 
1573.000000	99.438908 
1572.000000	99.436809 
1571.000000	99.431575 
1570.000000	99.429988 
1569.000000	99.433670 
1568.000000	99.437443 
1567.000000	99.438495 
1566.000000	99.437067 
1565.000000	99.435084 
1564.000000	99.435404 
1563.000000	99.439236 
1562.000000	99.443848 
1561.000000	99.442324 
1560.000000	99.430050 
1559.000000	99.418436 
1558.000000	99.415138 
1557.000000	99.418327 
1556.000000	99.425477 
1555.000000	99.431972 
1554.000000	99.433965 
1553.000000	99.431034 
1552.000000	99.427320 
1551.000000	99.427277 
1550.000000	99.432500 
1549.000000	99.439404 
1548.000000	99.442841 
1547.000000	99.440905 
1546.000000	99.434497 
1545.000000	99.427244 
1544.000000	99.423040 
1543.000000	99.421674 
1542.000000	99.421715 
1541.000000	99.424639 
1540.000000	99.427165 
1539.000000	99.422987 
1538.000000	99.418717 
1537.000000	99.419277 
1536.000000	99.420909 
1535.000000	99.420937 
1534.000000	99.422073 
1533.000000	99.426726 
1532.000000	99.430683 
1531.000000	99.429845 
1530.000000	99.426049 
1529.000000	99.423103 
1528.000000	99.421615 
1527.000000	99.420435 
1526.000000	99.419914 
1525.000000	99.421775 
1524.000000	99.425330 
1523.000000	99.428055 
1522.000000	99.430293 
1521.000000	99.433523 
1520.000000	99.433864 
1519.000000	99.428954 
1518.000000	99.421440 
1517.000000	99.416185 
1516.000000	99.414294 
1515.000000	99.412664 
1514.000000	99.410021 
1513.000000	99.407654 
1512.000000	99.406905 
1511.000000	99.407078 
1510.000000	99.405874 
1509.000000	99.402901 
1508.000000	99.403848 
1507.000000	99.414437 
1506.000000	99.421715 
1505.000000	99.418158 
1504.000000	99.413225 
1503.000000	99.409948 
1502.000000	99.408271 
1501.000000	99.409096 
1500.000000	99.412941 
1499.000000	99.417756 
1498.000000	99.420604 
1497.000000	99.423595 
1496.000000	99.429545 
1495.000000	99.433059 
1494.000000	99.428034 
1493.000000	99.415379 
1492.000000	99.400029 
1491.000000	99.387720 
1490.000000	99.382076 
1489.000000	99.382111 
1488.000000	99.382477 
1487.000000	99.379518 
1486.000000	99.376530 
1485.000000	99.376707 
1484.000000	99.378493 
1483.000000	99.378656 
1482.000000	99.374849 
1481.000000	99.367521 
1480.000000	99.358980 
1479.000000	99.351276 
1478.000000	99.345754 
1477.000000	99.343268 
1476.000000	99.342727 
1475.000000	99.340105 
1474.000000	99.335091 
1473.000000	99.334240 
1472.000000	99.340144 
1471.000000	99.344050 
1470.000000	99.341181 
1469.000000	99.335697 
1468.000000	99.332608 
1467.000000	99.332676 
1466.000000	99.334081 
1465.000000	99.335678 
1464.000000	99.336412 
1463.000000	99.335326 
1462.000000	99.333258 
1461.000000	99.332465 
1460.000000	99.333514 
1459.000000	99.333725 
1458.000000	99.327501 
1457.000000	99.313375 
1456.000000	99.298097 
1455.000000	99.288169 
1454.000000	99.283574 
1453.000000	99.282261 
1452.000000	99.282715 
1451.000000	99.284043 
1450.000000	99.286996 
1449.000000	99.294070 
1448.000000	99.305112 
1447.000000	99.314519 
1446.000000	99.318191 
1445.000000	99.318969 
1444.000000	99.320694 
1443.000000	99.322560 
1442.000000	99.321965 
1441.000000	99.319556 
1440.000000	99.319048 
1439.000000	99.322302 
1438.000000	99.326151 
1437.000000	99.326506 
1436.000000	99.322860 
1435.000000	99.316354 
1434.000000	99.309295 
1433.000000	99.305237 
1432.000000	99.306034 
1431.000000	99.310764 
1430.000000	99.315495 
1429.000000	99.316996 
1428.000000	99.315680 
1427.000000	99.312916 
1426.000000	99.308247 
1425.000000	99.300334 
1424.000000	99.291154 
1423.000000	99.283819 
1422.000000	99.276385 
1421.000000	99.264562 
1420.000000	99.248265 
1419.000000	99.232966 
1418.000000	99.219177 
1417.000000	99.203651 
1416.000000	99.188020 
1415.000000	99.173725 
1414.000000	99.158120 
1413.000000	99.138264 
1412.000000	99.116441 
1411.000000	99.097849 
1410.000000	99.083181 
1409.000000	99.070485 
1408.000000	99.061108 
1407.000000	99.057474 
1406.000000	99.058725 
1405.000000	99.063126 
1404.000000	99.072510 
1403.000000	99.087066 
1402.000000	99.100945 
1401.000000	99.109737 
1400.000000	99.116369 
1399.000000	99.125337 
1398.000000	99.129265 
1397.000000	99.113081 
1396.000000	99.073634 
1395.000000	99.030544 
1394.000000	99.012331 
1393.000000	99.028353 
1392.000000	99.066759 
1391.000000	99.109677 
1390.000000	99.143047 
1389.000000	99.159995 
1388.000000	99.161159 
1387.000000	99.152324 
1386.000000	99.139323 
1385.000000	99.126409 
1384.000000	99.117148 
1383.000000	99.113320 
1382.000000	99.113791 
1381.000000	99.116966 
1380.000000	99.122620 
1379.000000	99.130964 
1378.000000	99.140755 
1377.000000	99.149916 
1376.000000	99.158579 
1375.000000	99.169729 
1374.000000	99.184952 
1373.000000	99.200598 
1372.000000	99.212572 
1371.000000	99.222234 
1370.000000	99.234351 
1369.000000	99.250060 
1368.000000	99.266587 
1367.000000	99.281048 
1366.000000	99.292326 
1365.000000	99.300430 
1364.000000	99.305568 
1363.000000	99.309152 
1362.000000	99.313610 
1361.000000	99.319429 
1360.000000	99.325261 
1359.000000	99.331041 
1358.000000	99.338283 
1357.000000	99.347074 
1356.000000	99.355094 
1355.000000	99.360331 
1354.000000	99.363635 
1353.000000	99.367164 
1352.000000	99.370435 
1351.000000	99.370808 
1350.000000	99.368610 
1349.000000	99.365914 
1348.000000	99.364458 
1347.000000	99.365348 
1346.000000	99.369643 
1345.000000	99.376480 
1344.000000	99.382446 
1343.000000	99.384798 
1342.000000	99.384620 
1341.000000	99.384735 
1340.000000	99.385676 
1339.000000	99.385755 
1338.000000	99.384367 
1337.000000	99.383195 
1336.000000	99.383769 
1335.000000	99.385660 
1334.000000	99.388043 
1333.000000	99.391099 
1332.000000	99.394620 
1331.000000	99.396968 
1330.000000	99.396639 
1329.000000	99.393774 
1328.000000	99.390018 
1327.000000	99.387297 
1326.000000	99.386744 
1325.000000	99.387252 
1324.000000	99.387412 
1323.000000	99.387398 
1322.000000	99.388066 
1321.000000	99.388986 
1320.000000	99.389032 
1319.000000	99.388454 
1318.000000	99.388662 
1317.000000	99.389973 
1316.000000	99.390782 
1315.000000	99.389622 
1314.000000	99.387130 
1313.000000	99.385503 
1312.000000	99.386057 
1311.000000	99.388012 
1310.000000	99.389873 
1309.000000	99.391070 
1308.000000	99.391683 
1307.000000	99.391023 
1306.000000	99.388204 
1305.000000	99.383686 
1304.000000	99.380518 
1303.000000	99.381916 
1302.000000	99.387843 
1301.000000	99.394576 
1300.000000	99.397943 
1299.000000	99.396340 
1298.000000	99.391050 
1297.000000	99.384901 
1296.000000	99.380729 
1295.000000	99.380445 
1294.000000	99.384142 
1293.000000	99.389920 
1292.000000	99.394706 
1291.000000	99.395649 
1290.000000	99.391908 
1289.000000	99.385678 
1288.000000	99.380540 
1287.000000	99.377861 
1286.000000	99.375381 
1285.000000	99.370529 
1284.000000	99.364327 
1283.000000	99.360128 
1282.000000	99.359029 
1281.000000	99.358656 
1280.000000	99.356562 
1279.000000	99.352791 
1278.000000	99.348130 
1277.000000	99.342075 
1276.000000	99.333866 
1275.000000	99.324646 
1274.000000	99.316772 
1273.000000	99.311392 
1272.000000	99.307578 
1271.000000	99.303261 
1270.000000	99.296375 
1269.000000	99.286194 
1268.000000	99.274518 
1267.000000	99.264409 
1266.000000	99.256490 
1265.000000	99.248091 
1264.000000	99.237090 
1263.000000	99.224719 
1262.000000	99.213127 
1261.000000	99.202140 
1260.000000	99.190743 
1259.000000	99.180372 
1258.000000	99.173432 
1257.000000	99.169581 
1256.000000	99.166146 
1255.000000	99.161933 
1254.000000	99.158065 
1253.000000	99.155162 
1252.000000	99.152252 
1251.000000	99.149364 
1250.000000	99.148875 
1249.000000	99.153216 
1248.000000	99.162741 
1247.000000	99.175941 
1246.000000	99.189050 
1245.000000	99.195133 
1244.000000	99.187545 
1243.000000	99.168041 
1242.000000	99.149857 
1241.000000	99.148116 
1240.000000	99.165732 
1239.000000	99.190561 
1238.000000	99.207106 
1237.000000	99.209441 
1236.000000	99.202149 
1235.000000	99.192017 
1234.000000	99.182103 
1233.000000	99.172697 
1232.000000	99.164189 
1231.000000	99.157147 
1230.000000	99.151220 
1229.000000	99.145828 
1228.000000	99.141625 
1227.000000	99.140480 
1226.000000	99.144133 
1225.000000	99.152812 
1224.000000	99.164358 
1223.000000	99.174683 
1222.000000	99.180610 
1221.000000	99.183064 
1220.000000	99.186451 
1219.000000	99.194116 
1218.000000	99.205015 
1217.000000	99.215327 
1216.000000	99.222147 
1215.000000	99.224890 
1214.000000	99.224743 
1213.000000	99.224244 
1212.000000	99.226158 
1211.000000	99.230715 
1210.000000	99.234693 
1209.000000	99.234989 
1208.000000	99.232410 
1207.000000	99.230301 
1206.000000	99.230305 
1205.000000	99.231467 
1204.000000	99.232728 
1203.000000	99.233705 
1202.000000	99.232970 
1201.000000	99.228263 
1200.000000	99.219484 
1199.000000	99.209714 
1198.000000	99.202173 
1197.000000	99.197589 
1196.000000	99.195181 
1195.000000	99.194217 
1194.000000	99.193441 
1193.000000	99.190619 
1192.000000	99.184528 
1191.000000	99.176785 
1190.000000	99.170452 
1189.000000	99.167319 
1188.000000	99.167309 
1187.000000	99.169362 
1186.000000	99.171542 
1185.000000	99.171041 
1184.000000	99.165662 
1183.000000	99.155584 
1182.000000	99.143308 
1181.000000	99.132031 
1180.000000	99.124200 
1179.000000	99.120542 
1178.000000	99.119280 
1177.000000	99.116831 
1176.000000	99.110571 
1175.000000	99.101070 
1174.000000	99.091199 
1173.000000	99.083280 
1172.000000	99.077837 
1171.000000	99.074418 
1170.000000	99.072208 
1169.000000	99.069867 
1168.000000	99.065955 
1167.000000	99.059967 
1166.000000	99.052639 
1165.000000	99.045436 
1164.000000	99.040244 
1163.000000	99.038920 
1162.000000	99.041879 
1161.000000	99.047066 
1160.000000	99.051341 
1159.000000	99.053257 
1158.000000	99.053716 
1157.000000	99.053709 
1156.000000	99.052487 
1155.000000	99.048690 
1154.000000	99.042458 
1153.000000	99.035322 
1152.000000	99.028240 
1151.000000	99.020787 
1150.000000	99.012491 
1149.000000	99.004089 
1148.000000	98.996690 
1147.000000	98.989870 
1146.000000	98.981469 
1145.000000	98.969857 
1144.000000	98.956234 
1143.000000	98.944154 
1142.000000	98.936479 
1141.000000	98.932910 
1140.000000	98.930515 
1139.000000	98.926229 
1138.000000	98.918800 
1137.000000	98.908991 
1136.000000	98.898670 
1135.000000	98.889714 
1134.000000	98.883162 
1133.000000	98.878728 
1132.000000	98.874807 
1131.000000	98.869147 
1130.000000	98.860164 
1129.000000	98.848083 
1128.000000	98.834628 
1127.000000	98.821391 
1126.000000	98.808767 
1125.000000	98.796628 
1124.000000	98.785231 
1123.000000	98.774611 
1122.000000	98.763596 
1121.000000	98.750757 
1120.000000	98.736359 
1119.000000	98.722050 
1118.000000	98.708239 
1117.000000	98.693086 
1116.000000	98.674897 
1115.000000	98.654473 
1114.000000	98.633893 
1113.000000	98.613532 
1112.000000	98.591808 
1111.000000	98.568155 
1110.000000	98.544999 
1109.000000	98.525604 
1108.000000	98.510360 
1107.000000	98.495734 
1106.000000	98.477743 
1105.000000	98.456011 
1104.000000	98.433352 
1103.000000	98.411899 
1102.000000	98.391648 
1101.000000	98.373047 
1100.000000	98.359388 
1099.000000	98.352523 
1098.000000	98.350238 
1097.000000	98.348347 
1096.000000	98.344725 
1095.000000	98.338377 
1094.000000	98.325943 
1093.000000	98.303024 
1092.000000	98.269242 
1091.000000	98.228761 
1090.000000	98.185020 
1089.000000	98.137963 
1088.000000	98.087740 
1087.000000	98.038092 
1086.000000	97.993679 
1085.000000	97.955617 
1084.000000	97.921255 
1083.000000	97.886878 
1082.000000	97.849754 
1081.000000	97.809637 
1080.000000	97.769651 
1079.000000	97.734138 
1078.000000	97.704832 
1077.000000	97.681006 
1076.000000	97.663630 
1075.000000	97.656225 
1074.000000	97.660335 
1073.000000	97.672422 
1072.000000	97.685080 
1071.000000	97.687622 
1070.000000	97.666575 
1069.000000	97.613993 
1068.000000	97.540873 
1067.000000	97.477801 
1066.000000	97.454017 
1065.000000	97.474023 
1064.000000	97.516873 
1063.000000	97.555138 
1062.000000	97.570536 
1061.000000	97.556214 
1060.000000	97.515220 
1059.000000	97.461826 
1058.000000	97.417694 
1057.000000	97.397965 
1056.000000	97.399460 
1055.000000	97.404761 
1054.000000	97.398452 
1053.000000	97.379077 
1052.000000	97.356491 
1051.000000	97.340141 
1050.000000	97.331484 
1049.000000	97.326856 
1048.000000	97.324472 
1047.000000	97.326037 
1046.000000	97.332519 
1045.000000	97.341390 
1044.000000	97.349430 
1043.000000	97.356907 
1042.000000	97.366899 
1041.000000	97.380073 
1040.000000	97.392393 
1039.000000	97.400599 
1038.000000	97.409230 
1037.000000	97.428548 
1036.000000	97.463861 
1035.000000	97.509522 
1034.000000	97.555412 
1033.000000	97.595783 
1032.000000	97.627324 
1031.000000	97.642396 
1030.000000	97.633965 
1029.000000	97.610076 
1028.000000	97.595707 
1027.000000	97.612983 
1026.000000	97.660629 
1025.000000	97.716893 
1024.000000	97.760500 
1023.000000	97.784522 
1022.000000	97.793393 
1021.000000	97.794468 
1020.000000	97.794426 
1019.000000	97.798191 
1018.000000	97.806601 
1017.000000	97.816309 
1016.000000	97.824350 
1015.000000	97.832078 
1014.000000	97.843286 
1013.000000	97.859183 
1012.000000	97.876560 
1011.000000	97.890874 
1010.000000	97.900810 
1009.000000	97.909877 
1008.000000	97.923297 
1007.000000	97.943063 
1006.000000	97.966431 
1005.000000	97.989397 
1004.000000	98.010329 
1003.000000	98.029435 
1002.000000	98.046576 
1001.000000	98.061679 
1000.000000	98.076180 
999.000000	 98.091478 
998.000000	 98.106235 
997.000000	 98.117734 
996.000000	 98.126450 
995.000000	 98.137186 
994.000000	 98.154482 
993.000000	 98.177655 
992.000000	 98.200880 
991.000000	 98.217609 
990.000000	 98.225348 
989.000000	 98.227356 
988.000000	 98.229820 
987.000000	 98.236576 
986.000000	 98.246739 
985.000000	 98.258056 
984.000000	 98.271253 
983.000000	 98.289022 
982.000000	 98.311320 
981.000000	 98.334289 
980.000000	 98.354190 
979.000000	 98.370306 
978.000000	 98.383675 
977.000000	 98.395498 
976.000000	 98.407957 
975.000000	 98.424255 
974.000000	 98.445631 
973.000000	 98.469247 
972.000000	 98.490727 
971.000000	 98.508211 
970.000000	 98.522955 
969.000000	 98.537021 
968.000000	 98.551956 
967.000000	 98.568831 
966.000000	 98.587239 
965.000000	 98.604111 
964.000000	 98.615627 
963.000000	 98.621444 
962.000000	 98.625961 
961.000000	 98.634276 
960.000000	 98.647415 
959.000000	 98.662047 
958.000000	 98.674053 
957.000000	 98.681706 
956.000000	 98.686323 
955.000000	 98.691235 
954.000000	 98.699681 
953.000000	 98.712019 
952.000000	 98.724677 
951.000000	 98.733057 
950.000000	 98.736121 
949.000000	 98.737274 
948.000000	 98.740439 
947.000000	 98.746515 
946.000000	 98.754332 
945.000000	 98.763502 
944.000000	 98.774509 
943.000000	 98.786448 
942.000000	 98.796556 
941.000000	 98.802564 
940.000000	 98.804614 
939.000000	 98.804671 
938.000000	 98.804820 
937.000000	 98.806066 
936.000000	 98.807785 
935.000000	 98.808074 
934.000000	 98.805481 
933.000000	 98.800818 
932.000000	 98.796805 
931.000000	 98.795813 
930.000000	 98.798365 
929.000000	 98.803653 
928.000000	 98.810468 
927.000000	 98.817423 
926.000000	 98.823350 
925.000000	 98.828022 
924.000000	 98.831674 
923.000000	 98.833303 
922.000000	 98.830401 
921.000000	 98.821351 
920.000000	 98.807959 
919.000000	 98.795051 
918.000000	 98.787324 
917.000000	 98.786143 
916.000000	 98.788669 
915.000000	 98.790016 
914.000000	 98.787237 
913.000000	 98.781927 
912.000000	 98.778459 
911.000000	 98.779252 
910.000000	 98.782178 
909.000000	 98.782849 
908.000000	 98.778806 
907.000000	 98.771131 
906.000000	 98.762839 
905.000000	 98.756475 
904.000000	 98.752934 
903.000000	 98.751975 
902.000000	 98.753601 
901.000000	 98.758646 
900.000000	 98.767549 
899.000000	 98.778899 
898.000000	 98.790148 
897.000000	 98.799402 
896.000000	 98.805483 
895.000000	 98.807277 
894.000000	 98.805728 
893.000000	 98.806384 
892.000000	 98.816518 
891.000000	 98.837786 
890.000000	 98.863820 
889.000000	 98.886912 
888.000000	 98.904817 
887.000000	 98.918798 
886.000000	 98.927964 
885.000000	 98.929962 
884.000000	 98.926470 
883.000000	 98.923405 
882.000000	 98.924256 
881.000000	 98.926607 
880.000000	 98.927554 
879.000000	 98.930050 
878.000000	 98.940434 
877.000000	 98.959790 
876.000000	 98.980217 
875.000000	 98.990853 
874.000000	 98.987551 
873.000000	 98.976672 
872.000000	 98.969476 
871.000000	 98.972351 
870.000000	 98.981739 
869.000000	 98.988519 
868.000000	 98.987476 
867.000000	 98.982201 
866.000000	 98.980858 
865.000000	 98.988131 
864.000000	 99.002263 
863.000000	 99.019050 
862.000000	 99.036412 
861.000000	 99.053982 
860.000000	 99.070215 
859.000000	 99.082996 
858.000000	 99.093538 
857.000000	 99.106657 
856.000000	 99.124755 
855.000000	 99.142820 
854.000000	 99.152139 
853.000000	 99.149209 
852.000000	 99.139217 
851.000000	 99.130782 
850.000000	 99.129062 
849.000000	 99.134106 
848.000000	 99.143400 
847.000000	 99.154005 
846.000000	 99.163303 
845.000000	 99.170063 
844.000000	 99.175466 
843.000000	 99.181966 
842.000000	 99.189985 
841.000000	 99.195949 
840.000000	 99.195146 
839.000000	 99.187611 
838.000000	 99.179897 
837.000000	 99.178494 
836.000000	 99.181816 
835.000000	 99.182227 
834.000000	 99.177076 
833.000000	 99.173216 
832.000000	 99.176536 
831.000000	 99.180779 
830.000000	 99.174144 
829.000000	 99.157051 
828.000000	 99.144958 
827.000000	 99.149259 
826.000000	 99.161971 
825.000000	 99.166763 
824.000000	 99.160832 
823.000000	 99.156395 
822.000000	 99.162083 
821.000000	 99.172728 
820.000000	 99.178643 
819.000000	 99.176907 
818.000000	 99.171405 
817.000000	 99.167158 
816.000000	 99.166702 
815.000000	 99.168148 
814.000000	 99.164469 
813.000000	 99.148033 
812.000000	 99.119114 
811.000000	 99.088324 
810.000000	 99.067432 
809.000000	 99.058083 
808.000000	 99.051579 
807.000000	 99.038543 
806.000000	 99.016179 
805.000000	 98.986598 
804.000000	 98.952231 
803.000000	 98.915735 
802.000000	 98.882285 
801.000000	 98.858122 
800.000000	 98.845367 
799.000000	 98.839733 
798.000000	 98.835087 
797.000000	 98.830290 
796.000000	 98.829994 
795.000000	 98.838476 
794.000000	 98.854731 
793.000000	 98.874493 
792.000000	 98.894153 
791.000000	 98.909934 
790.000000	 98.915757 
789.000000	 98.907154 
788.000000	 98.887971 
787.000000	 98.868981 
786.000000	 98.857592 
785.000000	 98.851408 
784.000000	 98.844284 
783.000000	 98.835969 
782.000000	 98.832225 
781.000000	 98.836543 
780.000000	 98.844914 
779.000000	 98.848990 
778.000000	 98.843256 
777.000000	 98.830420 
776.000000	 98.821251 
775.000000	 98.826959 
774.000000	 98.848574 
773.000000	 98.874963 
772.000000	 98.894130 
771.000000	 98.904728 
770.000000	 98.913066 
769.000000	 98.921169 
768.000000	 98.924411 
767.000000	 98.921518 
766.000000	 98.919676 
765.000000	 98.925617 
764.000000	 98.936490 
763.000000	 98.944135 
762.000000	 98.945203 
761.000000	 98.942603 
760.000000	 98.939680 
759.000000	 98.937953 
758.000000	 98.938655 
757.000000	 98.941436 
756.000000	 98.942528 
755.000000	 98.939170 
754.000000	 98.935474 
753.000000	 98.939199 
752.000000	 98.952790 
751.000000	 98.971054 
750.000000	 98.986614 
749.000000	 98.993707 
748.000000	 98.988602 
747.000000	 98.973234 
746.000000	 98.959136 
745.000000	 98.959894 
744.000000	 98.975774 
743.000000	 98.991551 
742.000000	 98.993767 
741.000000	 98.985440 
740.000000	 98.979452 
739.000000	 98.981967 
738.000000	 98.987797 
737.000000	 98.989333 
736.000000	 98.984482 
735.000000	 98.977282 
734.000000	 98.975316 
733.000000	 98.985049 
732.000000	 99.005406 
731.000000	 99.026112 
730.000000	 99.035808 
729.000000	 99.031182 
728.000000	 99.018782 
727.000000	 99.008683 
726.000000	 99.005814 
725.000000	 99.009129 
724.000000	 99.016529 
723.000000	 99.027179 
722.000000	 99.039159 
721.000000	 99.047607 
720.000000	 99.047393 
719.000000	 99.037197 
718.000000	 99.019990 
717.000000	 99.001330 
716.000000	 98.987760 
715.000000	 98.984390 
714.000000	 98.990624 
713.000000	 98.998219 
712.000000	 98.998594 
711.000000	 98.992978 
710.000000	 98.991556 
709.000000	 98.999160 
708.000000	 99.006648 
707.000000	 99.002476 
706.000000	 98.986163 
705.000000	 98.967562 
704.000000	 98.955758 
703.000000	 98.950720 
702.000000	 98.947427 
701.000000	 98.943251 
700.000000	 98.937043 
699.000000	 98.928667 
698.000000	 98.917961 
697.000000	 98.902846 
696.000000	 98.880212 
695.000000	 98.849184 
694.000000	 98.819959 
693.000000	 98.810970 
692.000000	 98.829678 
691.000000	 98.864171 
690.000000	 98.893916 
689.000000	 98.908718 
688.000000	 98.914011 
687.000000	 98.918832 
686.000000	 98.928752 
685.000000	 98.944745 
684.000000	 98.960043 
683.000000	 98.964546 
682.000000	 98.957214 
681.000000	 98.951015 
680.000000	 98.959237 
679.000000	 98.980642 
678.000000	 99.000429 
677.000000	 98.997521 
676.000000	 98.967363 
675.000000	 98.934753 
674.000000	 98.931405 
673.000000	 98.963122 
672.000000	 99.013012 
671.000000	 99.072832 
670.000000	 99.158216 
669.000000	 99.266376 
668.000000	 99.300283 
667.000000	 99.201670 
666.000000	 99.090874 
665.000000	 99.026396 
664.000000	 98.990190 
663.000000	 98.964946 
662.000000	 98.947521 
661.000000	 98.941802 
660.000000	 98.952187 
659.000000	 98.974391 
658.000000	 98.988640 
657.000000	 98.968649 
656.000000	 98.918048 
655.000000	 98.876525 
654.000000	 98.868578 
653.000000	 98.870792 
652.000000	 98.850408 
651.000000	 98.809110 
650.000000	 98.776015 

