4000.000000	99.465637 
3999.000000	99.466424 
3998.000000	99.467355 
3997.000000	99.466823 
3996.000000	99.463224 
3995.000000	99.456700 
3994.000000	99.449806 
3993.000000	99.446003 
3992.000000	99.447005 
3991.000000	99.451430 
3990.000000	99.456205 
3989.000000	99.459394 
3988.000000	99.461560 
3987.000000	99.464364 
3986.000000	99.468201 
3985.000000	99.471557 
3984.000000	99.472469 
3983.000000	99.470197 
3982.000000	99.465540 
3981.000000	99.460017 
3980.000000	99.454790 
3979.000000	99.450273 
3978.000000	99.446640 
3977.000000	99.444468 
3976.000000	99.444735 
3975.000000	99.448135 
3974.000000	99.454431 
3973.000000	99.462343 
3972.000000	99.469840 
3971.000000	99.474853 
3970.000000	99.476091 
3969.000000	99.473622 
3968.000000	99.468954 
3967.000000	99.464248 
3966.000000	99.461226 
3965.000000	99.460549 
3964.000000	99.461664 
3963.000000	99.462982 
3962.000000	99.462702 
3961.000000	99.460108 
3960.000000	99.456198 
3959.000000	99.453047 
3958.000000	99.452147 
3957.000000	99.453141 
3956.000000	99.454455 
3955.000000	99.454800 
3954.000000	99.454032 
3953.000000	99.452756 
3952.000000	99.451547 
3951.000000	99.450869 
3950.000000	99.450837 
3949.000000	99.450946 
3948.000000	99.450330 
3947.000000	99.448588 
3946.000000	99.446593 
3945.000000	99.446068 
3944.000000	99.447937 
3943.000000	99.450670 
3942.000000	99.451413 
3941.000000	99.449015 
3940.000000	99.444833 
3939.000000	99.440737 
3938.000000	99.437366 
3937.000000	99.434369 
3936.000000	99.432109 
3935.000000	99.432130 
3934.000000	99.435989 
3933.000000	99.443449 
3932.000000	99.451772 
3931.000000	99.456995 
3930.000000	99.456433 
3929.000000	99.450830 
3928.000000	99.444036 
3927.000000	99.440187 
3926.000000	99.441099 
3925.000000	99.445134 
3924.000000	99.448545 
3923.000000	99.448942 
3922.000000	99.446831 
3921.000000	99.444582 
3920.000000	99.444470 
3919.000000	99.447456 
3918.000000	99.453002 
3917.000000	99.459197 
3916.000000	99.463719 
3915.000000	99.465483 
3914.000000	99.465503 
3913.000000	99.465640 
3912.000000	99.466560 
3911.000000	99.467682 
3910.000000	99.468648 
3909.000000	99.469901 
3908.000000	99.471785 
3907.000000	99.472986 
3906.000000	99.470639 
3905.000000	99.462302 
3904.000000	99.448215 
3903.000000	99.432593 
3902.000000	99.421558 
3901.000000	99.419012 
3900.000000	99.424799 
3899.000000	99.435162 
3898.000000	99.445360 
3897.000000	99.452284 
3896.000000	99.454771 
3895.000000	99.453148 
3894.000000	99.449102 
3893.000000	99.444786 
3892.000000	99.441379 
3891.000000	99.438332 
3890.000000	99.434807 
3889.000000	99.430808 
3888.000000	99.427530 
3887.000000	99.426963 
3886.000000	99.429306 
3885.000000	99.431681 
3884.000000	99.431490 
3883.000000	99.429891 
3882.000000	99.430455 
3881.000000	99.434561 
3880.000000	99.439450 
3879.000000	99.441517 
3878.000000	99.440655 
3877.000000	99.439952 
3876.000000	99.442624 
3875.000000	99.448088 
3874.000000	99.451335 
3873.000000	99.448223 
3872.000000	99.441120 
3871.000000	99.436886 
3870.000000	99.438892 
3869.000000	99.443652 
3868.000000	99.446060 
3867.000000	99.444952 
3866.000000	99.443333 
3865.000000	99.443705 
3864.000000	99.444009 
3863.000000	99.441303 
3862.000000	99.436630 
3861.000000	99.433941 
3860.000000	99.435866 
3859.000000	99.441431 
3858.000000	99.446822 
3857.000000	99.448561 
3856.000000	99.446232 
3855.000000	99.444251 
3854.000000	99.445918 
3853.000000	99.448389 
3852.000000	99.449803 
3851.000000	99.451651 
3850.000000	99.453842 
3849.000000	99.455603 
3848.000000	99.455998 
3847.000000	99.454445 
3846.000000	99.451398 
3845.000000	99.448147 
3844.000000	99.446285 
3843.000000	99.447204 
3842.000000	99.450478 
3841.000000	99.453964 
3840.000000	99.456071 
3839.000000	99.456645 
3838.000000	99.455966 
3837.000000	99.454051 
3836.000000	99.451269 
3835.000000	99.449462 
3834.000000	99.450929 
3833.000000	99.456321 
3832.000000	99.463319 
3831.000000	99.467777 
3830.000000	99.467301 
3829.000000	99.463061 
3828.000000	99.458204 
3827.000000	99.455131 
3826.000000	99.453687 
3825.000000	99.451944 
3824.000000	99.449158 
3823.000000	99.448106 
3822.000000	99.451631 
3821.000000	99.456921 
3820.000000	99.458886 
3819.000000	99.457310 
3818.000000	99.455667 
3817.000000	99.457381 
3816.000000	99.461979 
3815.000000	99.464710 
3814.000000	99.462250 
3813.000000	99.456628 
3812.000000	99.452693 
3811.000000	99.453127 
3810.000000	99.456411 
3809.000000	99.459324 
3808.000000	99.460278 
3807.000000	99.459623 
3806.000000	99.457775 
3805.000000	99.454843 
3804.000000	99.452234 
3803.000000	99.453391 
3802.000000	99.459604 
3801.000000	99.466250 
3800.000000	99.468106 
3799.000000	99.465119 
3798.000000	99.460889 
3797.000000	99.458836 
3796.000000	99.459171 
3795.000000	99.459405 
3794.000000	99.457420 
3793.000000	99.453450 
3792.000000	99.449450 
3791.000000	99.447191 
3790.000000	99.447109 
3789.000000	99.448545 
3788.000000	99.450566 
3787.000000	99.452385 
3786.000000	99.453621 
3785.000000	99.454321 
3784.000000	99.454785 
3783.000000	99.455260 
3782.000000	99.456139 
3781.000000	99.458081 
3780.000000	99.460931 
3779.000000	99.463029 
3778.000000	99.462714 
3777.000000	99.459882 
3776.000000	99.455775 
3775.000000	99.452211 
3774.000000	99.450377 
3773.000000	99.450284 
3772.000000	99.451471 
3771.000000	99.453309 
3770.000000	99.454113 
3769.000000	99.452119 
3768.000000	99.448234 
3767.000000	99.445568 
3766.000000	99.446378 
3765.000000	99.449848 
3764.000000	99.452594 
3763.000000	99.451716 
3762.000000	99.447527 
3761.000000	99.443070 
3760.000000	99.440855 
3759.000000	99.440987 
3758.000000	99.442635 
3757.000000	99.445231 
3756.000000	99.447654 
3755.000000	99.448680 
3754.000000	99.448443 
3753.000000	99.448696 
3752.000000	99.450288 
3751.000000	99.450969 
3750.000000	99.449617 
3749.000000	99.448891 
3748.000000	99.450099 
3747.000000	99.451177 
3746.000000	99.450536 
3745.000000	99.448814 
3744.000000	99.447313 
3743.000000	99.446419 
3742.000000	99.444715 
3741.000000	99.440244 
3740.000000	99.432408 
3739.000000	99.422149 
3738.000000	99.413525 
3737.000000	99.413116 
3736.000000	99.423151 
3735.000000	99.436686 
3734.000000	99.443967 
3733.000000	99.442794 
3732.000000	99.438301 
3731.000000	99.434846 
3730.000000	99.432178 
3729.000000	99.428505 
3728.000000	99.424630 
3727.000000	99.422737 
3726.000000	99.422256 
3725.000000	99.420400 
3724.000000	99.417006 
3723.000000	99.415795 
3722.000000	99.419557 
3721.000000	99.426984 
3720.000000	99.433847 
3719.000000	99.436479 
3718.000000	99.434513 
3717.000000	99.429794 
3716.000000	99.423721 
3715.000000	99.416398 
3714.000000	99.408208 
3713.000000	99.401499 
3712.000000	99.398428 
3711.000000	99.398539 
3710.000000	99.399467 
3709.000000	99.399007 
3708.000000	99.396561 
3707.000000	99.392899 
3706.000000	99.389372 
3705.000000	99.387281 
3704.000000	99.387061 
3703.000000	99.387009 
3702.000000	99.383126 
3701.000000	99.372725 
3700.000000	99.357845 
3699.000000	99.343339 
3698.000000	99.332968 
3697.000000	99.327428 
3696.000000	99.324394 
3695.000000	99.320868 
3694.000000	99.316273 
3693.000000	99.312794 
3692.000000	99.312349 
3691.000000	99.314010 
3690.000000	99.314015 
3689.000000	99.309615 
3688.000000	99.302485 
3687.000000	99.295805 
3686.000000	99.290528 
3685.000000	99.286980 
3684.000000	99.286187 
3683.000000	99.288568 
3682.000000	99.292556 
3681.000000	99.294617 
3680.000000	99.290685 
3679.000000	99.278050 
3678.000000	99.258449 
3677.000000	99.240988 
3676.000000	99.236021 
3675.000000	99.242399 
3674.000000	99.249894 
3673.000000	99.251781 
3672.000000	99.248863 
3671.000000	99.247374 
3670.000000	99.250314 
3669.000000	99.254224 
3668.000000	99.256499 
3667.000000	99.258270 
3666.000000	99.260847 
3665.000000	99.263671 
3664.000000	99.264872 
3663.000000	99.263292 
3662.000000	99.259489 
3661.000000	99.254422 
3660.000000	99.248354 
3659.000000	99.241836 
3658.000000	99.237138 
3657.000000	99.236780 
3656.000000	99.240129 
3655.000000	99.243602 
3654.000000	99.244262 
3653.000000	99.242100 
3652.000000	99.239251 
3651.000000	99.237708 
3650.000000	99.237182 
3649.000000	99.237243 
3648.000000	99.239913 
3647.000000	99.246123 
3646.000000	99.253652 
3645.000000	99.260217 
3644.000000	99.265736 
3643.000000	99.271543 
3642.000000	99.279057 
3641.000000	99.288124 
3640.000000	99.296886 
3639.000000	99.302867 
3638.000000	99.304617 
3637.000000	99.302995 
3636.000000	99.300383 
3635.000000	99.298395 
3634.000000	99.295978 
3633.000000	99.290710 
3632.000000	99.282520 
3631.000000	99.275672 
3630.000000	99.275807 
3629.000000	99.281604 
3628.000000	99.284960 
3627.000000	99.283197 
3626.000000	99.280535 
3625.000000	99.281197 
3624.000000	99.286093 
3623.000000	99.293433 
3622.000000	99.301267 
3621.000000	99.309342 
3620.000000	99.316681 
3619.000000	99.319367 
3618.000000	99.314867 
3617.000000	99.306451 
3616.000000	99.300113 
3615.000000	99.299662 
3614.000000	99.303659 
3613.000000	99.306970 
3612.000000	99.306613 
3611.000000	99.304868 
3610.000000	99.305810 
3609.000000	99.310484 
3608.000000	99.315722 
3607.000000	99.318725 
3606.000000	99.321272 
3605.000000	99.327075 
3604.000000	99.337277 
3603.000000	99.349451 
3602.000000	99.360012 
3601.000000	99.367248 
3600.000000	99.370932 
3599.000000	99.370543 
3598.000000	99.365676 
3597.000000	99.357643 
3596.000000	99.349744 
3595.000000	99.345908 
3594.000000	99.347418 
3593.000000	99.351857 
3592.000000	99.355272 
3591.000000	99.354954 
3590.000000	99.351782 
3589.000000	99.349893 
3588.000000	99.352327 
3587.000000	99.356564 
3586.000000	99.358065 
3585.000000	99.356143 
3584.000000	99.354285 
3583.000000	99.355663 
3582.000000	99.360218 
3581.000000	99.364882 
3580.000000	99.366504 
3579.000000	99.364501 
3578.000000	99.360682 
3577.000000	99.357487 
3576.000000	99.356123 
3575.000000	99.356320 
3574.000000	99.356992 
3573.000000	99.357100 
3572.000000	99.356525 
3571.000000	99.355972 
3570.000000	99.355894 
3569.000000	99.356167 
3568.000000	99.356376 
3567.000000	99.355778 
3566.000000	99.354095 
3565.000000	99.352363 
3564.000000	99.352316 
3563.000000	99.355463 
3562.000000	99.361928 
3561.000000	99.369467 
3560.000000	99.374619 
3559.000000	99.375375 
3558.000000	99.372834 
3557.000000	99.369884 
3556.000000	99.368558 
3555.000000	99.368608 
3554.000000	99.368470 
3553.000000	99.366777 
3552.000000	99.363465 
3551.000000	99.359805 
3550.000000	99.357121 
3549.000000	99.355649 
3548.000000	99.355040 
3547.000000	99.355082 
3546.000000	99.355882 
3545.000000	99.356953 
3544.000000	99.357263 
3543.000000	99.356677 
3542.000000	99.356868 
3541.000000	99.359787 
3540.000000	99.365531 
3539.000000	99.371713 
3538.000000	99.375455 
3537.000000	99.375864 
3536.000000	99.374638 
3535.000000	99.374336 
3534.000000	99.376003 
3533.000000	99.378971 
3532.000000	99.382230 
3531.000000	99.385399 
3530.000000	99.387831 
3529.000000	99.387738 
3528.000000	99.383590 
3527.000000	99.376540 
3526.000000	99.370102 
3525.000000	99.366894 
3524.000000	99.366340 
3523.000000	99.366045 
3522.000000	99.364949 
3521.000000	99.364055 
3520.000000	99.364772 
3519.000000	99.367515 
3518.000000	99.371826 
3517.000000	99.376612 
3516.000000	99.379986 
3515.000000	99.380108 
3514.000000	99.376776 
3513.000000	99.371988 
3512.000000	99.368292 
3511.000000	99.366598 
3510.000000	99.365725 
3509.000000	99.364258 
3508.000000	99.362377 
3507.000000	99.361628 
3506.000000	99.363323 
3505.000000	99.367303 
3504.000000	99.372199 
3503.000000	99.376835 
3502.000000	99.381248 
3501.000000	99.385824 
3500.000000	99.389594 
3499.000000	99.390200 
3498.000000	99.385846 
3497.000000	99.377353 
3496.000000	99.367988 
3495.000000	99.361354 
3494.000000	99.359290 
3493.000000	99.361131 
3492.000000	99.364565 
3491.000000	99.367355 
3490.000000	99.368923 
3489.000000	99.370421 
3488.000000	99.372893 
3487.000000	99.375501 
3486.000000	99.376236 
3485.000000	99.374395 
3484.000000	99.371492 
3483.000000	99.369561 
3482.000000	99.369027 
3481.000000	99.368878 
3480.000000	99.368460 
3479.000000	99.368030 
3478.000000	99.367584 
3477.000000	99.366384 
3476.000000	99.364408 
3475.000000	99.363649 
3474.000000	99.366617 
3473.000000	99.373086 
3472.000000	99.379368 
3471.000000	99.381790 
3470.000000	99.380502 
3469.000000	99.378814 
3468.000000	99.378989 
3467.000000	99.379844 
3466.000000	99.379130 
3465.000000	99.377022 
3464.000000	99.375938 
3463.000000	99.377287 
3462.000000	99.379727 
3461.000000	99.381141 
3460.000000	99.381246 
3459.000000	99.381464 
3458.000000	99.382599 
3457.000000	99.383441 
3456.000000	99.382055 
3455.000000	99.378194 
3454.000000	99.373911 
3453.000000	99.371728 
3452.000000	99.372108 
3451.000000	99.373202 
3450.000000	99.372915 
3449.000000	99.370869 
3448.000000	99.368058 
3447.000000	99.365288 
3446.000000	99.362791 
3445.000000	99.361328 
3444.000000	99.362427 
3443.000000	99.366645 
3442.000000	99.371925 
3441.000000	99.374584 
3440.000000	99.372472 
3439.000000	99.366818 
3438.000000	99.360748 
3437.000000	99.356366 
3436.000000	99.353777 
3435.000000	99.352624 
3434.000000	99.353383 
3433.000000	99.356706 
3432.000000	99.361733 
3431.000000	99.366147 
3430.000000	99.368120 
3429.000000	99.367970 
3428.000000	99.367629 
3427.000000	99.368449 
3426.000000	99.369775 
3425.000000	99.369687 
3424.000000	99.367090 
3423.000000	99.362873 
3422.000000	99.359005 
3421.000000	99.356744 
3420.000000	99.356127 
3419.000000	99.356860 
3418.000000	99.358851 
3417.000000	99.361632 
3416.000000	99.363916 
3415.000000	99.364401 
3414.000000	99.362940 
3413.000000	99.360609 
3412.000000	99.358776 
3411.000000	99.358373 
3410.000000	99.359659 
3409.000000	99.361946 
3408.000000	99.363427 
3407.000000	99.362059 
3406.000000	99.357428 
3405.000000	99.351651 
3404.000000	99.347926 
3403.000000	99.347883 
3402.000000	99.350452 
3401.000000	99.353508 
3400.000000	99.356260 
3399.000000	99.359650 
3398.000000	99.364491 
3397.000000	99.369715 
3396.000000	99.372771 
3395.000000	99.371508 
3394.000000	99.365526 
3393.000000	99.356175 
3392.000000	99.345987 
3391.000000	99.337989 
3390.000000	99.334792 
3389.000000	99.337416 
3388.000000	99.344677 
3387.000000	99.353852 
3386.000000	99.362290 
3385.000000	99.368643 
3384.000000	99.372661 
3383.000000	99.374080 
3382.000000	99.372078 
3381.000000	99.366297 
3380.000000	99.358259 
3379.000000	99.351271 
3378.000000	99.348186 
3377.000000	99.349121 
3376.000000	99.351631 
3375.000000	99.353197 
3374.000000	99.353291 
3373.000000	99.353082 
3372.000000	99.353692 
3371.000000	99.355156 
3370.000000	99.356701 
3369.000000	99.357412 
3368.000000	99.356784 
3367.000000	99.355215 
3366.000000	99.354011 
3365.000000	99.354311 
3364.000000	99.355819 
3363.000000	99.357118 
3362.000000	99.357430 
3361.000000	99.357396 
3360.000000	99.357696 
3359.000000	99.357613 
3358.000000	99.355934 
3357.000000	99.353192 
3356.000000	99.351891 
3355.000000	99.353828 
3354.000000	99.357574 
3353.000000	99.359383 
3352.000000	99.356770 
3351.000000	99.351018 
3350.000000	99.346079 
3349.000000	99.345087 
3348.000000	99.348005 
3347.000000	99.352193 
3346.000000	99.354765 
3345.000000	99.354394 
3344.000000	99.351644 
3343.000000	99.348419 
3342.000000	99.346722 
3341.000000	99.347076 
3340.000000	99.347882 
3339.000000	99.347028 
3338.000000	99.344483 
3337.000000	99.342618 
3336.000000	99.343482 
3335.000000	99.346464 
3334.000000	99.349452 
3333.000000	99.351608 
3332.000000	99.353748 
3331.000000	99.356094 
3330.000000	99.357048 
3329.000000	99.354964 
3328.000000	99.350478 
3327.000000	99.346197 
3326.000000	99.344148 
3325.000000	99.344054 
3324.000000	99.344102 
3323.000000	99.343145 
3322.000000	99.341823 
3321.000000	99.341543 
3320.000000	99.342619 
3319.000000	99.343918 
3318.000000	99.344499 
3317.000000	99.344862 
3316.000000	99.345872 
3315.000000	99.347047 
3314.000000	99.347160 
3313.000000	99.346512 
3312.000000	99.347181 
3311.000000	99.350373 
3310.000000	99.354463 
3309.000000	99.356594 
3308.000000	99.355615 
3307.000000	99.352749 
3306.000000	99.349988 
3305.000000	99.348768 
3304.000000	99.349692 
3303.000000	99.352205 
3302.000000	99.354440 
3301.000000	99.354405 
3300.000000	99.351805 
3299.000000	99.348343 
3298.000000	99.346110 
3297.000000	99.345998 
3296.000000	99.347396 
3295.000000	99.348812 
3294.000000	99.348890 
3293.000000	99.347617 
3292.000000	99.346679 
3291.000000	99.347810 
3290.000000	99.350490 
3289.000000	99.352069 
3288.000000	99.350628 
3287.000000	99.347090 
3286.000000	99.343920 
3285.000000	99.342223 
3284.000000	99.340888 
3283.000000	99.338562 
3282.000000	99.335854 
3281.000000	99.335218 
3280.000000	99.338662 
3279.000000	99.345498 
3278.000000	99.352370 
3277.000000	99.355713 
3276.000000	99.354260 
3275.000000	99.349233 
3274.000000	99.342631 
3273.000000	99.336133 
3272.000000	99.331416 
3271.000000	99.330113 
3270.000000	99.332432 
3269.000000	99.336343 
3268.000000	99.339031 
3267.000000	99.339102 
3266.000000	99.337008 
3265.000000	99.333915 
3264.000000	99.330992 
3263.000000	99.329544 
3262.000000	99.330600 
3261.000000	99.333699 
3260.000000	99.336657 
3259.000000	99.337187 
3258.000000	99.334907 
3257.000000	99.331651 
3256.000000	99.329748 
3255.000000	99.329936 
3254.000000	99.330947 
3253.000000	99.331273 
3252.000000	99.331165 
3251.000000	99.332398 
3250.000000	99.335889 
3249.000000	99.340193 
3248.000000	99.342878 
3247.000000	99.342888 
3246.000000	99.340869 
3245.000000	99.337641 
3244.000000	99.333541 
3243.000000	99.329395 
3242.000000	99.326868 
3241.000000	99.327003 
3240.000000	99.329055 
3239.000000	99.331598 
3238.000000	99.334552 
3237.000000	99.339213 
3236.000000	99.346076 
3235.000000	99.353148 
3234.000000	99.356928 
3233.000000	99.355233 
3232.000000	99.349191 
3231.000000	99.342617 
3230.000000	99.339217 
3229.000000	99.339843 
3228.000000	99.342048 
3227.000000	99.342245 
3226.000000	99.338604 
3225.000000	99.332317 
3224.000000	99.326414 
3223.000000	99.323483 
3222.000000	99.324184 
3221.000000	99.327327 
3220.000000	99.330866 
3219.000000	99.332931 
3218.000000	99.332698 
3217.000000	99.331105 
3216.000000	99.330742 
3215.000000	99.334129 
3214.000000	99.341250 
3213.000000	99.348843 
3212.000000	99.352639 
3211.000000	99.350608 
3210.000000	99.344182 
3209.000000	99.336793 
3208.000000	99.331520 
3207.000000	99.329577 
3206.000000	99.330094 
3205.000000	99.331116 
3204.000000	99.331317 
3203.000000	99.331060 
3202.000000	99.331582 
3201.000000	99.333282 
3200.000000	99.335385 
3199.000000	99.337240 
3198.000000	99.339091 
3197.000000	99.341193 
3196.000000	99.342916 
3195.000000	99.343413 
3194.000000	99.342754 
3193.000000	99.341726 
3192.000000	99.340710 
3191.000000	99.339373 
3190.000000	99.337338 
3189.000000	99.334696 
3188.000000	99.331935 
3187.000000	99.329861 
3186.000000	99.329471 
3185.000000	99.331162 
3184.000000	99.333952 
3183.000000	99.336035 
3182.000000	99.336541 
3181.000000	99.336533 
3180.000000	99.337883 
3179.000000	99.341044 
3178.000000	99.344087 
3177.000000	99.344292 
3176.000000	99.341072 
3175.000000	99.337138 
3174.000000	99.336069 
3173.000000	99.338378 
3172.000000	99.340617 
3171.000000	99.339096 
3170.000000	99.334072 
3169.000000	99.329323 
3168.000000	99.327792 
3167.000000	99.328851 
3166.000000	99.330095 
3165.000000	99.330497 
3164.000000	99.330818 
3163.000000	99.331640 
3162.000000	99.332384 
3161.000000	99.332443 
3160.000000	99.332386 
3159.000000	99.333357 
3158.000000	99.335490 
3157.000000	99.337337 
3156.000000	99.337027 
3155.000000	99.333825 
3154.000000	99.328450 
3153.000000	99.322091 
3152.000000	99.315641 
3151.000000	99.310055 
3150.000000	99.306823 
3149.000000	99.307226 
3148.000000	99.311066 
3147.000000	99.316699 
3146.000000	99.322439 
3145.000000	99.327465 
3144.000000	99.331267 
3143.000000	99.332984 
3142.000000	99.331964 
3141.000000	99.328741 
3140.000000	99.324863 
3139.000000	99.321747 
3138.000000	99.319958 
3137.000000	99.319538 
3136.000000	99.320613 
3135.000000	99.323482 
3134.000000	99.328067 
3133.000000	99.333278 
3132.000000	99.337026 
3131.000000	99.337398 
3130.000000	99.334249 
3129.000000	99.329631 
3128.000000	99.326388 
3127.000000	99.326149 
3126.000000	99.328417 
3125.000000	99.331149 
3124.000000	99.332161 
3123.000000	99.330469 
3122.000000	99.326932 
3121.000000	99.323567 
3120.000000	99.321979 
3119.000000	99.322344 
3118.000000	99.323805 
3117.000000	99.325556 
3116.000000	99.327385 
3115.000000	99.329451 
3114.000000	99.331804 
3113.000000	99.334025 
3112.000000	99.335203 
3111.000000	99.334508 
3110.000000	99.331945 
3109.000000	99.328403 
3108.000000	99.324867 
3107.000000	99.321864 
3106.000000	99.319713 
3105.000000	99.318839 
3104.000000	99.319513 
3103.000000	99.321515 
3102.000000	99.324334 
3101.000000	99.327434 
3100.000000	99.330245 
3099.000000	99.332339 
3098.000000	99.333944 
3097.000000	99.335842 
3096.000000	99.338275 
3095.000000	99.340193 
3094.000000	99.340068 
3093.000000	99.337344 
3092.000000	99.332809 
3091.000000	99.328024 
3090.000000	99.324837 
3089.000000	99.324806 
3088.000000	99.327937 
3087.000000	99.332031 
3086.000000	99.334250 
3085.000000	99.333687 
3084.000000	99.331719 
3083.000000	99.329757 
3082.000000	99.327685 
3081.000000	99.324978 
3080.000000	99.322480 
3079.000000	99.322036 
3078.000000	99.324638 
3077.000000	99.329541 
3076.000000	99.334931 
3075.000000	99.338841 
3074.000000	99.339681 
3073.000000	99.336924 
3072.000000	99.331625 
3071.000000	99.325830 
3070.000000	99.321041 
3069.000000	99.317320 
3068.000000	99.313991 
3067.000000	99.311170 
3066.000000	99.310437 
3065.000000	99.313693 
3064.000000	99.320873 
3063.000000	99.328734 
3062.000000	99.332651 
3061.000000	99.330327 
3060.000000	99.323799 
3059.000000	99.317509 
3058.000000	99.314646 
3057.000000	99.315622 
3056.000000	99.319278 
3055.000000	99.324247 
3054.000000	99.328888 
3053.000000	99.331133 
3052.000000	99.329477 
3051.000000	99.324236 
3050.000000	99.317611 
3049.000000	99.312516 
3048.000000	99.310885 
3047.000000	99.312201 
3046.000000	99.313411 
3045.000000	99.311127 
3044.000000	99.304791 
3043.000000	99.297504 
3042.000000	99.293270 
3041.000000	99.293461 
3040.000000	99.296085 
3039.000000	99.297917 
3038.000000	99.296718 
3037.000000	99.291838 
3036.000000	99.283791 
3035.000000	99.273757 
3034.000000	99.263126 
3033.000000	99.252936 
3032.000000	99.243532 
3031.000000	99.234711 
3030.000000	99.226248 
3029.000000	99.218461 
3028.000000	99.212231 
3027.000000	99.208112 
3026.000000	99.205103 
3025.000000	99.200630 
3024.000000	99.192374 
3023.000000	99.180363 
3022.000000	99.166882 
3021.000000	99.154076 
3020.000000	99.141811 
3019.000000	99.128132 
3018.000000	99.111819 
3017.000000	99.094130 
3016.000000	99.077707 
3015.000000	99.063798 
3014.000000	99.051103 
3013.000000	99.037691 
3012.000000	99.023628 
3011.000000	99.010895 
3010.000000	99.000728 
3009.000000	98.991888 
3008.000000	98.981942 
3007.000000	98.969517 
3006.000000	98.954816 
3005.000000	98.938573 
3004.000000	98.921558 
3003.000000	98.904979 
3002.000000	98.890336 
3001.000000	98.878315 
3000.000000	98.868079 
2999.000000	98.858054 
2998.000000	98.847515 
2997.000000	98.837329 
2996.000000	98.828902 
2995.000000	98.821782 
2994.000000	98.812159 
2993.000000	98.794739 
2992.000000	98.767423 
2991.000000	98.734476 
2990.000000	98.704501 
2989.000000	98.684840 
2988.000000	98.677753 
2987.000000	98.681203 
2986.000000	98.691696 
2985.000000	98.705634 
2984.000000	98.719024 
2983.000000	98.728001 
2982.000000	98.730777 
2981.000000	98.728954 
2980.000000	98.726298 
2979.000000	98.725727 
2978.000000	98.727156 
2977.000000	98.727959 
2976.000000	98.725418 
2975.000000	98.719006 
2974.000000	98.710827 
2973.000000	98.704275 
2972.000000	98.702127 
2971.000000	98.705256 
2970.000000	98.712566 
2969.000000	98.721987 
2968.000000	98.731749 
2967.000000	98.740998 
2966.000000	98.749601 
2965.000000	98.757798 
2964.000000	98.766042 
2963.000000	98.774633 
2962.000000	98.783155 
2961.000000	98.790626 
2960.000000	98.796583 
2959.000000	98.801782 
2958.000000	98.807358 
2957.000000	98.813445 
2956.000000	98.819179 
2955.000000	98.824164 
2954.000000	98.829550 
2953.000000	98.837362 
2952.000000	98.848722 
2951.000000	98.862528 
2950.000000	98.875681 
2949.000000	98.884816 
2948.000000	98.888309 
2947.000000	98.886986 
2946.000000	98.883145 
2945.000000	98.879103 
2944.000000	98.876431 
2943.000000	98.875604 
2942.000000	98.875600 
2941.000000	98.874287 
2940.000000	98.870249 
2939.000000	98.864610 
2938.000000	98.860525 
2937.000000	98.860553 
2936.000000	98.864600 
2935.000000	98.870245 
2934.000000	98.874536 
2933.000000	98.875366 
2932.000000	98.871833 
2931.000000	98.864053 
2930.000000	98.853117 
2929.000000	98.841248 
2928.000000	98.831307 
2927.000000	98.824955 
2926.000000	98.820963 
2925.000000	98.816320 
2924.000000	98.809943 
2923.000000	98.804544 
2922.000000	98.803708 
2921.000000	98.807491 
2920.000000	98.812257 
2919.000000	98.814660 
2918.000000	98.814530 
2917.000000	98.813661 
2916.000000	98.813183 
2915.000000	98.812746 
2914.000000	98.811467 
2913.000000	98.809077 
2912.000000	98.806665 
2911.000000	98.806407 
2910.000000	98.809644 
2909.000000	98.814883 
2908.000000	98.818492 
2907.000000	98.817930 
2906.000000	98.813376 
2905.000000	98.805880 
2904.000000	98.795420 
2903.000000	98.782493 
2902.000000	98.771032 
2901.000000	98.768106 
2900.000000	98.778184 
2899.000000	98.799113 
2898.000000	98.822836 
2897.000000	98.840768 
2896.000000	98.849211 
2895.000000	98.850728 
2894.000000	98.850978 
2893.000000	98.854041 
2892.000000	98.860294 
2891.000000	98.867643 
2890.000000	98.873831 
2889.000000	98.877568 
2888.000000	98.878709 
2887.000000	98.878390 
2886.000000	98.878668 
2885.000000	98.881215 
2884.000000	98.886350 
2883.000000	98.893648 
2882.000000	98.903130 
2881.000000	98.915153 
2880.000000	98.929204 
2879.000000	98.943431 
2878.000000	98.955663 
2877.000000	98.964837 
2876.000000	98.971572 
2875.000000	98.977581 
2874.000000	98.984290 
2873.000000	98.991638 
2872.000000	98.998194 
2871.000000	99.002607 
2870.000000	99.004965 
2869.000000	99.006927 
2868.000000	99.010806 
2867.000000	99.018290 
2866.000000	99.029088 
2865.000000	99.040485 
2864.000000	99.049019 
2863.000000	99.053323 
2862.000000	99.055021 
2861.000000	99.056648 
2860.000000	99.059445 
2859.000000	99.063601 
2858.000000	99.069277 
2857.000000	99.076059 
2856.000000	99.082189 
2855.000000	99.086040 
2854.000000	99.088365 
2853.000000	99.091895 
2852.000000	99.098640 
2851.000000	99.108527 
2850.000000	99.120579 
2849.000000	99.134031 
2848.000000	99.147961 
2847.000000	99.161108 
2846.000000	99.172754 
2845.000000	99.182970 
2844.000000	99.191454 
2843.000000	99.197165 
2842.000000	99.200045 
2841.000000	99.202362 
2840.000000	99.207113 
2839.000000	99.215068 
2838.000000	99.224219 
2837.000000	99.232094 
2836.000000	99.237902 
2835.000000	99.242383 
2834.000000	99.246365 
2833.000000	99.249979 
2832.000000	99.252868 
2831.000000	99.254626 
2830.000000	99.255036 
2829.000000	99.254214 
2828.000000	99.252727 
2827.000000	99.251562 
2826.000000	99.251821 
2825.000000	99.254132 
2824.000000	99.258130 
2823.000000	99.262524 
2822.000000	99.265895 
2821.000000	99.267612 
2820.000000	99.268040 
2819.000000	99.267929 
2818.000000	99.267698 
2817.000000	99.267367 
2816.000000	99.267022 
2815.000000	99.267017 
2814.000000	99.267513 
2813.000000	99.268061 
2812.000000	99.268092 
2811.000000	99.267932 
2810.000000	99.268904 
2809.000000	99.272080 
2808.000000	99.277038 
2807.000000	99.282051 
2806.000000	99.285307 
2805.000000	99.285890 
2804.000000	99.284131 
2803.000000	99.281538 
2802.000000	99.280042 
2801.000000	99.280545 
2800.000000	99.282132 
2799.000000	99.283167 
2798.000000	99.283061 
2797.000000	99.282362 
2796.000000	99.281292 
2795.000000	99.279316 
2794.000000	99.276583 
2793.000000	99.274744 
2792.000000	99.275341 
2791.000000	99.277861 
2790.000000	99.280345 
2789.000000	99.281779 
2788.000000	99.282972 
2787.000000	99.284984 
2786.000000	99.287531 
2785.000000	99.289298 
2784.000000	99.289283 
2783.000000	99.287478 
2782.000000	99.284754 
2781.000000	99.282510 
2780.000000	99.282005 
2779.000000	99.283424 
2778.000000	99.285724 
2777.000000	99.287858 
2776.000000	99.289982 
2775.000000	99.292881 
2774.000000	99.296319 
2773.000000	99.298827 
2772.000000	99.299523 
2771.000000	99.299444 
2770.000000	99.300318 
2769.000000	99.302321 
2768.000000	99.303971 
2767.000000	99.304276 
2766.000000	99.304075 
2765.000000	99.304624 
2764.000000	99.305483 
2763.000000	99.304738 
2762.000000	99.301400 
2761.000000	99.296881 
2760.000000	99.293760 
2759.000000	99.293461 
2758.000000	99.295445 
2757.000000	99.298336 
2756.000000	99.301110 
2755.000000	99.303126 
2754.000000	99.303691 
2753.000000	99.302440 
2752.000000	99.300241 
2751.000000	99.299016 
2750.000000	99.300055 
2749.000000	99.302597 
2748.000000	99.304575 
2747.000000	99.304785 
2746.000000	99.303853 
2745.000000	99.302929 
2744.000000	99.302119 
2743.000000	99.300784 
2742.000000	99.298996 
2741.000000	99.297910 
2740.000000	99.298541 
2739.000000	99.300797 
2738.000000	99.303925 
2737.000000	99.307422 
2736.000000	99.311069 
2735.000000	99.314383 
2734.000000	99.316578 
2733.000000	99.317168 
2732.000000	99.316340 
2731.000000	99.314711 
2730.000000	99.312893 
2729.000000	99.311241 
2728.000000	99.309784 
2727.000000	99.308273 
2726.000000	99.306440 
2725.000000	99.304358 
2724.000000	99.302591 
2723.000000	99.302022 
2722.000000	99.303481 
2721.000000	99.307156 
2720.000000	99.311981 
2719.000000	99.315687 
2718.000000	99.316133 
2717.000000	99.313104 
2716.000000	99.308745 
2715.000000	99.305885 
2714.000000	99.305876 
2713.000000	99.308039 
2712.000000	99.310839 
2711.000000	99.313183 
2710.000000	99.314785 
2709.000000	99.315875 
2708.000000	99.316759 
2707.000000	99.317326 
2706.000000	99.316910 
2705.000000	99.315092 
2704.000000	99.312766 
2703.000000	99.311768 
2702.000000	99.312962 
2701.000000	99.315064 
2700.000000	99.316043 
2699.000000	99.315513 
2698.000000	99.315101 
2697.000000	99.316332 
2696.000000	99.318692 
2695.000000	99.320101 
2694.000000	99.319134 
2693.000000	99.316550 
2692.000000	99.314633 
2691.000000	99.314929 
2690.000000	99.316573 
2689.000000	99.317058 
2688.000000	99.314918 
2687.000000	99.311390 
2686.000000	99.309145 
2685.000000	99.309676 
2684.000000	99.312421 
2683.000000	99.316043 
2682.000000	99.319552 
2681.000000	99.321986 
2680.000000	99.322053 
2679.000000	99.319097 
2678.000000	99.314367 
2677.000000	99.310832 
2676.000000	99.311348 
2675.000000	99.316555 
2674.000000	99.324096 
2673.000000	99.330019 
2672.000000	99.331698 
2671.000000	99.329708 
2670.000000	99.326580 
2669.000000	99.323897 
2668.000000	99.321438 
2667.000000	99.319143 
2666.000000	99.318385 
2665.000000	99.320215 
2664.000000	99.323238 
2663.000000	99.324793 
2662.000000	99.324160 
2661.000000	99.323322 
2660.000000	99.324177 
2659.000000	99.326165 
2658.000000	99.327422 
2657.000000	99.327594 
2656.000000	99.328252 
2655.000000	99.330394 
2654.000000	99.332467 
2653.000000	99.331907 
2652.000000	99.328647 
2651.000000	99.326098 
2650.000000	99.327684 
2649.000000	99.332637 
2648.000000	99.336460 
2647.000000	99.336032 
2646.000000	99.333306 
2645.000000	99.332989 
2644.000000	99.337012 
2643.000000	99.342365 
2642.000000	99.344356 
2641.000000	99.341186 
2640.000000	99.335203 
2639.000000	99.330375 
2638.000000	99.328865 
2637.000000	99.329659 
2636.000000	99.330259 
2635.000000	99.329643 
2634.000000	99.329228 
2633.000000	99.330750 
2632.000000	99.333901 
2631.000000	99.336763 
2630.000000	99.337912 
2629.000000	99.337033 
2628.000000	99.334086 
2627.000000	99.329615 
2626.000000	99.325936 
2625.000000	99.326083 
2624.000000	99.330493 
2623.000000	99.335932 
2622.000000	99.338796 
2621.000000	99.338730 
2620.000000	99.338076 
2619.000000	99.338645 
2618.000000	99.340308 
2617.000000	99.342246 
2616.000000	99.344139 
2615.000000	99.345931 
2614.000000	99.347395 
2613.000000	99.348302 
2612.000000	99.348563 
2611.000000	99.348026 
2610.000000	99.346416 
2609.000000	99.343535 
2608.000000	99.339555 
2607.000000	99.335572 
2606.000000	99.333938 
2605.000000	99.336957 
2604.000000	99.344237 
2603.000000	99.351945 
2602.000000	99.355997 
2601.000000	99.356034 
2600.000000	99.355277 
2599.000000	99.356417 
2598.000000	99.358614 
2597.000000	99.358707 
2596.000000	99.354497 
2595.000000	99.346575 
2594.000000	99.337921 
2593.000000	99.332296 
2592.000000	99.332172 
2591.000000	99.337259 
2590.000000	99.344857 
2589.000000	99.351683 
2588.000000	99.355263 
2587.000000	99.354231 
2586.000000	99.348858 
2585.000000	99.341964 
2584.000000	99.337965 
2583.000000	99.339405 
2582.000000	99.344391 
2581.000000	99.348302 
2580.000000	99.348104 
2579.000000	99.344506 
2578.000000	99.340246 
2577.000000	99.337195 
2576.000000	99.335194 
2575.000000	99.332932 
2574.000000	99.329641 
2573.000000	99.326402 
2572.000000	99.325782 
2571.000000	99.329531 
2570.000000	99.336427 
2569.000000	99.343001 
2568.000000	99.346606 
2567.000000	99.347125 
2566.000000	99.345592 
2565.000000	99.342383 
2564.000000	99.337873 
2563.000000	99.334054 
2562.000000	99.333743 
2561.000000	99.337543 
2560.000000	99.342407 
2559.000000	99.343968 
2558.000000	99.340366 
2557.000000	99.333882 
2556.000000	99.329206 
2555.000000	99.329944 
2554.000000	99.335976 
2553.000000	99.343628 
2552.000000	99.348656 
2551.000000	99.349448 
2550.000000	99.347332 
2549.000000	99.344090 
2548.000000	99.340060 
2547.000000	99.335066 
2546.000000	99.330310 
2545.000000	99.328020 
2544.000000	99.328988 
2543.000000	99.331242 
2542.000000	99.331692 
2541.000000	99.329091 
2540.000000	99.325285 
2539.000000	99.323527 
2538.000000	99.325304 
2537.000000	99.328632 
2536.000000	99.329919 
2535.000000	99.328012 
2534.000000	99.325837 
2533.000000	99.326987 
2532.000000	99.330913 
2531.000000	99.333047 
2530.000000	99.330302 
2529.000000	99.324931 
2528.000000	99.321490 
2527.000000	99.321005 
2526.000000	99.320353 
2525.000000	99.317491 
2524.000000	99.315009 
2523.000000	99.317175 
2522.000000	99.324624 
2521.000000	99.333415 
2520.000000	99.338629 
2519.000000	99.337602 
2518.000000	99.330332 
2517.000000	99.318931 
2516.000000	99.307256 
2515.000000	99.299486 
2514.000000	99.297725 
2513.000000	99.301172 
2512.000000	99.307807 
2511.000000	99.316019 
2510.000000	99.324319 
2509.000000	99.330989 
2508.000000	99.335506 
2507.000000	99.339520 
2506.000000	99.344611 
2505.000000	99.349051 
2504.000000	99.348484 
2503.000000	99.340642 
2502.000000	99.328586 
2501.000000	99.318647 
2500.000000	99.315633 
2499.000000	99.320097 
2498.000000	99.328940 
2497.000000	99.337485 
2496.000000	99.341523 
2495.000000	99.339309 
2494.000000	99.332715 
2493.000000	99.326154 
2492.000000	99.323470 
2491.000000	99.325365 
2490.000000	99.329867 
2489.000000	99.335379 
2488.000000	99.342652 
2487.000000	99.352817 
2486.000000	99.363434 
2485.000000	99.368105 
2484.000000	99.361794 
2483.000000	99.346446 
2482.000000	99.329989 
2481.000000	99.319520 
2480.000000	99.316355 
2479.000000	99.317541 
2478.000000	99.320083 
2477.000000	99.322527 
2476.000000	99.324259 
2475.000000	99.325556 
2474.000000	99.327869 
2473.000000	99.332000 
2472.000000	99.335927 
2471.000000	99.336355 
2470.000000	99.332924 
2469.000000	99.329208 
2468.000000	99.328555 
2467.000000	99.330279 
2466.000000	99.331200 
2465.000000	99.329924 
2464.000000	99.328063 
2463.000000	99.327633 
2462.000000	99.328791 
2461.000000	99.330262 
2460.000000	99.330783 
2459.000000	99.329733 
2458.000000	99.327351 
2457.000000	99.324915 
2456.000000	99.324041 
2455.000000	99.325178 
2454.000000	99.327208 
2453.000000	99.328934 
2452.000000	99.330428 
2451.000000	99.332168 
2450.000000	99.333243 
2449.000000	99.331592 
2448.000000	99.326572 
2447.000000	99.320719 
2446.000000	99.318118 
2445.000000	99.320737 
2444.000000	99.326460 
2443.000000	99.330872 
2442.000000	99.330987 
2441.000000	99.327367 
2440.000000	99.322972 
2439.000000	99.320440 
2438.000000	99.320486 
2437.000000	99.322190 
2436.000000	99.323917 
2435.000000	99.324007 
2434.000000	99.321703 
2433.000000	99.318272 
2432.000000	99.316748 
2431.000000	99.319361 
2430.000000	99.324818 
2429.000000	99.328771 
2428.000000	99.327654 
2427.000000	99.322017 
2426.000000	99.315786 
2425.000000	99.312527 
2424.000000	99.312989 
2423.000000	99.316108 
2422.000000	99.321193 
2421.000000	99.327903 
2420.000000	99.334366 
2419.000000	99.336985 
2418.000000	99.333368 
2417.000000	99.325067 
2416.000000	99.316319 
2415.000000	99.310021 
2414.000000	99.305914 
2413.000000	99.302709 
2412.000000	99.300599 
2411.000000	99.300745 
2410.000000	99.303122 
2409.000000	99.306031 
2408.000000	99.307517 
2407.000000	99.306596 
2406.000000	99.303673 
2405.000000	99.300764 
2404.000000	99.300811 
2403.000000	99.305174 
2402.000000	99.311511 
2401.000000	99.315246 
2400.000000	99.313691 
2399.000000	99.308164 
2398.000000	99.302120 
2397.000000	99.298272 
2396.000000	99.297601 
2395.000000	99.299622 
2394.000000	99.302646 
2393.000000	99.304690 
2392.000000	99.305046 
2391.000000	99.304382 
2390.000000	99.302912 
2389.000000	99.299805 
2388.000000	99.295426 
2387.000000	99.292696 
2386.000000	99.294187 
2385.000000	99.298322 
2384.000000	99.300609 
2383.000000	99.298924 
2382.000000	99.295759 
2381.000000	99.294404 
2380.000000	99.294649 
2379.000000	99.293999 
2378.000000	99.292393 
2377.000000	99.293021 
2376.000000	99.297537 
2375.000000	99.302542 
2374.000000	99.302859 
2373.000000	99.297254 
2372.000000	99.289176 
2371.000000	99.282944 
2370.000000	99.281023 
2369.000000	99.283677 
2368.000000	99.288402 
2367.000000	99.290974 
2366.000000	99.290040 
2365.000000	99.289182 
2364.000000	99.291654 
2363.000000	99.295087 
2362.000000	99.294442 
2361.000000	99.289270 
2360.000000	99.283085 
2359.000000	99.276907 
2358.000000	99.269498 
2357.000000	99.261589 
2356.000000	99.257282 
2355.000000	99.260640 
2354.000000	99.273384 
2353.000000	99.289664 
2352.000000	99.299037 
2351.000000	99.297044 
2350.000000	99.288099 
2349.000000	99.279187 
2348.000000	99.274557 
2347.000000	99.275849 
2346.000000	99.280726 
2345.000000	99.283402 
2344.000000	99.281403 
2343.000000	99.277472 
2342.000000	99.274987 
2341.000000	99.273176 
2340.000000	99.271029 
2339.000000	99.271040 
2338.000000	99.277442 
2337.000000	99.288756 
2336.000000	99.295257 
2335.000000	99.290207 
2334.000000	99.278730 
2333.000000	99.272539 
2332.000000	99.275064 
2331.000000	99.281140 
2330.000000	99.283309 
2329.000000	99.280060 
2328.000000	99.273910 
2327.000000	99.271604 
2326.000000	99.277007 
2325.000000	99.286835 
2324.000000	99.292510 
2323.000000	99.291193 
2322.000000	99.288689 
2321.000000	99.290376 
2320.000000	99.292622 
2319.000000	99.289679 
2318.000000	99.281962 
2317.000000	99.276167 
2316.000000	99.275020 
2315.000000	99.276544 
2314.000000	99.277742 
2313.000000	99.280220 
2312.000000	99.285379 
2311.000000	99.292191 
2310.000000	99.296628 
2309.000000	99.297014 
2308.000000	99.295152 
2307.000000	99.295580 
2306.000000	99.300495 
2305.000000	99.308286 
2304.000000	99.315107 
2303.000000	99.319620 
2302.000000	99.322830 
2301.000000	99.326186 
2300.000000	99.329582 
2299.000000	99.333619 
2298.000000	99.338908 
2297.000000	99.344668 
2296.000000	99.347288 
2295.000000	99.344960 
2294.000000	99.340438 
2293.000000	99.339277 
2292.000000	99.343668 
2291.000000	99.350990 
2290.000000	99.357138 
2289.000000	99.360468 
2288.000000	99.362149 
2287.000000	99.363915 
2286.000000	99.365858 
2285.000000	99.365681 
2284.000000	99.361144 
2283.000000	99.353490 
2282.000000	99.347893 
2281.000000	99.348435 
2280.000000	99.353599 
2279.000000	99.358198 
2278.000000	99.359615 
2277.000000	99.359805 
2276.000000	99.361217 
2275.000000	99.363528 
2274.000000	99.365240 
2273.000000	99.366281 
2272.000000	99.367330 
2271.000000	99.368371 
2270.000000	99.369116 
2269.000000	99.369723 
2268.000000	99.369890 
2267.000000	99.368707 
2266.000000	99.366356 
2265.000000	99.364381 
2264.000000	99.362873 
2263.000000	99.359247 
2262.000000	99.352022 
2261.000000	99.344414 
2260.000000	99.341434 
2259.000000	99.343675 
2258.000000	99.346748 
2257.000000	99.347044 
2256.000000	99.345659 
2255.000000	99.345589 
2254.000000	99.347580 
2253.000000	99.350683 
2252.000000	99.354948 
2251.000000	99.360892 
2250.000000	99.366841 
2249.000000	99.369691 
2248.000000	99.368163 
2247.000000	99.364190 
2246.000000	99.359849 
2245.000000	99.355814 
2244.000000	99.353018 
2243.000000	99.353313 
2242.000000	99.356913 
2241.000000	99.361445 
2240.000000	99.365852 
2239.000000	99.373256 
2238.000000	99.386483 
2237.000000	99.401426 
2236.000000	99.408735 
2235.000000	99.403167 
2234.000000	99.388981 
2233.000000	99.375262 
2232.000000	99.367831 
2231.000000	99.366229 
2230.000000	99.366168 
2229.000000	99.363583 
2228.000000	99.358086 
2227.000000	99.353601 
2226.000000	99.354176 
2225.000000	99.358913 
2224.000000	99.363292 
2223.000000	99.365590 
2222.000000	99.368028 
2221.000000	99.370261 
2220.000000	99.366984 
2219.000000	99.356374 
2218.000000	99.346911 
2217.000000	99.349409 
2216.000000	99.363479 
2215.000000	99.378221 
2214.000000	99.386255 
2213.000000	99.390371 
2212.000000	99.394533 
2211.000000	99.395345 
2210.000000	99.387983 
2209.000000	99.376437 
2208.000000	99.370787 
2207.000000	99.374364 
2206.000000	99.379219 
2205.000000	99.376301 
2204.000000	99.366899 
2203.000000	99.361236 
2202.000000	99.366796 
2201.000000	99.379815 
2200.000000	99.388364 
2199.000000	99.383491 
2198.000000	99.367658 
2197.000000	99.352818 
2196.000000	99.350182 
2195.000000	99.361456 
2194.000000	99.379069 
2193.000000	99.393036 
2192.000000	99.397516 
2191.000000	99.393552 
2190.000000	99.388516 
2189.000000	99.391834 
2188.000000	99.406706 
2187.000000	99.424265 
2186.000000	99.429039 
2185.000000	99.413454 
2184.000000	99.386131 
2183.000000	99.363721 
2182.000000	99.356043 
2181.000000	99.360930 
2180.000000	99.370798 
2179.000000	99.379899 
2178.000000	99.385803 
2177.000000	99.388764 
2176.000000	99.390999 
2175.000000	99.393339 
2174.000000	99.392571 
2173.000000	99.386754 
2172.000000	99.383638 
2171.000000	99.396968 
2170.000000	99.430057 
2169.000000	99.467218 
2168.000000	99.487278 
2167.000000	99.483944 
2166.000000	99.468367 
2165.000000	99.454926 
2164.000000	99.450940 
2163.000000	99.458095 
2162.000000	99.473603 
2161.000000	99.485686 
2160.000000	99.476305 
2159.000000	99.437406 
2158.000000	99.382175 
2157.000000	99.333294 
2156.000000	99.302537 
2155.000000	99.288044 
2154.000000	99.285861 
2153.000000	99.294852 
2152.000000	99.311308 
2151.000000	99.326339 
2150.000000	99.333022 
2149.000000	99.334819 
2148.000000	99.343145 
2147.000000	99.364314 
2146.000000	99.390042 
2145.000000	99.403551 
2144.000000	99.396133 
2143.000000	99.375411 
2142.000000	99.356005 
2141.000000	99.344785 
2140.000000	99.337874 
2139.000000	99.330317 
2138.000000	99.323870 
2137.000000	99.323592 
2136.000000	99.329907 
2135.000000	99.337356 
2134.000000	99.340935 
2133.000000	99.341281 
2132.000000	99.342200 
2131.000000	99.343707 
2130.000000	99.339873 
2129.000000	99.325648 
2128.000000	99.305273 
2127.000000	99.290671 
2126.000000	99.289990 
2125.000000	99.300076 
2124.000000	99.312173 
2123.000000	99.322226 
2122.000000	99.331705 
2121.000000	99.340725 
2120.000000	99.346562 
2119.000000	99.349415 
2118.000000	99.353792 
2117.000000	99.361622 
2116.000000	99.368374 
2115.000000	99.369358 
2114.000000	99.366482 
2113.000000	99.364685 
2112.000000	99.364004 
2111.000000	99.360105 
2110.000000	99.352220 
2109.000000	99.345698 
2108.000000	99.344862 
2107.000000	99.346538 
2106.000000	99.343459 
2105.000000	99.333232 
2104.000000	99.321920 
2103.000000	99.318226 
2102.000000	99.324828 
2101.000000	99.335955 
2100.000000	99.343567 
2099.000000	99.345208 
2098.000000	99.344968 
2097.000000	99.347427 
2096.000000	99.352364 
2095.000000	99.355898 
2094.000000	99.355154 
2093.000000	99.350656 
2092.000000	99.345511 
2091.000000	99.343783 
2090.000000	99.348623 
2089.000000	99.359536 
2088.000000	99.370704 
2087.000000	99.373615 
2086.000000	99.363506 
2085.000000	99.344867 
2084.000000	99.330138 
2083.000000	99.330436 
2082.000000	99.345820 
2081.000000	99.365223 
2080.000000	99.377529 
2079.000000	99.382106 
2078.000000	99.386949 
2077.000000	99.397912 
2076.000000	99.412309 
2075.000000	99.422317 
2074.000000	99.421375 
2073.000000	99.407759 
2072.000000	99.385957 
2071.000000	99.365230 
2070.000000	99.353383 
2069.000000	99.350092 
2068.000000	99.348101 
2067.000000	99.342127 
2066.000000	99.334586 
2065.000000	99.332336 
2064.000000	99.340196 
2063.000000	99.357873 
2062.000000	99.379411 
2061.000000	99.394659 
2060.000000	99.396488 
2059.000000	99.389091 
2058.000000	99.384853 
2057.000000	99.390300 
2056.000000	99.399433 
2055.000000	99.404307 
2054.000000	99.407385 
2053.000000	99.417429 
2052.000000	99.435638 
2051.000000	99.451998 
2050.000000	99.455333 
2049.000000	99.443804 
2048.000000	99.425907 
2047.000000	99.413453 
2046.000000	99.413527 
2045.000000	99.423509 
2044.000000	99.432471 
2043.000000	99.430886 
2042.000000	99.420720 
2041.000000	99.413682 
2040.000000	99.417966 
2039.000000	99.429386 
2038.000000	99.437293 
2037.000000	99.436379 
2036.000000	99.429937 
2035.000000	99.422341 
2034.000000	99.412346 
2033.000000	99.397198 
2032.000000	99.382119 
2031.000000	99.380105 
2030.000000	99.398335 
2029.000000	99.426610 
2028.000000	99.444078 
2027.000000	99.438193 
2026.000000	99.413691 
2025.000000	99.384818 
2024.000000	99.364543 
2023.000000	99.361246 
2022.000000	99.377576 
2021.000000	99.406186 
2020.000000	99.430578 
2019.000000	99.436900 
2018.000000	99.424841 
2017.000000	99.405320 
2016.000000	99.389130 
2015.000000	99.380059 
2014.000000	99.376270 
2013.000000	99.373478 
2012.000000	99.368326 
2011.000000	99.362494 
2010.000000	99.362316 
2009.000000	99.371633 
2008.000000	99.386636 
2007.000000	99.400339 
2006.000000	99.409358 
2005.000000	99.413614 
2004.000000	99.413546 
2003.000000	99.411238 
2002.000000	99.410318 
2001.000000	99.409982 
2000.000000	99.402509 
1999.000000	99.382414 
1998.000000	99.355792 
1997.000000	99.335639 
1996.000000	99.329090 
1995.000000	99.333405 
1994.000000	99.342621 
1993.000000	99.352527 
1992.000000	99.359467 
1991.000000	99.360205 
1990.000000	99.355584 
1989.000000	99.351188 
1988.000000	99.353291 
1987.000000	99.365242 
1986.000000	99.386407 
1985.000000	99.411890 
1984.000000	99.433828 
1983.000000	99.445737 
1982.000000	99.446282 
1981.000000	99.438393 
1980.000000	99.426255 
1979.000000	99.413987 
1978.000000	99.403873 
1977.000000	99.393224 
1976.000000	99.376601 
1975.000000	99.354779 
1974.000000	99.337958 
1973.000000	99.335357 
1972.000000	99.343810 
1971.000000	99.352048 
1970.000000	99.355066 
1969.000000	99.358797 
1968.000000	99.369930 
1967.000000	99.385705 
1966.000000	99.397231 
1965.000000	99.399968 
1964.000000	99.396881 
1963.000000	99.392786 
1962.000000	99.389256 
1961.000000	99.385015 
1960.000000	99.378967 
1959.000000	99.371497 
1958.000000	99.363501 
1957.000000	99.355486 
1956.000000	99.347687 
1955.000000	99.339928 
1954.000000	99.330806 
1953.000000	99.318565 
1952.000000	99.304403 
1951.000000	99.293911 
1950.000000	99.292740 
1949.000000	99.299997 
1948.000000	99.308350 
1947.000000	99.312134 
1946.000000	99.312380 
1945.000000	99.312269 
1944.000000	99.311251 
1943.000000	99.307003 
1942.000000	99.300565 
1941.000000	99.294534 
1940.000000	99.288079 
1939.000000	99.278983 
1938.000000	99.269467 
1937.000000	99.265889 
1936.000000	99.271524 
1935.000000	99.281968 
1934.000000	99.289077 
1933.000000	99.288117 
1932.000000	99.280603 
1931.000000	99.272394 
1930.000000	99.270322 
1929.000000	99.277218 
1928.000000	99.288284 
1927.000000	99.294478 
1926.000000	99.290364 
1925.000000	99.278019 
1924.000000	99.264327 
1923.000000	99.256305 
1922.000000	99.257866 
1921.000000	99.267480 
1920.000000	99.278662 
1919.000000	99.284503 
1918.000000	99.282962 
1917.000000	99.277806 
1916.000000	99.273955 
1915.000000	99.274725 
1914.000000	99.282155 
1913.000000	99.295206 
1912.000000	99.307490 
1911.000000	99.310909 
1910.000000	99.303412 
1909.000000	99.290905 
1908.000000	99.280977 
1907.000000	99.277390 
1906.000000	99.280370 
1905.000000	99.287448 
1904.000000	99.292627 
1903.000000	99.289357 
1902.000000	99.276850 
1901.000000	99.261379 
1900.000000	99.250927 
1899.000000	99.249453 
1898.000000	99.255386 
1897.000000	99.263379 
1896.000000	99.267336 
1895.000000	99.264960 
1894.000000	99.260238 
1893.000000	99.258715 
1892.000000	99.260813 
1891.000000	99.262184 
1890.000000	99.259566 
1889.000000	99.254325 
1888.000000	99.250007 
1887.000000	99.249287 
1886.000000	99.253188 
1885.000000	99.260066 
1884.000000	99.265382 
1883.000000	99.265404 
1882.000000	99.261251 
1881.000000	99.256994 
1880.000000	99.254939 
1879.000000	99.254349 
1878.000000	99.253322 
1877.000000	99.250297 
1876.000000	99.245077 
1875.000000	99.240606 
1874.000000	99.242384 
1873.000000	99.252476 
1872.000000	99.264577 
1871.000000	99.268689 
1870.000000	99.261271 
1869.000000	99.248955 
1868.000000	99.239122 
1867.000000	99.231615 
1866.000000	99.224351 
1865.000000	99.218852 
1864.000000	99.218225 
1863.000000	99.223502 
1862.000000	99.232953 
1861.000000	99.243346 
1860.000000	99.251446 
1859.000000	99.256353 
1858.000000	99.260641 
1857.000000	99.266816 
1856.000000	99.273397 
1855.000000	99.277168 
1854.000000	99.277474 
1853.000000	99.275842 
1852.000000	99.272826 
1851.000000	99.267852 
1850.000000	99.261685 
1849.000000	99.257004 
1848.000000	99.255816 
1847.000000	99.257722 
1846.000000	99.260933 
1845.000000	99.262436 
1844.000000	99.258525 
1843.000000	99.249697 
1842.000000	99.242358 
1841.000000	99.241541 
1840.000000	99.246938 
1839.000000	99.254808 
1838.000000	99.261439 
1837.000000	99.265447 
1836.000000	99.267190 
1835.000000	99.267791 
1834.000000	99.268736 
1833.000000	99.271324 
1832.000000	99.276074 
1831.000000	99.281248 
1830.000000	99.283217 
1829.000000	99.280801 
1828.000000	99.277070 
1827.000000	99.274235 
1826.000000	99.271416 
1825.000000	99.268376 
1824.000000	99.266743 
1823.000000	99.266863 
1822.000000	99.266624 
1821.000000	99.263512 
1820.000000	99.257008 
1819.000000	99.248871 
1818.000000	99.242406 
1817.000000	99.240574 
1816.000000	99.242576 
1815.000000	99.244670 
1814.000000	99.245426 
1813.000000	99.248027 
1812.000000	99.256408 
1811.000000	99.268993 
1810.000000	99.280694 
1809.000000	99.289326 
1808.000000	99.294441 
1807.000000	99.294124 
1806.000000	99.287353 
1805.000000	99.276583 
1804.000000	99.265413 
1803.000000	99.255598 
1802.000000	99.248441 
1801.000000	99.246942 
1800.000000	99.251622 
1799.000000	99.257744 
1798.000000	99.261672 
1797.000000	99.264167 
1796.000000	99.266729 
1795.000000	99.269157 
1794.000000	99.270429 
1793.000000	99.269978 
1792.000000	99.268329 
1791.000000	99.266020 
1790.000000	99.264177 
1789.000000	99.264422 
1788.000000	99.267162 
1787.000000	99.271103 
1786.000000	99.274237 
1785.000000	99.274753 
1784.000000	99.271538 
1783.000000	99.266546 
1782.000000	99.264336 
1781.000000	99.266896 
1780.000000	99.269916 
1779.000000	99.267186 
1778.000000	99.259294 
1777.000000	99.252438 
1776.000000	99.251104 
1775.000000	99.255796 
1774.000000	99.264965 
1773.000000	99.275685 
1772.000000	99.283490 
1771.000000	99.285348 
1770.000000	99.282313 
1769.000000	99.276847 
1768.000000	99.271643 
1767.000000	99.268315 
1766.000000	99.266862 
1765.000000	99.266852 
1764.000000	99.267486 
1763.000000	99.267549 
1762.000000	99.266384 
1761.000000	99.265513 
1760.000000	99.266968 
1759.000000	99.269591 
1758.000000	99.270415 
1757.000000	99.268004 
1756.000000	99.263959 
1755.000000	99.260082 
1754.000000	99.254931 
1753.000000	99.246220 
1752.000000	99.236546 
1751.000000	99.233990 
1750.000000	99.241775 
1749.000000	99.252954 
1748.000000	99.259966 
1747.000000	99.261545 
1746.000000	99.260025 
1745.000000	99.257742 
1744.000000	99.256748 
1743.000000	99.257541 
1742.000000	99.258208 
1741.000000	99.257643 
1740.000000	99.257433 
1739.000000	99.259033 
1738.000000	99.261186 
1737.000000	99.261315 
1736.000000	99.257451 
1735.000000	99.248659 
1734.000000	99.237500 
1733.000000	99.231111 
1732.000000	99.234902 
1731.000000	99.246501 
1730.000000	99.259648 
1729.000000	99.268716 
1728.000000	99.272707 
1727.000000	99.274591 
1726.000000	99.275883 
1725.000000	99.275009 
1724.000000	99.271304 
1723.000000	99.267931 
1722.000000	99.269043 
1721.000000	99.275202 
1720.000000	99.282577 
1719.000000	99.285221 
1718.000000	99.278956 
1717.000000	99.268758 
1716.000000	99.261654 
1715.000000	99.256857 
1714.000000	99.253595 
1713.000000	99.254082 
1712.000000	99.257946 
1711.000000	99.262277 
1710.000000	99.264873 
1709.000000	99.265781 
1708.000000	99.266387 
1707.000000	99.267765 
1706.000000	99.271118 
1705.000000	99.276215 
1704.000000	99.278111 
1703.000000	99.270440 
1702.000000	99.253842 
1701.000000	99.240092 
1700.000000	99.240458 
1699.000000	99.245267 
1698.000000	99.246336 
1697.000000	99.247823 
1696.000000	99.254617 
1695.000000	99.262688 
1694.000000	99.267620 
1693.000000	99.269542 
1692.000000	99.267514 
1691.000000	99.261687 
1690.000000	99.254923 
1689.000000	99.249742 
1688.000000	99.244996 
1687.000000	99.237998 
1686.000000	99.231070 
1685.000000	99.231820 
1684.000000	99.240480 
1683.000000	99.245662 
1682.000000	99.245862 
1681.000000	99.243685 
1680.000000	99.241879 
1679.000000	99.241761 
1678.000000	99.242528 
1677.000000	99.242801 
1676.000000	99.242555 
1675.000000	99.242879 
1674.000000	99.243285 
1673.000000	99.243292 
1672.000000	99.243281 
1671.000000	99.244256 
1670.000000	99.246234 
1669.000000	99.246377 
1668.000000	99.244064 
1667.000000	99.241881 
1666.000000	99.239153 
1665.000000	99.234119 
1664.000000	99.228504 
1663.000000	99.227056 
1662.000000	99.232050 
1661.000000	99.239881 
1660.000000	99.245660 
1659.000000	99.248598 
1658.000000	99.250299 
1657.000000	99.250430 
1656.000000	99.245517 
1655.000000	99.236273 
1654.000000	99.230570 
1653.000000	99.229838 
1652.000000	99.224174 
1651.000000	99.222323 
1650.000000	99.221941 
1649.000000	99.218518 
1648.000000	99.212598 
1647.000000	99.206735 
1646.000000	99.200820 
1645.000000	99.197931 
1644.000000	99.200899 
1643.000000	99.207043 
1642.000000	99.212094 
1641.000000	99.213917 
1640.000000	99.212761 
1639.000000	99.209835 
1638.000000	99.206558 
1637.000000	99.204827 
1636.000000	99.205001 
1635.000000	99.206049 
1634.000000	99.209614 
1633.000000	99.215445 
1632.000000	99.219556 
1631.000000	99.220729 
1630.000000	99.220937 
1629.000000	99.221785 
1628.000000	99.222683 
1627.000000	99.223469 
1626.000000	99.225345 
1625.000000	99.228581 
1624.000000	99.231414 
1623.000000	99.232087 
1622.000000	99.231557 
1621.000000	99.231501 
1620.000000	99.231300 
1619.000000	99.230322 
1618.000000	99.230505 
1617.000000	99.233044 
1616.000000	99.235041 
1615.000000	99.235572 
1614.000000	99.235102 
1613.000000	99.232298 
1612.000000	99.227825 
1611.000000	99.224681 
1610.000000	99.224823 
1609.000000	99.226627 
1608.000000	99.227580 
1607.000000	99.227595 
1606.000000	99.227504 
1605.000000	99.227215 
1604.000000	99.227092 
1603.000000	99.228347 
1602.000000	99.230514 
1601.000000	99.231147 
1600.000000	99.229975 
1599.000000	99.230478 
1598.000000	99.235150 
1597.000000	99.242091 
1596.000000	99.247919 
1595.000000	99.251906 
1594.000000	99.255361 
1593.000000	99.258064 
1592.000000	99.258689 
1591.000000	99.257860 
1590.000000	99.257763 
1589.000000	99.258825 
1588.000000	99.259843 
1587.000000	99.260683 
1586.000000	99.261552 
1585.000000	99.260733 
1584.000000	99.256639 
1583.000000	99.251144 
1582.000000	99.248170 
1581.000000	99.248700 
1580.000000	99.250305 
1579.000000	99.251297 
1578.000000	99.252749 
1577.000000	99.255254 
1576.000000	99.255977 
1575.000000	99.255271 
1574.000000	99.257062 
1573.000000	99.258875 
1572.000000	99.257446 
1571.000000	99.255085 
1570.000000	99.256342 
1569.000000	99.259632 
1568.000000	99.260758 
1567.000000	99.260078 
1566.000000	99.258946 
1565.000000	99.258022 
1564.000000	99.257807 
1563.000000	99.258540 
1562.000000	99.259168 
1561.000000	99.257575 
1560.000000	99.253242 
1559.000000	99.248177 
1558.000000	99.241167 
1557.000000	99.238852 
1556.000000	99.242533 
1555.000000	99.247493 
1554.000000	99.250264 
1553.000000	99.249914 
1552.000000	99.248806 
1551.000000	99.249762 
1550.000000	99.253730 
1549.000000	99.257992 
1548.000000	99.258801 
1547.000000	99.255074 
1546.000000	99.247874 
1545.000000	99.240127 
1544.000000	99.234563 
1543.000000	99.231158 
1542.000000	99.230537 
1541.000000	99.236271 
1540.000000	99.243618 
1539.000000	99.243193 
1538.000000	99.240812 
1537.000000	99.241526 
1536.000000	99.242365 
1535.000000	99.242184 
1534.000000	99.243904 
1533.000000	99.248295 
1532.000000	99.251392 
1531.000000	99.250485 
1530.000000	99.247581 
1529.000000	99.246177 
1528.000000	99.246711 
1527.000000	99.247484 
1526.000000	99.247509 
1525.000000	99.247380 
1524.000000	99.247184 
1523.000000	99.247111 
1522.000000	99.249737 
1521.000000	99.256053 
1520.000000	99.260419 
1519.000000	99.258822 
1518.000000	99.252382 
1517.000000	99.245251 
1516.000000	99.240057 
1515.000000	99.236383 
1514.000000	99.233422 
1513.000000	99.231038 
1512.000000	99.229510 
1511.000000	99.227966 
1510.000000	99.224841 
1509.000000	99.221301 
1508.000000	99.224587 
1507.000000	99.238333 
1506.000000	99.247107 
1505.000000	99.244892 
1504.000000	99.241252 
1503.000000	99.238397 
1502.000000	99.236430 
1501.000000	99.236995 
1500.000000	99.241010 
1499.000000	99.246204 
1498.000000	99.249101 
1497.000000	99.251672 
1496.000000	99.258002 
1495.000000	99.264132 
1494.000000	99.263176 
1493.000000	99.254001 
1492.000000	99.240734 
1491.000000	99.229500 
1490.000000	99.224300 
1489.000000	99.224332 
1488.000000	99.224295 
1487.000000	99.220102 
1486.000000	99.215011 
1485.000000	99.213304 
1484.000000	99.214539 
1483.000000	99.215644 
1482.000000	99.213418 
1481.000000	99.207831 
1480.000000	99.201859 
1479.000000	99.198142 
1478.000000	99.196795 
1477.000000	99.195926 
1476.000000	99.192881 
1475.000000	99.185363 
1474.000000	99.176112 
1473.000000	99.172425 
1472.000000	99.176463 
1471.000000	99.180594 
1470.000000	99.180578 
1469.000000	99.179196 
1468.000000	99.179881 
1467.000000	99.182571 
1466.000000	99.185283 
1465.000000	99.186643 
1464.000000	99.185982 
1463.000000	99.183656 
1462.000000	99.181069 
1461.000000	99.180087 
1460.000000	99.180697 
1459.000000	99.179975 
1458.000000	99.171914 
1457.000000	99.155300 
1456.000000	99.140258 
1455.000000	99.134624 
1454.000000	99.135071 
1453.000000	99.137222 
1452.000000	99.139890 
1451.000000	99.142894 
1450.000000	99.146169 
1449.000000	99.150710 
1448.000000	99.156710 
1447.000000	99.161269 
1446.000000	99.162424 
1445.000000	99.162249 
1444.000000	99.163141 
1443.000000	99.164121 
1442.000000	99.162931 
1441.000000	99.159784 
1440.000000	99.157626 
1439.000000	99.158579 
1438.000000	99.160612 
1437.000000	99.160002 
1436.000000	99.155877 
1435.000000	99.149765 
1434.000000	99.143479 
1433.000000	99.139406 
1432.000000	99.139547 
1431.000000	99.144223 
1430.000000	99.149875 
1429.000000	99.152051 
1428.000000	99.150183 
1427.000000	99.146597 
1426.000000	99.142983 
1425.000000	99.138822 
1424.000000	99.134379 
1423.000000	99.130386 
1422.000000	99.124676 
1421.000000	99.114733 
1420.000000	99.101720 
1419.000000	99.090040 
1418.000000	99.079493 
1417.000000	99.067972 
1416.000000	99.057290 
1415.000000	99.048049 
1414.000000	99.037058 
1413.000000	99.021598 
1412.000000	99.004758 
1411.000000	98.992364 
1410.000000	98.984701 
1409.000000	98.978300 
1408.000000	98.972936 
1407.000000	98.970602 
1406.000000	98.971323 
1405.000000	98.974205 
1404.000000	98.981330 
1403.000000	98.993529 
1402.000000	99.006063 
1401.000000	99.014556 
1400.000000	99.019953 
1399.000000	99.025072 
1398.000000	99.025379 
1397.000000	99.011623 
1396.000000	98.982849 
1395.000000	98.953391 
1394.000000	98.942890 
1393.000000	98.957486 
1392.000000	98.989267 
1391.000000	99.025069 
1390.000000	99.052655 
1389.000000	99.065065 
1388.000000	99.063435 
1387.000000	99.055245 
1386.000000	99.046957 
1385.000000	99.040609 
1384.000000	99.036800 
1383.000000	99.036208 
1382.000000	99.038319 
1381.000000	99.042149 
1380.000000	99.047161 
1379.000000	99.053169 
1378.000000	99.059289 
1377.000000	99.064094 
1376.000000	99.067925 
1375.000000	99.074032 
1374.000000	99.085236 
1373.000000	99.099291 
1372.000000	99.111633 
1371.000000	99.121365 
1370.000000	99.131314 
1369.000000	99.142316 
1368.000000	99.152926 
1367.000000	99.162325 
1366.000000	99.171012 
1365.000000	99.179149 
1364.000000	99.185196 
1363.000000	99.187902 
1362.000000	99.189003 
1361.000000	99.191301 
1360.000000	99.195467 
1359.000000	99.200703 
1358.000000	99.206652 
1357.000000	99.213067 
1356.000000	99.219096 
1355.000000	99.223867 
1354.000000	99.227483 
1353.000000	99.230487 
1352.000000	99.231867 
1351.000000	99.229925 
1350.000000	99.226317 
1349.000000	99.223722 
1348.000000	99.223392 
1347.000000	99.225239 
1346.000000	99.229550 
1345.000000	99.235905 
1344.000000	99.241747 
1343.000000	99.244021 
1342.000000	99.242325 
1341.000000	99.238750 
1340.000000	99.235249 
1339.000000	99.232524 
1338.000000	99.231003 
1337.000000	99.231781 
1336.000000	99.235518 
1335.000000	99.240788 
1334.000000	99.245087 
1333.000000	99.247261 
1332.000000	99.247988 
1331.000000	99.248484 
1330.000000	99.249291 
1329.000000	99.249774 
1328.000000	99.249046 
1327.000000	99.247242 
1326.000000	99.245677 
1325.000000	99.244767 
1324.000000	99.244393 
1323.000000	99.244650 
1322.000000	99.245196 
1321.000000	99.244729 
1320.000000	99.242575 
1319.000000	99.240095 
1318.000000	99.239144 
1317.000000	99.239658 
1316.000000	99.239751 
1315.000000	99.238044 
1314.000000	99.235064 
1313.000000	99.232781 
1312.000000	99.232912 
1311.000000	99.235492 
1310.000000	99.238947 
1309.000000	99.241445 
1308.000000	99.242049 
1307.000000	99.240461 
1306.000000	99.236910 
1305.000000	99.232346 
1304.000000	99.229422 
1303.000000	99.230760 
1302.000000	99.236045 
1301.000000	99.241784 
1300.000000	99.244490 
1299.000000	99.243119 
1298.000000	99.238582 
1297.000000	99.232620 
1296.000000	99.227543 
1295.000000	99.225864 
1294.000000	99.228399 
1293.000000	99.233144 
1292.000000	99.236551 
1291.000000	99.235763 
1290.000000	99.230260 
1289.000000	99.222408 
1288.000000	99.216019 
1287.000000	99.212930 
1286.000000	99.210857 
1285.000000	99.206247 
1284.000000	99.199150 
1283.000000	99.193201 
1282.000000	99.190718 
1281.000000	99.190127 
1280.000000	99.188763 
1279.000000	99.185848 
1278.000000	99.181214 
1277.000000	99.173745 
1276.000000	99.163172 
1275.000000	99.152309 
1274.000000	99.144965 
1273.000000	99.142091 
1272.000000	99.141417 
1271.000000	99.139956 
1270.000000	99.135506 
1269.000000	99.127121 
1268.000000	99.116216 
1267.000000	99.106295 
1266.000000	99.099295 
1265.000000	99.093144 
1264.000000	99.084569 
1263.000000	99.073063 
1262.000000	99.060402 
1261.000000	99.047775 
1260.000000	99.035852 
1259.000000	99.026612 
1258.000000	99.021730 
1257.000000	99.019846 
1256.000000	99.017838 
1255.000000	99.014560 
1254.000000	99.011044 
1253.000000	99.007474 
1252.000000	99.002529 
1251.000000	98.996205 
1250.000000	98.990809 
1249.000000	98.988487 
1248.000000	98.989664 
1247.000000	98.993885 
1246.000000	98.999357 
1245.000000	99.001443 
1244.000000	98.994938 
1243.000000	98.980221 
1242.000000	98.965478 
1241.000000	98.960191 
1240.000000	98.966496 
1239.000000	98.977844 
1238.000000	98.985409 
1237.000000	98.984729 
1236.000000	98.976774 
1235.000000	98.964805 
1234.000000	98.951424 
1233.000000	98.937974 
1232.000000	98.925426 
1231.000000	98.914603 
1230.000000	98.905275 
1229.000000	98.896003 
1228.000000	98.885893 
1227.000000	98.876254 
1226.000000	98.869481 
1225.000000	98.865961 
1224.000000	98.862869 
1223.000000	98.856550 
1222.000000	98.845806 
1221.000000	98.832574 
1220.000000	98.819853 
1219.000000	98.809388 
1218.000000	98.800744 
1217.000000	98.791871 
1216.000000	98.780426 
1215.000000	98.765058 
1214.000000	98.746165 
1213.000000	98.725704 
1212.000000	98.705847 
1211.000000	98.687071 
1210.000000	98.667626 
1209.000000	98.645435 
1208.000000	98.620432 
1207.000000	98.594542 
1206.000000	98.569679 
1205.000000	98.546582 
1204.000000	98.525222 
1203.000000	98.504932 
1202.000000	98.483866 
1201.000000	98.459820 
1200.000000	98.432494 
1199.000000	98.404036 
1198.000000	98.376596 
1197.000000	98.350387 
1196.000000	98.324769 
1195.000000	98.299688 
1194.000000	98.274836 
1193.000000	98.248412 
1192.000000	98.218495 
1191.000000	98.185469 
1190.000000	98.152063 
1189.000000	98.121146 
1188.000000	98.093965 
1187.000000	98.069591 
1186.000000	98.045019 
1185.000000	98.016598 
1184.000000	97.982567 
1183.000000	97.944196 
1182.000000	97.904171 
1181.000000	97.864425 
1180.000000	97.825766 
1179.000000	97.788352 
1178.000000	97.751232 
1177.000000	97.712282 
1176.000000	97.670070 
1175.000000	97.625660 
1174.000000	97.581783 
1173.000000	97.540345 
1172.000000	97.501416 
1171.000000	97.464084 
1170.000000	97.427529 
1169.000000	97.391777 
1168.000000	97.358029 
1167.000000	97.327928 
1166.000000	97.302507 
1165.000000	97.283005 
1164.000000	97.272777 
1163.000000	97.276244 
1162.000000	97.294323 
1161.000000	97.321458 
1160.000000	97.348064 
1159.000000	97.365844 
1158.000000	97.371032 
1157.000000	97.363767 
1156.000000	97.345450 
1155.000000	97.317018 
1154.000000	97.279452 
1153.000000	97.235306 
1152.000000	97.188755 
1151.000000	97.143549 
1150.000000	97.101321 
1149.000000	97.062277 
1148.000000	97.026367 
1147.000000	96.992366 
1146.000000	96.957014 
1145.000000	96.917598 
1144.000000	96.875405 
1143.000000	96.834721 
1142.000000	96.798160 
1141.000000	96.764481 
1140.000000	96.730743 
1139.000000	96.694618 
1138.000000	96.654990 
1137.000000	96.612801 
1136.000000	96.571443 
1135.000000	96.533945 
1134.000000	96.499498 
1133.000000	96.464901 
1132.000000	96.429096 
1131.000000	96.393323 
1130.000000	96.356841 
1129.000000	96.316239 
1128.000000	96.270138 
1127.000000	96.221514 
1126.000000	96.173940 
1125.000000	96.128048 
1124.000000	96.082916 
1123.000000	96.038306 
1122.000000	95.993925 
1121.000000	95.948835 
1120.000000	95.903185 
1119.000000	95.858591 
1118.000000	95.815576 
1117.000000	95.772492 
1116.000000	95.728002 
1115.000000	95.682776 
1114.000000	95.637988 
1113.000000	95.594067 
1112.000000	95.551666 
1111.000000	95.511966 
1110.000000	95.475308 
1109.000000	95.440949 
1108.000000	95.408181 
1107.000000	95.375496 
1106.000000	95.339880 
1105.000000	95.299722 
1104.000000	95.257616 
1103.000000	95.217397 
1102.000000	95.179590 
1101.000000	95.142943 
1100.000000	95.109568 
1099.000000	95.081886 
1098.000000	95.057765 
1097.000000	95.032368 
1096.000000	95.005029 
1095.000000	94.978423 
1094.000000	94.951029 
1093.000000	94.916865 
1092.000000	94.873963 
1091.000000	94.827017 
1090.000000	94.779512 
1089.000000	94.728829 
1088.000000	94.672294 
1087.000000	94.613578 
1086.000000	94.559735 
1085.000000	94.514686 
1084.000000	94.477363 
1083.000000	94.442984 
1082.000000	94.405033 
1081.000000	94.359884 
1080.000000	94.310845 
1079.000000	94.264501 
1078.000000	94.222963 
1077.000000	94.183718 
1076.000000	94.146355 
1075.000000	94.113331 
1074.000000	94.083530 
1073.000000	94.051091 
1072.000000	94.010930 
1071.000000	93.958714 
1070.000000	93.885602 
1069.000000	93.783205 
1068.000000	93.658617 
1067.000000	93.536919 
1066.000000	93.441595 
1065.000000	93.375570 
1064.000000	93.324767 
1063.000000	93.273322 
1062.000000	93.209776 
1061.000000	93.125977 
1060.000000	93.021018 
1059.000000	92.906687 
1058.000000	92.801654 
1057.000000	92.716691 
1056.000000	92.646743 
1055.000000	92.576828 
1054.000000	92.494425 
1053.000000	92.398050 
1052.000000	92.295982 
1051.000000	92.196622 
1050.000000	92.100903 
1049.000000	92.005920 
1048.000000	91.912832 
1047.000000	91.825595 
1046.000000	91.743707 
1045.000000	91.662495 
1044.000000	91.580116 
1043.000000	91.499001 
1042.000000	91.420766 
1041.000000	91.344936 
1040.000000	91.272850 
1039.000000	91.207914 
1038.000000	91.151803 
1037.000000	91.104987 
1036.000000	91.070141 
1035.000000	91.049472 
1034.000000	91.039099 
1033.000000	91.031190 
1032.000000	91.020545 
1031.000000	91.004573 
1030.000000	90.980687 
1029.000000	90.951679 
1028.000000	90.931106 
1027.000000	90.933408 
1026.000000	90.957587 
1025.000000	90.987937 
1024.000000	91.010652 
1023.000000	91.022303 
1022.000000	91.023734 
1021.000000	91.015851 
1020.000000	91.003111 
1019.000000	90.992568 
1018.000000	90.986275 
1017.000000	90.980500 
1016.000000	90.973799 
1015.000000	90.969826 
1014.000000	90.971227 
1013.000000	90.976487 
1012.000000	90.983301 
1011.000000	90.989645 
1010.000000	90.992330 
1009.000000	90.990733 
1008.000000	90.991090 
1007.000000	91.000794 
1006.000000	91.019750 
1005.000000	91.043703 
1004.000000	91.073069 
1003.000000	91.109870 
1002.000000	91.148806 
1001.000000	91.182196 
1000.000000	91.212655 
999.000000	 91.249630 
998.000000	 91.293217 
997.000000	 91.333309 
996.000000	 91.366697 
995.000000	 91.403127 
994.000000	 91.450256 
993.000000	 91.502975 
992.000000	 91.552795 
991.000000	 91.598867 
990.000000	 91.644299 
989.000000	 91.689408 
988.000000	 91.734438 
987.000000	 91.782664 
986.000000	 91.835561 
985.000000	 91.890516 
984.000000	 91.947860 
983.000000	 92.014284 
982.000000	 92.093966 
981.000000	 92.181224 
980.000000	 92.267439 
979.000000	 92.351541 
978.000000	 92.438571 
977.000000	 92.530666 
976.000000	 92.624667 
975.000000	 92.717808 
974.000000	 92.811800 
973.000000	 92.910280 
972.000000	 93.013304 
971.000000	 93.115104 
970.000000	 93.208802 
969.000000	 93.294480 
968.000000	 93.380283 
967.000000	 93.472607 
966.000000	 93.567160 
965.000000	 93.654084 
964.000000	 93.730803 
963.000000	 93.804620 
962.000000	 93.882079 
961.000000	 93.960596 
960.000000	 94.032709 
959.000000	 94.095317 
958.000000	 94.152532 
957.000000	 94.210977 
956.000000	 94.273414 
955.000000	 94.336184 
954.000000	 94.393100 
953.000000	 94.442869 
952.000000	 94.491098 
951.000000	 94.542690 
950.000000	 94.594031 
949.000000	 94.636385 
948.000000	 94.666557 
947.000000	 94.690691 
946.000000	 94.717151 
945.000000	 94.748185 
944.000000	 94.778920 
943.000000	 94.802587 
942.000000	 94.817006 
941.000000	 94.827564 
940.000000	 94.842659 
939.000000	 94.864335 
938.000000	 94.885473 
937.000000	 94.899351 
936.000000	 94.909636 
935.000000	 94.925949 
934.000000	 94.950162 
933.000000	 94.972655 
932.000000	 94.984009 
931.000000	 94.986885 
930.000000	 94.993997 
929.000000	 95.015399 
928.000000	 95.048550 
927.000000	 95.080343 
926.000000	 95.099544 
925.000000	 95.107671 
924.000000	 95.115380 
923.000000	 95.127458 
922.000000	 95.135688 
921.000000	 95.130116 
920.000000	 95.113489 
919.000000	 95.099024 
918.000000	 95.095518 
917.000000	 95.100177 
916.000000	 95.105719 
915.000000	 95.109312 
914.000000	 95.113978 
913.000000	 95.125217 
912.000000	 95.146743 
911.000000	 95.176521 
910.000000	 95.207763 
909.000000	 95.237290 
908.000000	 95.271259 
907.000000	 95.317924 
906.000000	 95.375885 
905.000000	 95.434981 
904.000000	 95.488890 
903.000000	 95.541805 
902.000000	 95.601662 
901.000000	 95.670455 
900.000000	 95.742559 
899.000000	 95.810521 
898.000000	 95.872177 
897.000000	 95.932502 
896.000000	 95.996561 
895.000000	 96.060308 
894.000000	 96.113108 
893.000000	 96.152101 
892.000000	 96.188623 
891.000000	 96.235315 
890.000000	 96.291205 
889.000000	 96.346125 
888.000000	 96.396063 
887.000000	 96.445290 
886.000000	 96.494549 
885.000000	 96.536738 
884.000000	 96.567023 
883.000000	 96.590274 
882.000000	 96.614591 
881.000000	 96.642014 
880.000000	 96.669643 
879.000000	 96.696931 
878.000000	 96.727726 
877.000000	 96.765173 
876.000000	 96.806272 
875.000000	 96.842239 
874.000000	 96.865853 
873.000000	 96.879810 
872.000000	 96.895921 
871.000000	 96.923668 
870.000000	 96.960728 
869.000000	 96.997041 
868.000000	 97.026574 
867.000000	 97.052164 
866.000000	 97.080146 
865.000000	 97.113488 
864.000000	 97.150250 
863.000000	 97.186582 
862.000000	 97.220806 
861.000000	 97.254765 
860.000000	 97.290227 
859.000000	 97.324801 
858.000000	 97.354903 
857.000000	 97.382833 
856.000000	 97.415241 
855.000000	 97.451919 
854.000000	 97.481773 
853.000000	 97.495344 
852.000000	 97.497740 
851.000000	 97.503241 
850.000000	 97.518870 
849.000000	 97.538601 
848.000000	 97.552953 
847.000000	 97.559232 
846.000000	 97.562319 
845.000000	 97.569404 
844.000000	 97.584252 
843.000000	 97.603141 
842.000000	 97.615759 
841.000000	 97.612926 
840.000000	 97.594714 
839.000000	 97.570531 
838.000000	 97.551425 
837.000000	 97.541944 
836.000000	 97.537689 
835.000000	 97.530491 
834.000000	 97.518113 
833.000000	 97.507944 
832.000000	 97.506641 
831.000000	 97.507232 
830.000000	 97.495532 
829.000000	 97.472832 
828.000000	 97.461553 
827.000000	 97.478700 
826.000000	 97.511273 
825.000000	 97.531440 
824.000000	 97.531758 
823.000000	 97.530069 
822.000000	 97.541440 
821.000000	 97.561240 
820.000000	 97.576762 
819.000000	 97.581618 
818.000000	 97.576715 
817.000000	 97.566851 
816.000000	 97.557698 
815.000000	 97.548468 
814.000000	 97.526839 
813.000000	 97.479084 
812.000000	 97.406583 
811.000000	 97.324582 
810.000000	 97.242091 
809.000000	 97.149910 
808.000000	 97.031903 
807.000000	 96.881898 
806.000000	 96.706439 
805.000000	 96.517210 
804.000000	 96.326202 
803.000000	 96.144580 
802.000000	 95.981212 
801.000000	 95.843836 
800.000000	 95.741834 
799.000000	 95.681975 
798.000000	 95.659813 
797.000000	 95.662062 
796.000000	 95.679760 
795.000000	 95.713131 
794.000000	 95.762698 
793.000000	 95.822315 
792.000000	 95.881777 
791.000000	 95.929607 
790.000000	 95.953890 
789.000000	 95.949507 
788.000000	 95.926272 
787.000000	 95.900965 
786.000000	 95.877687 
785.000000	 95.843779 
784.000000	 95.789203 
783.000000	 95.722012 
782.000000	 95.659025 
781.000000	 95.608275 
780.000000	 95.567752 
779.000000	 95.536059 
778.000000	 95.516697 
777.000000	 95.514383 
776.000000	 95.532386 
775.000000	 95.571011 
774.000000	 95.624598 
773.000000	 95.682792 
772.000000	 95.738223 
771.000000	 95.790400 
770.000000	 95.839507 
769.000000	 95.879950 
768.000000	 95.904382 
767.000000	 95.913151 
766.000000	 95.916423 
765.000000	 95.925621 
764.000000	 95.942705 
763.000000	 95.957627 
762.000000	 95.958381 
761.000000	 95.946150 
760.000000	 95.938038 
759.000000	 95.949839 
758.000000	 95.977229 
757.000000	 96.000676 
756.000000	 96.009449 
755.000000	 96.013666 
754.000000	 96.029880 
753.000000	 96.060973 
752.000000	 96.095307 
751.000000	 96.121171 
750.000000	 96.136659 
749.000000	 96.147449 
748.000000	 96.159864 
747.000000	 96.176696 
746.000000	 96.197292 
745.000000	 96.220214 
744.000000	 96.245065 
743.000000	 96.271490 
742.000000	 96.297990 
741.000000	 96.323902 
740.000000	 96.351859 
739.000000	 96.385726 
738.000000	 96.425719 
737.000000	 96.467060 
736.000000	 96.503506 
735.000000	 96.532164 
734.000000	 96.556795 
733.000000	 96.586466 
732.000000	 96.627036 
731.000000	 96.671235 
730.000000	 96.700978 
729.000000	 96.703730 
728.000000	 96.686203 
727.000000	 96.667886 
726.000000	 96.661560 
725.000000	 96.666431 
724.000000	 96.678038 
723.000000	 96.696071 
722.000000	 96.720773 
721.000000	 96.748021 
720.000000	 96.770811 
719.000000	 96.782588 
718.000000	 96.780017 
717.000000	 96.768330 
716.000000	 96.762675 
715.000000	 96.776253 
714.000000	 96.804492 
713.000000	 96.827138 
712.000000	 96.829759 
711.000000	 96.817625 
710.000000	 96.806059 
709.000000	 96.802139 
708.000000	 96.800385 
707.000000	 96.793240 
706.000000	 96.778919 
705.000000	 96.761787 
704.000000	 96.747147 
703.000000	 96.731642 
702.000000	 96.700954 
701.000000	 96.642117 
700.000000	 96.556027 
699.000000	 96.454998 
698.000000	 96.347385 
697.000000	 96.234095 
696.000000	 96.123143 
695.000000	 96.035354 
694.000000	 95.992430 
693.000000	 96.001829 
692.000000	 96.052933 
691.000000	 96.124251 
690.000000	 96.191109 
689.000000	 96.237349 
688.000000	 96.266574 
687.000000	 96.295828 
686.000000	 96.335963 
685.000000	 96.380702 
684.000000	 96.415412 
683.000000	 96.433357 
682.000000	 96.440837 
681.000000	 96.450951 
680.000000	 96.473974 
679.000000	 96.510628 
678.000000	 96.550055 
677.000000	 96.573033 
676.000000	 96.571177 
675.000000	 96.559511 
674.000000	 96.559346 
673.000000	 96.576724 
672.000000	 96.607526 
671.000000	 96.653661 
670.000000	 96.723817 
669.000000	 96.806397 
668.000000	 96.837420 
667.000000	 96.792317 
666.000000	 96.747960 
665.000000	 96.731377 
664.000000	 96.724529 
663.000000	 96.716758 
662.000000	 96.710881 
661.000000	 96.712119 
660.000000	 96.721504 
659.000000	 96.732732 
658.000000	 96.729790 
657.000000	 96.695443 
656.000000	 96.636091 
655.000000	 96.581266 
654.000000	 96.543342 
653.000000	 96.502834 
652.000000	 96.449259 
651.000000	 96.406234 
650.000000	 96.399259 

