4000.000000	99.476631 
3999.000000	99.476720 
3998.000000	99.476979 
3997.000000	99.477231 
3996.000000	99.477226 
3995.000000	99.476862 
3994.000000	99.476321 
3993.000000	99.475982 
3992.000000	99.476061 
3991.000000	99.476417 
3990.000000	99.476660 
3989.000000	99.476529 
3988.000000	99.476156 
3987.000000	99.475956 
3986.000000	99.476214 
3985.000000	99.476808 
3984.000000	99.477309 
3983.000000	99.477352 
3982.000000	99.476883 
3981.000000	99.476128 
3980.000000	99.475386 
3979.000000	99.474810 
3978.000000	99.474431 
3977.000000	99.474312 
3976.000000	99.474568 
3975.000000	99.475244 
3974.000000	99.476205 
3973.000000	99.477118 
3972.000000	99.477647 
3971.000000	99.477680 
3970.000000	99.477336 
3969.000000	99.476859 
3968.000000	99.476490 
3967.000000	99.476348 
3966.000000	99.476400 
3965.000000	99.476542 
3964.000000	99.476639 
3963.000000	99.476521 
3962.000000	99.476038 
3961.000000	99.475191 
3960.000000	99.474191 
3959.000000	99.473381 
3958.000000	99.472996 
3957.000000	99.472999 
3956.000000	99.473171 
3955.000000	99.473310 
3954.000000	99.473368 
3953.000000	99.473393 
3952.000000	99.473420 
3951.000000	99.473453 
3950.000000	99.473494 
3949.000000	99.473534 
3948.000000	99.473538 
3947.000000	99.473443 
3946.000000	99.473227 
3945.000000	99.472941 
3944.000000	99.472670 
3943.000000	99.472440 
3942.000000	99.472218 
3941.000000	99.472002 
3940.000000	99.471815 
3939.000000	99.471581 
3938.000000	99.471159 
3937.000000	99.470506 
3936.000000	99.469849 
3935.000000	99.469582 
3934.000000	99.469942 
3933.000000	99.470805 
3932.000000	99.471700 
3931.000000	99.472141 
3930.000000	99.471930 
3929.000000	99.471221 
3928.000000	99.470445 
3927.000000	99.470046 
3926.000000	99.470194 
3925.000000	99.470642 
3924.000000	99.470881 
3923.000000	99.470644 
3922.000000	99.470117 
3921.000000	99.469729 
3920.000000	99.469783 
3919.000000	99.470257 
3918.000000	99.470864 
3917.000000	99.471272 
3916.000000	99.471344 
3915.000000	99.471215 
3914.000000	99.471161 
3913.000000	99.471358 
3912.000000	99.471760 
3911.000000	99.472208 
3910.000000	99.472619 
3909.000000	99.473002 
3908.000000	99.473347 
3907.000000	99.473482 
3906.000000	99.473076 
3905.000000	99.471821 
3904.000000	99.469675 
3903.000000	99.467168 
3902.000000	99.465282 
3901.000000	99.464669 
3900.000000	99.465224 
3899.000000	99.466236 
3898.000000	99.467002 
3897.000000	99.467346 
3896.000000	99.467431 
3895.000000	99.467458 
3894.000000	99.467557 
3893.000000	99.467695 
3892.000000	99.467635 
3891.000000	99.467133 
3890.000000	99.466306 
3889.000000	99.465529 
3888.000000	99.465108 
3887.000000	99.465175 
3886.000000	99.465588 
3885.000000	99.465985 
3884.000000	99.466162 
3883.000000	99.466255 
3882.000000	99.466473 
3881.000000	99.466791 
3880.000000	99.466967 
3879.000000	99.466898 
3878.000000	99.466765 
3877.000000	99.466803 
3876.000000	99.467097 
3875.000000	99.467496 
3874.000000	99.467698 
3873.000000	99.467571 
3872.000000	99.467259 
3871.000000	99.467039 
3870.000000	99.467044 
3869.000000	99.467224 
3868.000000	99.467490 
3867.000000	99.467794 
3866.000000	99.468118 
3865.000000	99.468442 
3864.000000	99.468730 
3863.000000	99.468976 
3862.000000	99.469223 
3861.000000	99.469526 
3860.000000	99.469904 
3859.000000	99.470321 
3858.000000	99.470696 
3857.000000	99.470960 
3856.000000	99.471088 
3855.000000	99.471185 
3854.000000	99.471414 
3853.000000	99.471712 
3852.000000	99.471966 
3851.000000	99.472264 
3850.000000	99.472652 
3849.000000	99.473093 
3848.000000	99.473507 
3847.000000	99.473819 
3846.000000	99.474002 
3845.000000	99.474077 
3844.000000	99.474096 
3843.000000	99.474150 
3842.000000	99.474324 
3841.000000	99.474618 
3840.000000	99.474924 
3839.000000	99.475056 
3838.000000	99.474873 
3837.000000	99.474421 
3836.000000	99.473926 
3835.000000	99.473666 
3834.000000	99.473828 
3833.000000	99.474422 
3832.000000	99.475254 
3831.000000	99.476019 
3830.000000	99.476491 
3829.000000	99.476647 
3828.000000	99.476588 
3827.000000	99.476394 
3826.000000	99.476080 
3825.000000	99.475632 
3824.000000	99.475130 
3823.000000	99.474825 
3822.000000	99.474919 
3821.000000	99.475162 
3820.000000	99.475216 
3819.000000	99.475296 
3818.000000	99.475735 
3817.000000	99.476556 
3816.000000	99.477388 
3815.000000	99.477762 
3814.000000	99.477567 
3813.000000	99.477060 
3812.000000	99.476583 
3811.000000	99.476321 
3810.000000	99.476261 
3809.000000	99.476328 
3808.000000	99.476465 
3807.000000	99.476567 
3806.000000	99.476500 
3805.000000	99.476273 
3804.000000	99.476078 
3803.000000	99.476200 
3802.000000	99.476712 
3801.000000	99.477188 
3800.000000	99.477235 
3799.000000	99.476933 
3798.000000	99.476543 
3797.000000	99.476204 
3796.000000	99.475848 
3795.000000	99.475368 
3794.000000	99.474769 
3793.000000	99.474149 
3792.000000	99.473640 
3791.000000	99.473364 
3790.000000	99.473368 
3789.000000	99.473646 
3788.000000	99.474215 
3787.000000	99.475050 
3786.000000	99.475961 
3785.000000	99.476569 
3784.000000	99.476564 
3783.000000	99.475961 
3782.000000	99.475106 
3781.000000	99.474479 
3780.000000	99.474307 
3779.000000	99.474341 
3778.000000	99.474245 
3777.000000	99.473896 
3776.000000	99.473165 
3775.000000	99.471952 
3774.000000	99.470444 
3773.000000	99.469214 
3772.000000	99.468996 
3771.000000	99.469981 
3770.000000	99.471248 
3769.000000	99.471532 
3768.000000	99.470745 
3767.000000	99.469805 
3766.000000	99.469364 
3765.000000	99.469216 
3764.000000	99.468786 
3763.000000	99.467909 
3762.000000	99.467084 
3761.000000	99.467099 
3760.000000	99.468312 
3759.000000	99.470281 
3758.000000	99.472453 
3757.000000	99.474707 
3756.000000	99.476894 
3755.000000	99.478589 
3754.000000	99.479385 
3753.000000	99.479315 
3752.000000	99.478647 
3751.000000	99.477080 
3750.000000	99.474612 
3749.000000	99.472575 
3748.000000	99.471948 
3747.000000	99.472287 
3746.000000	99.472664 
3745.000000	99.472467 
3744.000000	99.471553 
3743.000000	99.470876 
3742.000000	99.471265 
3741.000000	99.472016 
3740.000000	99.471802 
3739.000000	99.469591 
3738.000000	99.465947 
3737.000000	99.463395 
3736.000000	99.463834 
3735.000000	99.465961 
3734.000000	99.466714 
3733.000000	99.465010 
3732.000000	99.462179 
3731.000000	99.459830 
3730.000000	99.458338 
3729.000000	99.457326 
3728.000000	99.457010 
3727.000000	99.458048 
3726.000000	99.460074 
3725.000000	99.461618 
3724.000000	99.461673 
3723.000000	99.460702 
3722.000000	99.459686 
3721.000000	99.459098 
3720.000000	99.458423 
3719.000000	99.456338 
3718.000000	99.451948 
3717.000000	99.445496 
3716.000000	99.438158 
3715.000000	99.431180 
3714.000000	99.425400 
3713.000000	99.421670 
3712.000000	99.420327 
3711.000000	99.420492 
3710.000000	99.420755 
3709.000000	99.420240 
3708.000000	99.418740 
3707.000000	99.416341 
3706.000000	99.413332 
3705.000000	99.410142 
3704.000000	99.407160 
3703.000000	99.404237 
3702.000000	99.400379 
3701.000000	99.394666 
3700.000000	99.387554 
3699.000000	99.380518 
3698.000000	99.374704 
3697.000000	99.370303 
3696.000000	99.366745 
3695.000000	99.363451 
3694.000000	99.360601 
3693.000000	99.359021 
3692.000000	99.359082 
3691.000000	99.359813 
3690.000000	99.359020 
3689.000000	99.355241 
3688.000000	99.349441 
3687.000000	99.343777 
3686.000000	99.339262 
3685.000000	99.335790 
3684.000000	99.333041 
3683.000000	99.330724 
3682.000000	99.328551 
3681.000000	99.325997 
3680.000000	99.322278 
3679.000000	99.316809 
3678.000000	99.310067 
3677.000000	99.304205 
3676.000000	99.301119 
3675.000000	99.299485 
3674.000000	99.296937 
3673.000000	99.293141 
3672.000000	99.288947 
3671.000000	99.285912 
3670.000000	99.284712 
3669.000000	99.284288 
3668.000000	99.284051 
3667.000000	99.284376 
3666.000000	99.285117 
3665.000000	99.285371 
3664.000000	99.284155 
3663.000000	99.280997 
3662.000000	99.275977 
3661.000000	99.269234 
3660.000000	99.260961 
3659.000000	99.252072 
3658.000000	99.244555 
3657.000000	99.240206 
3656.000000	99.238548 
3655.000000	99.237352 
3654.000000	99.235000 
3653.000000	99.231436 
3652.000000	99.227490 
3651.000000	99.224115 
3650.000000	99.221506 
3649.000000	99.219393 
3648.000000	99.218183 
3647.000000	99.217985 
3646.000000	99.217797 
3645.000000	99.216891 
3644.000000	99.215845 
3643.000000	99.215766 
3642.000000	99.217314 
3641.000000	99.219925 
3640.000000	99.222081 
3639.000000	99.222144 
3638.000000	99.219249 
3637.000000	99.214128 
3636.000000	99.208856 
3635.000000	99.205232 
3634.000000	99.202930 
3633.000000	99.199737 
3632.000000	99.193926 
3631.000000	99.186404 
3630.000000	99.180652 
3629.000000	99.178329 
3628.000000	99.177021 
3627.000000	99.175496 
3626.000000	99.174802 
3625.000000	99.175558 
3624.000000	99.177506 
3623.000000	99.180260 
3622.000000	99.184087 
3621.000000	99.189876 
3620.000000	99.196981 
3619.000000	99.201784 
3618.000000	99.201245 
3617.000000	99.196879 
3616.000000	99.192950 
3615.000000	99.192445 
3614.000000	99.194618 
3613.000000	99.195902 
3612.000000	99.194050 
3611.000000	99.190793 
3610.000000	99.189729 
3609.000000	99.192712 
3608.000000	99.198166 
3607.000000	99.203167 
3606.000000	99.206855 
3605.000000	99.210220 
3604.000000	99.214014 
3603.000000	99.218055 
3602.000000	99.221937 
3601.000000	99.225688 
3600.000000	99.228984 
3599.000000	99.230543 
3598.000000	99.229147 
3597.000000	99.225325 
3596.000000	99.221420 
3595.000000	99.219943 
3594.000000	99.221244 
3593.000000	99.223551 
3592.000000	99.224899 
3591.000000	99.224672 
3590.000000	99.223924 
3589.000000	99.224468 
3588.000000	99.226627 
3587.000000	99.228187 
3586.000000	99.227369 
3585.000000	99.224984 
3584.000000	99.223066 
3583.000000	99.222727 
3582.000000	99.223570 
3581.000000	99.224287 
3580.000000	99.223806 
3579.000000	99.222079 
3578.000000	99.219834 
3577.000000	99.217970 
3576.000000	99.217050 
3575.000000	99.217178 
3574.000000	99.217941 
3573.000000	99.218557 
3572.000000	99.218365 
3571.000000	99.217309 
3570.000000	99.215882 
3569.000000	99.214760 
3568.000000	99.214203 
3567.000000	99.213646 
3566.000000	99.212481 
3565.000000	99.211011 
3564.000000	99.209980 
3563.000000	99.209797 
3562.000000	99.210290 
3561.000000	99.210772 
3560.000000	99.210505 
3559.000000	99.209272 
3558.000000	99.207486 
3557.000000	99.205761 
3556.000000	99.204442 
3555.000000	99.203474 
3554.000000	99.202572 
3553.000000	99.201362 
3552.000000	99.199600 
3551.000000	99.197425 
3550.000000	99.195291 
3549.000000	99.193605 
3548.000000	99.192496 
3547.000000	99.191792 
3546.000000	99.191155 
3545.000000	99.190277 
3544.000000	99.189089 
3543.000000	99.187807 
3542.000000	99.186773 
3541.000000	99.186152 
3540.000000	99.185808 
3539.000000	99.185388 
3538.000000	99.184633 
3537.000000	99.183524 
3536.000000	99.182203 
3535.000000	99.180852 
3534.000000	99.179594 
3533.000000	99.178495 
3532.000000	99.177573 
3531.000000	99.176806 
3530.000000	99.176106 
3529.000000	99.175326 
3528.000000	99.174348 
3527.000000	99.173193 
3526.000000	99.172007 
3525.000000	99.170921 
3524.000000	99.169915 
3523.000000	99.168875 
3522.000000	99.167743 
3521.000000	99.166576 
3520.000000	99.165467 
3519.000000	99.164447 
3518.000000	99.163483 
3517.000000	99.162532 
3516.000000	99.161560 
3515.000000	99.160548 
3514.000000	99.159493 
3513.000000	99.158409 
3512.000000	99.157331 
3511.000000	99.156288 
3510.000000	99.155289 
3509.000000	99.154324 
3508.000000	99.153376 
3507.000000	99.152438 
3506.000000	99.151510 
3505.000000	99.150583 
3504.000000	99.149633 
3503.000000	99.148637 
3502.000000	99.147606 
3501.000000	99.146602 
3500.000000	99.145680 
3499.000000	99.144830 
3498.000000	99.143938 
3497.000000	99.142890 
3496.000000	99.141669 
3495.000000	99.140374 
3494.000000	99.139120 
3493.000000	99.137945 
3492.000000	99.136833 
3491.000000	99.135753 
3490.000000	99.134695 
3489.000000	99.133683 
3488.000000	99.132739 
3487.000000	99.131847 
3486.000000	99.130947 
3485.000000	99.130011 
3484.000000	99.129082 
3483.000000	99.128187 
3482.000000	99.127227 
3481.000000	99.126050 
3480.000000	99.124637 
3479.000000	99.123174 
3478.000000	99.121859 
3477.000000	99.120697 
3476.000000	99.119567 
3475.000000	99.118451 
3474.000000	99.117498 
3473.000000	99.116769 
3472.000000	99.116048 
3471.000000	99.115087 
3470.000000	99.113990 
3469.000000	99.113118 
3468.000000	99.112587 
3467.000000	99.112026 
3466.000000	99.110995 
3465.000000	99.109478 
3464.000000	99.107864 
3463.000000	99.106489 
3462.000000	99.105342 
3461.000000	99.104219 
3460.000000	99.102995 
3459.000000	99.101695 
3458.000000	99.100398 
3457.000000	99.099142 
3456.000000	99.097895 
3455.000000	99.096635 
3454.000000	99.095439 
3453.000000	99.094419 
3452.000000	99.093508 
3451.000000	99.092455 
3450.000000	99.091123 
3449.000000	99.089680 
3448.000000	99.088364 
3447.000000	99.087122 
3446.000000	99.085694 
3445.000000	99.084046 
3444.000000	99.082505 
3443.000000	99.081386 
3442.000000	99.080597 
3441.000000	99.079697 
3440.000000	99.078383 
3439.000000	99.076792 
3438.000000	99.075268 
3437.000000	99.073896 
3436.000000	99.072443 
3435.000000	99.070813 
3434.000000	99.069363 
3433.000000	99.068561 
3432.000000	99.068439 
3431.000000	99.068457 
3430.000000	99.067976 
3429.000000	99.066872 
3428.000000	99.065549 
3427.000000	99.064454 
3426.000000	99.063614 
3425.000000	99.062753 
3424.000000	99.061690 
3423.000000	99.060510 
3422.000000	99.059380 
3421.000000	99.058355 
3420.000000	99.057421 
3419.000000	99.056635 
3418.000000	99.056087 
3417.000000	99.055739 
3416.000000	99.055382 
3415.000000	99.054800 
3414.000000	99.053930 
3413.000000	99.052844 
3412.000000	99.051660 
3411.000000	99.050544 
3410.000000	99.049719 
3409.000000	99.049292 
3408.000000	99.049027 
3407.000000	99.048426 
3406.000000	99.047221 
3405.000000	99.045708 
3404.000000	99.044497 
3403.000000	99.043917 
3402.000000	99.043786 
3401.000000	99.043753 
3400.000000	99.043707 
3399.000000	99.043771 
3398.000000	99.044017 
3397.000000	99.044323 
3396.000000	99.044448 
3395.000000	99.044150 
3394.000000	99.043246 
3393.000000	99.041739 
3392.000000	99.039964 
3391.000000	99.038540 
3390.000000	99.038039 
3389.000000	99.038658 
3388.000000	99.040139 
3387.000000	99.041888 
3386.000000	99.043291 
3385.000000	99.044078 
3384.000000	99.044375 
3383.000000	99.044429 
3382.000000	99.044296 
3381.000000	99.043842 
3380.000000	99.043053 
3379.000000	99.042237 
3378.000000	99.041850 
3377.000000	99.042080 
3376.000000	99.042721 
3375.000000	99.043377 
3374.000000	99.043813 
3373.000000	99.044077 
3372.000000	99.044335 
3371.000000	99.044653 
3370.000000	99.044945 
3369.000000	99.045100 
3368.000000	99.045117 
3367.000000	99.045133 
3366.000000	99.045307 
3365.000000	99.045674 
3364.000000	99.046123 
3363.000000	99.046503 
3362.000000	99.046751 
3361.000000	99.046914 
3360.000000	99.047065 
3359.000000	99.047237 
3358.000000	99.047438 
3357.000000	99.047690 
3356.000000	99.048020 
3355.000000	99.048417 
3354.000000	99.048821 
3353.000000	99.049170 
3352.000000	99.049458 
3351.000000	99.049735 
3350.000000	99.050071 
3349.000000	99.050496 
3348.000000	99.050987 
3347.000000	99.051500 
3346.000000	99.051987 
3345.000000	99.052412 
3344.000000	99.052758 
3343.000000	99.053056 
3342.000000	99.053378 
3341.000000	99.053766 
3340.000000	99.054176 
3339.000000	99.054521 
3338.000000	99.054807 
3337.000000	99.055175 
3336.000000	99.055752 
3335.000000	99.056499 
3334.000000	99.057260 
3333.000000	99.057953 
3332.000000	99.058632 
3331.000000	99.059352 
3330.000000	99.060034 
3329.000000	99.060536 
3328.000000	99.060823 
3327.000000	99.061037 
3326.000000	99.061365 
3325.000000	99.061856 
3324.000000	99.062374 
3323.000000	99.062753 
3322.000000	99.062988 
3321.000000	99.063279 
3320.000000	99.063840 
3319.000000	99.064718 
3318.000000	99.065789 
3317.000000	99.066857 
3316.000000	99.067760 
3315.000000	99.068422 
3314.000000	99.068880 
3313.000000	99.069287 
3312.000000	99.069808 
3311.000000	99.070463 
3310.000000	99.071112 
3309.000000	99.071606 
3308.000000	99.071948 
3307.000000	99.072241 
3306.000000	99.072581 
3305.000000	99.072996 
3304.000000	99.073480 
3303.000000	99.074022 
3302.000000	99.074592 
3301.000000	99.075131 
3300.000000	99.075591 
3299.000000	99.075974 
3298.000000	99.076327 
3297.000000	99.076704 
3296.000000	99.077123 
3295.000000	99.077565 
3294.000000	99.077996 
3293.000000	99.078397 
3292.000000	99.078782 
3291.000000	99.079177 
3290.000000	99.079597 
3289.000000	99.080036 
3288.000000	99.080478 
3287.000000	99.080922 
3286.000000	99.081379 
3285.000000	99.081861 
3284.000000	99.082360 
3283.000000	99.082855 
3282.000000	99.083332 
3281.000000	99.083797 
3280.000000	99.084281 
3279.000000	99.084814 
3278.000000	99.085403 
3277.000000	99.086030 
3276.000000	99.086642 
3275.000000	99.087177 
3274.000000	99.087584 
3273.000000	99.087894 
3272.000000	99.088240 
3271.000000	99.088760 
3270.000000	99.089522 
3269.000000	99.090471 
3268.000000	99.091444 
3267.000000	99.092273 
3266.000000	99.092891 
3265.000000	99.093386 
3264.000000	99.093957 
3263.000000	99.094772 
3262.000000	99.095866 
3261.000000	99.097113 
3260.000000	99.098294 
3259.000000	99.099208 
3258.000000	99.099798 
3257.000000	99.100213 
3256.000000	99.100723 
3255.000000	99.101498 
3254.000000	99.102511 
3253.000000	99.103657 
3252.000000	99.104950 
3251.000000	99.106539 
3250.000000	99.108493 
3249.000000	99.110594 
3248.000000	99.112395 
3247.000000	99.113533 
3246.000000	99.113994 
3245.000000	99.114118 
3244.000000	99.114319 
3243.000000	99.114778 
3242.000000	99.115417 
3241.000000	99.116096 
3240.000000	99.116846 
3239.000000	99.117951 
3238.000000	99.119811 
3237.000000	99.122626 
3236.000000	99.126043 
3235.000000	99.129148 
3234.000000	99.131066 
3233.000000	99.131618 
3232.000000	99.131424 
3231.000000	99.131367 
3230.000000	99.131847 
3229.000000	99.132666 
3228.000000	99.133424 
3227.000000	99.133870 
3226.000000	99.134003 
3225.000000	99.134058 
3224.000000	99.134399 
3223.000000	99.135282 
3222.000000	99.136622 
3221.000000	99.138029 
3220.000000	99.139111 
3219.000000	99.139755 
3218.000000	99.140184 
3217.000000	99.140836 
3216.000000	99.142168 
3215.000000	99.144382 
3214.000000	99.147215 
3213.000000	99.149970 
3212.000000	99.151940 
3211.000000	99.152852 
3210.000000	99.152921 
3209.000000	99.152626 
3208.000000	99.152442 
3207.000000	99.152690 
3206.000000	99.153442 
3205.000000	99.154471 
3204.000000	99.155429 
3203.000000	99.156175 
3202.000000	99.156869 
3201.000000	99.157676 
3200.000000	99.158536 
3199.000000	99.159311 
3198.000000	99.160067 
3197.000000	99.161043 
3196.000000	99.162368 
3195.000000	99.163953 
3194.000000	99.165648 
3193.000000	99.167373 
3192.000000	99.169055 
3191.000000	99.170551 
3190.000000	99.171681 
3189.000000	99.172299 
3188.000000	99.172352 
3187.000000	99.172041 
3186.000000	99.171864 
3185.000000	99.172261 
3184.000000	99.173204 
3183.000000	99.174286 
3182.000000	99.175338 
3181.000000	99.176727 
3180.000000	99.178876 
3179.000000	99.181617 
3178.000000	99.184157 
3177.000000	99.185687 
3176.000000	99.186003 
3175.000000	99.185702 
3174.000000	99.185843 
3173.000000	99.187083 
3172.000000	99.188937 
3171.000000	99.190110 
3170.000000	99.189878 
3169.000000	99.188971 
3168.000000	99.188848 
3167.000000	99.190119 
3166.000000	99.192074 
3165.000000	99.193680 
3164.000000	99.194693 
3163.000000	99.195685 
3162.000000	99.197292 
3161.000000	99.199647 
3160.000000	99.202345 
3159.000000	99.204714 
3158.000000	99.206156 
3157.000000	99.206382 
3156.000000	99.205430 
3155.000000	99.203595 
3154.000000	99.201362 
3153.000000	99.199257 
3152.000000	99.197557 
3151.000000	99.196261 
3150.000000	99.195455 
3149.000000	99.195575 
3148.000000	99.197132 
3147.000000	99.200179 
3146.000000	99.204137 
3145.000000	99.208079 
3144.000000	99.211149 
3143.000000	99.212932 
3142.000000	99.213654 
3141.000000	99.213976 
3140.000000	99.214369 
3139.000000	99.214734 
3138.000000	99.214766 
3137.000000	99.214557 
3136.000000	99.214650 
3135.000000	99.215587 
3134.000000	99.217546 
3133.000000	99.220237 
3132.000000	99.222923 
3131.000000	99.224724 
3130.000000	99.225280 
3129.000000	99.225150 
3128.000000	99.225324 
3127.000000	99.226288 
3126.000000	99.227661 
3125.000000	99.228667 
3124.000000	99.228791 
3123.000000	99.228049 
3122.000000	99.226961 
3121.000000	99.226297 
3120.000000	99.226571 
3119.000000	99.227670 
3118.000000	99.229030 
3117.000000	99.230196 
3116.000000	99.231190 
3115.000000	99.232320 
3114.000000	99.233760 
3113.000000	99.235303 
3112.000000	99.236447 
3111.000000	99.236804 
3110.000000	99.236497 
3109.000000	99.236156 
3108.000000	99.236385 
3107.000000	99.237223 
3106.000000	99.238210 
3105.000000	99.238890 
3104.000000	99.239204 
3103.000000	99.239441 
3102.000000	99.239960 
3101.000000	99.240972 
3100.000000	99.242456 
3099.000000	99.244176 
3098.000000	99.245814 
3097.000000	99.247142 
3096.000000	99.248039 
3095.000000	99.248432 
3094.000000	99.248347 
3093.000000	99.247960 
3092.000000	99.247523 
3091.000000	99.247232 
3090.000000	99.247241 
3089.000000	99.247741 
3088.000000	99.248853 
3087.000000	99.250357 
3086.000000	99.251718 
3085.000000	99.252529 
3084.000000	99.252817 
3083.000000	99.252794 
3082.000000	99.252490 
3081.000000	99.251851 
3080.000000	99.251081 
3079.000000	99.250603 
3078.000000	99.250728 
3077.000000	99.251549 
3076.000000	99.253080 
3075.000000	99.255208 
3074.000000	99.257416 
3073.000000	99.258934 
3072.000000	99.259378 
3071.000000	99.259099 
3070.000000	99.258720 
3069.000000	99.258404 
3068.000000	99.257764 
3067.000000	99.256564 
3066.000000	99.255412 
3065.000000	99.255525 
3064.000000	99.257510 
3063.000000	99.260326 
3062.000000	99.261815 
3061.000000	99.260523 
3060.000000	99.256906 
3059.000000	99.252781 
3058.000000	99.249960 
3057.000000	99.249600 
3056.000000	99.252189 
3055.000000	99.257196 
3054.000000	99.262694 
3053.000000	99.266237 
3052.000000	99.266563 
3051.000000	99.264267 
3050.000000	99.260956 
3049.000000	99.258061 
3048.000000	99.256289 
3047.000000	99.255440 
3046.000000	99.254363 
3045.000000	99.251689 
3044.000000	99.247330 
3043.000000	99.243180 
3042.000000	99.241767 
3041.000000	99.243915 
3040.000000	99.247809 
3039.000000	99.250463 
3038.000000	99.250084 
3037.000000	99.247038 
3036.000000	99.242781 
3035.000000	99.238163 
3034.000000	99.232968 
3033.000000	99.226903 
3032.000000	99.220486 
3031.000000	99.214602 
3030.000000	99.209533 
3029.000000	99.205013 
3028.000000	99.201152 
3027.000000	99.198685 
3026.000000	99.197985 
3025.000000	99.198075 
3024.000000	99.197048 
3023.000000	99.193547 
3022.000000	99.187653 
3021.000000	99.180254 
3020.000000	99.171800 
3019.000000	99.161985 
3018.000000	99.150862 
3017.000000	99.139743 
3016.000000	99.130272 
3015.000000	99.122595 
3014.000000	99.115216 
3013.000000	99.107084 
3012.000000	99.099251 
3011.000000	99.093711 
3010.000000	99.090799 
3009.000000	99.088502 
3008.000000	99.084411 
3007.000000	99.077780 
3006.000000	99.069531 
3005.000000	99.060877 
3004.000000	99.052353 
3003.000000	99.043871 
3002.000000	99.035236 
3001.000000	99.026582 
3000.000000	99.018498 
2999.000000	99.011752 
2998.000000	99.006826 
2997.000000	99.003666 
2996.000000	99.001637 
2995.000000	98.999365 
2994.000000	98.994813 
2993.000000	98.986244 
2992.000000	98.973604 
2991.000000	98.958869 
2990.000000	98.944775 
2989.000000	98.933346 
2988.000000	98.925685 
2987.000000	98.922483 
2986.000000	98.923845 
2985.000000	98.928496 
2984.000000	98.933744 
2983.000000	98.936813 
2982.000000	98.936433 
2981.000000	98.933320 
2980.000000	98.929452 
2979.000000	98.926793 
2978.000000	98.926025 
2977.000000	98.925930 
2976.000000	98.924086 
2975.000000	98.918774 
2974.000000	98.910640 
2973.000000	98.902407 
2972.000000	98.896770 
2971.000000	98.894483 
2970.000000	98.894356 
2969.000000	98.894767 
2968.000000	98.894988 
2967.000000	98.895307 
2966.000000	98.896359 
2965.000000	98.898521 
2964.000000	98.901597 
2963.000000	98.904741 
2962.000000	98.906848 
2961.000000	98.907411 
2960.000000	98.907046 
2959.000000	98.906935 
2958.000000	98.907578 
2957.000000	98.908303 
2956.000000	98.908203 
2955.000000	98.907548 
2954.000000	98.908197 
2953.000000	98.912362 
2952.000000	98.920681 
2951.000000	98.931192 
2950.000000	98.940355 
2949.000000	98.945516 
2948.000000	98.946530 
2947.000000	98.945180 
2946.000000	98.943283 
2945.000000	98.941581 
2944.000000	98.940050 
2943.000000	98.938343 
2942.000000	98.935505 
2941.000000	98.929972 
2940.000000	98.920915 
2939.000000	98.909872 
2938.000000	98.900401 
2937.000000	98.895477 
2936.000000	98.895137 
2935.000000	98.896614 
2934.000000	98.896602 
2933.000000	98.893242 
2932.000000	98.886351 
2931.000000	98.876463 
2930.000000	98.864357 
2929.000000	98.851450 
2928.000000	98.839760 
2927.000000	98.830511 
2926.000000	98.822837 
2925.000000	98.814728 
2924.000000	98.805797 
2923.000000	98.798445 
2922.000000	98.795563 
2921.000000	98.797414 
2920.000000	98.801535 
2919.000000	98.805530 
2918.000000	98.809277 
2917.000000	98.814217 
2916.000000	98.821328 
2915.000000	98.830295 
2914.000000	98.840122 
2913.000000	98.849913 
2912.000000	98.859182 
2911.000000	98.867770 
2910.000000	98.875493 
2909.000000	98.881875 
2908.000000	98.886415 
2907.000000	98.889252 
2906.000000	98.891126 
2905.000000	98.892432 
2904.000000	98.892732 
2903.000000	98.891867 
2902.000000	98.891371 
2901.000000	98.894331 
2900.000000	98.902521 
2899.000000	98.914708 
2898.000000	98.927107 
2897.000000	98.936037 
2896.000000	98.940359 
2895.000000	98.941763 
2894.000000	98.943101 
2893.000000	98.946346 
2892.000000	98.951810 
2891.000000	98.958745 
2890.000000	98.966204 
2889.000000	98.973330 
2888.000000	98.979406 
2887.000000	98.984157 
2886.000000	98.987904 
2885.000000	98.991134 
2884.000000	98.994029 
2883.000000	98.996714 
2882.000000	98.999823 
2881.000000	99.004232 
2880.000000	99.010040 
2879.000000	99.016166 
2878.000000	99.021289 
2877.000000	99.025163 
2876.000000	99.028830 
2875.000000	99.033591 
2874.000000	99.039777 
2873.000000	99.046414 
2872.000000	99.051984 
2871.000000	99.055582 
2870.000000	99.057434 
2869.000000	99.058544 
2868.000000	99.059990 
2867.000000	99.062487 
2866.000000	99.066118 
2865.000000	99.070100 
2864.000000	99.073021 
2863.000000	99.073882 
2862.000000	99.072996 
2861.000000	99.071615 
2860.000000	99.070734 
2859.000000	99.070599 
2858.000000	99.071130 
2857.000000	99.072005 
2856.000000	99.072134 
2855.000000	99.070039 
2854.000000	99.065586 
2853.000000	99.061129 
2852.000000	99.060258 
2851.000000	99.065247 
2850.000000	99.075878 
2849.000000	99.090236 
2848.000000	99.106275 
2847.000000	99.122690 
2846.000000	99.138726 
2845.000000	99.153582 
2844.000000	99.166364 
2843.000000	99.176695 
2842.000000	99.185235 
2841.000000	99.193260 
2840.000000	99.201529 
2839.000000	99.209693 
2838.000000	99.216884 
2837.000000	99.222638 
2836.000000	99.227072 
2835.000000	99.230483 
2834.000000	99.233195 
2833.000000	99.235716 
2832.000000	99.238631 
2831.000000	99.242193 
2830.000000	99.246121 
2829.000000	99.249895 
2828.000000	99.253258 
2827.000000	99.256467 
2826.000000	99.260065 
2825.000000	99.264222 
2824.000000	99.268260 
2823.000000	99.270985 
2822.000000	99.271666 
2821.000000	99.270619 
2820.000000	99.268858 
2819.000000	99.267394 
2818.000000	99.266899 
2817.000000	99.267647 
2816.000000	99.269450 
2815.000000	99.271717 
2814.000000	99.273798 
2813.000000	99.275305 
2812.000000	99.276304 
2811.000000	99.277521 
2810.000000	99.280185 
2809.000000	99.284870 
2808.000000	99.290132 
2807.000000	99.293058 
2806.000000	99.291893 
2805.000000	99.287882 
2804.000000	99.284220 
2803.000000	99.283247 
2802.000000	99.285037 
2801.000000	99.288309 
2800.000000	99.291708 
2799.000000	99.294261 
2798.000000	99.295479 
2797.000000	99.295520 
2796.000000	99.294980 
2795.000000	99.294311 
2794.000000	99.293671 
2793.000000	99.293282 
2792.000000	99.293446 
2791.000000	99.294092 
2790.000000	99.294743 
2789.000000	99.295138 
2788.000000	99.295587 
2787.000000	99.296522 
2786.000000	99.297946 
2785.000000	99.299440 
2784.000000	99.300545 
2783.000000	99.301048 
2782.000000	99.301073 
2781.000000	99.300985 
2780.000000	99.301131 
2779.000000	99.301608 
2778.000000	99.302277 
2777.000000	99.302955 
2776.000000	99.303547 
2775.000000	99.304030 
2774.000000	99.304379 
2773.000000	99.304596 
2772.000000	99.304802 
2771.000000	99.305188 
2770.000000	99.305832 
2769.000000	99.306599 
2768.000000	99.307261 
2767.000000	99.307736 
2766.000000	99.308155 
2765.000000	99.308680 
2764.000000	99.309245 
2763.000000	99.309548 
2762.000000	99.309323 
2761.000000	99.308611 
2760.000000	99.307825 
2759.000000	99.307456 
2758.000000	99.307706 
2757.000000	99.308440 
2756.000000	99.309343 
2755.000000	99.310124 
2754.000000	99.310611 
2753.000000	99.310794 
2752.000000	99.310867 
2751.000000	99.311139 
2750.000000	99.311784 
2749.000000	99.312666 
2748.000000	99.313454 
2747.000000	99.313905 
2746.000000	99.314019 
2745.000000	99.313944 
2744.000000	99.313793 
2743.000000	99.313539 
2742.000000	99.313129 
2741.000000	99.312724 
2740.000000	99.312764 
2739.000000	99.313620 
2738.000000	99.315177 
2737.000000	99.316861 
2736.000000	99.318189 
2735.000000	99.319120 
2734.000000	99.319743 
2733.000000	99.319881 
2732.000000	99.319298 
2731.000000	99.318195 
2730.000000	99.317163 
2729.000000	99.316555 
2728.000000	99.316204 
2727.000000	99.315843 
2726.000000	99.315548 
2725.000000	99.315623 
2724.000000	99.316236 
2723.000000	99.317390 
2722.000000	99.319057 
2721.000000	99.321061 
2720.000000	99.322884 
2719.000000	99.323881 
2718.000000	99.323830 
2717.000000	99.323122 
2716.000000	99.322435 
2715.000000	99.322209 
2714.000000	99.322453 
2713.000000	99.322921 
2712.000000	99.323397 
2711.000000	99.323834 
2710.000000	99.324357 
2709.000000	99.325150 
2708.000000	99.326313 
2707.000000	99.327724 
2706.000000	99.329007 
2705.000000	99.329730 
2704.000000	99.329771 
2703.000000	99.329508 
2702.000000	99.329480 
2701.000000	99.329763 
2700.000000	99.329887 
2699.000000	99.329519 
2698.000000	99.329021 
2697.000000	99.329065 
2696.000000	99.329774 
2695.000000	99.330534 
2694.000000	99.330754 
2693.000000	99.330582 
2692.000000	99.330681 
2691.000000	99.331403 
2690.000000	99.332393 
2689.000000	99.332995 
2688.000000	99.332935 
2687.000000	99.332521 
2686.000000	99.332236 
2685.000000	99.332235 
2684.000000	99.332323 
2683.000000	99.332266 
2682.000000	99.331996 
2681.000000	99.331518 
2680.000000	99.330800 
2679.000000	99.329943 
2678.000000	99.329400 
2677.000000	99.329794 
2676.000000	99.331380 
2675.000000	99.333757 
2674.000000	99.336099 
2673.000000	99.337677 
2672.000000	99.338168 
2671.000000	99.337649 
2670.000000	99.336518 
2669.000000	99.335273 
2668.000000	99.334199 
2667.000000	99.333286 
2666.000000	99.332528 
2665.000000	99.332149 
2664.000000	99.332356 
2663.000000	99.332970 
2662.000000	99.333600 
2661.000000	99.334189 
2660.000000	99.335091 
2659.000000	99.336424 
2658.000000	99.337642 
2657.000000	99.338053 
2656.000000	99.337655 
2655.000000	99.337108 
2654.000000	99.336885 
2653.000000	99.336775 
2652.000000	99.336444 
2651.000000	99.336150 
2650.000000	99.336460 
2649.000000	99.337379 
2648.000000	99.338266 
2647.000000	99.338808 
2646.000000	99.339636 
2645.000000	99.341599 
2644.000000	99.344605 
2643.000000	99.347409 
2642.000000	99.348710 
2641.000000	99.348207 
2640.000000	99.346572 
2639.000000	99.344887 
2638.000000	99.343939 
2637.000000	99.343873 
2636.000000	99.344239 
2635.000000	99.344358 
2634.000000	99.343943 
2633.000000	99.343444 
2632.000000	99.343635 
2631.000000	99.344829 
2630.000000	99.346588 
2629.000000	99.348136 
2628.000000	99.349028 
2627.000000	99.349387 
2626.000000	99.349625 
2625.000000	99.350003 
2624.000000	99.350415 
2623.000000	99.350572 
2622.000000	99.350370 
2621.000000	99.350086 
2620.000000	99.350201 
2619.000000	99.351047 
2618.000000	99.352610 
2617.000000	99.354518 
2616.000000	99.356212 
2615.000000	99.357298 
2614.000000	99.357819 
2613.000000	99.358195 
2612.000000	99.358813 
2611.000000	99.359642 
2610.000000	99.360301 
2609.000000	99.360400 
2608.000000	99.359752 
2607.000000	99.358491 
2606.000000	99.357191 
2605.000000	99.356654 
2604.000000	99.357337 
2603.000000	99.358912 
2602.000000	99.360486 
2601.000000	99.361460 
2600.000000	99.361948 
2599.000000	99.362347 
2598.000000	99.362732 
2597.000000	99.362835 
2596.000000	99.362509 
2595.000000	99.361979 
2594.000000	99.361597 
2593.000000	99.361474 
2592.000000	99.361416 
2591.000000	99.361207 
2590.000000	99.360893 
2589.000000	99.360749 
2588.000000	99.360958 
2587.000000	99.361380 
2586.000000	99.361701 
2585.000000	99.361785 
2584.000000	99.361804 
2583.000000	99.362014 
2582.000000	99.362489 
2581.000000	99.363064 
2580.000000	99.363443 
2579.000000	99.363346 
2578.000000	99.362663 
2577.000000	99.361550 
2576.000000	99.360432 
2575.000000	99.359749 
2574.000000	99.359642 
2573.000000	99.359920 
2572.000000	99.360263 
2571.000000	99.360502 
2570.000000	99.360652 
2569.000000	99.360807 
2568.000000	99.361051 
2567.000000	99.361373 
2566.000000	99.361621 
2565.000000	99.361586 
2564.000000	99.361222 
2563.000000	99.360695 
2562.000000	99.360277 
2561.000000	99.360127 
2560.000000	99.360197 
2559.000000	99.360321 
2558.000000	99.360346 
2557.000000	99.360250 
2556.000000	99.360128 
2555.000000	99.360102 
2554.000000	99.360236 
2553.000000	99.360489 
2552.000000	99.360706 
2551.000000	99.360736 
2550.000000	99.360547 
2549.000000	99.360250 
2548.000000	99.359980 
2547.000000	99.359769 
2546.000000	99.359561 
2545.000000	99.359303 
2544.000000	99.359030 
2543.000000	99.358867 
2542.000000	99.358911 
2541.000000	99.359129 
2540.000000	99.359376 
2539.000000	99.359536 
2538.000000	99.359592 
2537.000000	99.359546 
2536.000000	99.359371 
2535.000000	99.359121 
2534.000000	99.358999 
2533.000000	99.359142 
2532.000000	99.359349 
2531.000000	99.359219 
2530.000000	99.358628 
2529.000000	99.357977 
2528.000000	99.357798 
2527.000000	99.358143 
2526.000000	99.358550 
2525.000000	99.358680 
2524.000000	99.358782 
2523.000000	99.359351 
2522.000000	99.360510 
2521.000000	99.361834 
2520.000000	99.362673 
2519.000000	99.362537 
2518.000000	99.361297 
2517.000000	99.359384 
2516.000000	99.357663 
2515.000000	99.356814 
2514.000000	99.356741 
2513.000000	99.356719 
2512.000000	99.356381 
2511.000000	99.356340 
2510.000000	99.357483 
2509.000000	99.359885 
2508.000000	99.362620 
2507.000000	99.364638 
2506.000000	99.365595 
2505.000000	99.365690 
2504.000000	99.365165 
2503.000000	99.364230 
2502.000000	99.363253 
2501.000000	99.362525 
2500.000000	99.361862 
2499.000000	99.360893 
2498.000000	99.359860 
2497.000000	99.359674 
2496.000000	99.360864 
2495.000000	99.362796 
2494.000000	99.364218 
2493.000000	99.364570 
2492.000000	99.364421 
2491.000000	99.364729 
2490.000000	99.365887 
2489.000000	99.367512 
2488.000000	99.368907 
2487.000000	99.369593 
2486.000000	99.369435 
2485.000000	99.368443 
2484.000000	99.366777 
2483.000000	99.364921 
2482.000000	99.363676 
2481.000000	99.363559 
2480.000000	99.364240 
2479.000000	99.364902 
2478.000000	99.365267 
2477.000000	99.365816 
2476.000000	99.366845 
2475.000000	99.367810 
2474.000000	99.368022 
2473.000000	99.367537 
2472.000000	99.366842 
2471.000000	99.366011 
2470.000000	99.364780 
2469.000000	99.363313 
2468.000000	99.362199 
2467.000000	99.361627 
2466.000000	99.361179 
2465.000000	99.360731 
2464.000000	99.360997 
2463.000000	99.362666 
2462.000000	99.365357 
2461.000000	99.367714 
2460.000000	99.368501 
2459.000000	99.367421 
2458.000000	99.364986 
2457.000000	99.362076 
2456.000000	99.359464 
2455.000000	99.357542 
2454.000000	99.356390 
2453.000000	99.355910 
2452.000000	99.355843 
2451.000000	99.355818 
2450.000000	99.355595 
2449.000000	99.355330 
2448.000000	99.355489 
2447.000000	99.356447 
2446.000000	99.358199 
2445.000000	99.360257 
2444.000000	99.361710 
2443.000000	99.361632 
2442.000000	99.359783 
2441.000000	99.356984 
2440.000000	99.354559 
2439.000000	99.353237 
2438.000000	99.352786 
2437.000000	99.352654 
2436.000000	99.352662 
2435.000000	99.353018 
2434.000000	99.353961 
2433.000000	99.355595 
2432.000000	99.357855 
2431.000000	99.360416 
2430.000000	99.362612 
2429.000000	99.363645 
2428.000000	99.363020 
2427.000000	99.360893 
2426.000000	99.358038 
2425.000000	99.355317 
2424.000000	99.353143 
2423.000000	99.351637 
2422.000000	99.351184 
2421.000000	99.352302 
2420.000000	99.354691 
2419.000000	99.356793 
2418.000000	99.357078 
2417.000000	99.355585 
2416.000000	99.353813 
2415.000000	99.353076 
2414.000000	99.353284 
2413.000000	99.353525 
2412.000000	99.353136 
2411.000000	99.351948 
2410.000000	99.350026 
2409.000000	99.347763 
2408.000000	99.345974 
2407.000000	99.345335 
2406.000000	99.345757 
2405.000000	99.346568 
2404.000000	99.347287 
2403.000000	99.347919 
2402.000000	99.348559 
2401.000000	99.349083 
2400.000000	99.349286 
2399.000000	99.349023 
2398.000000	99.348243 
2397.000000	99.347116 
2396.000000	99.346053 
2395.000000	99.345264 
2394.000000	99.344356 
2393.000000	99.342750 
2392.000000	99.340563 
2391.000000	99.338760 
2390.000000	99.338219 
2389.000000	99.338958 
2388.000000	99.340402 
2387.000000	99.342016 
2386.000000	99.343513 
2385.000000	99.344671 
2384.000000	99.345303 
2383.000000	99.345501 
2382.000000	99.345694 
2381.000000	99.346183 
2380.000000	99.346589 
2379.000000	99.346054 
2378.000000	99.344382 
2377.000000	99.342674 
2376.000000	99.342248 
2375.000000	99.343177 
2374.000000	99.344459 
2373.000000	99.345447 
2372.000000	99.346306 
2371.000000	99.347319 
2370.000000	99.348639 
2369.000000	99.350497 
2368.000000	99.352495 
2367.000000	99.353150 
2366.000000	99.351558 
2365.000000	99.348927 
2364.000000	99.347078 
2363.000000	99.345839 
2362.000000	99.343479 
2361.000000	99.339765 
2360.000000	99.336609 
2359.000000	99.335417 
2358.000000	99.336120 
2357.000000	99.338009 
2356.000000	99.340539 
2355.000000	99.343301 
2354.000000	99.346221 
2353.000000	99.348385 
2352.000000	99.348167 
2351.000000	99.345294 
2350.000000	99.341364 
2349.000000	99.338225 
2348.000000	99.336652 
2347.000000	99.336535 
2346.000000	99.336827 
2345.000000	99.336023 
2344.000000	99.333957 
2343.000000	99.332028 
2342.000000	99.331271 
2341.000000	99.331214 
2340.000000	99.331227 
2339.000000	99.331581 
2338.000000	99.333172 
2337.000000	99.335782 
2336.000000	99.337303 
2335.000000	99.336093 
2334.000000	99.332956 
2333.000000	99.330322 
2332.000000	99.329026 
2331.000000	99.328452 
2330.000000	99.327812 
2329.000000	99.327226 
2328.000000	99.326849 
2327.000000	99.327427 
2326.000000	99.329359 
2325.000000	99.331891 
2324.000000	99.333184 
2323.000000	99.332967 
2322.000000	99.332675 
2321.000000	99.333136 
2320.000000	99.332794 
2319.000000	99.330503 
2318.000000	99.327376 
2317.000000	99.325950 
2316.000000	99.326871 
2315.000000	99.329320 
2314.000000	99.332324 
2313.000000	99.336187 
2312.000000	99.340867 
2311.000000	99.345762 
2310.000000	99.349719 
2309.000000	99.352086 
2308.000000	99.352765 
2307.000000	99.352558 
2306.000000	99.352428 
2305.000000	99.353037 
2304.000000	99.354266 
2303.000000	99.355775 
2302.000000	99.357020 
2301.000000	99.357730 
2300.000000	99.358143 
2299.000000	99.359315 
2298.000000	99.361815 
2297.000000	99.365067 
2296.000000	99.367647 
2295.000000	99.369117 
2294.000000	99.370273 
2293.000000	99.372038 
2292.000000	99.374186 
2291.000000	99.375938 
2290.000000	99.376909 
2289.000000	99.377279 
2288.000000	99.377405 
2287.000000	99.377584 
2286.000000	99.378007 
2285.000000	99.378529 
2284.000000	99.378819 
2283.000000	99.378908 
2282.000000	99.379461 
2281.000000	99.381103 
2280.000000	99.383683 
2279.000000	99.386370 
2278.000000	99.388390 
2277.000000	99.389558 
2276.000000	99.390090 
2275.000000	99.390287 
2274.000000	99.390421 
2273.000000	99.390706 
2272.000000	99.391236 
2271.000000	99.391977 
2270.000000	99.392867 
2269.000000	99.393887 
2268.000000	99.395016 
2267.000000	99.396175 
2266.000000	99.397267 
2265.000000	99.398215 
2264.000000	99.398908 
2263.000000	99.399170 
2262.000000	99.398962 
2261.000000	99.398657 
2260.000000	99.398854 
2259.000000	99.399797 
2258.000000	99.401057 
2257.000000	99.401894 
2256.000000	99.401990 
2255.000000	99.401718 
2254.000000	99.401778 
2253.000000	99.402681 
2252.000000	99.404480 
2251.000000	99.406658 
2250.000000	99.408315 
2249.000000	99.408903 
2248.000000	99.408830 
2247.000000	99.409155 
2246.000000	99.410256 
2245.000000	99.411273 
2244.000000	99.411181 
2243.000000	99.409961 
2242.000000	99.408367 
2241.000000	99.406962 
2240.000000	99.406001 
2239.000000	99.406113 
2238.000000	99.408023 
2237.000000	99.411316 
2236.000000	99.414288 
2235.000000	99.415701 
2234.000000	99.416192 
2233.000000	99.417359 
2232.000000	99.419580 
2231.000000	99.421423 
2230.000000	99.421328 
2229.000000	99.419082 
2228.000000	99.415717 
2227.000000	99.412406 
2226.000000	99.409743 
2225.000000	99.407915 
2224.000000	99.407105 
2223.000000	99.407742 
2222.000000	99.410188 
2221.000000	99.413922 
2220.000000	99.417465 
2219.000000	99.419741 
2218.000000	99.421346 
2217.000000	99.423735 
2216.000000	99.427061 
2215.000000	99.429539 
2214.000000	99.429382 
2213.000000	99.426698 
2212.000000	99.423208 
2211.000000	99.420591 
2210.000000	99.419631 
2209.000000	99.420569 
2208.000000	99.423249 
2207.000000	99.426669 
2206.000000	99.429132 
2205.000000	99.429694 
2204.000000	99.429442 
2203.000000	99.430724 
2202.000000	99.434715 
2201.000000	99.439776 
2200.000000	99.442663 
2199.000000	99.441635 
2198.000000	99.437971 
2197.000000	99.434355 
2196.000000	99.431952 
2195.000000	99.429837 
2194.000000	99.427131 
2193.000000	99.424593 
2192.000000	99.423853 
2191.000000	99.426108 
2190.000000	99.432106 
2189.000000	99.442041 
2188.000000	99.454115 
2187.000000	99.463770 
2186.000000	99.466357 
2185.000000	99.460944 
2184.000000	99.451263 
2183.000000	99.442662 
2182.000000	99.437736 
2181.000000	99.435386 
2180.000000	99.433234 
2179.000000	99.430529 
2178.000000	99.429014 
2177.000000	99.431165 
2176.000000	99.437530 
2175.000000	99.445885 
2174.000000	99.453336 
2173.000000	99.459106 
2172.000000	99.464722 
2171.000000	99.471630 
2170.000000	99.479277 
2169.000000	99.485483 
2168.000000	99.487975 
2167.000000	99.485510 
2166.000000	99.478604 
2165.000000	99.470014 
2164.000000	99.463760 
2163.000000	99.462594 
2162.000000	99.466274 
2161.000000	99.471914 
2160.000000	99.475557 
2159.000000	99.474087 
2158.000000	99.467044 
2157.000000	99.457170 
2156.000000	99.448376 
2155.000000	99.442646 
2154.000000	99.439496 
2153.000000	99.437691 
2152.000000	99.436191 
2151.000000	99.433673 
2150.000000	99.429019 
2149.000000	99.423499 
2148.000000	99.421090 
2147.000000	99.424663 
2146.000000	99.432212 
2145.000000	99.438145 
2144.000000	99.438978 
2143.000000	99.436330 
2142.000000	99.434007 
2141.000000	99.433417 
2140.000000	99.432770 
2139.000000	99.429862 
2138.000000	99.424376 
2137.000000	99.417706 
2136.000000	99.411611 
2135.000000	99.407257 
2134.000000	99.405150 
2133.000000	99.405407 
2132.000000	99.407742 
2131.000000	99.411061 
2130.000000	99.413481 
2129.000000	99.413593 
2128.000000	99.411867 
2127.000000	99.410236 
2126.000000	99.410018 
2125.000000	99.410713 
2124.000000	99.411076 
2123.000000	99.410756 
2122.000000	99.410185 
2121.000000	99.409253 
2120.000000	99.407150 
2119.000000	99.403787 
2118.000000	99.400542 
2117.000000	99.399153 
2116.000000	99.400235 
2115.000000	99.403140 
2114.000000	99.406740 
2113.000000	99.409865 
2112.000000	99.411538 
2111.000000	99.411569 
2110.000000	99.410868 
2109.000000	99.410612 
2108.000000	99.410829 
2107.000000	99.410140 
2106.000000	99.407090 
2105.000000	99.401640 
2104.000000	99.395647 
2103.000000	99.391816 
2102.000000	99.391730 
2101.000000	99.394788 
2100.000000	99.398873 
2099.000000	99.402266 
2098.000000	99.404924 
2097.000000	99.407660 
2096.000000	99.410683 
2095.000000	99.413346 
2094.000000	99.414975 
2093.000000	99.415367 
2092.000000	99.414634 
2091.000000	99.413112 
2090.000000	99.411497 
2089.000000	99.410522 
2088.000000	99.410185 
2087.000000	99.409621 
2086.000000	99.408250 
2085.000000	99.407068 
2084.000000	99.408205 
2083.000000	99.412848 
2082.000000	99.419701 
2081.000000	99.425806 
2080.000000	99.429231 
2079.000000	99.430634 
2078.000000	99.432085 
2077.000000	99.434508 
2076.000000	99.436572 
2075.000000	99.436193 
2074.000000	99.432617 
2073.000000	99.427143 
2072.000000	99.422369 
2071.000000	99.420570 
2070.000000	99.422416 
2069.000000	99.426625 
2068.000000	99.430953 
2067.000000	99.433985 
2066.000000	99.435899 
2065.000000	99.437792 
2064.000000	99.440676 
2063.000000	99.444718 
2062.000000	99.448515 
2061.000000	99.449275 
2060.000000	99.445194 
2059.000000	99.438179 
2058.000000	99.433260 
2057.000000	99.433884 
2056.000000	99.438794 
2055.000000	99.444178 
2054.000000	99.448377 
2053.000000	99.452921 
2052.000000	99.459314 
2051.000000	99.466808 
2050.000000	99.473550 
2049.000000	99.478422 
2048.000000	99.481042 
2047.000000	99.481183 
2046.000000	99.479046 
2045.000000	99.475243 
2044.000000	99.470051 
2043.000000	99.463581 
2042.000000	99.457296 
2041.000000	99.454127 
2040.000000	99.455859 
2039.000000	99.461264 
2038.000000	99.467464 
2037.000000	99.472620 
2036.000000	99.476611 
2035.000000	99.479484 
2034.000000	99.480396 
2033.000000	99.478498 
2032.000000	99.474387 
2031.000000	99.470195 
2030.000000	99.467942 
2029.000000	99.467617 
2028.000000	99.466964 
2027.000000	99.463637 
2026.000000	99.457637 
2025.000000	99.451494 
2024.000000	99.448384 
2023.000000	99.450484 
2022.000000	99.458410 
2021.000000	99.470376 
2020.000000	99.481782 
2019.000000	99.487591 
2018.000000	99.485865 
2017.000000	99.478735 
2016.000000	99.470036 
2015.000000	99.462247 
2014.000000	99.456212 
2013.000000	99.451975 
2012.000000	99.448695 
2011.000000	99.445278 
2010.000000	99.442637 
2009.000000	99.444265 
2008.000000	99.452814 
2007.000000	99.466423 
2006.000000	99.479393 
2005.000000	99.486952 
2004.000000	99.488605 
2003.000000	99.486949 
2002.000000	99.484299 
2001.000000	99.480448 
2000.000000	99.473271 
1999.000000	99.461415 
1998.000000	99.446561 
1997.000000	99.433276 
1996.000000	99.426137 
1995.000000	99.426973 
1994.000000	99.434468 
1993.000000	99.445201 
1992.000000	99.455369 
1991.000000	99.462660 
1990.000000	99.466861 
1989.000000	99.468818 
1988.000000	99.469510 
1987.000000	99.470172 
1986.000000	99.472134 
1985.000000	99.475208 
1984.000000	99.476698 
1983.000000	99.473626 
1982.000000	99.466245 
1981.000000	99.458303 
1980.000000	99.453478 
1979.000000	99.452595 
1978.000000	99.454582 
1977.000000	99.458604 
1976.000000	99.464200 
1975.000000	99.470443 
1974.000000	99.476233 
1973.000000	99.480586 
1972.000000	99.481939 
1971.000000	99.478416 
1970.000000	99.470032 
1969.000000	99.460093 
1968.000000	99.452866 
1967.000000	99.449701 
1966.000000	99.448775 
1965.000000	99.448126 
1964.000000	99.447464 
1963.000000	99.447408 
1962.000000	99.448813 
1961.000000	99.453000 
1960.000000	99.460827 
1959.000000	99.470478 
1958.000000	99.477270 
1957.000000	99.476904 
1956.000000	99.468479 
1955.000000	99.454082 
1954.000000	99.436584 
1953.000000	99.418728 
1952.000000	99.403484 
1951.000000	99.393668 
1950.000000	99.390705 
1949.000000	99.393739 
1948.000000	99.400389 
1947.000000	99.408725 
1946.000000	99.417864 
1945.000000	99.426513 
1944.000000	99.432159 
1943.000000	99.432697 
1942.000000	99.428515 
1941.000000	99.421706 
1940.000000	99.413522 
1939.000000	99.404276 
1938.000000	99.395388 
1937.000000	99.389576 
1936.000000	99.388267 
1935.000000	99.389971 
1934.000000	99.391942 
1933.000000	99.392843 
1932.000000	99.393385 
1931.000000	99.395299 
1930.000000	99.400337 
1929.000000	99.408638 
1928.000000	99.417330 
1927.000000	99.422016 
1926.000000	99.420256 
1925.000000	99.413107 
1924.000000	99.403502 
1923.000000	99.394290 
1922.000000	99.387755 
1921.000000	99.384983 
1920.000000	99.384852 
1919.000000	99.384789 
1918.000000	99.383635 
1917.000000	99.383358 
1916.000000	99.386382 
1915.000000	99.392771 
1914.000000	99.400830 
1913.000000	99.408633 
1912.000000	99.414353 
1911.000000	99.416205 
1910.000000	99.413508 
1909.000000	99.407658 
1908.000000	99.401100 
1907.000000	99.395259 
1906.000000	99.390204 
1905.000000	99.385960 
1904.000000	99.382825 
1903.000000	99.380951 
1902.000000	99.380447 
1901.000000	99.381554 
1900.000000	99.384432 
1899.000000	99.388728 
1898.000000	99.393280 
1897.000000	99.396466 
1896.000000	99.397020 
1895.000000	99.395047 
1894.000000	99.392196 
1893.000000	99.390042 
1892.000000	99.388371 
1891.000000	99.385795 
1890.000000	99.382023 
1889.000000	99.378968 
1888.000000	99.378757 
1887.000000	99.381567 
1886.000000	99.385958 
1885.000000	99.390178 
1884.000000	99.393009 
1883.000000	99.394168 
1882.000000	99.394312 
1881.000000	99.394229 
1880.000000	99.393952 
1879.000000	99.392721 
1878.000000	99.389735 
1877.000000	99.385025 
1876.000000	99.379787 
1875.000000	99.375954 
1874.000000	99.375141 
1873.000000	99.377412 
1872.000000	99.380882 
1871.000000	99.383222 
1870.000000	99.383904 
1869.000000	99.384549 
1868.000000	99.386535 
1867.000000	99.389016 
1866.000000	99.390240 
1865.000000	99.389409 
1864.000000	99.387083 
1863.000000	99.384748 
1862.000000	99.383944 
1861.000000	99.385071 
1860.000000	99.386727 
1859.000000	99.386953 
1858.000000	99.385569 
1857.000000	99.384547 
1856.000000	99.385874 
1855.000000	99.389813 
1854.000000	99.395183 
1853.000000	99.400357 
1852.000000	99.403887 
1851.000000	99.404994 
1850.000000	99.403822 
1849.000000	99.401398 
1848.000000	99.398763 
1847.000000	99.396097 
1846.000000	99.392980 
1845.000000	99.389043 
1844.000000	99.384487 
1843.000000	99.380660 
1842.000000	99.379557 
1841.000000	99.382355 
1840.000000	99.388959 
1839.000000	99.397741 
1838.000000	99.405943 
1837.000000	99.411575 
1836.000000	99.414311 
1835.000000	99.414663 
1834.000000	99.413165 
1833.000000	99.410570 
1832.000000	99.408004 
1831.000000	99.405844 
1830.000000	99.403137 
1829.000000	99.399643 
1828.000000	99.396856 
1827.000000	99.395916 
1826.000000	99.396675 
1825.000000	99.399030 
1824.000000	99.403289 
1823.000000	99.408707 
1822.000000	99.413104 
1821.000000	99.414520 
1820.000000	99.412809 
1819.000000	99.409351 
1818.000000	99.405774 
1817.000000	99.403153 
1816.000000	99.401489 
1815.000000	99.400087 
1814.000000	99.398769 
1813.000000	99.398622 
1812.000000	99.401169 
1811.000000	99.406277 
1810.000000	99.412385 
1809.000000	99.418304 
1808.000000	99.423087 
1807.000000	99.425542 
1806.000000	99.425260 
1805.000000	99.423447 
1804.000000	99.421803 
1803.000000	99.420700 
1802.000000	99.419139 
1801.000000	99.416373 
1800.000000	99.412658 
1799.000000	99.408607 
1798.000000	99.405346 
1797.000000	99.404159 
1796.000000	99.405438 
1795.000000	99.408644 
1794.000000	99.412927 
1793.000000	99.417244 
1792.000000	99.420667 
1791.000000	99.422857 
1790.000000	99.424266 
1789.000000	99.425445 
1788.000000	99.426423 
1787.000000	99.426549 
1786.000000	99.424884 
1785.000000	99.421214 
1784.000000	99.416661 
1783.000000	99.413185 
1782.000000	99.412105 
1781.000000	99.413132 
1780.000000	99.414928 
1779.000000	99.416349 
1778.000000	99.417476 
1777.000000	99.418782 
1776.000000	99.420416 
1775.000000	99.422653 
1774.000000	99.425618 
1773.000000	99.427785 
1772.000000	99.426661 
1771.000000	99.422121 
1770.000000	99.416394 
1769.000000	99.411430 
1768.000000	99.408465 
1767.000000	99.407939 
1766.000000	99.409227 
1765.000000	99.411291 
1764.000000	99.413580 
1763.000000	99.415933 
1762.000000	99.417952 
1761.000000	99.419313 
1760.000000	99.420217 
1759.000000	99.420607 
1758.000000	99.420000 
1757.000000	99.417739 
1756.000000	99.413995 
1755.000000	99.409751 
1754.000000	99.405361 
1753.000000	99.400703 
1752.000000	99.396725 
1751.000000	99.395760 
1750.000000	99.399033 
1749.000000	99.404705 
1748.000000	99.409541 
1747.000000	99.411882 
1746.000000	99.411949 
1745.000000	99.410654 
1744.000000	99.409029 
1743.000000	99.407675 
1742.000000	99.406468 
1741.000000	99.404856 
1740.000000	99.402008 
1739.000000	99.397387 
1738.000000	99.391737 
1737.000000	99.386384 
1736.000000	99.382892 
1735.000000	99.382228 
1734.000000	99.383427 
1733.000000	99.386379 
1732.000000	99.392569 
1731.000000	99.400787 
1730.000000	99.407929 
1729.000000	99.411594 
1728.000000	99.411720 
1727.000000	99.409785 
1726.000000	99.406484 
1725.000000	99.401628 
1724.000000	99.396004 
1723.000000	99.391568 
1722.000000	99.389694 
1721.000000	99.390038 
1720.000000	99.391504 
1719.000000	99.393144 
1718.000000	99.394048 
1717.000000	99.395354 
1716.000000	99.398259 
1715.000000	99.400900 
1714.000000	99.401530 
1713.000000	99.400541 
1712.000000	99.398788 
1711.000000	99.396702 
1710.000000	99.394379 
1709.000000	99.391755 
1708.000000	99.388635 
1707.000000	99.384948 
1706.000000	99.381692 
1705.000000	99.380658 
1704.000000	99.381355 
1703.000000	99.380998 
1702.000000	99.378962 
1701.000000	99.376697 
1700.000000	99.374503 
1699.000000	99.371751 
1698.000000	99.369390 
1697.000000	99.367990 
1696.000000	99.367121 
1695.000000	99.365511 
1694.000000	99.363658 
1693.000000	99.362071 
1692.000000	99.359895 
1691.000000	99.356974 
1690.000000	99.353962 
1689.000000	99.350994 
1688.000000	99.347333 
1687.000000	99.342608 
1686.000000	99.338555 
1685.000000	99.337613 
1684.000000	99.338720 
1683.000000	99.338698 
1682.000000	99.336851 
1681.000000	99.332357 
1680.000000	99.325548 
1679.000000	99.318142 
1678.000000	99.311728 
1677.000000	99.306811 
1676.000000	99.303303 
1675.000000	99.300874 
1674.000000	99.299050 
1673.000000	99.297703 
1672.000000	99.297230 
1671.000000	99.298412 
1670.000000	99.300748 
1669.000000	99.301278 
1668.000000	99.298412 
1667.000000	99.293329 
1666.000000	99.286593 
1665.000000	99.278278 
1664.000000	99.269533 
1663.000000	99.262355 
1662.000000	99.258131 
1661.000000	99.256072 
1660.000000	99.254684 
1659.000000	99.254123 
1658.000000	99.254780 
1657.000000	99.254969 
1656.000000	99.251973 
1655.000000	99.247562 
1654.000000	99.245904 
1653.000000	99.244773 
1652.000000	99.241045 
1651.000000	99.240646 
1650.000000	99.240123 
1649.000000	99.234897 
1648.000000	99.224542 
1647.000000	99.212696 
1646.000000	99.204833 
1645.000000	99.204701 
1644.000000	99.210626 
1643.000000	99.218199 
1642.000000	99.224818 
1641.000000	99.230127 
1640.000000	99.234297 
1639.000000	99.237274 
1638.000000	99.239602 
1637.000000	99.241847 
1636.000000	99.241319 
1635.000000	99.236210 
1634.000000	99.231214 
1633.000000	99.229837 
1632.000000	99.230251 
1631.000000	99.230939 
1630.000000	99.232526 
1629.000000	99.235899 
1628.000000	99.240590 
1627.000000	99.245973 
1626.000000	99.252492 
1625.000000	99.260932 
1624.000000	99.270595 
1623.000000	99.278606 
1622.000000	99.282685 
1621.000000	99.282723 
1620.000000	99.279245 
1619.000000	99.273303 
1618.000000	99.267447 
1617.000000	99.263979 
1616.000000	99.263562 
1615.000000	99.266820 
1614.000000	99.272893 
1613.000000	99.279640 
1612.000000	99.286403 
1611.000000	99.293707 
1610.000000	99.301544 
1609.000000	99.308489 
1608.000000	99.313013 
1607.000000	99.314998 
1606.000000	99.315321 
1605.000000	99.314570 
1604.000000	99.313027 
1603.000000	99.311064 
1602.000000	99.309096 
1601.000000	99.307494 
1600.000000	99.307037 
1599.000000	99.308923 
1598.000000	99.313531 
1597.000000	99.320054 
1596.000000	99.327455 
1595.000000	99.335127 
1594.000000	99.342406 
1593.000000	99.347926 
1592.000000	99.350518 
1591.000000	99.350436 
1590.000000	99.349047 
1589.000000	99.347408 
1588.000000	99.345821 
1587.000000	99.344487 
1586.000000	99.343495 
1585.000000	99.342366 
1584.000000	99.340785 
1583.000000	99.339816 
1582.000000	99.341206 
1581.000000	99.345188 
1580.000000	99.349971 
1579.000000	99.353812 
1578.000000	99.356607 
1577.000000	99.358542 
1576.000000	99.358444 
1575.000000	99.356986 
1574.000000	99.356325 
1573.000000	99.355381 
1572.000000	99.352773 
1571.000000	99.349489 
1570.000000	99.347607 
1569.000000	99.348087 
1568.000000	99.350852 
1567.000000	99.355520 
1566.000000	99.360937 
1565.000000	99.365880 
1564.000000	99.369440 
1563.000000	99.371305 
1562.000000	99.371785 
1561.000000	99.372150 
1560.000000	99.371813 
1559.000000	99.364972 
1558.000000	99.354013 
1557.000000	99.348906 
1556.000000	99.348628 
1555.000000	99.348984 
1554.000000	99.349119 
1553.000000	99.350608 
1552.000000	99.354846 
1551.000000	99.361400 
1550.000000	99.368790 
1549.000000	99.375569 
1548.000000	99.380977 
1547.000000	99.384561 
1546.000000	99.385198 
1545.000000	99.381899 
1544.000000	99.375075 
1543.000000	99.365926 
1542.000000	99.355586 
1541.000000	99.346093 
1540.000000	99.339571 
1539.000000	99.338979 
1538.000000	99.346136 
1537.000000	99.357540 
1536.000000	99.369013 
1535.000000	99.380343 
1534.000000	99.392172 
1533.000000	99.401971 
1532.000000	99.407349 
1531.000000	99.409041 
1530.000000	99.409074 
1529.000000	99.408686 
1528.000000	99.407131 
1527.000000	99.403079 
1526.000000	99.396750 
1525.000000	99.390374 
1524.000000	99.385993 
1523.000000	99.384950 
1522.000000	99.388688 
1521.000000	99.397250 
1520.000000	99.407755 
1519.000000	99.417329 
1518.000000	99.424310 
1517.000000	99.428033 
1516.000000	99.428566 
1515.000000	99.427050 
1514.000000	99.424660 
1513.000000	99.421837 
1512.000000	99.418649 
1511.000000	99.414153 
1510.000000	99.407116 
1509.000000	99.398137 
1508.000000	99.391584 
1507.000000	99.391603 
1506.000000	99.396915 
1505.000000	99.405054 
1504.000000	99.414802 
1503.000000	99.423223 
1502.000000	99.428812 
1501.000000	99.432114 
1500.000000	99.433979 
1499.000000	99.433734 
1498.000000	99.429672 
1497.000000	99.422776 
1496.000000	99.417074 
1495.000000	99.413894 
1494.000000	99.410827 
1493.000000	99.406347 
1492.000000	99.402356 
1491.000000	99.402187 
1490.000000	99.406662 
1489.000000	99.413369 
1488.000000	99.418799 
1487.000000	99.420722 
1486.000000	99.420117 
1485.000000	99.418910 
1484.000000	99.417825 
1483.000000	99.416375 
1482.000000	99.412533 
1481.000000	99.404858 
1480.000000	99.394397 
1479.000000	99.383933 
1478.000000	99.375780 
1477.000000	99.370959 
1476.000000	99.369038 
1475.000000	99.368338 
1474.000000	99.368170 
1473.000000	99.368743 
1472.000000	99.369718 
1471.000000	99.369690 
1470.000000	99.368018 
1469.000000	99.364768 
1468.000000	99.360180 
1467.000000	99.354115 
1466.000000	99.346626 
1465.000000	99.338744 
1464.000000	99.332567 
1463.000000	99.329537 
1462.000000	99.328965 
1461.000000	99.329272 
1460.000000	99.329101 
1459.000000	99.328644 
1458.000000	99.328645 
1457.000000	99.329152 
1456.000000	99.329998 
1455.000000	99.330584 
1454.000000	99.328797 
1453.000000	99.323687 
1452.000000	99.316830 
1451.000000	99.310594 
1450.000000	99.306233 
1449.000000	99.303788 
1448.000000	99.302234 
1447.000000	99.300078 
1446.000000	99.297754 
1445.000000	99.297536 
1444.000000	99.300871 
1443.000000	99.306339 
1442.000000	99.310861 
1441.000000	99.312481 
1440.000000	99.311538 
1439.000000	99.309353 
1438.000000	99.306107 
1437.000000	99.300488 
1436.000000	99.292093 
1435.000000	99.282614 
1434.000000	99.273504 
1433.000000	99.266157 
1432.000000	99.262614 
1431.000000	99.264068 
1430.000000	99.268775 
1429.000000	99.273884 
1428.000000	99.278194 
1427.000000	99.281780 
1426.000000	99.284840 
1425.000000	99.286817 
1424.000000	99.287043 
1423.000000	99.284519 
1422.000000	99.277694 
1421.000000	99.266390 
1420.000000	99.252939 
1419.000000	99.241087 
1418.000000	99.232625 
1417.000000	99.227474 
1416.000000	99.225613 
1415.000000	99.226489 
1414.000000	99.228420 
1413.000000	99.229870 
1412.000000	99.231176 
1411.000000	99.233008 
1410.000000	99.233837 
1409.000000	99.231986 
1408.000000	99.228174 
1407.000000	99.223828 
1406.000000	99.219155 
1405.000000	99.214218 
1404.000000	99.211054 
1403.000000	99.211145 
1402.000000	99.213112 
1401.000000	99.215877 
1400.000000	99.220970 
1399.000000	99.229926 
1398.000000	99.239845 
1397.000000	99.245493 
1396.000000	99.244826 
1395.000000	99.240746 
1394.000000	99.238445 
1393.000000	99.240622 
1392.000000	99.246435 
1391.000000	99.252672 
1390.000000	99.255892 
1389.000000	99.254597 
1388.000000	99.250286 
1387.000000	99.246521 
1386.000000	99.245888 
1385.000000	99.248454 
1384.000000	99.253172 
1383.000000	99.259003 
1382.000000	99.265029 
1381.000000	99.271103 
1380.000000	99.277640 
1379.000000	99.284418 
1378.000000	99.289867 
1377.000000	99.292126 
1376.000000	99.290760 
1375.000000	99.287350 
1374.000000	99.284532 
1373.000000	99.284018 
1372.000000	99.286029 
1371.000000	99.290398 
1370.000000	99.297121 
1369.000000	99.305345 
1368.000000	99.314037 
1367.000000	99.323150 
1366.000000	99.333204 
1365.000000	99.343720 
1364.000000	99.352325 
1363.000000	99.356266 
1362.000000	99.355322 
1361.000000	99.352126 
1360.000000	99.349423 
1359.000000	99.348433 
1358.000000	99.349493 
1357.000000	99.352457 
1356.000000	99.356624 
1355.000000	99.361253 
1354.000000	99.366472 
1353.000000	99.373021 
1352.000000	99.380567 
1351.000000	99.387332 
1350.000000	99.392172 
1349.000000	99.395085 
1348.000000	99.396765 
1347.000000	99.397899 
1346.000000	99.399170 
1345.000000	99.400787 
1344.000000	99.402034 
1343.000000	99.401938 
1342.000000	99.400715 
1341.000000	99.399909 
1340.000000	99.400993 
1339.000000	99.404314 
1338.000000	99.409479 
1337.000000	99.416253 
1336.000000	99.424308 
1335.000000	99.432476 
1334.000000	99.439358 
1333.000000	99.444406 
1332.000000	99.447550 
1331.000000	99.448299 
1330.000000	99.446153 
1329.000000	99.441575 
1328.000000	99.436052 
1327.000000	99.431229 
1326.000000	99.428297 
1325.000000	99.427762 
1324.000000	99.430127 
1323.000000	99.435898 
1322.000000	99.444840 
1321.000000	99.455403 
1320.000000	99.465061 
1319.000000	99.471461 
1318.000000	99.473675 
1317.000000	99.472409 
1316.000000	99.468846 
1315.000000	99.463583 
1314.000000	99.457073 
1313.000000	99.450630 
1312.000000	99.445899 
1311.000000	99.443445 
1310.000000	99.442987 
1309.000000	99.444946 
1308.000000	99.450432 
1307.000000	99.459174 
1306.000000	99.468720 
1305.000000	99.476286 
1304.000000	99.481161 
1303.000000	99.484206 
1302.000000	99.485905 
1301.000000	99.485597 
1300.000000	99.482289 
1299.000000	99.475595 
1298.000000	99.466485 
1297.000000	99.457670 
1296.000000	99.452466 
1295.000000	99.452616 
1294.000000	99.457254 
1293.000000	99.464130 
1292.000000	99.471177 
1291.000000	99.476823 
1290.000000	99.480266 
1289.000000	99.482377 
1288.000000	99.485030 
1287.000000	99.488278 
1286.000000	99.489184 
1285.000000	99.484922 
1284.000000	99.476219 
1283.000000	99.466671 
1282.000000	99.459333 
1281.000000	99.455139 
1280.000000	99.454002 
1279.000000	99.455569 
1278.000000	99.458706 
1277.000000	99.461994 
1276.000000	99.465243 
1275.000000	99.469583 
1274.000000	99.475573 
1273.000000	99.482039 
1272.000000	99.486929 
1271.000000	99.488499 
1270.000000	99.485674 
1269.000000	99.478443 
1268.000000	99.468386 
1267.000000	99.457872 
1266.000000	99.448110 
1265.000000	99.438992 
1264.000000	99.431222 
1263.000000	99.427255 
1262.000000	99.429163 
1261.000000	99.436363 
1260.000000	99.446186 
1259.000000	99.456027 
1258.000000	99.463995 
1257.000000	99.468515 
1256.000000	99.468510 
1255.000000	99.463910 
1254.000000	99.455300 
1253.000000	99.443351 
1252.000000	99.429229 
1251.000000	99.415381 
1250.000000	99.404970 
1249.000000	99.400445 
1248.000000	99.403002 
1247.000000	99.412737 
1246.000000	99.427994 
1245.000000	99.444733 
1244.000000	99.457778 
1243.000000	99.463790 
1242.000000	99.463253 
1241.000000	99.459167 
1240.000000	99.453508 
1239.000000	99.445376 
1238.000000	99.433007 
1237.000000	99.416960 
1236.000000	99.400419 
1235.000000	99.386500 
1234.000000	99.376336 
1233.000000	99.370149 
1232.000000	99.368820 
1231.000000	99.372952 
1230.000000	99.380796 
1229.000000	99.388483 
1228.000000	99.392471 
1227.000000	99.391229 
1226.000000	99.384990 
1225.000000	99.374501 
1224.000000	99.359793 
1223.000000	99.339937 
1222.000000	99.314646 
1221.000000	99.286504 
1220.000000	99.260805 
1219.000000	99.242162 
1218.000000	99.231254 
1217.000000	99.225275 
1216.000000	99.220786 
1215.000000	99.215451 
1214.000000	99.208186 
1213.000000	99.199044 
1212.000000	99.188419 
1211.000000	99.175140 
1210.000000	99.155977 
1209.000000	99.128137 
1208.000000	99.091785 
1207.000000	99.049754 
1206.000000	99.006066 
1205.000000	98.965572 
1204.000000	98.932989 
1203.000000	98.909671 
1202.000000	98.891912 
1201.000000	98.874837 
1200.000000	98.857600 
1199.000000	98.842532 
1198.000000	98.829712 
1197.000000	98.815322 
1196.000000	98.795468 
1195.000000	98.768798 
1194.000000	98.735042 
1193.000000	98.693809 
1192.000000	98.646264 
1191.000000	98.596089 
1190.000000	98.547361 
1189.000000	98.502836 
1188.000000	98.465141 
1187.000000	98.437362 
1186.000000	98.420369 
1185.000000	98.410435 
1184.000000	98.400782 
1183.000000	98.385128 
1182.000000	98.359920 
1181.000000	98.324989 
1180.000000	98.283115 
1179.000000	98.237735 
1178.000000	98.189830 
1177.000000	98.137734 
1176.000000	98.080595 
1175.000000	98.021045 
1174.000000	97.963949 
1173.000000	97.913500 
1172.000000	97.872016 
1171.000000	97.839798 
1170.000000	97.814814 
1169.000000	97.793628 
1168.000000	97.773650 
1167.000000	97.753693 
1166.000000	97.732363 
1165.000000	97.708163 
1164.000000	97.682416 
1163.000000	97.660387 
1162.000000	97.647607 
1161.000000	97.645071 
1160.000000	97.648413 
1159.000000	97.651308 
1158.000000	97.649520 
1157.000000	97.642379 
1156.000000	97.631068 
1155.000000	97.616095 
1154.000000	97.597032 
1153.000000	97.574343 
1152.000000	97.549580 
1151.000000	97.522690 
1150.000000	97.490725 
1149.000000	97.450943 
1148.000000	97.403980 
1147.000000	97.352127 
1146.000000	97.295839 
1145.000000	97.234892 
1144.000000	97.172826 
1143.000000	97.117341 
1142.000000	97.075018 
1141.000000	97.046731 
1140.000000	97.027808 
1139.000000	97.010649 
1138.000000	96.987877 
1137.000000	96.955983 
1136.000000	96.916952 
1135.000000	96.875176 
1134.000000	96.832463 
1133.000000	96.786709 
1132.000000	96.734485 
1131.000000	96.673513 
1130.000000	96.604196 
1129.000000	96.531389 
1128.000000	96.463923 
1127.000000	96.409174 
1126.000000	96.367531 
1125.000000	96.333843 
1124.000000	96.303434 
1123.000000	96.274005 
1122.000000	96.242508 
1121.000000	96.204364 
1120.000000	96.156997 
1119.000000	96.101656 
1118.000000	96.041126 
1117.000000	95.977772 
1116.000000	95.914150 
1115.000000	95.852799 
1114.000000	95.794228 
1113.000000	95.737235 
1112.000000	95.682528 
1111.000000	95.634441 
1110.000000	95.597967 
1109.000000	95.574665 
1108.000000	95.561036 
1107.000000	95.549034 
1106.000000	95.529276 
1105.000000	95.496349 
1104.000000	95.451129 
1103.000000	95.397255 
1102.000000	95.337274 
1101.000000	95.273942 
1100.000000	95.212828 
1099.000000	95.158220 
1098.000000	95.109390 
1097.000000	95.064143 
1096.000000	95.024921 
1095.000000	94.996324 
1094.000000	94.977728 
1093.000000	94.963653 
1092.000000	94.950489 
1091.000000	94.936868 
1090.000000	94.917769 
1089.000000	94.884895 
1088.000000	94.834467 
1087.000000	94.770234 
1086.000000	94.698615 
1085.000000	94.625620 
1084.000000	94.558548 
1083.000000	94.504132 
1082.000000	94.462446 
1081.000000	94.427316 
1080.000000	94.394613 
1079.000000	94.365922 
1078.000000	94.343108 
1077.000000	94.324183 
1076.000000	94.305936 
1075.000000	94.285731 
1074.000000	94.258923 
1073.000000	94.218627 
1072.000000	94.159560 
1071.000000	94.079292 
1070.000000	93.976625 
1069.000000	93.854141 
1068.000000	93.723398 
1067.000000	93.602112 
1066.000000	93.502928 
1065.000000	93.427476 
1064.000000	93.370759 
1063.000000	93.324805 
1062.000000	93.277262 
1061.000000	93.214642 
1060.000000	93.131949 
1059.000000	93.035938 
1058.000000	92.936544 
1057.000000	92.837731 
1056.000000	92.737266 
1055.000000	92.630547 
1054.000000	92.513037 
1053.000000	92.384295 
1052.000000	92.252755 
1051.000000	92.132341 
1050.000000	92.031107 
1049.000000	91.946308 
1048.000000	91.871057 
1047.000000	91.800023 
1046.000000	91.727846 
1045.000000	91.648413 
1044.000000	91.558080 
1043.000000	91.456302 
1042.000000	91.343104 
1041.000000	91.219718 
1040.000000	91.091387 
1039.000000	90.965550 
1038.000000	90.847873 
1037.000000	90.743961 
1036.000000	90.662421 
1035.000000	90.609546 
1034.000000	90.581603 
1033.000000	90.568312 
1032.000000	90.562878 
1031.000000	90.562756 
1030.000000	90.563269 
1029.000000	90.558985 
1028.000000	90.550583 
1027.000000	90.542397 
1026.000000	90.533214 
1025.000000	90.516604 
1024.000000	90.490286 
1023.000000	90.458952 
1022.000000	90.428674 
1021.000000	90.404464 
1020.000000	90.391651 
1019.000000	90.392728 
1018.000000	90.403659 
1017.000000	90.418989 
1016.000000	90.438118 
1015.000000	90.460278 
1014.000000	90.477550 
1013.000000	90.481453 
1012.000000	90.473290 
1011.000000	90.459347 
1010.000000	90.439510 
1009.000000	90.410982 
1008.000000	90.380826 
1007.000000	90.363569 
1006.000000	90.366669 
1005.000000	90.387938 
1004.000000	90.425987 
1003.000000	90.482011 
1002.000000	90.550775 
1001.000000	90.620970 
1000.000000	90.687126 
999.000000	 90.752477 
998.000000	 90.818269 
997.000000	 90.878393 
996.000000	 90.926608 
995.000000	 90.962485 
994.000000	 90.989306 
993.000000	 91.012385 
992.000000	 91.039739 
991.000000	 91.078197 
990.000000	 91.128630 
989.000000	 91.190001 
988.000000	 91.265955 
987.000000	 91.360509 
986.000000	 91.469350 
985.000000	 91.583298 
984.000000	 91.698543 
983.000000	 91.814845 
982.000000	 91.925782 
981.000000	 92.021404 
980.000000	 92.101263 
979.000000	 92.175955 
978.000000	 92.254719 
977.000000	 92.339364 
976.000000	 92.431013 
975.000000	 92.534265 
974.000000	 92.652409 
973.000000	 92.785213 
972.000000	 92.932826 
971.000000	 93.094829 
970.000000	 93.263411 
969.000000	 93.424041 
968.000000	 93.565747 
967.000000	 93.686933 
966.000000	 93.790889 
965.000000	 93.880347 
964.000000	 93.957587 
963.000000	 94.025966 
962.000000	 94.089746 
961.000000	 94.154499 
960.000000	 94.227211 
959.000000	 94.312627 
958.000000	 94.409478 
957.000000	 94.513014 
956.000000	 94.620231 
955.000000	 94.729710 
954.000000	 94.838170 
953.000000	 94.940753 
952.000000	 95.032702 
951.000000	 95.107294 
950.000000	 95.155770 
949.000000	 95.175598 
948.000000	 95.178071 
947.000000	 95.182560 
946.000000	 95.201966 
945.000000	 95.236657 
944.000000	 95.281191 
943.000000	 95.331464 
942.000000	 95.385356 
941.000000	 95.441791 
940.000000	 95.501096 
939.000000	 95.563334 
938.000000	 95.624987 
937.000000	 95.678868 
936.000000	 95.717591 
935.000000	 95.736954 
934.000000	 95.738236 
933.000000	 95.728393 
932.000000	 95.715765 
931.000000	 95.704824 
930.000000	 95.698457 
929.000000	 95.705689 
928.000000	 95.740043 
927.000000	 95.804778 
926.000000	 95.884107 
925.000000	 95.955639 
924.000000	 96.009274 
923.000000	 96.048793 
922.000000	 96.079268 
921.000000	 96.100718 
920.000000	 96.112024 
919.000000	 96.112535 
918.000000	 96.099108 
917.000000	 96.069039 
916.000000	 96.029069 
915.000000	 95.997125 
914.000000	 95.991698 
913.000000	 96.020681 
912.000000	 96.079761 
911.000000	 96.157848 
910.000000	 96.244165 
909.000000	 96.333437 
908.000000	 96.424957 
907.000000	 96.516116 
906.000000	 96.599305 
905.000000	 96.667179 
904.000000	 96.718416 
903.000000	 96.756983 
902.000000	 96.789866 
901.000000	 96.827395 
900.000000	 96.880130 
899.000000	 96.950319 
898.000000	 97.029882 
897.000000	 97.111905 
896.000000	 97.200819 
895.000000	 97.305335 
894.000000	 97.423555 
893.000000	 97.540755 
892.000000	 97.641009 
891.000000	 97.717098 
890.000000	 97.771585 
889.000000	 97.813312 
888.000000	 97.851138 
887.000000	 97.886311 
886.000000	 97.911735 
885.000000	 97.922249 
884.000000	 97.924753 
883.000000	 97.935976 
882.000000	 97.971815 
881.000000	 98.040055 
880.000000	 98.137676 
879.000000	 98.248940 
878.000000	 98.350951 
877.000000	 98.429627 
876.000000	 98.488198 
875.000000	 98.534978 
874.000000	 98.567291 
873.000000	 98.576246 
872.000000	 98.564752 
871.000000	 98.550527 
870.000000	 98.549641 
869.000000	 98.564939 
868.000000	 98.592979 
867.000000	 98.634136 
866.000000	 98.691312 
865.000000	 98.764092 
864.000000	 98.849092 
863.000000	 98.942464 
862.000000	 99.037111 
861.000000	 99.119497 
860.000000	 99.174671 
859.000000	 99.196528 
858.000000	 99.192766 
857.000000	 99.179313 
856.000000	 99.169183 
855.000000	 99.165475 
854.000000	 99.163992 
853.000000	 99.162555 
852.000000	 99.167819 
851.000000	 99.192195 
850.000000	 99.243263 
849.000000	 99.316283 
848.000000	 99.396643 
847.000000	 99.468224 
846.000000	 99.519897 
845.000000	 99.547174 
844.000000	 99.550986 
843.000000	 99.535360 
842.000000	 99.503675 
841.000000	 99.455684 
840.000000	 99.390932 
839.000000	 99.317987 
838.000000	 99.257196 
837.000000	 99.228002 
836.000000	 99.233268 
835.000000	 99.260600 
834.000000	 99.299170 
833.000000	 99.348656 
832.000000	 99.407841 
831.000000	 99.462293 
830.000000	 99.493495 
829.000000	 99.497233 
828.000000	 99.481996 
827.000000	 99.450610 
826.000000	 99.397367 
825.000000	 99.327353 
824.000000	 99.265054 
823.000000	 99.234013 
822.000000	 99.236121 
821.000000	 99.258816 
820.000000	 99.294173 
819.000000	 99.342664 
818.000000	 99.404593 
817.000000	 99.475068 
816.000000	 99.542835 
815.000000	 99.588116 
814.000000	 99.586665 
813.000000	 99.524407 
812.000000	 99.408698 
811.000000	 99.261884 
810.000000	 99.102839 
809.000000	 98.936251 
808.000000	 98.759252 
807.000000	 98.574240 
806.000000	 98.392774 
805.000000	 98.228652 
804.000000	 98.090365 
803.000000	 97.980673 
802.000000	 97.900331 
801.000000	 97.848470 
800.000000	 97.817963 
799.000000	 97.793850 
798.000000	 97.762032 
797.000000	 97.720015 
796.000000	 97.675013 
795.000000	 97.633386 
794.000000	 97.598859 
793.000000	 97.579970 
792.000000	 97.588953 
791.000000	 97.628542 
790.000000	 97.686266 
789.000000	 97.746540 
788.000000	 97.803098 
787.000000	 97.855010 
786.000000	 97.896566 
785.000000	 97.917324 
784.000000	 97.908793 
783.000000	 97.866964 
782.000000	 97.792167 
781.000000	 97.690888 
780.000000	 97.576224 
779.000000	 97.465143 
778.000000	 97.377405 
777.000000	 97.335198 
776.000000	 97.354706 
775.000000	 97.432467 
774.000000	 97.544436 
773.000000	 97.664433 
772.000000	 97.780913 
771.000000	 97.891984 
770.000000	 97.991333 
769.000000	 98.067174 
768.000000	 98.110759 
767.000000	 98.118911 
766.000000	 98.091838 
765.000000	 98.036004 
764.000000	 97.968702 
763.000000	 97.912970 
762.000000	 97.884351 
761.000000	 97.884803 
760.000000	 97.909777 
759.000000	 97.957485 
758.000000	 98.029122 
757.000000	 98.121519 
756.000000	 98.222174 
755.000000	 98.313488 
754.000000	 98.382912 
753.000000	 98.428011 
752.000000	 98.451360 
751.000000	 98.454248 
750.000000	 98.438062 
749.000000	 98.408004 
748.000000	 98.371275 
747.000000	 98.335049 
746.000000	 98.311233 
745.000000	 98.318954 
744.000000	 98.373047 
743.000000	 98.468183 
742.000000	 98.579560 
741.000000	 98.682106 
740.000000	 98.766024 
739.000000	 98.834071 
738.000000	 98.890940 
737.000000	 98.936883 
736.000000	 98.965369 
735.000000	 98.965534 
734.000000	 98.933266 
733.000000	 98.881965 
732.000000	 98.837484 
731.000000	 98.820266 
730.000000	 98.835608 
729.000000	 98.878204 
728.000000	 98.938398 
727.000000	 99.003843 
726.000000	 99.064593 
725.000000	 99.122006 
724.000000	 99.184115 
723.000000	 99.246332 
722.000000	 99.284830 
721.000000	 99.277157 
720.000000	 99.224916 
719.000000	 99.152090 
718.000000	 99.084779 
717.000000	 99.037271 
716.000000	 99.012319 
715.000000	 99.005596 
714.000000	 99.013228 
713.000000	 99.041464 
712.000000	 99.104309 
711.000000	 99.203888 
710.000000	 99.316736 
709.000000	 99.406551 
708.000000	 99.448892 
707.000000	 99.441209 
706.000000	 99.395566 
705.000000	 99.330687 
704.000000	 99.264508 
703.000000	 99.200215 
702.000000	 99.123886 
701.000000	 99.026638 
700.000000	 98.925348 
699.000000	 98.853835 
698.000000	 98.832183 
697.000000	 98.853502 
696.000000	 98.899082 
695.000000	 98.955038 
694.000000	 99.015423 
693.000000	 99.077288 
692.000000	 99.135942 
691.000000	 99.181609 
690.000000	 99.196965 
689.000000	 99.165617 
688.000000	 99.088759 
687.000000	 98.991758 
686.000000	 98.912941 
685.000000	 98.882245 
684.000000	 98.906310 
683.000000	 98.970889 
682.000000	 99.056816 
681.000000	 99.156274 
680.000000	 99.272339 
679.000000	 99.402592 
678.000000	 99.524563 
677.000000	 99.599744 
676.000000	 99.601564 
675.000000	 99.537380 
674.000000	 99.440653 
673.000000	 99.346263 
672.000000	 99.274225 
671.000000	 99.229239 
670.000000	 99.211770 
669.000000	 99.222893 
668.000000	 99.251149 
667.000000	 99.293406 
666.000000	 99.376533 
665.000000	 99.504026 
664.000000	 99.656914 
663.000000	 99.793113 
662.000000	 99.863811 
661.000000	 99.859123 
660.000000	 99.810322 
659.000000	 99.740802 
658.000000	 99.640854 
657.000000	 99.498837 
656.000000	 99.340131 
655.000000	 99.217146 
654.000000	 99.161801 
653.000000	 99.175635 
652.000000	 99.259177 
651.000000	 99.412279 
650.000000	 99.609452 

