4000.000000	98.034182 
3999.000000	98.035816 
3998.000000	98.035261 
3997.000000	98.033437 
3996.000000	98.030636 
3995.000000	98.026941 
3994.000000	98.023178 
3993.000000	98.020513 
3992.000000	98.019174 
3991.000000	98.018378 
3990.000000	98.017624 
3989.000000	98.017161 
3988.000000	98.017056 
3987.000000	98.016836 
3986.000000	98.016587 
3985.000000	98.017471 
3984.000000	98.020208 
3983.000000	98.023522 
3982.000000	98.024900 
3981.000000	98.022940 
3980.000000	98.018636 
3979.000000	98.014285 
3978.000000	98.011489 
3977.000000	98.010312 
3976.000000	98.009936 
3975.000000	98.009937 
3974.000000	98.010926 
3973.000000	98.013752 
3972.000000	98.017917 
3971.000000	98.021136 
3970.000000	98.021453 
3969.000000	98.019364 
3968.000000	98.017178 
3967.000000	98.016461 
3966.000000	98.016652 
3965.000000	98.016090 
3964.000000	98.013686 
3963.000000	98.009826 
3962.000000	98.006204 
3961.000000	98.004952 
3960.000000	98.007131 
3959.000000	98.011476 
3958.000000	98.015824 
3957.000000	98.019171 
3956.000000	98.021852 
3955.000000	98.024224 
3954.000000	98.025930 
3953.000000	98.026426 
3952.000000	98.024845 
3951.000000	98.020254 
3950.000000	98.012636 
3949.000000	98.003450 
3948.000000	97.995289 
3947.000000	97.990988 
3946.000000	97.991780 
3945.000000	97.995257 
3944.000000	97.996620 
3943.000000	97.993375 
3942.000000	97.988538 
3941.000000	97.988028 
3940.000000	97.994182 
3939.000000	98.002713 
3938.000000	98.008202 
3937.000000	98.009324 
3936.000000	98.007522 
3935.000000	98.003383 
3934.000000	97.997062 
3933.000000	97.991905 
3932.000000	97.992297 
3931.000000	97.997816 
3930.000000	98.002901 
3929.000000	98.003008 
3928.000000	98.000002 
3927.000000	97.998504 
3926.000000	97.999094 
3925.000000	97.998595 
3924.000000	97.995938 
3923.000000	97.993135 
3922.000000	97.989843 
3921.000000	97.983751 
3920.000000	97.977427 
3919.000000	97.977434 
3918.000000	97.985116 
3917.000000	97.994472 
3916.000000	98.000844 
3915.000000	98.006034 
3914.000000	98.012201 
3913.000000	98.017024 
3912.000000	98.018800 
3911.000000	98.018362 
3910.000000	98.016755 
3909.000000	98.012505 
3908.000000	98.003210 
3907.000000	97.988770 
3906.000000	97.971188 
3905.000000	97.953743 
3904.000000	97.940464 
3903.000000	97.936759 
3902.000000	97.945550 
3901.000000	97.960186 
3900.000000	97.968368 
3899.000000	97.966968 
3898.000000	97.964924 
3897.000000	97.969643 
3896.000000	97.978080 
3895.000000	97.983596 
3894.000000	97.987156 
3893.000000	97.992486 
3892.000000	97.994976 
3891.000000	97.984798 
3890.000000	97.968407 
3889.000000	97.964275 
3888.000000	97.973599 
3887.000000	97.981069 
3886.000000	97.976050 
3885.000000	97.963016 
3884.000000	97.958856 
3883.000000	97.969978 
3882.000000	97.982169 
3881.000000	97.983117 
3880.000000	97.975048 
3879.000000	97.969523 
3878.000000	97.977387 
3877.000000	97.993712 
3876.000000	98.002149 
3875.000000	97.992646 
3874.000000	97.971131 
3873.000000	97.957599 
3872.000000	97.963624 
3871.000000	97.974793 
3870.000000	97.968801 
3869.000000	97.949187 
3868.000000	97.945040 
3867.000000	97.963491 
3866.000000	97.978859 
3865.000000	97.978229 
3864.000000	97.974973 
3863.000000	97.980492 
3862.000000	97.990435 
3861.000000	97.994099 
3860.000000	97.988221 
3859.000000	97.973903 
3858.000000	97.951420 
3857.000000	97.924625 
3856.000000	97.905520 
3855.000000	97.910398 
3854.000000	97.931277 
3853.000000	97.928240 
3852.000000	97.905801 
3851.000000	97.913210 
3850.000000	97.947286 
3849.000000	97.974425 
3848.000000	97.987380 
3847.000000	97.994578 
3846.000000	98.000016 
3845.000000	98.001514 
3844.000000	97.996348 
3843.000000	97.984345 
3842.000000	97.971433 
3841.000000	97.964265 
3840.000000	97.965152 
3839.000000	97.972029 
3838.000000	97.978023 
3837.000000	97.976303 
3836.000000	97.969165 
3835.000000	97.965802 
3834.000000	97.970879 
3833.000000	97.981763 
3832.000000	97.992779 
3831.000000	98.000719 
3830.000000	98.006908 
3829.000000	98.012579 
3828.000000	98.014060 
3827.000000	98.005096 
3826.000000	97.987533 
3825.000000	97.974473 
3824.000000	97.976252 
3823.000000	97.988509 
3822.000000	97.997275 
3821.000000	97.988012 
3820.000000	97.970038 
3819.000000	97.973294 
3818.000000	97.995222 
3817.000000	98.006239 
3816.000000	97.993744 
3815.000000	97.973875 
3814.000000	97.973233 
3813.000000	97.991142 
3812.000000	98.002586 
3811.000000	97.998634 
3810.000000	97.991951 
3809.000000	97.992611 
3808.000000	97.993674 
3807.000000	97.981110 
3806.000000	97.959755 
3805.000000	97.953548 
3804.000000	97.968123 
3803.000000	97.983299 
3802.000000	97.982874 
3801.000000	97.965845 
3800.000000	97.953754 
3799.000000	97.966933 
3798.000000	97.989330 
3797.000000	97.997885 
3796.000000	97.992339 
3795.000000	97.986402 
3794.000000	97.988363 
3793.000000	97.994012 
3792.000000	97.998112 
3791.000000	98.002128 
3790.000000	98.007740 
3789.000000	98.012087 
3788.000000	98.012581 
3787.000000	98.010640 
3786.000000	98.007783 
3785.000000	98.002466 
3784.000000	97.995334 
3783.000000	97.992288 
3782.000000	97.997522 
3781.000000	98.007476 
3780.000000	98.015061 
3779.000000	98.016168 
3778.000000	98.014480 
3777.000000	98.015843 
3776.000000	98.017856 
3775.000000	98.013955 
3774.000000	98.005243 
3773.000000	97.999403 
3772.000000	97.999121 
3771.000000	97.998694 
3770.000000	97.993589 
3769.000000	97.988985 
3768.000000	97.993815 
3767.000000	98.005250 
3766.000000	98.009578 
3765.000000	98.001183 
3764.000000	97.990056 
3763.000000	97.987032 
3762.000000	97.988018 
3761.000000	97.983073 
3760.000000	97.974094 
3759.000000	97.967458 
3758.000000	97.961356 
3757.000000	97.951841 
3756.000000	97.941919 
3755.000000	97.935687 
3754.000000	97.930214 
3753.000000	97.923940 
3752.000000	97.924030 
3751.000000	97.929868 
3750.000000	97.923400 
3749.000000	97.901268 
3748.000000	97.888631 
3747.000000	97.899991 
3746.000000	97.922152 
3745.000000	97.932690 
3744.000000	97.912352 
3743.000000	97.883371 
3742.000000	97.886800 
3741.000000	97.905761 
3740.000000	97.908589 
3739.000000	97.901767 
3738.000000	97.902403 
3737.000000	97.910301 
3736.000000	97.914461 
3735.000000	97.917311 
3734.000000	97.929722 
3733.000000	97.947615 
3732.000000	97.957331 
3731.000000	97.959639 
3730.000000	97.966477 
3729.000000	97.977548 
3728.000000	97.980027 
3727.000000	97.969328 
3726.000000	97.955392 
3725.000000	97.949888 
3724.000000	97.951830 
3723.000000	97.952338 
3722.000000	97.949211 
3721.000000	97.946718 
3720.000000	97.947930 
3719.000000	97.948396 
3718.000000	97.939689 
3717.000000	97.919316 
3716.000000	97.892681 
3715.000000	97.865330 
3714.000000	97.838670 
3713.000000	97.814784 
3712.000000	97.795157 
3711.000000	97.776060 
3710.000000	97.755783 
3709.000000	97.736908 
3708.000000	97.718859 
3707.000000	97.698135 
3706.000000	97.673113 
3705.000000	97.644557 
3704.000000	97.613738 
3703.000000	97.582996 
3702.000000	97.554840 
3701.000000	97.530802 
3700.000000	97.514122 
3699.000000	97.506192 
3698.000000	97.499888 
3697.000000	97.487362 
3696.000000	97.470650 
3695.000000	97.457226 
3694.000000	97.448625 
3693.000000	97.441311 
3692.000000	97.437468 
3691.000000	97.444497 
3690.000000	97.461849 
3689.000000	97.474849 
3688.000000	97.474165 
3687.000000	97.473689 
3686.000000	97.487250 
3685.000000	97.504203 
3684.000000	97.508463 
3683.000000	97.500210 
3682.000000	97.487619 
3681.000000	97.469964 
3680.000000	97.438532 
3679.000000	97.396259 
3678.000000	97.357864 
3677.000000	97.331695 
3676.000000	97.306952 
3675.000000	97.264892 
3674.000000	97.219912 
3673.000000	97.197447 
3672.000000	97.182847 
3671.000000	97.157575 
3670.000000	97.126215 
3669.000000	97.096109 
3668.000000	97.072921 
3667.000000	97.053438 
3666.000000	97.027116 
3665.000000	96.991543 
3664.000000	96.952756 
3663.000000	96.914415 
3662.000000	96.873019 
3661.000000	96.823793 
3660.000000	96.768246 
3659.000000	96.715112 
3658.000000	96.671650 
3657.000000	96.635043 
3656.000000	96.593082 
3655.000000	96.541851 
3654.000000	96.488505 
3653.000000	96.432635 
3652.000000	96.372700 
3651.000000	96.323916 
3650.000000	96.301840 
3649.000000	96.293998 
3648.000000	96.276210 
3647.000000	96.245129 
3646.000000	96.213721 
3645.000000	96.188346 
3644.000000	96.164541 
3643.000000	96.136283 
3642.000000	96.103100 
3641.000000	96.068260 
3640.000000	96.032557 
3639.000000	95.992820 
3638.000000	95.947047 
3637.000000	95.899549 
3636.000000	95.854412 
3635.000000	95.807575 
3634.000000	95.750855 
3633.000000	95.682720 
3632.000000	95.610293 
3631.000000	95.544862 
3630.000000	95.503913 
3629.000000	95.493029 
3628.000000	95.494049 
3627.000000	95.497098 
3626.000000	95.497560 
3625.000000	95.481441 
3624.000000	95.447269 
3623.000000	95.408810 
3622.000000	95.379662 
3621.000000	95.368046 
3620.000000	95.378619 
3619.000000	95.407664 
3618.000000	95.443596 
3617.000000	95.479831 
3616.000000	95.516158 
3615.000000	95.552633 
3614.000000	95.588141 
3613.000000	95.620259 
3612.000000	95.648711 
3611.000000	95.678339 
3610.000000	95.715328 
3609.000000	95.761018 
3608.000000	95.808791 
3607.000000	95.848222 
3606.000000	95.873811 
3605.000000	95.887627 
3604.000000	95.896933 
3603.000000	95.910170 
3602.000000	95.929848 
3601.000000	95.950726 
3600.000000	95.967511 
3599.000000	95.980986 
3598.000000	95.994773 
3597.000000	96.012149 
3596.000000	96.033662 
3595.000000	96.054973 
3594.000000	96.068614 
3593.000000	96.069989 
3592.000000	96.061106 
3591.000000	96.048415 
3590.000000	96.040409 
3589.000000	96.044704 
3588.000000	96.061439 
3587.000000	96.080843 
3586.000000	96.095129 
3585.000000	96.104200 
3584.000000	96.108555 
3583.000000	96.107720 
3582.000000	96.102639 
3581.000000	96.094846 
3580.000000	96.085347 
3579.000000	96.075872 
3578.000000	96.068691 
3577.000000	96.064834 
3576.000000	96.062643 
3575.000000	96.057855 
3574.000000	96.046559 
3573.000000	96.027592 
3572.000000	96.002807 
3571.000000	95.975604 
3570.000000	95.950101 
3569.000000	95.931293 
3568.000000	95.923670 
3567.000000	95.926380 
3566.000000	95.933192 
3565.000000	95.938946 
3564.000000	95.940795 
3563.000000	95.938273 
3562.000000	95.934190 
3561.000000	95.930885 
3560.000000	95.926523 
3559.000000	95.917386 
3558.000000	95.902736 
3557.000000	95.885801 
3556.000000	95.871113 
3555.000000	95.861231 
3554.000000	95.855473 
3553.000000	95.851047 
3552.000000	95.845029 
3551.000000	95.835827 
3550.000000	95.822892 
3549.000000	95.806730 
3548.000000	95.791022 
3547.000000	95.782091 
3546.000000	95.782962 
3545.000000	95.789624 
3544.000000	95.794926 
3543.000000	95.794343 
3542.000000	95.787721 
3541.000000	95.777231 
3540.000000	95.765512 
3539.000000	95.754790 
3538.000000	95.746470 
3537.000000	95.741085 
3536.000000	95.737867 
3535.000000	95.734913 
3534.000000	95.729878 
3533.000000	95.721733 
3532.000000	95.711986 
3531.000000	95.703639 
3530.000000	95.698069 
3529.000000	95.693379 
3528.000000	95.686859 
3527.000000	95.678529 
3526.000000	95.671369 
3525.000000	95.668101 
3524.000000	95.668888 
3523.000000	95.671530 
3522.000000	95.673627 
3521.000000	95.674625 
3520.000000	95.675789 
3519.000000	95.678085 
3518.000000	95.680273 
3517.000000	95.679550 
3516.000000	95.673852 
3515.000000	95.663537 
3514.000000	95.651273 
3513.000000	95.640623 
3512.000000	95.634408 
3511.000000	95.633731 
3510.000000	95.637200 
3509.000000	95.640807 
3508.000000	95.639964 
3507.000000	95.632628 
3506.000000	95.620586 
3505.000000	95.608438 
3504.000000	95.600986 
3503.000000	95.600116 
3502.000000	95.603795 
3501.000000	95.607638 
3500.000000	95.607532 
3499.000000	95.601833 
3498.000000	95.592400 
3497.000000	95.583450 
3496.000000	95.578409 
3495.000000	95.577374 
3494.000000	95.577802 
3493.000000	95.577495 
3492.000000	95.576144 
3491.000000	95.574278 
3490.000000	95.571767 
3489.000000	95.567769 
3488.000000	95.561850 
3487.000000	95.554633 
3486.000000	95.547110 
3485.000000	95.539498 
3484.000000	95.530960 
3483.000000	95.520827 
3482.000000	95.510058 
3481.000000	95.501094 
3480.000000	95.495613 
3479.000000	95.492541 
3478.000000	95.489147 
3477.000000	95.484022 
3476.000000	95.478200 
3475.000000	95.473125 
3474.000000	95.468620 
3473.000000	95.463650 
3472.000000	95.458015 
3471.000000	95.452121 
3470.000000	95.445533 
3469.000000	95.436840 
3468.000000	95.425390 
3467.000000	95.412850 
3466.000000	95.402525 
3465.000000	95.396705 
3464.000000	95.394519 
3463.000000	95.392455 
3462.000000	95.387110 
3461.000000	95.377598 
3460.000000	95.365749 
3459.000000	95.354520 
3458.000000	95.346229 
3457.000000	95.341201 
3456.000000	95.337136 
3455.000000	95.330576 
3454.000000	95.319858 
3453.000000	95.306702 
3452.000000	95.294473 
3451.000000	95.284952 
3450.000000	95.277119 
3449.000000	95.268904 
3448.000000	95.259434 
3447.000000	95.249244 
3446.000000	95.239303 
3445.000000	95.230681 
3444.000000	95.224395 
3443.000000	95.220324 
3442.000000	95.216077 
3441.000000	95.208184 
3440.000000	95.195526 
3439.000000	95.180819 
3438.000000	95.167980 
3437.000000	95.158463 
3436.000000	95.150942 
3435.000000	95.144271 
3434.000000	95.138918 
3433.000000	95.135326 
3432.000000	95.132272 
3431.000000	95.127595 
3430.000000	95.119921 
3429.000000	95.109314 
3428.000000	95.097104 
3427.000000	95.085333 
3426.000000	95.075872 
3425.000000	95.069529 
3424.000000	95.065961 
3423.000000	95.064375 
3422.000000	95.063989 
3421.000000	95.063894 
3420.000000	95.062928 
3419.000000	95.060162 
3418.000000	95.055527 
3417.000000	95.049906 
3416.000000	95.044450 
3415.000000	95.039484 
3414.000000	95.033873 
3413.000000	95.025849 
3412.000000	95.015054 
3411.000000	95.003867 
3410.000000	94.996281 
3409.000000	94.994971 
3408.000000	94.999119 
3407.000000	95.004866 
3406.000000	95.008062 
3405.000000	95.006876 
3404.000000	95.002042 
3403.000000	94.995218 
3402.000000	94.987821 
3401.000000	94.981274 
3400.000000	94.976907 
3399.000000	94.974695 
3398.000000	94.972822 
3397.000000	94.969682 
3396.000000	94.966244 
3395.000000	94.965537 
3394.000000	94.969568 
3393.000000	94.977066 
3392.000000	94.984327 
3391.000000	94.988234 
3390.000000	94.988583 
3389.000000	94.987745 
3388.000000	94.988249 
3387.000000	94.990667 
3386.000000	94.993752 
3385.000000	94.996360 
3384.000000	94.998634 
3383.000000	95.001215 
3382.000000	95.003961 
3381.000000	95.005911 
3380.000000	95.006104 
3379.000000	95.004245 
3378.000000	95.001104 
3377.000000	94.998419 
3376.000000	94.997726 
3375.000000	94.998862 
3374.000000	95.000153 
3373.000000	95.000327 
3372.000000	94.999862 
3371.000000	95.000347 
3370.000000	95.003262 
3369.000000	95.009403 
3368.000000	95.018370 
3367.000000	95.028042 
3366.000000	95.035465 
3365.000000	95.039297 
3364.000000	95.041029 
3363.000000	95.043146 
3362.000000	95.046584 
3361.000000	95.050656 
3360.000000	95.054764 
3359.000000	95.058860 
3358.000000	95.062439 
3357.000000	95.064605 
3356.000000	95.065912 
3355.000000	95.069037 
3354.000000	95.076304 
3353.000000	95.086552 
3352.000000	95.095474 
3351.000000	95.099759 
3350.000000	95.100738 
3349.000000	95.103164 
3348.000000	95.110176 
3347.000000	95.120061 
3346.000000	95.128404 
3345.000000	95.132784 
3344.000000	95.134457 
3343.000000	95.135881 
3342.000000	95.138061 
3341.000000	95.140743 
3340.000000	95.143875 
3339.000000	95.147857 
3338.000000	95.152921 
3337.000000	95.159014 
3336.000000	95.165849 
3335.000000	95.172489 
3334.000000	95.177536 
3333.000000	95.180665 
3332.000000	95.183687 
3331.000000	95.189079 
3330.000000	95.197394 
3329.000000	95.206823 
3328.000000	95.215319 
3327.000000	95.222427 
3326.000000	95.228876 
3325.000000	95.235245 
3324.000000	95.241489 
3323.000000	95.247214 
3322.000000	95.251930 
3321.000000	95.255195 
3320.000000	95.256976 
3319.000000	95.258121 
3318.000000	95.260364 
3317.000000	95.265545 
3316.000000	95.274443 
3315.000000	95.286163 
3314.000000	95.298599 
3313.000000	95.309358 
3312.000000	95.316418 
3311.000000	95.318816 
3310.000000	95.317690 
3309.000000	95.316351 
3308.000000	95.318015 
3307.000000	95.322954 
3306.000000	95.328717 
3305.000000	95.333529 
3304.000000	95.338503 
3303.000000	95.345874 
3302.000000	95.356011 
3301.000000	95.366974 
3300.000000	95.376285 
3299.000000	95.382291 
3298.000000	95.384669 
3297.000000	95.384968 
3296.000000	95.386213 
3295.000000	95.390484 
3294.000000	95.396856 
3293.000000	95.402815 
3292.000000	95.407631 
3291.000000	95.413154 
3290.000000	95.421063 
3289.000000	95.430541 
3288.000000	95.439306 
3287.000000	95.446015 
3286.000000	95.450970 
3285.000000	95.455211 
3284.000000	95.459717 
3283.000000	95.465002 
3282.000000	95.470693 
3281.000000	95.475473 
3280.000000	95.477976 
3279.000000	95.478350 
3278.000000	95.479058 
3277.000000	95.483643 
3276.000000	95.493780 
3275.000000	95.507133 
3274.000000	95.518759 
3273.000000	95.525395 
3272.000000	95.528228 
3271.000000	95.531205 
3270.000000	95.537202 
3269.000000	95.546326 
3268.000000	95.556980 
3267.000000	95.567070 
3266.000000	95.574344 
3265.000000	95.577433 
3264.000000	95.577481 
3263.000000	95.577858 
3262.000000	95.581618 
3261.000000	95.589468 
3260.000000	95.600083 
3259.000000	95.611479 
3258.000000	95.621597 
3257.000000	95.628474 
3256.000000	95.631302 
3255.000000	95.631678 
3254.000000	95.633074 
3253.000000	95.638548 
3252.000000	95.648645 
3251.000000	95.661041 
3250.000000	95.671888 
3249.000000	95.678067 
3248.000000	95.679378 
3247.000000	95.679247 
3246.000000	95.682680 
3245.000000	95.692331 
3244.000000	95.705967 
3243.000000	95.718158 
3242.000000	95.724981 
3241.000000	95.727046 
3240.000000	95.728073 
3239.000000	95.731396 
3238.000000	95.738532 
3237.000000	95.750101 
3236.000000	95.766069 
3235.000000	95.784321 
3234.000000	95.800334 
3233.000000	95.810037 
3232.000000	95.813197 
3231.000000	95.813354 
3230.000000	95.814621 
3229.000000	95.819134 
3228.000000	95.827281 
3227.000000	95.838992 
3226.000000	95.853770 
3225.000000	95.869752 
3224.000000	95.883726 
3223.000000	95.892825 
3222.000000	95.896710 
3221.000000	95.898120 
3220.000000	95.900851 
3219.000000	95.906801 
3218.000000	95.915002 
3217.000000	95.923308 
3216.000000	95.930479 
3215.000000	95.936558 
3214.000000	95.941971 
3213.000000	95.947132 
3212.000000	95.952996 
3211.000000	95.961131 
3210.000000	95.972418 
3209.000000	95.985668 
3208.000000	95.998105 
3207.000000	96.007636 
3206.000000	96.014486 
3205.000000	96.020342 
3204.000000	96.026088 
3203.000000	96.031023 
3202.000000	96.034658 
3201.000000	96.038641 
3200.000000	96.045942 
3199.000000	96.057974 
3198.000000	96.073019 
3197.000000	96.087601 
3196.000000	96.098954 
3195.000000	96.106195 
3194.000000	96.109978 
3193.000000	96.111858 
3192.000000	96.113656 
3191.000000	96.116592 
3190.000000	96.120707 
3189.000000	96.125415 
3188.000000	96.130780 
3187.000000	96.138061 
3186.000000	96.148820 
3185.000000	96.163120 
3184.000000	96.178409 
3183.000000	96.190644 
3182.000000	96.197352 
3181.000000	96.200048 
3180.000000	96.203416 
3179.000000	96.211526 
3178.000000	96.224420 
3177.000000	96.238358 
3176.000000	96.249367 
3175.000000	96.256493 
3174.000000	96.261854 
3173.000000	96.268102 
3172.000000	96.276165 
3171.000000	96.285291 
3170.000000	96.294689 
3169.000000	96.304371 
3168.000000	96.314143 
3167.000000	96.322492 
3166.000000	96.327582 
3165.000000	96.329646 
3164.000000	96.331837 
3163.000000	96.338117 
3162.000000	96.349985 
3161.000000	96.365099 
3160.000000	96.379002 
3159.000000	96.388353 
3158.000000	96.392978 
3157.000000	96.395383 
3156.000000	96.398560 
3155.000000	96.404020 
3154.000000	96.411327 
3153.000000	96.418908 
3152.000000	96.425242 
3151.000000	96.429822 
3150.000000	96.433570 
3149.000000	96.438262 
3148.000000	96.445158 
3147.000000	96.454029 
3146.000000	96.463605 
3145.000000	96.472756 
3144.000000	96.480910 
3143.000000	96.487700 
3142.000000	96.493149 
3141.000000	96.498501 
3140.000000	96.505746 
3139.000000	96.515335 
3138.000000	96.524896 
3137.000000	96.531295 
3136.000000	96.534056 
3135.000000	96.536041 
3134.000000	96.540560 
3133.000000	96.548295 
3132.000000	96.557154 
3131.000000	96.564629 
3130.000000	96.569814 
3129.000000	96.573485 
3128.000000	96.577033 
3127.000000	96.581562 
3126.000000	96.587431 
3125.000000	96.594207 
3124.000000	96.601298 
3123.000000	96.608712 
3122.000000	96.616750 
3121.000000	96.625000 
3120.000000	96.632288 
3119.000000	96.638037 
3118.000000	96.643283 
3117.000000	96.649671 
3116.000000	96.657530 
3115.000000	96.665572 
3114.000000	96.672443 
3113.000000	96.677905 
3112.000000	96.682513 
3111.000000	96.686919 
3110.000000	96.691775 
3109.000000	96.697684 
3108.000000	96.704830 
3107.000000	96.712882 
3106.000000	96.721234 
3105.000000	96.729005 
3104.000000	96.735230 
3103.000000	96.739808 
3102.000000	96.744265 
3101.000000	96.750747 
3100.000000	96.759669 
3099.000000	96.768773 
3098.000000	96.775113 
3097.000000	96.777770 
3096.000000	96.778314 
3095.000000	96.779103 
3094.000000	96.781802 
3093.000000	96.787067 
3092.000000	96.794512 
3091.000000	96.802699 
3090.000000	96.809896 
3089.000000	96.815318 
3088.000000	96.819491 
3087.000000	96.823452 
3086.000000	96.828041 
3085.000000	96.833801 
3084.000000	96.840797 
3083.000000	96.848101 
3082.000000	96.854018 
3081.000000	96.857501 
3080.000000	96.859316 
3079.000000	96.861639 
3078.000000	96.866512 
3077.000000	96.874417 
3076.000000	96.883761 
3075.000000	96.891819 
3074.000000	96.896757 
3073.000000	96.899129 
3072.000000	96.901262 
3071.000000	96.905031 
3070.000000	96.910469 
3069.000000	96.916467 
3068.000000	96.922169 
3067.000000	96.927256 
3066.000000	96.931375 
3065.000000	96.934116 
3064.000000	96.935764 
3063.000000	96.937650 
3062.000000	96.941348 
3061.000000	96.947335 
3060.000000	96.954448 
3059.000000	96.960915 
3058.000000	96.966045 
3057.000000	96.970440 
3056.000000	96.974260 
3055.000000	96.976206 
3054.000000	96.975375 
3053.000000	96.973675 
3052.000000	96.974996 
3051.000000	96.981646 
3050.000000	96.992490 
3049.000000	97.004649 
3048.000000	97.015754 
3047.000000	97.024315 
3046.000000	97.029555 
3045.000000	97.032089 
3044.000000	97.033932 
3043.000000	97.036821 
3042.000000	97.041081 
3041.000000	97.046405 
3040.000000	97.052459 
3039.000000	97.057994 
3038.000000	97.060784 
3037.000000	97.060127 
3036.000000	97.058744 
3035.000000	97.060557 
3034.000000	97.066700 
3033.000000	97.074700 
3032.000000	97.081317 
3031.000000	97.085301 
3030.000000	97.087795 
3029.000000	97.091101 
3028.000000	97.096835 
3027.000000	97.104379 
3026.000000	97.111232 
3025.000000	97.115612 
3024.000000	97.118403 
3023.000000	97.121706 
3022.000000	97.125980 
3021.000000	97.129945 
3020.000000	97.133139 
3019.000000	97.137075 
3018.000000	97.143405 
3017.000000	97.151952 
3016.000000	97.160982 
3015.000000	97.168743 
3014.000000	97.174576 
3013.000000	97.179277 
3012.000000	97.184455 
3011.000000	97.190787 
3010.000000	97.196915 
3009.000000	97.200846 
3008.000000	97.202433 
3007.000000	97.203633 
3006.000000	97.206264 
3005.000000	97.210290 
3004.000000	97.214304 
3003.000000	97.216795 
3002.000000	97.216870 
3001.000000	97.214893 
3000.000000	97.212854 
2999.000000	97.213057 
2998.000000	97.215904 
2997.000000	97.219708 
2996.000000	97.223107 
2995.000000	97.226748 
2994.000000	97.231841 
2993.000000	97.237800 
2992.000000	97.242425 
2991.000000	97.244271 
2990.000000	97.244146 
2989.000000	97.244316 
2988.000000	97.246678 
2987.000000	97.251557 
2986.000000	97.257678 
2985.000000	97.263049 
2984.000000	97.266110 
2983.000000	97.266497 
2982.000000	97.265067 
2981.000000	97.263368 
2980.000000	97.262869 
2979.000000	97.264276 
2978.000000	97.267235 
2977.000000	97.270548 
2976.000000	97.272644 
2975.000000	97.272162 
2974.000000	97.268853 
2973.000000	97.264296 
2972.000000	97.261281 
2971.000000	97.261755 
2970.000000	97.265354 
2969.000000	97.270057 
2968.000000	97.273867 
2967.000000	97.275584 
2966.000000	97.274888 
2965.000000	97.272796 
2964.000000	97.271769 
2963.000000	97.274006 
2962.000000	97.279148 
2961.000000	97.284256 
2960.000000	97.286375 
2959.000000	97.284820 
2958.000000	97.281183 
2957.000000	97.277879 
2956.000000	97.276763 
2955.000000	97.278289 
2954.000000	97.281572 
2953.000000	97.285586 
2952.000000	97.290264 
2951.000000	97.295846 
2950.000000	97.301310 
2949.000000	97.304542 
2948.000000	97.304623 
2947.000000	97.303193 
2946.000000	97.302906 
2945.000000	97.304937 
2944.000000	97.308444 
2943.000000	97.311980 
2942.000000	97.314702 
2941.000000	97.316288 
2940.000000	97.316318 
2939.000000	97.314086 
2938.000000	97.309162 
2937.000000	97.302358 
2936.000000	97.295984 
2935.000000	97.292522 
2934.000000	97.292589 
2933.000000	97.294411 
2932.000000	97.295502 
2931.000000	97.294590 
2930.000000	97.291894 
2929.000000	97.288199 
2928.000000	97.284404 
2927.000000	97.281830 
2926.000000	97.282178 
2925.000000	97.286515 
2924.000000	97.294220 
2923.000000	97.303160 
2922.000000	97.311185 
2921.000000	97.317513 
2920.000000	97.322505 
2919.000000	97.326470 
2918.000000	97.329533 
2917.000000	97.332846 
2916.000000	97.338716 
2915.000000	97.348351 
2914.000000	97.359937 
2913.000000	97.370252 
2912.000000	97.378224 
2911.000000	97.385684 
2910.000000	97.394317 
2909.000000	97.403184 
2908.000000	97.409985 
2907.000000	97.413843 
2906.000000	97.415948 
2905.000000	97.418067 
2904.000000	97.421426 
2903.000000	97.426806 
2902.000000	97.434545 
2901.000000	97.444072 
2900.000000	97.453801 
2899.000000	97.462134 
2898.000000	97.468420 
2897.000000	97.472972 
2896.000000	97.476423 
2895.000000	97.478994 
2894.000000	97.480400 
2893.000000	97.480498 
2892.000000	97.480026 
2891.000000	97.480451 
2890.000000	97.482924 
2889.000000	97.487474 
2888.000000	97.493219 
2887.000000	97.499109 
2886.000000	97.504335 
2885.000000	97.508400 
2884.000000	97.511245 
2883.000000	97.513451 
2882.000000	97.516119 
2881.000000	97.520226 
2880.000000	97.525676 
2879.000000	97.530788 
2878.000000	97.533187 
2877.000000	97.531927 
2876.000000	97.528786 
2875.000000	97.526918 
2874.000000	97.528015 
2873.000000	97.531160 
2872.000000	97.534465 
2871.000000	97.537056 
2870.000000	97.539021 
2869.000000	97.540208 
2868.000000	97.540165 
2867.000000	97.539261 
2866.000000	97.539002 
2865.000000	97.540696 
2864.000000	97.543993 
2863.000000	97.547023 
2862.000000	97.548038 
2861.000000	97.546916 
2860.000000	97.545153 
2859.000000	97.544417 
2858.000000	97.545101 
2857.000000	97.546333 
2856.000000	97.547218 
2855.000000	97.547685 
2854.000000	97.547975 
2853.000000	97.547856 
2852.000000	97.547083 
2851.000000	97.546730 
2850.000000	97.549318 
2849.000000	97.556857 
2848.000000	97.568651 
2847.000000	97.581401 
2846.000000	97.591656 
2845.000000	97.598090 
2844.000000	97.601632 
2843.000000	97.604141 
2842.000000	97.607441 
2841.000000	97.612952 
2840.000000	97.620997 
2839.000000	97.630091 
2838.000000	97.637662 
2837.000000	97.642128 
2836.000000	97.643975 
2835.000000	97.644636 
2834.000000	97.644957 
2833.000000	97.645287 
2832.000000	97.646380 
2831.000000	97.649132 
2830.000000	97.653392 
2829.000000	97.657878 
2828.000000	97.661479 
2827.000000	97.664211 
2826.000000	97.666785 
2825.000000	97.669736 
2824.000000	97.673127 
2823.000000	97.676688 
2822.000000	97.679997 
2821.000000	97.682788 
2820.000000	97.685205 
2819.000000	97.687657 
2818.000000	97.690456 
2817.000000	97.693731 
2816.000000	97.697477 
2815.000000	97.701334 
2814.000000	97.704575 
2813.000000	97.706834 
2812.000000	97.708832 
2811.000000	97.711894 
2810.000000	97.716677 
2809.000000	97.722651 
2808.000000	97.728692 
2807.000000	97.733729 
2806.000000	97.736930 
2805.000000	97.737860 
2804.000000	97.736628 
2803.000000	97.733636 
2802.000000	97.729420 
2801.000000	97.725231 
2800.000000	97.723318 
2799.000000	97.725510 
2798.000000	97.731188 
2797.000000	97.737464 
2796.000000	97.741809 
2795.000000	97.743975 
2794.000000	97.745205 
2793.000000	97.746406 
2792.000000	97.747691 
2791.000000	97.748929 
2790.000000	97.749821 
2789.000000	97.749749 
2788.000000	97.748468 
2787.000000	97.747080 
2786.000000	97.747637 
2785.000000	97.751368 
2784.000000	97.757447 
2783.000000	97.763706 
2782.000000	97.768492 
2781.000000	97.771739 
2780.000000	97.774304 
2779.000000	97.776607 
2778.000000	97.778329 
2777.000000	97.779408 
2776.000000	97.780662 
2775.000000	97.782922 
2774.000000	97.785941 
2773.000000	97.788761 
2772.000000	97.790934 
2771.000000	97.792648 
2770.000000	97.793770 
2769.000000	97.793716 
2768.000000	97.792503 
2767.000000	97.791139 
2766.000000	97.790494 
2765.000000	97.790338 
2764.000000	97.790037 
2763.000000	97.789851 
2762.000000	97.790997 
2761.000000	97.794360 
2760.000000	97.799319 
2759.000000	97.803923 
2758.000000	97.806486 
2757.000000	97.807234 
2756.000000	97.808017 
2755.000000	97.809882 
2754.000000	97.811488 
2753.000000	97.810911 
2752.000000	97.808736 
2751.000000	97.807892 
2750.000000	97.810122 
2749.000000	97.813980 
2748.000000	97.817022 
2747.000000	97.818732 
2746.000000	97.820240 
2745.000000	97.822162 
2744.000000	97.824084 
2743.000000	97.825703 
2742.000000	97.827270 
2741.000000	97.829133 
2740.000000	97.831807 
2739.000000	97.836096 
2738.000000	97.841952 
2737.000000	97.847301 
2736.000000	97.849354 
2735.000000	97.847473 
2734.000000	97.843941 
2733.000000	97.841584 
2732.000000	97.841335 
2731.000000	97.842353 
2730.000000	97.843712 
2729.000000	97.845380 
2728.000000	97.847846 
2727.000000	97.851170 
2726.000000	97.854401 
2725.000000	97.856139 
2724.000000	97.856114 
2723.000000	97.855977 
2722.000000	97.857775 
2721.000000	97.861588 
2720.000000	97.865505 
2719.000000	97.868144 
2718.000000	97.870218 
2717.000000	97.872993 
2716.000000	97.875960 
2715.000000	97.877095 
2714.000000	97.875364 
2713.000000	97.872227 
2712.000000	97.870483 
2711.000000	97.871881 
2710.000000	97.875764 
2709.000000	97.879689 
2708.000000	97.881338 
2707.000000	97.880244 
2706.000000	97.877887 
2705.000000	97.876165 
2704.000000	97.875883 
2703.000000	97.876789 
2702.000000	97.878592 
2701.000000	97.881331 
2700.000000	97.884714 
2699.000000	97.887697 
2698.000000	97.889184 
2697.000000	97.889026 
2696.000000	97.888072 
2695.000000	97.887289 
2694.000000	97.887015 
2693.000000	97.887034 
2692.000000	97.887124 
2691.000000	97.887304 
2690.000000	97.887553 
2689.000000	97.887460 
2688.000000	97.886470 
2687.000000	97.884657 
2686.000000	97.883051 
2685.000000	97.882773 
2684.000000	97.883764 
2683.000000	97.884854 
2682.000000	97.885401 
2681.000000	97.886381 
2680.000000	97.889254 
2679.000000	97.894006 
2678.000000	97.899136 
2677.000000	97.903510 
2676.000000	97.907175 
2675.000000	97.910014 
2674.000000	97.910850 
2673.000000	97.908979 
2672.000000	97.905886 
2671.000000	97.903938 
2670.000000	97.903424 
2669.000000	97.902105 
2668.000000	97.897902 
2667.000000	97.890768 
2666.000000	97.881422 
2665.000000	97.869493 
2664.000000	97.854031 
2663.000000	97.835306 
2662.000000	97.815156 
2661.000000	97.795883 
2660.000000	97.779545 
2659.000000	97.767825 
2658.000000	97.761231 
2657.000000	97.758140 
2656.000000	97.755560 
2655.000000	97.751412 
2654.000000	97.745801 
2653.000000	97.740075 
2652.000000	97.735265 
2651.000000	97.731672 
2650.000000	97.729190 
2649.000000	97.727463 
2648.000000	97.725936 
2647.000000	97.724118 
2646.000000	97.721627 
2645.000000	97.718065 
2644.000000	97.713476 
2643.000000	97.709164 
2642.000000	97.707283 
2641.000000	97.708919 
2640.000000	97.712984 
2639.000000	97.717535 
2638.000000	97.721636 
2637.000000	97.725169 
2636.000000	97.727437 
2635.000000	97.727287 
2634.000000	97.724655 
2633.000000	97.720759 
2632.000000	97.716519 
2631.000000	97.712087 
2630.000000	97.708515 
2629.000000	97.708272 
2628.000000	97.712501 
2627.000000	97.718532 
2626.000000	97.722098 
2625.000000	97.722182 
2624.000000	97.722095 
2623.000000	97.725305 
2622.000000	97.731632 
2621.000000	97.738328 
2620.000000	97.743495 
2619.000000	97.747124 
2618.000000	97.749844 
2617.000000	97.752305 
2616.000000	97.755318 
2615.000000	97.758869 
2614.000000	97.761153 
2613.000000	97.760429 
2612.000000	97.758196 
2611.000000	97.758659 
2610.000000	97.763969 
2609.000000	97.771439 
2608.000000	97.776824 
2607.000000	97.779225 
2606.000000	97.781034 
2605.000000	97.783754 
2604.000000	97.786087 
2603.000000	97.786460 
2602.000000	97.785512 
2601.000000	97.785025 
2600.000000	97.785641 
2599.000000	97.786908 
2598.000000	97.788879 
2597.000000	97.792133 
2596.000000	97.796206 
2595.000000	97.799285 
2594.000000	97.800181 
2593.000000	97.800138 
2592.000000	97.802064 
2591.000000	97.807915 
2590.000000	97.816861 
2589.000000	97.825808 
2588.000000	97.831701 
2587.000000	97.833783 
2586.000000	97.834027 
2585.000000	97.835302 
2584.000000	97.838898 
2583.000000	97.843784 
2582.000000	97.848079 
2581.000000	97.850677 
2580.000000	97.851400 
2579.000000	97.850626 
2578.000000	97.849736 
2577.000000	97.851172 
2576.000000	97.856404 
2575.000000	97.863687 
2574.000000	97.869397 
2573.000000	97.872285 
2572.000000	97.875048 
2571.000000	97.880543 
2570.000000	97.887610 
2569.000000	97.892321 
2568.000000	97.892861 
2567.000000	97.891509 
2566.000000	97.891742 
2565.000000	97.894794 
2564.000000	97.899162 
2563.000000	97.902114 
2562.000000	97.901413 
2561.000000	97.897068 
2560.000000	97.892180 
2559.000000	97.890893 
2558.000000	97.894505 
2557.000000	97.900194 
2556.000000	97.904313 
2555.000000	97.906311 
2554.000000	97.908724 
2553.000000	97.913903 
2552.000000	97.921453 
2551.000000	97.928382 
2550.000000	97.931149 
2549.000000	97.928279 
2548.000000	97.921907 
2547.000000	97.916533 
2546.000000	97.915500 
2545.000000	97.918667 
2544.000000	97.923533 
2543.000000	97.927806 
2542.000000	97.930415 
2541.000000	97.931261 
2540.000000	97.931467 
2539.000000	97.933316 
2538.000000	97.938277 
2537.000000	97.944760 
2536.000000	97.948977 
2535.000000	97.948538 
2534.000000	97.944802 
2533.000000	97.941769 
2532.000000	97.943172 
2531.000000	97.950091 
2530.000000	97.959997 
2529.000000	97.968058 
2528.000000	97.970838 
2527.000000	97.969380 
2526.000000	97.967714 
2525.000000	97.967900 
2524.000000	97.967750 
2523.000000	97.964305 
2522.000000	97.958493 
2521.000000	97.954857 
2520.000000	97.956949 
2519.000000	97.964170 
2518.000000	97.972960 
2517.000000	97.979894 
2516.000000	97.983568 
2515.000000	97.984811 
2514.000000	97.985820 
2513.000000	97.988313 
2512.000000	97.991634 
2511.000000	97.993033 
2510.000000	97.990603 
2509.000000	97.985887 
2508.000000	97.982874 
2507.000000	97.984220 
2506.000000	97.988709 
2505.000000	97.992420 
2504.000000	97.992131 
2503.000000	97.987792 
2502.000000	97.982338 
2501.000000	97.979350 
2500.000000	97.980367 
2499.000000	97.983973 
2498.000000	97.987570 
2497.000000	97.990144 
2496.000000	97.992913 
2495.000000	97.996959 
2494.000000	98.000813 
2493.000000	98.001405 
2492.000000	97.997578 
2491.000000	97.991814 
2490.000000	97.987940 
2489.000000	97.987590 
2488.000000	97.989535 
2487.000000	97.991943 
2486.000000	97.994059 
2485.000000	97.995486 
2484.000000	97.995424 
2483.000000	97.994146 
2482.000000	97.994538 
2481.000000	97.999938 
2480.000000	98.009530 
2479.000000	98.017672 
2478.000000	98.019722 
2477.000000	98.017843 
2476.000000	98.018640 
2475.000000	98.024614 
2474.000000	98.030228 
2473.000000	98.028159 
2472.000000	98.018325 
2471.000000	98.008601 
2470.000000	98.006562 
2469.000000	98.011888 
2468.000000	98.017274 
2467.000000	98.015978 
2466.000000	98.008128 
2465.000000	98.000181 
2464.000000	97.998224 
2463.000000	98.001292 
2462.000000	98.001517 
2461.000000	97.991943 
2460.000000	97.974374 
2459.000000	97.958445 
2458.000000	97.952416 
2457.000000	97.955584 
2456.000000	97.960136 
2455.000000	97.959558 
2454.000000	97.954482 
2453.000000	97.950892 
2452.000000	97.953729 
2451.000000	97.962144 
2450.000000	97.970210 
2449.000000	97.972146 
2448.000000	97.967506 
2447.000000	97.961510 
2446.000000	97.960150 
2445.000000	97.965029 
2444.000000	97.973084 
2443.000000	97.980853 
2442.000000	97.988172 
2441.000000	97.997559 
2440.000000	98.010530 
2439.000000	98.024960 
2438.000000	98.036061 
2437.000000	98.040024 
2436.000000	98.037078 
2435.000000	98.031288 
2434.000000	98.027489 
2433.000000	98.028343 
2432.000000	98.033691 
2431.000000	98.041747 
2430.000000	98.050466 
2429.000000	98.058447 
2428.000000	98.065375 
2427.000000	98.071570 
2426.000000	98.076680 
2425.000000	98.079139 
2424.000000	98.077678 
2423.000000	98.073279 
2422.000000	98.068884 
2421.000000	98.067036 
2420.000000	98.068526 
2419.000000	98.073371 
2418.000000	98.081818 
2417.000000	98.093248 
2416.000000	98.104640 
2415.000000	98.111546 
2414.000000	98.111175 
2413.000000	98.104424 
2412.000000	98.095292 
2411.000000	98.089144 
2410.000000	98.091025 
2409.000000	98.103385 
2408.000000	98.123449 
2407.000000	98.143478 
2406.000000	98.155815 
2405.000000	98.158905 
2404.000000	98.157767 
2403.000000	98.158179 
2402.000000	98.161250 
2401.000000	98.164144 
2400.000000	98.164714 
2399.000000	98.163696 
2398.000000	98.162716 
2397.000000	98.162206 
2396.000000	98.162130 
2395.000000	98.163276 
2394.000000	98.166302 
2393.000000	98.170016 
2392.000000	98.172131 
2391.000000	98.171966 
2390.000000	98.171329 
2389.000000	98.172260 
2388.000000	98.174799 
2387.000000	98.177670 
2386.000000	98.180612 
2385.000000	98.185160 
2384.000000	98.193258 
2383.000000	98.205823 
2382.000000	98.222541 
2381.000000	98.242141 
2380.000000	98.262399 
2379.000000	98.280593 
2378.000000	98.294952 
2377.000000	98.305895 
2376.000000	98.315420 
2375.000000	98.324726 
2374.000000	98.332577 
2373.000000	98.336113 
2372.000000	98.333765 
2371.000000	98.327784 
2370.000000	98.323446 
2369.000000	98.324977 
2368.000000	98.331962 
2367.000000	98.340106 
2366.000000	98.345429 
2365.000000	98.347018 
2364.000000	98.345755 
2363.000000	98.341746 
2362.000000	98.335104 
2361.000000	98.328780 
2360.000000	98.326107 
2359.000000	98.327327 
2358.000000	98.330387 
2357.000000	98.333736 
2356.000000	98.338963 
2355.000000	98.347341 
2354.000000	98.358267 
2353.000000	98.370773 
2352.000000	98.380618 
2351.000000	98.378059 
2350.000000	98.352323 
2349.000000	98.304911 
2348.000000	98.252797 
2347.000000	98.217151 
2346.000000	98.210357 
2345.000000	98.225092 
2344.000000	98.241515 
2343.000000	98.244797 
2342.000000	98.236618 
2341.000000	98.227023 
2340.000000	98.218654 
2339.000000	98.210599 
2338.000000	98.203972 
2337.000000	98.201964 
2336.000000	98.204135 
2335.000000	98.206201 
2334.000000	98.204646 
2333.000000	98.201394 
2332.000000	98.201845 
2331.000000	98.208325 
2330.000000	98.211240 
2329.000000	98.189343 
2328.000000	98.121893 
2327.000000	98.005874 
2326.000000	97.869222 
2325.000000	97.758206 
2324.000000	97.712117 
2323.000000	97.736168 
2322.000000	97.802317 
2321.000000	97.874310 
2320.000000	97.930614 
2319.000000	97.968167 
2318.000000	97.989368 
2317.000000	97.997504 
2316.000000	97.998255 
2315.000000	98.000963 
2314.000000	98.012148 
2313.000000	98.030263 
2312.000000	98.047905 
2311.000000	98.058402 
2310.000000	98.060793 
2309.000000	98.058107 
2308.000000	98.053762 
2307.000000	98.047846 
2306.000000	98.038543 
2305.000000	98.024754 
2304.000000	98.008623 
2303.000000	97.993676 
2302.000000	97.982055 
2301.000000	97.972866 
2300.000000	97.963305 
2299.000000	97.950339 
2298.000000	97.932617 
2297.000000	97.911032 
2296.000000	97.888118 
2295.000000	97.865043 
2294.000000	97.840279 
2293.000000	97.811163 
2292.000000	97.778156 
2291.000000	97.745544 
2290.000000	97.718311 
2289.000000	97.698157 
2288.000000	97.683763 
2287.000000	97.674114 
2286.000000	97.670695 
2285.000000	97.675677 
2284.000000	97.688406 
2283.000000	97.704608 
2282.000000	97.719518 
2281.000000	97.731714 
2280.000000	97.743477 
2279.000000	97.757839 
2278.000000	97.775967 
2277.000000	97.797404 
2276.000000	97.821115 
2275.000000	97.845406 
2274.000000	97.867564 
2273.000000	97.885103 
2272.000000	97.897260 
2271.000000	97.904514 
2270.000000	97.907583 
2269.000000	97.908050 
2268.000000	97.909076 
2267.000000	97.913411 
2266.000000	97.920683 
2265.000000	97.928056 
2264.000000	97.933157 
2263.000000	97.934564 
2262.000000	97.930113 
2261.000000	97.918021 
2260.000000	97.901532 
2259.000000	97.890166 
2258.000000	97.893714 
2257.000000	97.914365 
2256.000000	97.944976 
2255.000000	97.974348 
2254.000000	97.993259 
2253.000000	97.997632 
2252.000000	97.989658 
2251.000000	97.977401 
2250.000000	97.970703 
2249.000000	97.973865 
2248.000000	97.981651 
2247.000000	97.984514 
2246.000000	97.978907 
2245.000000	97.970365 
2244.000000	97.965524 
2243.000000	97.963847 
2242.000000	97.960504 
2241.000000	97.955349 
2240.000000	97.954190 
2239.000000	97.960835 
2238.000000	97.972560 
2237.000000	97.984910 
2236.000000	97.996649 
2235.000000	98.007259 
2234.000000	98.013372 
2233.000000	98.011922 
2232.000000	98.004914 
2231.000000	97.997585 
2230.000000	97.993233 
2229.000000	97.992300 
2228.000000	97.994157 
2227.000000	97.996724 
2226.000000	97.996794 
2225.000000	97.994570 
2224.000000	97.995579 
2223.000000	98.003570 
2222.000000	98.013399 
2221.000000	98.016096 
2220.000000	98.010108 
2219.000000	98.002606 
2218.000000	98.000515 
2217.000000	98.005275 
2216.000000	98.015157 
2215.000000	98.026466 
2214.000000	98.032753 
2213.000000	98.030397 
2212.000000	98.026590 
2211.000000	98.034172 
2210.000000	98.054866 
2209.000000	98.073830 
2208.000000	98.075625 
2207.000000	98.061063 
2206.000000	98.043616 
2205.000000	98.033824 
2204.000000	98.032530 
2203.000000	98.035897 
2202.000000	98.040203 
2201.000000	98.042073 
2200.000000	98.039196 
2199.000000	98.031840 
2198.000000	98.021378 
2197.000000	98.008266 
2196.000000	97.993940 
2195.000000	97.982972 
2194.000000	97.979511 
2193.000000	97.981881 
2192.000000	97.983865 
2191.000000	97.981220 
2190.000000	97.974098 
2189.000000	97.963775 
2188.000000	97.950959 
2187.000000	97.938377 
2186.000000	97.932261 
2185.000000	97.939652 
2184.000000	97.964915 
2183.000000	98.007758 
2182.000000	98.060925 
2181.000000	98.109478 
2180.000000	98.137789 
2179.000000	98.141489 
2178.000000	98.131723 
2177.000000	98.125554 
2176.000000	98.130803 
2175.000000	98.139828 
2174.000000	98.137621 
2173.000000	98.114989 
2172.000000	98.074001 
2171.000000	98.022595 
2170.000000	97.967184 
2169.000000	97.912206 
2168.000000	97.864926 
2167.000000	97.835602 
2166.000000	97.827459 
2165.000000	97.826470 
2164.000000	97.811015 
2163.000000	97.783680 
2162.000000	97.792895 
2161.000000	97.907923 
2160.000000	98.154272 
2159.000000	98.470403 
2158.000000	98.742308 
2157.000000	98.890890 
2156.000000	98.918573 
2155.000000	98.875196 
2154.000000	98.805669 
2153.000000	98.734438 
2152.000000	98.673846 
2151.000000	98.628922 
2150.000000	98.598554 
2149.000000	98.581631 
2148.000000	98.580814 
2147.000000	98.594936 
2146.000000	98.610824 
2145.000000	98.610332 
2144.000000	98.586504 
2143.000000	98.548675 
2142.000000	98.512832 
2141.000000	98.491035 
2140.000000	98.487856 
2139.000000	98.501727 
2138.000000	98.529063 
2137.000000	98.568986 
2136.000000	98.622181 
2135.000000	98.681881 
2134.000000	98.729109 
2133.000000	98.743881 
2132.000000	98.722033 
2131.000000	98.676763 
2130.000000	98.624663 
2129.000000	98.574298 
2128.000000	98.526570 
2127.000000	98.480787 
2126.000000	98.438398 
2125.000000	98.402486 
2124.000000	98.374519 
2123.000000	98.351446 
2122.000000	98.327307 
2121.000000	98.298868 
2120.000000	98.268057 
2119.000000	98.237516 
2118.000000	98.206628 
2117.000000	98.174945 
2116.000000	98.146729 
2115.000000	98.127277 
2114.000000	98.115656 
2113.000000	98.105816 
2112.000000	98.095283 
2111.000000	98.088355 
2110.000000	98.089650 
2109.000000	98.098492 
2108.000000	98.111030 
2107.000000	98.123915 
2106.000000	98.133710 
2105.000000	98.136503 
2104.000000	98.131534 
2103.000000	98.123285 
2102.000000	98.117363 
2101.000000	98.115532 
2100.000000	98.116876 
2099.000000	98.122815 
2098.000000	98.138896 
2097.000000	98.170541 
2096.000000	98.215878 
2095.000000	98.261978 
2094.000000	98.289740 
2093.000000	98.286646 
2092.000000	98.256520 
2091.000000	98.215776 
2090.000000	98.180532 
2089.000000	98.157676 
2088.000000	98.145273 
2087.000000	98.137400 
2086.000000	98.128056 
2085.000000	98.113939 
2084.000000	98.095966 
2083.000000	98.077594 
2082.000000	98.061825 
2081.000000	98.050984 
2080.000000	98.047902 
2079.000000	98.053964 
2078.000000	98.065902 
2077.000000	98.077628 
2076.000000	98.085923 
2075.000000	98.092111 
2074.000000	98.097886 
2073.000000	98.103243 
2072.000000	98.108796 
2071.000000	98.115844 
2070.000000	98.123044 
2069.000000	98.126103 
2068.000000	98.122760 
2067.000000	98.116072 
2066.000000	98.112320 
2065.000000	98.117222 
2064.000000	98.132760 
2063.000000	98.154475 
2062.000000	98.172268 
2061.000000	98.177373 
2060.000000	98.169159 
2059.000000	98.153596 
2058.000000	98.137912 
2057.000000	98.129329 
2056.000000	98.131501 
2055.000000	98.132599 
2054.000000	98.103120 
2053.000000	98.023703 
2052.000000	97.919474 
2051.000000	97.852396 
2050.000000	97.869813 
2049.000000	97.960980 
2048.000000	98.069222 
2047.000000	98.145438 
2046.000000	98.178976 
2045.000000	98.183542 
2044.000000	98.174401 
2043.000000	98.161957 
2042.000000	98.152582 
2041.000000	98.146528 
2040.000000	98.138415 
2039.000000	98.124357 
2038.000000	98.108773 
2037.000000	98.104698 
2036.000000	98.126536 
2035.000000	98.177169 
2034.000000	98.239219 
2033.000000	98.284796 
2032.000000	98.300953 
2031.000000	98.301298 
2030.000000	98.307332 
2029.000000	98.324381 
2028.000000	98.341242 
2027.000000	98.347978 
2026.000000	98.345498 
2025.000000	98.340320 
2024.000000	98.338221 
2023.000000	98.341992 
2022.000000	98.350219 
2021.000000	98.357164 
2020.000000	98.358421 
2019.000000	98.356994 
2018.000000	98.360550 
2017.000000	98.372242 
2016.000000	98.386560 
2015.000000	98.394488 
2014.000000	98.390305 
2013.000000	98.374152 
2012.000000	98.351248 
2011.000000	98.330228 
2010.000000	98.322691 
2009.000000	98.341849 
2008.000000	98.393778 
2007.000000	98.464082 
2006.000000	98.517795 
2005.000000	98.524127 
2004.000000	98.485131 
2003.000000	98.431861 
2002.000000	98.393083 
2001.000000	98.373570 
2000.000000	98.361826 
1999.000000	98.348309 
1998.000000	98.329216 
1997.000000	98.302384 
1996.000000	98.268913 
1995.000000	98.237167 
1994.000000	98.217559 
1993.000000	98.211874 
1992.000000	98.210272 
1991.000000	98.201600 
1990.000000	98.184214 
1989.000000	98.163929 
1988.000000	98.144476 
1987.000000	98.123849 
1986.000000	98.099881 
1985.000000	98.074228 
1984.000000	98.045544 
1983.000000	98.002611 
1982.000000	97.937799 
1981.000000	97.873385 
1980.000000	97.862753 
1979.000000	97.947248 
1978.000000	98.108417 
1977.000000	98.276973 
1976.000000	98.394596 
1975.000000	98.452867 
1974.000000	98.470720 
1973.000000	98.463103 
1972.000000	98.441097 
1971.000000	98.419709 
1970.000000	98.409232 
1969.000000	98.407973 
1968.000000	98.412528 
1967.000000	98.426654 
1966.000000	98.450996 
1965.000000	98.473062 
1964.000000	98.479510 
1963.000000	98.473692 
1962.000000	98.472756 
1961.000000	98.489314 
1960.000000	98.520289 
1959.000000	98.550558 
1958.000000	98.563073 
1957.000000	98.549098 
1956.000000	98.514647 
1955.000000	98.476511 
1954.000000	98.449537 
1953.000000	98.438751 
1952.000000	98.441476 
1951.000000	98.451134 
1950.000000	98.457596 
1949.000000	98.449237 
1948.000000	98.423593 
1947.000000	98.393030 
1946.000000	98.373764 
1945.000000	98.370516 
1944.000000	98.375054 
1943.000000	98.376980 
1942.000000	98.372059 
1941.000000	98.362425 
1940.000000	98.352487 
1939.000000	98.344755 
1938.000000	98.339145 
1937.000000	98.335912 
1936.000000	98.338399 
1935.000000	98.349298 
1934.000000	98.362904 
1933.000000	98.366835 
1932.000000	98.354659 
1931.000000	98.334360 
1930.000000	98.320545 
1929.000000	98.318395 
1928.000000	98.323060 
1927.000000	98.329424 
1926.000000	98.336435 
1925.000000	98.342059 
1924.000000	98.338512 
1923.000000	98.321090 
1922.000000	98.295200 
1921.000000	98.271870 
1920.000000	98.257537 
1919.000000	98.251392 
1918.000000	98.248364 
1917.000000	98.243082 
1916.000000	98.234774 
1915.000000	98.227829 
1914.000000	98.226250 
1913.000000	98.229649 
1912.000000	98.232087 
1911.000000	98.226864 
1910.000000	98.212720 
1909.000000	98.195167 
1908.000000	98.183733 
1907.000000	98.183509 
1906.000000	98.190589 
1905.000000	98.196455 
1904.000000	98.194726 
1903.000000	98.187805 
1902.000000	98.181423 
1901.000000	98.176610 
1900.000000	98.170841 
1899.000000	98.162579 
1898.000000	98.152175 
1897.000000	98.141173 
1896.000000	98.131341 
1895.000000	98.125356 
1894.000000	98.123378 
1893.000000	98.120958 
1892.000000	98.113959 
1891.000000	98.104507 
1890.000000	98.098695 
1889.000000	98.098470 
1888.000000	98.100266 
1887.000000	98.101172 
1886.000000	98.101221 
1885.000000	98.101230 
1884.000000	98.100913 
1883.000000	98.099784 
1882.000000	98.097922 
1881.000000	98.095685 
1880.000000	98.095653 
1879.000000	98.100495 
1878.000000	98.108097 
1877.000000	98.112746 
1876.000000	98.110281 
1875.000000	98.101828 
1874.000000	98.092215 
1873.000000	98.084417 
1872.000000	98.077461 
1871.000000	98.069121 
1870.000000	98.058768 
1869.000000	98.047919 
1868.000000	98.040173 
1867.000000	98.039967 
1866.000000	98.046802 
1865.000000	98.054930 
1864.000000	98.060970 
1863.000000	98.067017 
1862.000000	98.075640 
1861.000000	98.085208 
1860.000000	98.092783 
1859.000000	98.098585 
1858.000000	98.103916 
1857.000000	98.108180 
1856.000000	98.111270 
1855.000000	98.115272 
1854.000000	98.120291 
1853.000000	98.121452 
1852.000000	98.117896 
1851.000000	98.117310 
1850.000000	98.124979 
1849.000000	98.139205 
1848.000000	98.154811 
1847.000000	98.169185 
1846.000000	98.179338 
1845.000000	98.179896 
1844.000000	98.169221 
1843.000000	98.156988 
1842.000000	98.154002 
1841.000000	98.156582 
1840.000000	98.156706 
1839.000000	98.153599 
1838.000000	98.151142 
1837.000000	98.150906 
1836.000000	98.150909 
1835.000000	98.151866 
1834.000000	98.154742 
1833.000000	98.155604 
1832.000000	98.149483 
1831.000000	98.136295 
1830.000000	98.121062 
1829.000000	98.111485 
1828.000000	98.110994 
1827.000000	98.114809 
1826.000000	98.115902 
1825.000000	98.113196 
1824.000000	98.110449 
1823.000000	98.111711 
1822.000000	98.117218 
1821.000000	98.125401 
1820.000000	98.138380 
1819.000000	98.159898 
1818.000000	98.188808 
1817.000000	98.213813 
1816.000000	98.220278 
1815.000000	98.207373 
1814.000000	98.186921 
1813.000000	98.169633 
1812.000000	98.156787 
1811.000000	98.144184 
1810.000000	98.133049 
1809.000000	98.126133 
1808.000000	98.121608 
1807.000000	98.117171 
1806.000000	98.113036 
1805.000000	98.108720 
1804.000000	98.102245 
1803.000000	98.095741 
1802.000000	98.093851 
1801.000000	98.096532 
1800.000000	98.097579 
1799.000000	98.091701 
1798.000000	98.083377 
1797.000000	98.078897 
1796.000000	98.079836 
1795.000000	98.083692 
1794.000000	98.086376 
1793.000000	98.084424 
1792.000000	98.077119 
1791.000000	98.068981 
1790.000000	98.067287 
1789.000000	98.071151 
1788.000000	98.075901 
1787.000000	98.080338 
1786.000000	98.085370 
1785.000000	98.088899 
1784.000000	98.088097 
1783.000000	98.086055 
1782.000000	98.085349 
1781.000000	98.086035 
1780.000000	98.090929 
1779.000000	98.101119 
1778.000000	98.114916 
1777.000000	98.125298 
1776.000000	98.129252 
1775.000000	98.129934 
1774.000000	98.130151 
1773.000000	98.130345 
1772.000000	98.129195 
1771.000000	98.127712 
1770.000000	98.129881 
1769.000000	98.134261 
1768.000000	98.135921 
1767.000000	98.132880 
1766.000000	98.127098 
1765.000000	98.122128 
1764.000000	98.120119 
1763.000000	98.121494 
1762.000000	98.122656 
1761.000000	98.118979 
1760.000000	98.111942 
1759.000000	98.105060 
1758.000000	98.101746 
1757.000000	98.102223 
1756.000000	98.106447 
1755.000000	98.111683 
1754.000000	98.112504 
1753.000000	98.106164 
1752.000000	98.097710 
1751.000000	98.092498 
1750.000000	98.089898 
1749.000000	98.087167 
1748.000000	98.082989 
1747.000000	98.080069 
1746.000000	98.076737 
1745.000000	98.070785 
1744.000000	98.063649 
1743.000000	98.057364 
1742.000000	98.053144 
1741.000000	98.048771 
1740.000000	98.039993 
1739.000000	98.028053 
1738.000000	98.021593 
1737.000000	98.020747 
1736.000000	98.018145 
1735.000000	98.015779 
1734.000000	98.017180 
1733.000000	98.017489 
1732.000000	98.018492 
1731.000000	98.015230 
1730.000000	98.004577 
1729.000000	97.991947 
1728.000000	97.983960 
1727.000000	97.982015 
1726.000000	97.980309 
1725.000000	97.974586 
1724.000000	97.963995 
1723.000000	97.950949 
1722.000000	97.942982 
1721.000000	97.942016 
1720.000000	97.942881 
1719.000000	97.941312 
1718.000000	97.938209 
1717.000000	97.931049 
1716.000000	97.915836 
1715.000000	97.897016 
1714.000000	97.881893 
1713.000000	97.871413 
1712.000000	97.860144 
1711.000000	97.847497 
1710.000000	97.838363 
1709.000000	97.833793 
1708.000000	97.828852 
1707.000000	97.817298 
1706.000000	97.798546 
1705.000000	97.778267 
1704.000000	97.762908 
1703.000000	97.753061 
1702.000000	97.742434 
1701.000000	97.728612 
1700.000000	97.705838 
1699.000000	97.682523 
1698.000000	97.676475 
1697.000000	97.671981 
1696.000000	97.653179 
1695.000000	97.622658 
1694.000000	97.597779 
1693.000000	97.581319 
1692.000000	97.560874 
1691.000000	97.535658 
1690.000000	97.513224 
1689.000000	97.496268 
1688.000000	97.485087 
1687.000000	97.475962 
1686.000000	97.464037 
1685.000000	97.448955 
1684.000000	97.423310 
1683.000000	97.392942 
1682.000000	97.373505 
1681.000000	97.353576 
1680.000000	97.330144 
1679.000000	97.312507 
1678.000000	97.301201 
1677.000000	97.288383 
1676.000000	97.270709 
1675.000000	97.250247 
1674.000000	97.228264 
1673.000000	97.206680 
1672.000000	97.184763 
1671.000000	97.164185 
1670.000000	97.148991 
1669.000000	97.133227 
1668.000000	97.115765 
1667.000000	97.099898 
1666.000000	97.082333 
1665.000000	97.059727 
1664.000000	97.035185 
1663.000000	97.016835 
1662.000000	97.005767 
1661.000000	96.993944 
1660.000000	96.978044 
1659.000000	96.957667 
1658.000000	96.933230 
1657.000000	96.906624 
1656.000000	96.883226 
1655.000000	96.869871 
1654.000000	96.881871 
1653.000000	96.897058 
1652.000000	96.876021 
1651.000000	96.855467 
1650.000000	96.840113 
1649.000000	96.818897 
1648.000000	96.802969 
1647.000000	96.801034 
1646.000000	96.803358 
1645.000000	96.801370 
1644.000000	96.794240 
1643.000000	96.783874 
1642.000000	96.772897 
1641.000000	96.761715 
1640.000000	96.752294 
1639.000000	96.746390 
1638.000000	96.745683 
1637.000000	96.751659 
1636.000000	96.760911 
1635.000000	96.762109 
1634.000000	96.757155 
1633.000000	96.756159 
1632.000000	96.755137 
1631.000000	96.754086 
1630.000000	96.755629 
1629.000000	96.759364 
1628.000000	96.764109 
1627.000000	96.772100 
1626.000000	96.783818 
1625.000000	96.796331 
1624.000000	96.809601 
1623.000000	96.824587 
1622.000000	96.838925 
1621.000000	96.849752 
1620.000000	96.858471 
1619.000000	96.868632 
1618.000000	96.885775 
1617.000000	96.908648 
1616.000000	96.929797 
1615.000000	96.950885 
1614.000000	96.972752 
1613.000000	96.989580 
1612.000000	97.001915 
1611.000000	97.016561 
1610.000000	97.035151 
1609.000000	97.054391 
1608.000000	97.075070 
1607.000000	97.100361 
1606.000000	97.126369 
1605.000000	97.146445 
1604.000000	97.162936 
1603.000000	97.180445 
1602.000000	97.198752 
1601.000000	97.215386 
1600.000000	97.231569 
1599.000000	97.250172 
1598.000000	97.270047 
1597.000000	97.287850 
1596.000000	97.302350 
1595.000000	97.314514 
1594.000000	97.324655 
1593.000000	97.332666 
1592.000000	97.341006 
1591.000000	97.353112 
1590.000000	97.368833 
1589.000000	97.384692 
1588.000000	97.398965 
1587.000000	97.412357 
1586.000000	97.424418 
1585.000000	97.432349 
1584.000000	97.438464 
1583.000000	97.448189 
1582.000000	97.459817 
1581.000000	97.469152 
1580.000000	97.476748 
1579.000000	97.485059 
1578.000000	97.493420 
1577.000000	97.502712 
1576.000000	97.511122 
1575.000000	97.517969 
1574.000000	97.526737 
1573.000000	97.534413 
1572.000000	97.538160 
1571.000000	97.541041 
1570.000000	97.545096 
1569.000000	97.547608 
1568.000000	97.553001 
1567.000000	97.562628 
1566.000000	97.568450 
1565.000000	97.567370 
1564.000000	97.565082 
1563.000000	97.565050 
1562.000000	97.562057 
1561.000000	97.552313 
1560.000000	97.557506 
1559.000000	97.585060 
1558.000000	97.594206 
1557.000000	97.593423 
1556.000000	97.594129 
1555.000000	97.593271 
1554.000000	97.592172 
1553.000000	97.592251 
1552.000000	97.594205 
1551.000000	97.594739 
1550.000000	97.594258 
1549.000000	97.594914 
1548.000000	97.596353 
1547.000000	97.597560 
1546.000000	97.597542 
1545.000000	97.600246 
1544.000000	97.608472 
1543.000000	97.617283 
1542.000000	97.619455 
1541.000000	97.615192 
1540.000000	97.605735 
1539.000000	97.596633 
1538.000000	97.599985 
1537.000000	97.612004 
1536.000000	97.618768 
1535.000000	97.619275 
1534.000000	97.617705 
1533.000000	97.615465 
1532.000000	97.615431 
1531.000000	97.618257 
1530.000000	97.621741 
1529.000000	97.624012 
1528.000000	97.624397 
1527.000000	97.624438 
1526.000000	97.625027 
1525.000000	97.625831 
1524.000000	97.627398 
1523.000000	97.631796 
1522.000000	97.643226 
1521.000000	97.656799 
1520.000000	97.663356 
1519.000000	97.661683 
1518.000000	97.654547 
1517.000000	97.651439 
1516.000000	97.658281 
1515.000000	97.670792 
1514.000000	97.680527 
1513.000000	97.683523 
1512.000000	97.681450 
1511.000000	97.676918 
1510.000000	97.674292 
1509.000000	97.676819 
1508.000000	97.690674 
1507.000000	97.713806 
1506.000000	97.726259 
1505.000000	97.725694 
1504.000000	97.724995 
1503.000000	97.722183 
1502.000000	97.715828 
1501.000000	97.709443 
1500.000000	97.705141 
1499.000000	97.702823 
1498.000000	97.704208 
1497.000000	97.713772 
1496.000000	97.727833 
1495.000000	97.740609 
1494.000000	97.751243 
1493.000000	97.757305 
1492.000000	97.757263 
1491.000000	97.755960 
1490.000000	97.761698 
1489.000000	97.773764 
1488.000000	97.780718 
1487.000000	97.777644 
1486.000000	97.772451 
1485.000000	97.768150 
1484.000000	97.763783 
1483.000000	97.759378 
1482.000000	97.755869 
1481.000000	97.754982 
1480.000000	97.754678 
1479.000000	97.752900 
1478.000000	97.748752 
1477.000000	97.742792 
1476.000000	97.734207 
1475.000000	97.725191 
1474.000000	97.719334 
1473.000000	97.716319 
1472.000000	97.711502 
1471.000000	97.702625 
1470.000000	97.693416 
1469.000000	97.684104 
1468.000000	97.673029 
1467.000000	97.661159 
1466.000000	97.651091 
1465.000000	97.642445 
1464.000000	97.633716 
1463.000000	97.623225 
1462.000000	97.611195 
1461.000000	97.598481 
1460.000000	97.586444 
1459.000000	97.576916 
1458.000000	97.572970 
1457.000000	97.573702 
1456.000000	97.570880 
1455.000000	97.563759 
1454.000000	97.552928 
1453.000000	97.542574 
1452.000000	97.539343 
1451.000000	97.541049 
1450.000000	97.540793 
1449.000000	97.536611 
1448.000000	97.531078 
1447.000000	97.527162 
1446.000000	97.523594 
1445.000000	97.518248 
1444.000000	97.512013 
1443.000000	97.502669 
1442.000000	97.490749 
1441.000000	97.480863 
1440.000000	97.476467 
1439.000000	97.473426 
1438.000000	97.468217 
1437.000000	97.464632 
1436.000000	97.464398 
1435.000000	97.463580 
1434.000000	97.458943 
1433.000000	97.452325 
1432.000000	97.447624 
1431.000000	97.444881 
1430.000000	97.440636 
1429.000000	97.435866 
1428.000000	97.432787 
1427.000000	97.431406 
1426.000000	97.428409 
1425.000000	97.424229 
1424.000000	97.424731 
1423.000000	97.428256 
1422.000000	97.428991 
1421.000000	97.426931 
1420.000000	97.430115 
1419.000000	97.439766 
1418.000000	97.447422 
1417.000000	97.451649 
1416.000000	97.454809 
1415.000000	97.456449 
1414.000000	97.455374 
1413.000000	97.453885 
1412.000000	97.456044 
1411.000000	97.460822 
1410.000000	97.464289 
1409.000000	97.466764 
1408.000000	97.470339 
1407.000000	97.476175 
1406.000000	97.484230 
1405.000000	97.496018 
1404.000000	97.514125 
1403.000000	97.533584 
1402.000000	97.546516 
1401.000000	97.551761 
1400.000000	97.556563 
1399.000000	97.567126 
1398.000000	97.581695 
1397.000000	97.596013 
1396.000000	97.609150 
1395.000000	97.622598 
1394.000000	97.634417 
1393.000000	97.643055 
1392.000000	97.650237 
1391.000000	97.656074 
1390.000000	97.660147 
1389.000000	97.663906 
1388.000000	97.669474 
1387.000000	97.676586 
1386.000000	97.683270 
1385.000000	97.689226 
1384.000000	97.695815 
1383.000000	97.701812 
1382.000000	97.704613 
1381.000000	97.703909 
1380.000000	97.702315 
1379.000000	97.702539 
1378.000000	97.704135 
1377.000000	97.705553 
1376.000000	97.707508 
1375.000000	97.712663 
1374.000000	97.720860 
1373.000000	97.729103 
1372.000000	97.735347 
1371.000000	97.739796 
1370.000000	97.743006 
1369.000000	97.745390 
1368.000000	97.748225 
1367.000000	97.751152 
1366.000000	97.752920 
1365.000000	97.754000 
1364.000000	97.757249 
1363.000000	97.764331 
1362.000000	97.772969 
1361.000000	97.779880 
1360.000000	97.784536 
1359.000000	97.787929 
1358.000000	97.790054 
1357.000000	97.790895 
1356.000000	97.792038 
1355.000000	97.794738 
1354.000000	97.797917 
1353.000000	97.799770 
1352.000000	97.799661 
1351.000000	97.799211 
1350.000000	97.799856 
1349.000000	97.801566 
1348.000000	97.804818 
1347.000000	97.809331 
1346.000000	97.813438 
1345.000000	97.814680 
1344.000000	97.812110 
1343.000000	97.806686 
1342.000000	97.800436 
1341.000000	97.795478 
1340.000000	97.793263 
1339.000000	97.793595 
1338.000000	97.795537 
1337.000000	97.799432 
1336.000000	97.805932 
1335.000000	97.813331 
1334.000000	97.818257 
1333.000000	97.819274 
1332.000000	97.818033 
1331.000000	97.816534 
1330.000000	97.815044 
1329.000000	97.813559 
1328.000000	97.813009 
1327.000000	97.813649 
1326.000000	97.813542 
1325.000000	97.810633 
1324.000000	97.805328 
1323.000000	97.798946 
1322.000000	97.792045 
1321.000000	97.785249 
1320.000000	97.780147 
1319.000000	97.777476 
1318.000000	97.775780 
1317.000000	97.773227 
1316.000000	97.769648 
1315.000000	97.765821 
1314.000000	97.762229 
1313.000000	97.759420 
1312.000000	97.757789 
1311.000000	97.756097 
1310.000000	97.751941 
1309.000000	97.745065 
1308.000000	97.738420 
1307.000000	97.734878 
1306.000000	97.733681 
1305.000000	97.731690 
1304.000000	97.727130 
1303.000000	97.720222 
1302.000000	97.711938 
1301.000000	97.703330 
1300.000000	97.695292 
1299.000000	97.687547 
1298.000000	97.678865 
1297.000000	97.668907 
1296.000000	97.658906 
1295.000000	97.649902 
1294.000000	97.641648 
1293.000000	97.633922 
1292.000000	97.626801 
1291.000000	97.618754 
1290.000000	97.606746 
1289.000000	97.590006 
1288.000000	97.571876 
1287.000000	97.556147 
1286.000000	97.543117 
1285.000000	97.531070 
1284.000000	97.519730 
1283.000000	97.509798 
1282.000000	97.500597 
1281.000000	97.490635 
1280.000000	97.479898 
1279.000000	97.469351 
1278.000000	97.458977 
1277.000000	97.448404 
1276.000000	97.438344 
1275.000000	97.429138 
1274.000000	97.418707 
1273.000000	97.404825 
1272.000000	97.389094 
1271.000000	97.376004 
1270.000000	97.367612 
1269.000000	97.361307 
1268.000000	97.353234 
1267.000000	97.341965 
1266.000000	97.328795 
1265.000000	97.316391 
1264.000000	97.307125 
1263.000000	97.301002 
1262.000000	97.294903 
1261.000000	97.285250 
1260.000000	97.271715 
1259.000000	97.256945 
1258.000000	97.242671 
1257.000000	97.227719 
1256.000000	97.209798 
1255.000000	97.188065 
1254.000000	97.163900 
1253.000000	97.140212 
1252.000000	97.119680 
1251.000000	97.102381 
1250.000000	97.085098 
1249.000000	97.064114 
1248.000000	97.038711 
1247.000000	97.011153 
1246.000000	96.983854 
1245.000000	96.957692 
1244.000000	96.932353 
1243.000000	96.907019 
1242.000000	96.880895 
1241.000000	96.854149 
1240.000000	96.827972 
1239.000000	96.802910 
1238.000000	96.777805 
1237.000000	96.751313 
1236.000000	96.723511 
1235.000000	96.694920 
1234.000000	96.664992 
1233.000000	96.632862 
1232.000000	96.598514 
1231.000000	96.561836 
1230.000000	96.521878 
1229.000000	96.478532 
1228.000000	96.433339 
1227.000000	96.386837 
1226.000000	96.336733 
1225.000000	96.280883 
1224.000000	96.220315 
1223.000000	96.156547 
1222.000000	96.087695 
1221.000000	96.010761 
1220.000000	95.926599 
1219.000000	95.838674 
1218.000000	95.747645 
1217.000000	95.651528 
1216.000000	95.551114 
1215.000000	95.450453 
1214.000000	95.350952 
1213.000000	95.249365 
1212.000000	95.143014 
1211.000000	95.033085 
1210.000000	94.921336 
1209.000000	94.807504 
1208.000000	94.691795 
1207.000000	94.576246 
1206.000000	94.461800 
1205.000000	94.347245 
1204.000000	94.232334 
1203.000000	94.118399 
1202.000000	94.004740 
1201.000000	93.888464 
1200.000000	93.769303 
1199.000000	93.650597 
1198.000000	93.534181 
1197.000000	93.418370 
1196.000000	93.301938 
1195.000000	93.185360 
1194.000000	93.066786 
1193.000000	92.942045 
1192.000000	92.810828 
1191.000000	92.678332 
1190.000000	92.548794 
1189.000000	92.421598 
1188.000000	92.294827 
1187.000000	92.167247 
1186.000000	92.035486 
1185.000000	91.895552 
1184.000000	91.749604 
1183.000000	91.605310 
1182.000000	91.465568 
1181.000000	91.324256 
1180.000000	91.174902 
1179.000000	91.017835 
1178.000000	90.855834 
1177.000000	90.688736 
1176.000000	90.516048 
1175.000000	90.339570 
1174.000000	90.159646 
1173.000000	89.973504 
1172.000000	89.780365 
1171.000000	89.583371 
1170.000000	89.384139 
1169.000000	89.181132 
1168.000000	88.976302 
1167.000000	88.777954 
1166.000000	88.594983 
1165.000000	88.434771 
1164.000000	88.308995 
1163.000000	88.233455 
1162.000000	88.217098 
1161.000000	88.255076 
1160.000000	88.332441 
1159.000000	88.427269 
1158.000000	88.511150 
1157.000000	88.557972 
1156.000000	88.557392 
1155.000000	88.515801 
1154.000000	88.444093 
1153.000000	88.349920 
1152.000000	88.240555 
1151.000000	88.123973 
1150.000000	88.004004 
1149.000000	87.880546 
1148.000000	87.755899 
1147.000000	87.634440 
1146.000000	87.515626 
1145.000000	87.394755 
1144.000000	87.271173 
1143.000000	87.147997 
1142.000000	87.023764 
1141.000000	86.893259 
1140.000000	86.757226 
1139.000000	86.622081 
1138.000000	86.488998 
1137.000000	86.352287 
1136.000000	86.209251 
1135.000000	86.062360 
1134.000000	85.911538 
1133.000000	85.754726 
1132.000000	85.596577 
1131.000000	85.445160 
1130.000000	85.298419 
1129.000000	85.145057 
1128.000000	84.980576 
1127.000000	84.811365 
1126.000000	84.641813 
1125.000000	84.469497 
1124.000000	84.294797 
1123.000000	84.122442 
1122.000000	83.951015 
1121.000000	83.773663 
1120.000000	83.591809 
1119.000000	83.415291 
1118.000000	83.246390 
1117.000000	83.077289 
1116.000000	82.905991 
1115.000000	82.740261 
1114.000000	82.582135 
1113.000000	82.423090 
1112.000000	82.259032 
1111.000000	82.095964 
1110.000000	81.936364 
1109.000000	81.774156 
1108.000000	81.607611 
1107.000000	81.443112 
1106.000000	81.281627 
1105.000000	81.115312 
1104.000000	80.941884 
1103.000000	80.768296 
1102.000000	80.596340 
1101.000000	80.419084 
1100.000000	80.235370 
1099.000000	80.053034 
1098.000000	79.874199 
1097.000000	79.692650 
1096.000000	79.509283 
1095.000000	79.334120 
1094.000000	79.169108 
1093.000000	79.005350 
1092.000000	78.841244 
1091.000000	78.686261 
1090.000000	78.542668 
1089.000000	78.401129 
1088.000000	78.258958 
1087.000000	78.124867 
1086.000000	78.001002 
1085.000000	77.878396 
1084.000000	77.755026 
1083.000000	77.639820 
1082.000000	77.533367 
1081.000000	77.423160 
1080.000000	77.304001 
1079.000000	77.185335 
1078.000000	77.072607 
1077.000000	76.958730 
1076.000000	76.839120 
1075.000000	76.717013 
1074.000000	76.588732 
1073.000000	76.442028 
1072.000000	76.274327 
1071.000000	76.094866 
1070.000000	75.904461 
1069.000000	75.691902 
1068.000000	75.455276 
1067.000000	75.207931 
1066.000000	74.958215 
1065.000000	74.702550 
1064.000000	74.443765 
1063.000000	74.195879 
1062.000000	73.963900 
1061.000000	73.738010 
1060.000000	73.513560 
1059.000000	73.297310 
1058.000000	73.088801 
1057.000000	72.876251 
1056.000000	72.656724 
1055.000000	72.440035 
1054.000000	72.226619 
1053.000000	72.001756 
1052.000000	71.758340 
1051.000000	71.504378 
1050.000000	71.241199 
1049.000000	70.958213 
1048.000000	70.656170 
1047.000000	70.349874 
1046.000000	70.042230 
1045.000000	69.720704 
1044.000000	69.383166 
1043.000000	69.043014 
1042.000000	68.705350 
1041.000000	68.362319 
1040.000000	68.016204 
1039.000000	67.681744 
1038.000000	67.360409 
1037.000000	67.038767 
1036.000000	66.718277 
1035.000000	66.419302 
1034.000000	66.148582 
1033.000000	65.890385 
1032.000000	65.637592 
1031.000000	65.403518 
1030.000000	65.194348 
1029.000000	64.997696 
1028.000000	64.807927 
1027.000000	64.635791 
1026.000000	64.483523 
1025.000000	64.336635 
1024.000000	64.189223 
1023.000000	64.051412 
1022.000000	63.923566 
1021.000000	63.789644 
1020.000000	63.644615 
1019.000000	63.502261 
1018.000000	63.367428 
1017.000000	63.226781 
1016.000000	63.075368 
1015.000000	62.926081 
1014.000000	62.784135 
1013.000000	62.638000 
1012.000000	62.484352 
1011.000000	62.336694 
1010.000000	62.200746 
1009.000000	62.066016 
1008.000000	61.929568 
1007.000000	61.803586 
1006.000000	61.692445 
1005.000000	61.586843 
1004.000000	61.486380 
1003.000000	61.402342 
1002.000000	61.332767 
1001.000000	61.261563 
1000.000000	61.188111 
999.000000	 61.130571 
998.000000	 61.093689 
997.000000	 61.060621 
996.000000	 61.023008 
995.000000	 60.991664 
994.000000	 60.970869 
993.000000	 60.949697 
992.000000	 60.926075 
991.000000	 60.912402 
990.000000	 60.910217 
989.000000	 60.905977 
988.000000	 60.898647 
987.000000	 60.904670 
986.000000	 60.929292 
985.000000	 60.960169 
984.000000	 60.995644 
983.000000	 61.051430 
982.000000	 61.132268 
981.000000	 61.224554 
980.000000	 61.324017 
979.000000	 61.443186 
978.000000	 61.584402 
977.000000	 61.732912 
976.000000	 61.884176 
975.000000	 62.051577 
974.000000	 62.240038 
973.000000	 62.437830 
972.000000	 62.640812 
971.000000	 62.858859 
970.000000	 63.092043 
969.000000	 63.326031 
968.000000	 63.557088 
967.000000	 63.796671 
966.000000	 64.046098 
965.000000	 64.291779 
964.000000	 64.530372 
963.000000	 64.773389 
962.000000	 65.022037 
961.000000	 65.262721 
960.000000	 65.492456 
959.000000	 65.723879 
958.000000	 65.960286 
957.000000	 66.190141 
956.000000	 66.410491 
955.000000	 66.630945 
954.000000	 66.850222 
953.000000	 67.053793 
952.000000	 67.239311 
951.000000	 67.419841 
950.000000	 67.597939 
949.000000	 67.761473 
948.000000	 67.908840 
947.000000	 68.052507 
946.000000	 68.193168 
945.000000	 68.316504 
944.000000	 68.420808 
943.000000	 68.522003 
942.000000	 68.625760 
941.000000	 68.720493 
940.000000	 68.803799 
939.000000	 68.889505 
938.000000	 68.981445 
937.000000	 69.066083 
936.000000	 69.139082 
935.000000	 69.214564 
934.000000	 69.300415 
933.000000	 69.388644 
932.000000	 69.477099 
931.000000	 69.575589 
930.000000	 69.682741 
929.000000	 69.781775 
928.000000	 69.867780 
927.000000	 69.955439 
926.000000	 70.051738 
925.000000	 70.144731 
924.000000	 70.227412 
923.000000	 70.309024 
922.000000	 70.393874 
921.000000	 70.471283 
920.000000	 70.534783 
919.000000	 70.590112 
918.000000	 70.637845 
917.000000	 70.670518 
916.000000	 70.693412 
915.000000	 70.725666 
914.000000	 70.774668 
913.000000	 70.832410 
912.000000	 70.902398 
911.000000	 71.004189 
910.000000	 71.143736 
909.000000	 71.305266 
908.000000	 71.481136 
907.000000	 71.683998 
906.000000	 71.920671 
905.000000	 72.179384 
904.000000	 72.451896 
903.000000	 72.743752 
902.000000	 73.054065 
901.000000	 73.369088 
900.000000	 73.684069 
899.000000	 74.008609 
898.000000	 74.342923 
897.000000	 74.671644 
896.000000	 74.988187 
895.000000	 75.302500 
894.000000	 75.617384 
893.000000	 75.919491 
892.000000	 76.201810 
891.000000	 76.474101 
890.000000	 76.743199 
889.000000	 77.002695 
888.000000	 77.249487 
887.000000	 77.491479 
886.000000	 77.731819 
885.000000	 77.963834 
884.000000	 78.187755 
883.000000	 78.414020 
882.000000	 78.644209 
881.000000	 78.867395 
880.000000	 79.080821 
879.000000	 79.295018 
878.000000	 79.513454 
877.000000	 79.727727 
876.000000	 79.938553 
875.000000	 80.160285 
874.000000	 80.398267 
873.000000	 80.641923 
872.000000	 80.885361 
871.000000	 81.134289 
870.000000	 81.388052 
869.000000	 81.635844 
868.000000	 81.876205 
867.000000	 82.120695 
866.000000	 82.372260 
865.000000	 82.617646 
864.000000	 82.847277 
863.000000	 83.066977 
862.000000	 83.284991 
861.000000	 83.502233 
860.000000	 83.719571 
859.000000	 83.939630 
858.000000	 84.156559 
857.000000	 84.357867 
856.000000	 84.540592 
855.000000	 84.713258 
854.000000	 84.879918 
853.000000	 85.035898 
852.000000	 85.180943 
851.000000	 85.321792 
850.000000	 85.459037 
849.000000	 85.585223 
848.000000	 85.697539 
847.000000	 85.797821 
846.000000	 85.879245 
845.000000	 85.929962 
844.000000	 85.952777 
843.000000	 85.964588 
842.000000	 85.971783 
841.000000	 85.961235 
840.000000	 85.919665 
839.000000	 85.846885 
838.000000	 85.746985 
837.000000	 85.624126 
836.000000	 85.492807 
835.000000	 85.374643 
834.000000	 85.276438 
833.000000	 85.186849 
832.000000	 85.102394 
831.000000	 85.039885 
830.000000	 85.013324 
829.000000	 85.015229 
828.000000	 85.033011 
827.000000	 85.068545 
826.000000	 85.127995 
825.000000	 85.205066 
824.000000	 85.286720 
823.000000	 85.364429 
822.000000	 85.431818 
821.000000	 85.484206 
820.000000	 85.525559 
819.000000	 85.561955 
818.000000	 85.584960 
817.000000	 85.575139 
816.000000	 85.524170 
815.000000	 85.439316 
814.000000	 85.323159 
813.000000	 85.163466 
812.000000	 84.946757 
811.000000	 84.666090 
810.000000	 84.310330 
809.000000	 83.862979 
808.000000	 83.321311 
807.000000	 82.703886 
806.000000	 82.031821 
805.000000	 81.317398 
804.000000	 80.579096 
803.000000	 79.850079 
802.000000	 79.160315 
801.000000	 78.526844 
800.000000	 77.971118 
799.000000	 77.524670 
798.000000	 77.204479 
797.000000	 77.001530 
796.000000	 76.902570 
795.000000	 76.900620 
794.000000	 76.975766 
793.000000	 77.090730 
792.000000	 77.216516 
791.000000	 77.341998 
790.000000	 77.452465 
789.000000	 77.522696 
788.000000	 77.539253 
787.000000	 77.507032 
786.000000	 77.425175 
785.000000	 77.278318 
784.000000	 77.061553 
783.000000	 76.794907 
782.000000	 76.505561 
781.000000	 76.216437 
780.000000	 75.959137 
779.000000	 75.772572 
778.000000	 75.675167 
777.000000	 75.658048 
776.000000	 75.713400 
775.000000	 75.845405 
774.000000	 76.044771 
773.000000	 76.278781 
772.000000	 76.518400 
771.000000	 76.753975 
770.000000	 76.976830 
769.000000	 77.169214 
768.000000	 77.322546 
767.000000	 77.445220 
766.000000	 77.544156 
765.000000	 77.618556 
764.000000	 77.678199 
763.000000	 77.744926 
762.000000	 77.825818 
761.000000	 77.904980 
760.000000	 77.971081 
759.000000	 78.033673 
758.000000	 78.104851 
757.000000	 78.185521 
756.000000	 78.277492 
755.000000	 78.387707 
754.000000	 78.511623 
753.000000	 78.632306 
752.000000	 78.743469 
751.000000	 78.853580 
750.000000	 78.961908 
749.000000	 79.054063 
748.000000	 79.130433 
747.000000	 79.216590 
746.000000	 79.333669 
745.000000	 79.476882 
744.000000	 79.632912 
743.000000	 79.799767 
742.000000	 79.979910 
741.000000	 80.171644 
740.000000	 80.376338 
739.000000	 80.597519 
738.000000	 80.825205 
737.000000	 81.037595 
736.000000	 81.225110 
735.000000	 81.397742 
734.000000	 81.564080 
733.000000	 81.719382 
732.000000	 81.858704 
731.000000	 81.983493 
730.000000	 82.089457 
729.000000	 82.166112 
728.000000	 82.215570 
727.000000	 82.255795 
726.000000	 82.299333 
725.000000	 82.345647 
724.000000	 82.399536 
723.000000	 82.477812 
722.000000	 82.589893 
721.000000	 82.727650 
720.000000	 82.879562 
719.000000	 83.037660 
718.000000	 83.186198 
717.000000	 83.304839 
716.000000	 83.392330 
715.000000	 83.470166 
714.000000	 83.554318 
713.000000	 83.637598 
712.000000	 83.706171 
711.000000	 83.756765 
710.000000	 83.789625 
709.000000	 83.800386 
708.000000	 83.787911 
707.000000	 83.757593 
706.000000	 83.709922 
705.000000	 83.637422 
704.000000	 83.535699 
703.000000	 83.401086 
702.000000	 83.214525 
701.000000	 82.947727 
700.000000	 82.592007 
699.000000	 82.167976 
698.000000	 81.708966 
697.000000	 81.257410 
696.000000	 80.878007 
695.000000	 80.640801 
694.000000	 80.575167 
693.000000	 80.658551 
692.000000	 80.851749 
691.000000	 81.120058 
690.000000	 81.419184 
689.000000	 81.695914 
688.000000	 81.921793 
687.000000	 82.106110 
686.000000	 82.266083 
685.000000	 82.408767 
684.000000	 82.547325 
683.000000	 82.701475 
682.000000	 82.867442 
681.000000	 83.013337 
680.000000	 83.120102 
679.000000	 83.205667 
678.000000	 83.295517 
677.000000	 83.391686 
676.000000	 83.488846 
675.000000	 83.596339 
674.000000	 83.720789 
673.000000	 83.845841 
672.000000	 83.944671 
671.000000	 84.007287 
670.000000	 84.050863 
669.000000	 84.123878 
668.000000	 84.264344 
667.000000	 84.411916 
666.000000	 84.507615 
665.000000	 84.560180 
664.000000	 84.588747 
663.000000	 84.626569 
662.000000	 84.694519 
661.000000	 84.778035 
660.000000	 84.859792 
659.000000	 84.935310 
658.000000	 84.989829 
657.000000	 84.996036 
656.000000	 84.952564 
655.000000	 84.891608 
654.000000	 84.836402 
653.000000	 84.785443 
652.000000	 84.748493 
651.000000	 84.754741 
650.000000	 84.805584 

