4000.000000	99.352355 
3999.000000	99.351212 
3998.000000	99.348966 
3997.000000	99.345213 
3996.000000	99.340505 
3995.000000	99.336293 
3994.000000	99.334304 
3993.000000	99.335483 
3992.000000	99.339057 
3991.000000	99.342702 
3990.000000	99.344241 
3989.000000	99.343635 
3988.000000	99.343164 
3987.000000	99.345347 
3986.000000	99.350627 
3985.000000	99.356973 
3984.000000	99.361421 
3983.000000	99.362006 
3982.000000	99.358738 
3981.000000	99.353220 
3980.000000	99.347209 
3979.000000	99.341577 
3978.000000	99.336762 
3977.000000	99.333800 
3976.000000	99.334232 
3975.000000	99.338661 
3974.000000	99.345674 
3973.000000	99.352394 
3972.000000	99.356174 
3971.000000	99.356193 
3970.000000	99.353822 
3969.000000	99.351500 
3968.000000	99.350927 
3967.000000	99.351869 
3966.000000	99.352731 
3965.000000	99.352317 
3964.000000	99.350598 
3963.000000	99.347896 
3962.000000	99.344073 
3961.000000	99.339020 
3960.000000	99.333697 
3959.000000	99.330271 
3958.000000	99.330624 
3957.000000	99.334550 
3956.000000	99.339715 
3955.000000	99.343316 
3954.000000	99.344062 
3953.000000	99.342492 
3952.000000	99.339751 
3951.000000	99.336619 
3950.000000	99.333508 
3949.000000	99.331131 
3948.000000	99.330330 
3947.000000	99.331006 
3946.000000	99.332085 
3945.000000	99.332720 
3944.000000	99.333135 
3943.000000	99.333760 
3942.000000	99.334525 
3941.000000	99.335119 
3940.000000	99.335169 
3939.000000	99.334062 
3938.000000	99.331032 
3937.000000	99.325923 
3936.000000	99.320173 
3935.000000	99.316515 
3934.000000	99.317639 
3933.000000	99.324283 
3932.000000	99.334094 
3931.000000	99.342371 
3930.000000	99.344907 
3929.000000	99.341034 
3928.000000	99.333797 
3927.000000	99.327517 
3926.000000	99.325379 
3925.000000	99.327658 
3924.000000	99.331635 
3923.000000	99.334016 
3922.000000	99.333288 
3921.000000	99.330448 
3920.000000	99.327678 
3919.000000	99.326719 
3918.000000	99.328330 
3917.000000	99.332329 
3916.000000	99.337831 
3915.000000	99.343524 
3914.000000	99.348440 
3913.000000	99.352208 
3912.000000	99.354684 
3911.000000	99.356127 
3910.000000	99.357274 
3909.000000	99.358819 
3908.000000	99.360563 
3907.000000	99.360541 
3906.000000	99.355768 
3905.000000	99.344181 
3904.000000	99.326662 
3903.000000	99.308152 
3902.000000	99.295548 
3901.000000	99.293693 
3900.000000	99.302612 
3899.000000	99.317035 
3898.000000	99.329992 
3897.000000	99.337152 
3896.000000	99.337806 
3895.000000	99.333630 
3894.000000	99.327405 
3893.000000	99.322046 
3892.000000	99.319483 
3891.000000	99.319369 
3890.000000	99.319514 
3889.000000	99.317663 
3888.000000	99.313757 
3887.000000	99.310519 
3886.000000	99.310646 
3885.000000	99.313102 
3884.000000	99.314066 
3883.000000	99.311969 
3882.000000	99.309868 
3881.000000	99.311979 
3880.000000	99.318613 
3879.000000	99.325272 
3878.000000	99.328041 
3877.000000	99.327914 
3876.000000	99.329357 
3875.000000	99.334238 
3874.000000	99.338160 
3873.000000	99.334950 
3872.000000	99.324902 
3871.000000	99.315982 
3870.000000	99.315649 
3869.000000	99.322969 
3868.000000	99.330754 
3867.000000	99.334335 
3866.000000	99.335592 
3865.000000	99.338066 
3864.000000	99.340713 
3863.000000	99.339593 
3862.000000	99.333942 
3861.000000	99.328074 
3860.000000	99.327147 
3859.000000	99.332333 
3858.000000	99.340052 
3857.000000	99.345293 
3856.000000	99.345422 
3855.000000	99.343234 
3854.000000	99.342978 
3853.000000	99.344456 
3852.000000	99.345260 
3851.000000	99.344502 
3850.000000	99.342607 
3849.000000	99.341141 
3848.000000	99.340799 
3847.000000	99.340896 
3846.000000	99.340312 
3845.000000	99.338756 
3844.000000	99.337831 
3843.000000	99.339983 
3842.000000	99.345483 
3841.000000	99.352053 
3840.000000	99.357059 
3839.000000	99.359027 
3838.000000	99.357840 
3837.000000	99.354146 
3836.000000	99.349130 
3835.000000	99.344800 
3834.000000	99.343517 
3833.000000	99.346820 
3832.000000	99.353691 
3831.000000	99.360137 
3830.000000	99.362091 
3829.000000	99.358633 
3828.000000	99.352714 
3827.000000	99.348759 
3826.000000	99.348691 
3825.000000	99.350786 
3824.000000	99.352867 
3823.000000	99.355936 
3822.000000	99.362146 
3821.000000	99.369381 
3820.000000	99.372963 
3819.000000	99.371765 
3818.000000	99.368705 
3817.000000	99.367625 
3816.000000	99.368516 
3815.000000	99.366234 
3814.000000	99.357202 
3813.000000	99.345042 
3812.000000	99.337255 
3811.000000	99.338113 
3810.000000	99.345563 
3809.000000	99.354617 
3808.000000	99.362509 
3807.000000	99.369008 
3806.000000	99.372840 
3805.000000	99.371497 
3804.000000	99.365263 
3803.000000	99.359592 
3802.000000	99.360132 
3801.000000	99.364742 
3800.000000	99.365487 
3799.000000	99.358361 
3798.000000	99.346991 
3797.000000	99.338263 
3796.000000	99.335489 
3795.000000	99.336123 
3794.000000	99.335891 
3793.000000	99.333599 
3792.000000	99.331209 
3791.000000	99.330777 
3790.000000	99.332436 
3789.000000	99.334992 
3788.000000	99.337384 
3787.000000	99.339073 
3786.000000	99.339954 
3785.000000	99.340242 
3784.000000	99.340214 
3783.000000	99.339829 
3782.000000	99.339271 
3781.000000	99.339743 
3780.000000	99.342506 
3779.000000	99.346900 
3778.000000	99.350310 
3777.000000	99.350482 
3776.000000	99.347423 
3775.000000	99.343111 
3774.000000	99.339315 
3773.000000	99.336387 
3772.000000	99.334433 
3771.000000	99.334006 
3770.000000	99.334504 
3769.000000	99.333888 
3768.000000	99.331406 
3767.000000	99.328912 
3766.000000	99.328828 
3765.000000	99.330900 
3764.000000	99.331805 
3763.000000	99.328710 
3762.000000	99.322957 
3761.000000	99.319269 
3760.000000	99.320749 
3759.000000	99.326043 
3758.000000	99.331900 
3757.000000	99.336700 
3756.000000	99.340513 
3755.000000	99.343926 
3754.000000	99.347961 
3753.000000	99.354010 
3752.000000	99.361722 
3751.000000	99.367318 
3750.000000	99.367924 
3749.000000	99.364944 
3748.000000	99.360339 
3747.000000	99.354507 
3746.000000	99.348965 
3745.000000	99.346307 
3744.000000	99.346410 
3743.000000	99.345036 
3742.000000	99.338999 
3741.000000	99.329862 
3740.000000	99.320941 
3739.000000	99.313497 
3738.000000	99.307459 
3737.000000	99.303428 
3736.000000	99.301685 
3735.000000	99.300345 
3734.000000	99.297619 
3733.000000	99.295329 
3732.000000	99.296759 
3731.000000	99.301633 
3730.000000	99.306020 
3729.000000	99.307104 
3728.000000	99.306669 
3727.000000	99.308314 
3726.000000	99.311952 
3725.000000	99.313593 
3724.000000	99.311123 
3723.000000	99.307247 
3722.000000	99.305873 
3721.000000	99.308011 
3720.000000	99.311027 
3719.000000	99.311833 
3718.000000	99.310021 
3717.000000	99.306931 
3716.000000	99.303158 
3715.000000	99.298382 
3714.000000	99.293560 
3713.000000	99.291611 
3712.000000	99.293575 
3711.000000	99.296450 
3710.000000	99.296564 
3709.000000	99.292716 
3708.000000	99.286065 
3707.000000	99.278385 
3706.000000	99.270977 
3705.000000	99.264435 
3704.000000	99.258542 
3703.000000	99.252105 
3702.000000	99.243121 
3701.000000	99.230545 
3700.000000	99.215365 
3699.000000	99.199551 
3698.000000	99.185394 
3697.000000	99.175096 
3696.000000	99.169527 
3695.000000	99.167961 
3694.000000	99.169199 
3693.000000	99.172025 
3692.000000	99.174062 
3691.000000	99.171539 
3690.000000	99.162019 
3689.000000	99.148253 
3688.000000	99.136401 
3687.000000	99.128794 
3686.000000	99.123344 
3685.000000	99.119278 
3684.000000	99.118412 
3683.000000	99.121935 
3682.000000	99.127775 
3681.000000	99.131427 
3680.000000	99.128694 
3679.000000	99.117209 
3678.000000	99.098227 
3677.000000	99.079661 
3676.000000	99.072146 
3675.000000	99.077326 
3674.000000	99.085722 
3673.000000	99.088124 
3672.000000	99.083944 
3671.000000	99.080655 
3670.000000	99.083670 
3669.000000	99.090001 
3668.000000	99.094658 
3667.000000	99.096964 
3666.000000	99.099160 
3665.000000	99.102567 
3664.000000	99.106099 
3663.000000	99.108273 
3662.000000	99.109065 
3661.000000	99.109033 
3660.000000	99.108143 
3659.000000	99.106778 
3658.000000	99.107859 
3657.000000	99.115226 
3656.000000	99.128399 
3655.000000	99.141438 
3654.000000	99.148485 
3653.000000	99.149062 
3652.000000	99.147386 
3651.000000	99.147764 
3650.000000	99.149904 
3649.000000	99.151194 
3648.000000	99.152974 
3647.000000	99.158375 
3646.000000	99.167278 
3645.000000	99.177381 
3644.000000	99.187220 
3643.000000	99.196999 
3642.000000	99.207647 
3641.000000	99.219278 
3640.000000	99.230988 
3639.000000	99.241159 
3638.000000	99.248077 
3637.000000	99.251169 
3636.000000	99.251864 
3635.000000	99.252581 
3634.000000	99.253782 
3633.000000	99.253115 
3632.000000	99.248752 
3631.000000	99.243082 
3630.000000	99.241643 
3629.000000	99.244973 
3628.000000	99.246820 
3627.000000	99.244427 
3626.000000	99.242155 
3625.000000	99.245391 
3624.000000	99.254748 
3623.000000	99.265500 
3622.000000	99.272432 
3621.000000	99.275089 
3620.000000	99.276698 
3619.000000	99.278697 
3618.000000	99.279375 
3617.000000	99.277529 
3616.000000	99.274734 
3615.000000	99.274032 
3614.000000	99.276230 
3613.000000	99.278473 
3612.000000	99.277544 
3611.000000	99.273662 
3610.000000	99.270277 
3609.000000	99.270250 
3608.000000	99.272743 
3607.000000	99.275379 
3606.000000	99.278279 
3605.000000	99.283670 
3604.000000	99.292505 
3603.000000	99.302700 
3602.000000	99.310693 
3601.000000	99.314637 
3600.000000	99.315040 
3599.000000	99.313133 
3598.000000	99.310020 
3597.000000	99.306571 
3596.000000	99.303772 
3595.000000	99.302689 
3594.000000	99.303331 
3593.000000	99.304547 
3592.000000	99.304734 
3591.000000	99.302395 
3590.000000	99.297359 
3589.000000	99.291306 
3588.000000	99.286424 
3587.000000	99.283499 
3586.000000	99.282684 
3585.000000	99.284707 
3584.000000	99.290516 
3583.000000	99.299501 
3582.000000	99.309069 
3581.000000	99.315987 
3580.000000	99.318544 
3579.000000	99.317243 
3578.000000	99.313688 
3577.000000	99.309633 
3576.000000	99.306635 
3575.000000	99.305958 
3574.000000	99.307797 
3573.000000	99.310739 
3572.000000	99.312629 
3571.000000	99.311755 
3570.000000	99.307350 
3569.000000	99.300282 
3568.000000	99.293172 
3567.000000	99.288570 
3566.000000	99.287130 
3565.000000	99.288023 
3564.000000	99.290861 
3563.000000	99.296495 
3562.000000	99.305268 
3561.000000	99.315151 
3560.000000	99.322744 
3559.000000	99.326143 
3558.000000	99.326414 
3557.000000	99.326179 
3556.000000	99.327190 
3555.000000	99.329242 
3554.000000	99.330832 
3553.000000	99.330063 
3552.000000	99.325705 
3551.000000	99.318114 
3550.000000	99.308984 
3549.000000	99.300569 
3548.000000	99.295311 
3547.000000	99.294952 
3546.000000	99.299143 
3545.000000	99.304758 
3544.000000	99.308196 
3543.000000	99.308998 
3542.000000	99.310437 
3541.000000	99.315750 
3540.000000	99.324302 
3539.000000	99.331661 
3538.000000	99.333828 
3537.000000	99.330869 
3536.000000	99.326464 
3535.000000	99.324160 
3534.000000	99.324692 
3533.000000	99.326868 
3532.000000	99.329654 
3531.000000	99.332767 
3530.000000	99.335528 
3529.000000	99.336352 
3528.000000	99.334116 
3527.000000	99.329718 
3526.000000	99.325546 
3525.000000	99.323432 
3524.000000	99.323335 
3523.000000	99.323833 
3522.000000	99.323701 
3521.000000	99.322787 
3520.000000	99.322022 
3519.000000	99.322667 
3518.000000	99.325418 
3517.000000	99.329682 
3516.000000	99.333756 
3515.000000	99.335955 
3514.000000	99.335481 
3513.000000	99.332490 
3512.000000	99.327755 
3511.000000	99.322467 
3510.000000	99.317935 
3509.000000	99.315104 
3508.000000	99.314238 
3507.000000	99.315125 
3506.000000	99.317490 
3505.000000	99.320725 
3504.000000	99.323541 
3503.000000	99.324817 
3502.000000	99.325347 
3501.000000	99.327834 
3500.000000	99.334144 
3499.000000	99.342534 
3498.000000	99.348035 
3497.000000	99.346290 
3496.000000	99.337487 
3495.000000	99.326525 
3494.000000	99.319168 
3493.000000	99.317801 
3492.000000	99.320629 
3491.000000	99.324320 
3490.000000	99.327193 
3489.000000	99.330012 
3488.000000	99.333983 
3487.000000	99.338448 
3486.000000	99.341148 
3485.000000	99.340682 
3484.000000	99.338047 
3483.000000	99.335504 
3482.000000	99.334276 
3481.000000	99.333920 
3480.000000	99.333668 
3479.000000	99.333351 
3478.000000	99.332827 
3477.000000	99.331721 
3476.000000	99.330688 
3475.000000	99.332255 
3474.000000	99.338695 
3473.000000	99.348479 
3472.000000	99.356152 
3471.000000	99.357074 
3470.000000	99.352089 
3469.000000	99.346542 
3468.000000	99.344790 
3467.000000	99.346468 
3466.000000	99.348314 
3465.000000	99.348402 
3464.000000	99.347547 
3463.000000	99.347282 
3462.000000	99.347844 
3461.000000	99.348566 
3460.000000	99.349250 
3459.000000	99.350399 
3458.000000	99.352261 
3457.000000	99.354025 
3456.000000	99.354265 
3455.000000	99.352141 
3454.000000	99.348328 
3453.000000	99.344824 
3452.000000	99.343491 
3451.000000	99.344593 
3450.000000	99.346630 
3449.000000	99.347727 
3448.000000	99.347164 
3447.000000	99.345733 
3446.000000	99.344800 
3445.000000	99.345172 
3444.000000	99.346719 
3443.000000	99.348572 
3442.000000	99.349577 
3441.000000	99.348952 
3440.000000	99.346919 
3439.000000	99.344553 
3438.000000	99.342721 
3437.000000	99.341257 
3436.000000	99.339638 
3435.000000	99.338296 
3434.000000	99.338700 
3433.000000	99.341868 
3432.000000	99.346866 
3431.000000	99.351325 
3430.000000	99.353509 
3429.000000	99.353827 
3428.000000	99.354101 
3427.000000	99.355210 
3426.000000	99.355753 
3425.000000	99.353414 
3424.000000	99.347660 
3423.000000	99.340614 
3422.000000	99.335054 
3421.000000	99.332044 
3420.000000	99.331063 
3419.000000	99.331754 
3418.000000	99.334437 
3417.000000	99.338907 
3416.000000	99.343811 
3415.000000	99.347659 
3414.000000	99.349973 
3413.000000	99.351107 
3412.000000	99.351418 
3411.000000	99.351093 
3410.000000	99.350408 
3409.000000	99.349548 
3408.000000	99.348104 
3407.000000	99.345194 
3406.000000	99.340451 
3405.000000	99.334771 
3404.000000	99.329911 
3403.000000	99.327160 
3402.000000	99.326473 
3401.000000	99.327158 
3400.000000	99.329285 
3399.000000	99.333908 
3398.000000	99.341513 
3397.000000	99.350495 
3396.000000	99.357672 
3395.000000	99.360388 
3394.000000	99.358015 
3393.000000	99.351835 
3392.000000	99.344217 
3391.000000	99.337843 
3390.000000	99.334957 
3389.000000	99.336371 
3388.000000	99.340896 
3387.000000	99.346042 
3386.000000	99.349884 
3385.000000	99.352476 
3384.000000	99.355120 
3383.000000	99.357931 
3382.000000	99.358606 
3381.000000	99.354601 
3380.000000	99.346738 
3379.000000	99.339785 
3378.000000	99.338373 
3377.000000	99.342416 
3376.000000	99.347292 
3375.000000	99.348582 
3374.000000	99.346015 
3373.000000	99.342792 
3372.000000	99.341896 
3371.000000	99.343557 
3370.000000	99.345697 
3369.000000	99.346066 
3368.000000	99.344159 
3367.000000	99.341661 
3366.000000	99.341070 
3365.000000	99.343384 
3364.000000	99.347042 
3363.000000	99.349391 
3362.000000	99.349164 
3361.000000	99.347132 
3360.000000	99.344525 
3359.000000	99.341672 
3358.000000	99.338624 
3357.000000	99.336395 
3356.000000	99.336483 
3355.000000	99.338954 
3354.000000	99.341762 
3353.000000	99.342522 
3352.000000	99.340704 
3351.000000	99.337877 
3350.000000	99.336123 
3349.000000	99.336565 
3348.000000	99.339054 
3347.000000	99.342382 
3346.000000	99.344689 
3345.000000	99.344479 
3344.000000	99.341890 
3343.000000	99.338824 
3342.000000	99.337169 
3341.000000	99.336894 
3340.000000	99.336181 
3339.000000	99.333590 
3338.000000	99.329889 
3337.000000	99.327594 
3336.000000	99.328718 
3335.000000	99.332948 
3334.000000	99.337991 
3333.000000	99.341659 
3332.000000	99.343573 
3331.000000	99.344800 
3330.000000	99.345996 
3329.000000	99.346393 
3328.000000	99.344887 
3327.000000	99.341657 
3326.000000	99.338044 
3325.000000	99.334877 
3324.000000	99.331648 
3323.000000	99.327854 
3322.000000	99.324572 
3321.000000	99.323862 
3320.000000	99.326485 
3319.000000	99.330789 
3318.000000	99.334242 
3317.000000	99.335671 
3316.000000	99.335567 
3315.000000	99.334715 
3314.000000	99.333472 
3313.000000	99.332407 
3312.000000	99.332530 
3311.000000	99.334068 
3310.000000	99.335592 
3309.000000	99.335298 
3308.000000	99.333079 
3307.000000	99.330579 
3306.000000	99.329284 
3305.000000	99.329428 
3304.000000	99.330892 
3303.000000	99.334030 
3302.000000	99.338724 
3301.000000	99.343055 
3300.000000	99.343953 
3299.000000	99.339716 
3298.000000	99.331817 
3297.000000	99.324066 
3296.000000	99.319640 
3295.000000	99.318712 
3294.000000	99.319024 
3293.000000	99.318856 
3292.000000	99.318985 
3291.000000	99.321099 
3290.000000	99.324663 
3289.000000	99.326649 
3288.000000	99.324751 
3287.000000	99.319881 
3286.000000	99.314797 
3285.000000	99.311025 
3284.000000	99.308118 
3283.000000	99.305568 
3282.000000	99.304378 
3281.000000	99.306378 
3280.000000	99.312241 
3279.000000	99.320123 
3278.000000	99.326134 
3277.000000	99.326763 
3276.000000	99.321636 
3275.000000	99.313953 
3274.000000	99.307844 
3273.000000	99.305335 
3272.000000	99.305884 
3271.000000	99.308055 
3270.000000	99.310735 
3269.000000	99.313095 
3268.000000	99.314359 
3267.000000	99.313963 
3266.000000	99.311649 
3265.000000	99.307631 
3264.000000	99.303113 
3263.000000	99.300304 
3262.000000	99.300946 
3261.000000	99.304537 
3260.000000	99.308548 
3259.000000	99.310627 
3258.000000	99.310357 
3257.000000	99.308883 
3256.000000	99.307291 
3255.000000	99.305565 
3254.000000	99.303021 
3253.000000	99.299685 
3252.000000	99.297136 
3251.000000	99.297527 
3250.000000	99.301420 
3249.000000	99.306913 
3248.000000	99.311209 
3247.000000	99.312718 
3246.000000	99.311420 
3245.000000	99.307987 
3244.000000	99.303482 
3243.000000	99.299460 
3242.000000	99.297126 
3241.000000	99.296282 
3240.000000	99.295980 
3239.000000	99.296321 
3238.000000	99.298762 
3237.000000	99.304333 
3236.000000	99.312160 
3235.000000	99.319878 
3234.000000	99.324980 
3233.000000	99.325828 
3232.000000	99.322399 
3231.000000	99.316594 
3230.000000	99.311094 
3229.000000	99.307291 
3228.000000	99.304516 
3227.000000	99.301365 
3226.000000	99.297217 
3225.000000	99.292288 
3224.000000	99.287094 
3223.000000	99.282562 
3222.000000	99.280088 
3221.000000	99.280506 
3220.000000	99.282939 
3219.000000	99.285364 
3218.000000	99.286637 
3217.000000	99.287712 
3216.000000	99.290666 
3215.000000	99.296483 
3214.000000	99.303723 
3213.000000	99.309265 
3212.000000	99.310380 
3211.000000	99.306362 
3210.000000	99.298653 
3209.000000	99.289968 
3208.000000	99.283234 
3207.000000	99.280458 
3206.000000	99.281703 
3205.000000	99.285082 
3204.000000	99.288225 
3203.000000	99.289889 
3202.000000	99.290090 
3201.000000	99.289184 
3200.000000	99.287462 
3199.000000	99.285458 
3198.000000	99.283911 
3197.000000	99.283318 
3196.000000	99.283944 
3195.000000	99.286075 
3194.000000	99.289562 
3193.000000	99.293132 
3192.000000	99.294874 
3191.000000	99.293665 
3190.000000	99.289805 
3189.000000	99.284554 
3188.000000	99.279733 
3187.000000	99.277478 
3186.000000	99.279002 
3185.000000	99.283027 
3184.000000	99.286274 
3183.000000	99.286225 
3182.000000	99.283254 
3181.000000	99.280065 
3180.000000	99.279579 
3179.000000	99.283053 
3178.000000	99.289017 
3177.000000	99.293732 
3176.000000	99.293990 
3175.000000	99.290271 
3174.000000	99.286300 
3173.000000	99.284798 
3172.000000	99.284549 
3171.000000	99.282624 
3170.000000	99.278636 
3169.000000	99.275316 
3168.000000	99.275085 
3167.000000	99.277459 
3166.000000	99.280133 
3165.000000	99.281500 
3164.000000	99.281564 
3163.000000	99.281153 
3162.000000	99.281044 
3161.000000	99.281675 
3160.000000	99.283003 
3159.000000	99.284306 
3158.000000	99.284306 
3157.000000	99.281945 
3156.000000	99.277391 
3155.000000	99.272136 
3154.000000	99.267701 
3153.000000	99.264312 
3152.000000	99.261274 
3151.000000	99.258545 
3150.000000	99.257112 
3149.000000	99.257638 
3148.000000	99.259577 
3147.000000	99.262127 
3146.000000	99.265286 
3145.000000	99.269200 
3144.000000	99.273023 
3143.000000	99.275392 
3142.000000	99.275918 
3141.000000	99.275436 
3140.000000	99.274827 
3139.000000	99.274253 
3138.000000	99.273571 
3137.000000	99.272890 
3136.000000	99.272545 
3135.000000	99.272848 
3134.000000	99.273857 
3133.000000	99.275062 
3132.000000	99.275462 
3131.000000	99.274408 
3130.000000	99.272396 
3129.000000	99.270753 
3128.000000	99.270704 
3127.000000	99.272906 
3126.000000	99.277208 
3125.000000	99.282046 
3124.000000	99.284493 
3123.000000	99.282202 
3122.000000	99.275792 
3121.000000	99.268616 
3120.000000	99.263839 
3119.000000	99.262187 
3118.000000	99.262469 
3117.000000	99.263401 
3116.000000	99.264464 
3115.000000	99.265657 
3114.000000	99.267063 
3113.000000	99.268432 
3112.000000	99.268942 
3111.000000	99.267837 
3110.000000	99.265563 
3109.000000	99.263680 
3108.000000	99.263133 
3107.000000	99.263084 
3106.000000	99.262009 
3105.000000	99.259623 
3104.000000	99.257026 
3103.000000	99.255203 
3102.000000	99.254216 
3101.000000	99.253933 
3100.000000	99.254760 
3099.000000	99.257244 
3098.000000	99.261340 
3097.000000	99.266375 
3096.000000	99.271360 
3095.000000	99.275021 
3094.000000	99.276011 
3093.000000	99.273805 
3092.000000	99.269437 
3091.000000	99.264975 
3090.000000	99.262030 
3089.000000	99.260848 
3088.000000	99.260676 
3087.000000	99.260700 
3086.000000	99.260607 
3085.000000	99.260583 
3084.000000	99.260871 
3083.000000	99.261146 
3082.000000	99.260394 
3081.000000	99.257852 
3080.000000	99.254296 
3079.000000	99.252057 
3078.000000	99.253330 
3077.000000	99.258349 
3076.000000	99.265166 
3075.000000	99.270925 
3074.000000	99.273307 
3073.000000	99.271482 
3072.000000	99.266493 
3071.000000	99.260712 
3070.000000	99.256205 
3069.000000	99.253248 
3068.000000	99.250731 
3067.000000	99.248253 
3066.000000	99.247316 
3065.000000	99.249727 
3064.000000	99.254834 
3063.000000	99.259172 
3062.000000	99.259427 
3061.000000	99.255450 
3060.000000	99.249952 
3059.000000	99.245623 
3058.000000	99.243450 
3057.000000	99.243680 
3056.000000	99.246830 
3055.000000	99.252568 
3054.000000	99.258360 
3053.000000	99.260796 
3052.000000	99.258481 
3051.000000	99.252929 
3050.000000	99.246796 
3049.000000	99.242090 
3048.000000	99.239690 
3047.000000	99.238936 
3046.000000	99.237189 
3045.000000	99.231400 
3044.000000	99.221442 
3043.000000	99.211160 
3042.000000	99.204959 
3041.000000	99.203632 
3040.000000	99.204194 
3039.000000	99.203152 
3038.000000	99.198927 
3037.000000	99.191654 
3036.000000	99.182084 
3035.000000	99.171009 
3034.000000	99.158961 
3033.000000	99.146130 
3032.000000	99.132825 
3031.000000	99.119745 
3030.000000	99.107243 
3029.000000	99.094744 
3028.000000	99.081775 
3027.000000	99.069323 
3026.000000	99.058950 
3025.000000	99.050305 
3024.000000	99.040592 
3023.000000	99.027218 
3022.000000	99.010254 
3021.000000	98.991583 
3020.000000	98.972216 
3019.000000	98.951469 
3018.000000	98.928809 
3017.000000	98.905499 
3016.000000	98.883609 
3015.000000	98.863570 
3014.000000	98.843580 
3013.000000	98.821876 
3012.000000	98.799065 
3011.000000	98.777348 
3010.000000	98.757613 
3009.000000	98.738318 
3008.000000	98.717493 
3007.000000	98.694892 
3006.000000	98.671583 
3005.000000	98.648239 
3004.000000	98.624781 
3003.000000	98.601282 
3002.000000	98.578284 
3001.000000	98.556277 
3000.000000	98.535435 
2999.000000	98.515838 
2998.000000	98.497666 
2997.000000	98.481434 
2996.000000	98.467885 
2995.000000	98.456187 
2994.000000	98.441387 
2993.000000	98.415512 
2992.000000	98.374197 
2991.000000	98.322989 
2990.000000	98.275671 
2989.000000	98.245324 
2988.000000	98.236814 
2987.000000	98.246616 
2986.000000	98.267059 
2985.000000	98.289770 
2984.000000	98.307449 
2983.000000	98.315869 
2982.000000	98.315473 
2981.000000	98.310471 
2980.000000	98.305653 
2979.000000	98.303552 
2978.000000	98.303783 
2977.000000	98.304226 
2976.000000	98.302775 
2975.000000	98.298659 
2974.000000	98.292888 
2973.000000	98.288009 
2972.000000	98.287283 
2971.000000	98.293098 
2970.000000	98.305205 
2969.000000	98.320637 
2968.000000	98.336223 
2967.000000	98.351265 
2966.000000	98.367171 
2965.000000	98.384643 
2964.000000	98.402314 
2963.000000	98.418331 
2962.000000	98.432214 
2961.000000	98.444517 
2960.000000	98.455478 
2959.000000	98.464891 
2958.000000	98.472942 
2957.000000	98.480422 
2956.000000	98.488196 
2955.000000	98.496997 
2954.000000	98.507623 
2953.000000	98.520721 
2952.000000	98.536076 
2951.000000	98.552242 
2950.000000	98.567040 
2949.000000	98.578560 
2948.000000	98.585867 
2947.000000	98.589147 
2946.000000	98.589714 
2945.000000	98.590117 
2944.000000	98.593535 
2943.000000	98.601670 
2942.000000	98.612584 
2941.000000	98.621526 
2940.000000	98.624957 
2939.000000	98.623824 
2938.000000	98.622328 
2937.000000	98.623822 
2936.000000	98.628404 
2935.000000	98.633879 
2934.000000	98.637968 
2933.000000	98.639678 
2932.000000	98.639527 
2931.000000	98.638607 
2930.000000	98.637090 
2929.000000	98.634077 
2928.000000	98.629366 
2927.000000	98.624366 
2926.000000	98.620031 
2925.000000	98.614898 
2924.000000	98.607163 
2923.000000	98.598194 
2922.000000	98.591519 
2921.000000	98.588028 
2920.000000	98.584600 
2919.000000	98.578408 
2918.000000	98.570437 
2917.000000	98.563183 
2916.000000	98.556508 
2915.000000	98.547832 
2914.000000	98.535945 
2913.000000	98.522994 
2912.000000	98.512768 
2911.000000	98.507748 
2910.000000	98.507548 
2909.000000	98.509320 
2908.000000	98.509723 
2907.000000	98.506897 
2906.000000	98.500151 
2905.000000	98.487917 
2904.000000	98.468217 
2903.000000	98.442833 
2902.000000	98.420912 
2901.000000	98.414363 
2900.000000	98.428747 
2899.000000	98.458376 
2898.000000	98.490299 
2897.000000	98.513369 
2896.000000	98.524162 
2895.000000	98.526689 
2894.000000	98.527897 
2893.000000	98.532768 
2892.000000	98.541922 
2891.000000	98.552577 
2890.000000	98.561482 
2889.000000	98.567193 
2888.000000	98.570140 
2887.000000	98.571475 
2886.000000	98.572497 
2885.000000	98.574955 
2884.000000	98.581043 
2883.000000	98.592317 
2882.000000	98.608475 
2881.000000	98.627406 
2880.000000	98.646522 
2879.000000	98.664083 
2878.000000	98.679514 
2877.000000	98.693099 
2876.000000	98.705629 
2875.000000	98.717854 
2874.000000	98.729734 
2873.000000	98.740303 
2872.000000	98.748667 
2871.000000	98.755056 
2870.000000	98.760793 
2869.000000	98.767678 
2868.000000	98.777689 
2867.000000	98.792382 
2866.000000	98.811323 
2865.000000	98.831270 
2864.000000	98.848265 
2863.000000	98.861018 
2862.000000	98.871532 
2861.000000	98.882337 
2860.000000	98.894248 
2859.000000	98.907150 
2858.000000	98.921377 
2857.000000	98.936952 
2856.000000	98.952288 
2855.000000	98.965189 
2854.000000	98.975212 
2853.000000	98.984076 
2852.000000	98.993643 
2851.000000	99.004234 
2850.000000	99.015003 
2849.000000	99.025120 
2848.000000	99.034183 
2847.000000	99.042113 
2846.000000	99.049230 
2845.000000	99.056149 
2844.000000	99.063023 
2843.000000	99.069039 
2842.000000	99.073242 
2841.000000	99.076066 
2840.000000	99.079516 
2839.000000	99.085409 
2838.000000	99.093542 
2837.000000	99.101881 
2836.000000	99.108399 
2835.000000	99.112432 
2834.000000	99.114546 
2833.000000	99.115769 
2832.000000	99.117035 
2831.000000	99.118690 
2830.000000	99.120192 
2829.000000	99.120733 
2828.000000	99.120513 
2827.000000	99.121002 
2826.000000	99.123567 
2825.000000	99.128109 
2824.000000	99.133307 
2823.000000	99.137754 
2822.000000	99.140618 
2821.000000	99.141875 
2820.000000	99.142527 
2819.000000	99.144073 
2818.000000	99.146987 
2817.000000	99.150092 
2816.000000	99.152126 
2815.000000	99.153454 
2814.000000	99.155264 
2813.000000	99.157444 
2812.000000	99.158589 
2811.000000	99.158235 
2810.000000	99.157925 
2809.000000	99.159506 
2808.000000	99.163151 
2807.000000	99.167443 
2806.000000	99.170719 
2805.000000	99.171969 
2804.000000	99.171195 
2803.000000	99.169527 
2802.000000	99.168557 
2801.000000	99.169012 
2800.000000	99.170288 
2799.000000	99.171438 
2798.000000	99.172085 
2797.000000	99.172079 
2796.000000	99.171064 
2795.000000	99.169196 
2794.000000	99.167858 
2793.000000	99.168644 
2792.000000	99.171475 
2791.000000	99.174426 
2790.000000	99.175790 
2789.000000	99.175908 
2788.000000	99.176584 
2787.000000	99.178847 
2786.000000	99.181729 
2785.000000	99.183315 
2784.000000	99.182661 
2783.000000	99.180466 
2782.000000	99.178206 
2781.000000	99.177092 
2780.000000	99.177753 
2779.000000	99.180162 
2778.000000	99.183482 
2777.000000	99.186479 
2776.000000	99.188558 
2775.000000	99.190118 
2774.000000	99.191565 
2773.000000	99.192523 
2772.000000	99.192672 
2771.000000	99.192899 
2770.000000	99.194589 
2769.000000	99.197743 
2768.000000	99.200672 
2767.000000	99.201854 
2766.000000	99.201412 
2765.000000	99.200390 
2764.000000	99.199090 
2763.000000	99.196691 
2762.000000	99.192447 
2761.000000	99.186995 
2760.000000	99.182472 
2759.000000	99.181219 
2758.000000	99.184021 
2757.000000	99.189394 
2756.000000	99.194605 
2755.000000	99.197412 
2754.000000	99.197019 
2753.000000	99.194165 
2752.000000	99.190942 
2751.000000	99.190055 
2750.000000	99.193054 
2749.000000	99.198784 
2748.000000	99.204150 
2747.000000	99.206822 
2746.000000	99.206917 
2745.000000	99.205939 
2744.000000	99.204746 
2743.000000	99.203190 
2742.000000	99.201367 
2741.000000	99.200269 
2740.000000	99.200745 
2739.000000	99.202328 
2738.000000	99.203834 
2737.000000	99.205149 
2736.000000	99.207615 
2735.000000	99.211979 
2734.000000	99.216493 
2733.000000	99.218111 
2732.000000	99.215691 
2731.000000	99.211073 
2730.000000	99.206814 
2729.000000	99.203934 
2728.000000	99.202346 
2727.000000	99.202215 
2726.000000	99.203576 
2725.000000	99.205386 
2724.000000	99.206497 
2723.000000	99.207497 
2722.000000	99.210172 
2721.000000	99.214828 
2720.000000	99.219217 
2719.000000	99.220698 
2718.000000	99.218895 
2717.000000	99.215819 
2716.000000	99.213884 
2715.000000	99.214115 
2714.000000	99.215867 
2713.000000	99.217750 
2712.000000	99.218823 
2711.000000	99.219155 
2710.000000	99.219467 
2709.000000	99.220402 
2708.000000	99.222008 
2707.000000	99.223481 
2706.000000	99.223459 
2705.000000	99.221351 
2704.000000	99.218655 
2703.000000	99.218054 
2702.000000	99.220519 
2701.000000	99.223980 
2700.000000	99.225779 
2699.000000	99.225750 
2698.000000	99.225800 
2697.000000	99.226899 
2696.000000	99.227920 
2695.000000	99.227547 
2694.000000	99.226158 
2693.000000	99.225366 
2692.000000	99.226280 
2691.000000	99.228416 
2690.000000	99.229832 
2689.000000	99.228540 
2688.000000	99.224505 
2687.000000	99.220214 
2686.000000	99.218620 
2685.000000	99.220525 
2684.000000	99.224369 
2683.000000	99.228065 
2682.000000	99.230101 
2681.000000	99.229402 
2680.000000	99.225690 
2679.000000	99.220426 
2678.000000	99.216375 
2677.000000	99.215715 
2676.000000	99.218854 
2675.000000	99.224746 
2674.000000	99.231334 
2673.000000	99.235907 
2672.000000	99.236557 
2671.000000	99.233888 
2670.000000	99.230446 
2669.000000	99.228099 
2668.000000	99.226787 
2667.000000	99.225970 
2666.000000	99.225992 
2665.000000	99.227263 
2664.000000	99.229026 
2663.000000	99.229974 
2662.000000	99.229815 
2661.000000	99.229564 
2660.000000	99.230368 
2659.000000	99.232338 
2658.000000	99.234453 
2657.000000	99.235536 
2656.000000	99.235479 
2655.000000	99.235298 
2654.000000	99.235772 
2653.000000	99.236728 
2652.000000	99.238354 
2651.000000	99.242186 
2650.000000	99.248931 
2649.000000	99.255568 
2648.000000	99.257046 
2647.000000	99.251954 
2646.000000	99.244974 
2645.000000	99.242352 
2644.000000	99.245711 
2643.000000	99.251261 
2642.000000	99.254150 
2641.000000	99.252560 
2640.000000	99.248367 
2639.000000	99.245118 
2638.000000	99.245155 
2637.000000	99.247631 
2636.000000	99.249265 
2635.000000	99.247496 
2634.000000	99.242841 
2633.000000	99.238194 
2632.000000	99.236576 
2631.000000	99.239601 
2630.000000	99.246648 
2629.000000	99.254341 
2628.000000	99.257905 
2627.000000	99.254852 
2626.000000	99.247576 
2625.000000	99.241414 
2624.000000	99.239974 
2623.000000	99.242684 
2622.000000	99.246498 
2621.000000	99.249097 
2620.000000	99.250333 
2619.000000	99.251278 
2618.000000	99.252401 
2617.000000	99.252949 
2616.000000	99.252298 
2615.000000	99.251510 
2614.000000	99.252643 
2613.000000	99.256240 
2612.000000	99.260283 
2611.000000	99.262195 
2610.000000	99.261337 
2609.000000	99.259108 
2608.000000	99.257212 
2607.000000	99.256568 
2606.000000	99.257502 
2605.000000	99.260033 
2604.000000	99.263568 
2603.000000	99.266612 
2602.000000	99.267379 
2601.000000	99.265407 
2600.000000	99.262780 
2599.000000	99.262848 
2598.000000	99.266623 
2597.000000	99.270794 
2596.000000	99.270590 
2595.000000	99.264759 
2594.000000	99.256654 
2593.000000	99.250352 
2592.000000	99.247083 
2591.000000	99.245905 
2590.000000	99.246273 
2589.000000	99.248400 
2588.000000	99.251626 
2587.000000	99.253990 
2586.000000	99.254012 
2585.000000	99.252435 
2584.000000	99.251516 
2583.000000	99.252251 
2582.000000	99.252703 
2581.000000	99.250088 
2580.000000	99.244719 
2579.000000	99.240522 
2578.000000	99.240530 
2577.000000	99.242952 
2576.000000	99.243265 
2575.000000	99.239617 
2574.000000	99.234515 
2573.000000	99.231606 
2572.000000	99.232622 
2571.000000	99.237207 
2570.000000	99.243506 
2569.000000	99.248468 
2568.000000	99.249545 
2567.000000	99.247063 
2566.000000	99.243811 
2565.000000	99.241986 
2564.000000	99.241754 
2563.000000	99.242727 
2562.000000	99.244844 
2561.000000	99.247159 
2560.000000	99.247558 
2559.000000	99.244785 
2558.000000	99.239828 
2557.000000	99.234975 
2556.000000	99.232673 
2555.000000	99.235085 
2554.000000	99.242506 
2553.000000	99.251553 
2552.000000	99.257144 
2551.000000	99.257566 
2550.000000	99.255987 
2549.000000	99.255916 
2548.000000	99.256943 
2547.000000	99.256348 
2546.000000	99.253307 
2545.000000	99.249667 
2544.000000	99.247383 
2543.000000	99.246611 
2542.000000	99.245850 
2541.000000	99.243209 
2540.000000	99.238438 
2539.000000	99.234219 
2538.000000	99.233983 
2537.000000	99.237445 
2536.000000	99.239917 
2535.000000	99.237490 
2534.000000	99.231508 
2533.000000	99.226210 
2532.000000	99.223322 
2531.000000	99.221344 
2530.000000	99.219545 
2529.000000	99.219795 
2528.000000	99.223470 
2527.000000	99.228392 
2526.000000	99.230648 
2525.000000	99.229243 
2524.000000	99.227684 
2523.000000	99.230198 
2522.000000	99.236717 
2521.000000	99.242515 
2520.000000	99.243046 
2519.000000	99.238154 
2518.000000	99.230958 
2517.000000	99.224014 
2516.000000	99.218064 
2515.000000	99.213551 
2514.000000	99.211162 
2513.000000	99.210972 
2512.000000	99.212908 
2511.000000	99.217865 
2510.000000	99.226325 
2509.000000	99.235996 
2508.000000	99.243238 
2507.000000	99.247073 
2506.000000	99.249278 
2505.000000	99.250181 
2504.000000	99.247487 
2503.000000	99.240593 
2502.000000	99.233158 
2501.000000	99.229297 
2500.000000	99.229351 
2499.000000	99.231443 
2498.000000	99.235028 
2497.000000	99.240197 
2496.000000	99.244955 
2495.000000	99.246204 
2494.000000	99.243249 
2493.000000	99.238270 
2492.000000	99.233604 
2491.000000	99.230337 
2490.000000	99.229367 
2489.000000	99.232048 
2488.000000	99.239242 
2487.000000	99.250144 
2486.000000	99.261557 
2485.000000	99.268086 
2484.000000	99.264940 
2483.000000	99.252453 
2482.000000	99.237179 
2481.000000	99.226805 
2480.000000	99.223947 
2479.000000	99.225629 
2478.000000	99.227736 
2477.000000	99.228472 
2476.000000	99.228348 
2475.000000	99.228861 
2474.000000	99.231277 
2473.000000	99.235217 
2472.000000	99.238232 
2471.000000	99.237814 
2470.000000	99.234004 
2469.000000	99.229449 
2468.000000	99.227084 
2467.000000	99.228127 
2466.000000	99.231515 
2465.000000	99.234348 
2464.000000	99.233769 
2463.000000	99.229796 
2462.000000	99.225932 
2461.000000	99.225657 
2460.000000	99.228535 
2459.000000	99.230931 
2458.000000	99.230345 
2457.000000	99.227830 
2456.000000	99.226215 
2455.000000	99.227146 
2454.000000	99.230029 
2453.000000	99.232766 
2452.000000	99.233082 
2451.000000	99.229854 
2450.000000	99.223729 
2449.000000	99.216547 
2448.000000	99.210394 
2447.000000	99.207238 
2446.000000	99.208535 
2445.000000	99.214003 
2444.000000	99.220825 
2443.000000	99.224983 
2442.000000	99.223861 
2441.000000	99.217843 
2440.000000	99.210029 
2439.000000	99.204655 
2438.000000	99.204651 
2437.000000	99.209309 
2436.000000	99.214372 
2435.000000	99.215506 
2434.000000	99.212244 
2433.000000	99.208419 
2432.000000	99.208743 
2431.000000	99.214867 
2430.000000	99.223997 
2429.000000	99.230705 
2428.000000	99.230747 
2427.000000	99.224268 
2426.000000	99.215595 
2425.000000	99.209567 
2424.000000	99.208109 
2423.000000	99.210379 
2422.000000	99.215157 
2421.000000	99.221509 
2420.000000	99.227157 
2419.000000	99.228245 
2418.000000	99.222562 
2417.000000	99.212761 
2416.000000	99.204791 
2415.000000	99.202370 
2414.000000	99.203782 
2413.000000	99.204652 
2412.000000	99.202856 
2411.000000	99.199570 
2410.000000	99.196426 
2409.000000	99.193738 
2408.000000	99.191685 
2407.000000	99.191208 
2406.000000	99.192824 
2405.000000	99.196018 
2404.000000	99.200574 
2403.000000	99.206811 
2402.000000	99.213357 
2401.000000	99.216580 
2400.000000	99.214118 
2399.000000	99.207766 
2398.000000	99.201171 
2397.000000	99.195957 
2396.000000	99.191972 
2395.000000	99.189729 
2394.000000	99.189805 
2393.000000	99.190683 
2392.000000	99.190125 
2391.000000	99.188411 
2390.000000	99.187603 
2389.000000	99.187950 
2388.000000	99.187987 
2387.000000	99.188081 
2386.000000	99.190463 
2385.000000	99.195118 
2384.000000	99.198935 
2383.000000	99.200186 
2382.000000	99.200717 
2381.000000	99.201901 
2380.000000	99.201459 
2379.000000	99.197204 
2378.000000	99.191871 
2377.000000	99.190687 
2376.000000	99.194830 
2375.000000	99.200101 
2374.000000	99.201879 
2373.000000	99.199040 
2372.000000	99.193127 
2371.000000	99.186100 
2370.000000	99.179627 
2369.000000	99.175279 
2368.000000	99.174735 
2367.000000	99.179309 
2366.000000	99.188308 
2365.000000	99.198244 
2364.000000	99.205199 
2363.000000	99.208334 
2362.000000	99.209092 
2361.000000	99.207553 
2360.000000	99.203594 
2359.000000	99.198751 
2358.000000	99.195432 
2357.000000	99.194476 
2356.000000	99.196096 
2355.000000	99.201119 
2354.000000	99.206593 
2353.000000	99.207757 
2352.000000	99.203526 
2351.000000	99.198191 
2350.000000	99.197101 
2349.000000	99.200538 
2348.000000	99.205524 
2347.000000	99.208016 
2346.000000	99.207555 
2345.000000	99.207562 
2344.000000	99.210019 
2343.000000	99.213886 
2342.000000	99.215621 
2341.000000	99.214619 
2340.000000	99.213564 
2339.000000	99.216221 
2338.000000	99.222346 
2337.000000	99.226550 
2336.000000	99.223439 
2335.000000	99.213672 
2334.000000	99.203113 
2333.000000	99.198413 
2332.000000	99.201622 
2331.000000	99.208500 
2330.000000	99.213308 
2329.000000	99.213827 
2328.000000	99.215189 
2327.000000	99.222676 
2326.000000	99.235924 
2325.000000	99.248227 
2324.000000	99.252738 
2323.000000	99.250668 
2322.000000	99.248691 
2321.000000	99.251502 
2320.000000	99.255070 
2319.000000	99.253025 
2318.000000	99.245012 
2317.000000	99.236524 
2316.000000	99.231521 
2315.000000	99.228886 
2314.000000	99.227098 
2313.000000	99.227395 
2312.000000	99.231567 
2311.000000	99.237519 
2310.000000	99.240700 
2309.000000	99.238489 
2308.000000	99.232355 
2307.000000	99.225749 
2306.000000	99.221268 
2305.000000	99.219824 
2304.000000	99.221032 
2303.000000	99.224019 
2302.000000	99.227532 
2301.000000	99.230252 
2300.000000	99.231838 
2299.000000	99.233445 
2298.000000	99.236157 
2297.000000	99.238056 
2296.000000	99.235300 
2295.000000	99.227136 
2294.000000	99.219166 
2293.000000	99.218986 
2292.000000	99.228787 
2291.000000	99.243274 
2290.000000	99.254689 
2289.000000	99.258885 
2288.000000	99.257038 
2287.000000	99.253343 
2286.000000	99.251050 
2285.000000	99.249668 
2284.000000	99.245835 
2283.000000	99.238047 
2282.000000	99.229810 
2281.000000	99.226584 
2280.000000	99.229707 
2279.000000	99.235288 
2278.000000	99.238916 
2277.000000	99.239543 
2276.000000	99.238420 
2275.000000	99.236253 
2274.000000	99.232779 
2273.000000	99.228198 
2272.000000	99.224137 
2271.000000	99.223090 
2270.000000	99.226568 
2269.000000	99.233007 
2268.000000	99.238064 
2267.000000	99.238342 
2266.000000	99.234706 
2265.000000	99.230539 
2264.000000	99.226936 
2263.000000	99.221406 
2262.000000	99.212092 
2261.000000	99.201820 
2260.000000	99.196493 
2259.000000	99.199630 
2258.000000	99.208879 
2257.000000	99.218043 
2256.000000	99.222393 
2255.000000	99.222149 
2254.000000	99.220915 
2253.000000	99.221413 
2252.000000	99.223565 
2251.000000	99.225769 
2250.000000	99.226521 
2249.000000	99.224340 
2248.000000	99.218692 
2247.000000	99.211563 
2246.000000	99.206284 
2245.000000	99.204227 
2244.000000	99.203738 
2243.000000	99.203134 
2242.000000	99.202763 
2241.000000	99.203613 
2240.000000	99.206451 
2239.000000	99.213133 
2238.000000	99.224969 
2237.000000	99.237449 
2236.000000	99.240705 
2235.000000	99.229904 
2234.000000	99.213113 
2233.000000	99.203908 
2232.000000	99.206615 
2231.000000	99.212981 
2230.000000	99.212952 
2229.000000	99.204290 
2228.000000	99.191337 
2227.000000	99.179187 
2226.000000	99.171509 
2225.000000	99.170861 
2224.000000	99.177975 
2223.000000	99.190970 
2222.000000	99.205458 
2221.000000	99.214805 
2220.000000	99.212575 
2219.000000	99.198825 
2218.000000	99.183859 
2217.000000	99.181012 
2216.000000	99.193427 
2215.000000	99.211089 
2214.000000	99.222521 
2213.000000	99.225787 
2212.000000	99.225686 
2211.000000	99.224575 
2210.000000	99.221510 
2209.000000	99.218404 
2208.000000	99.219979 
2207.000000	99.225583 
2206.000000	99.226435 
2205.000000	99.215779 
2204.000000	99.199912 
2203.000000	99.194037 
2202.000000	99.205859 
2201.000000	99.225908 
2200.000000	99.236208 
2199.000000	99.227627 
2198.000000	99.207159 
2197.000000	99.189524 
2196.000000	99.183982 
2195.000000	99.189235 
2194.000000	99.197921 
2193.000000	99.203320 
2192.000000	99.203038 
2191.000000	99.199709 
2190.000000	99.199616 
2189.000000	99.208453 
2188.000000	99.225072 
2187.000000	99.238939 
2186.000000	99.236765 
2185.000000	99.214820 
2184.000000	99.184206 
2183.000000	99.161113 
2182.000000	99.152025 
2181.000000	99.151113 
2180.000000	99.151617 
2179.000000	99.154834 
2178.000000	99.165260 
2177.000000	99.181286 
2176.000000	99.195340 
2175.000000	99.201359 
2174.000000	99.198332 
2173.000000	99.188928 
2172.000000	99.179928 
2171.000000	99.182309 
2170.000000	99.203816 
2169.000000	99.238872 
2168.000000	99.270309 
2167.000000	99.284165 
2166.000000	99.280663 
2165.000000	99.270607 
2164.000000	99.264954 
2163.000000	99.268581 
2162.000000	99.278385 
2161.000000	99.282740 
2160.000000	99.266955 
2159.000000	99.226369 
2158.000000	99.173857 
2157.000000	99.129407 
2156.000000	99.103426 
2155.000000	99.094450 
2154.000000	99.098816 
2153.000000	99.115174 
2152.000000	99.139699 
2151.000000	99.162372 
2150.000000	99.172530 
2149.000000	99.169468 
2148.000000	99.165076 
2147.000000	99.171881 
2146.000000	99.188019 
2145.000000	99.197947 
2144.000000	99.190343 
2143.000000	99.171350 
2142.000000	99.156204 
2141.000000	99.151243 
2140.000000	99.149814 
2139.000000	99.144624 
2138.000000	99.137348 
2137.000000	99.134288 
2136.000000	99.137870 
2135.000000	99.145749 
2134.000000	99.155258 
2133.000000	99.165383 
2132.000000	99.175523 
2131.000000	99.184043 
2130.000000	99.187562 
2129.000000	99.182157 
2128.000000	99.167456 
2127.000000	99.149461 
2126.000000	99.136730 
2125.000000	99.133155 
2124.000000	99.136590 
2123.000000	99.144496 
2122.000000	99.156993 
2121.000000	99.172785 
2120.000000	99.186188 
2119.000000	99.191824 
2118.000000	99.190585 
2117.000000	99.188291 
2116.000000	99.189592 
2115.000000	99.195086 
2114.000000	99.202684 
2113.000000	99.208852 
2112.000000	99.209602 
2111.000000	99.203740 
2110.000000	99.195588 
2109.000000	99.191689 
2108.000000	99.193403 
2107.000000	99.194580 
2106.000000	99.188432 
2105.000000	99.176101 
2104.000000	99.166567 
2103.000000	99.167271 
2102.000000	99.175787 
2101.000000	99.182117 
2100.000000	99.179295 
2099.000000	99.170245 
2098.000000	99.163507 
2097.000000	99.164004 
2096.000000	99.169657 
2095.000000	99.175779 
2094.000000	99.179922 
2093.000000	99.182348 
2092.000000	99.184489 
2091.000000	99.188058 
2090.000000	99.193995 
2089.000000	99.200960 
2088.000000	99.205276 
2087.000000	99.202882 
2086.000000	99.191827 
2085.000000	99.174712 
2084.000000	99.159688 
2083.000000	99.156435 
2082.000000	99.167735 
2081.000000	99.185367 
2080.000000	99.197552 
2079.000000	99.200745 
2078.000000	99.201346 
2077.000000	99.206028 
2076.000000	99.213700 
2075.000000	99.217572 
2074.000000	99.211977 
2073.000000	99.196553 
2072.000000	99.176903 
2071.000000	99.161888 
2070.000000	99.157371 
2069.000000	99.160834 
2068.000000	99.163512 
2067.000000	99.158633 
2066.000000	99.146771 
2065.000000	99.134789 
2064.000000	99.131818 
2063.000000	99.143812 
2062.000000	99.166884 
2061.000000	99.186337 
2060.000000	99.188708 
2059.000000	99.176397 
2058.000000	99.165172 
2057.000000	99.166081 
2056.000000	99.175435 
2055.000000	99.184203 
2054.000000	99.190310 
2053.000000	99.197265 
2052.000000	99.205919 
2051.000000	99.212983 
2050.000000	99.215128 
2049.000000	99.211200 
2048.000000	99.203052 
2047.000000	99.196884 
2046.000000	99.199959 
2045.000000	99.211570 
2044.000000	99.220399 
2043.000000	99.216092 
2042.000000	99.201813 
2041.000000	99.190622 
2040.000000	99.189903 
2039.000000	99.194022 
2038.000000	99.192877 
2037.000000	99.183842 
2036.000000	99.173666 
2035.000000	99.169352 
2034.000000	99.168544 
2033.000000	99.161724 
2032.000000	99.146077 
2031.000000	99.133266 
2030.000000	99.137225 
2029.000000	99.155485 
2028.000000	99.170122 
2027.000000	99.168710 
2026.000000	99.156988 
2025.000000	99.148747 
2024.000000	99.150526 
2023.000000	99.159590 
2022.000000	99.169819 
2021.000000	99.174180 
2020.000000	99.167172 
2019.000000	99.150655 
2018.000000	99.134047 
2017.000000	99.124664 
2016.000000	99.121405 
2015.000000	99.121656 
2014.000000	99.127780 
2013.000000	99.140572 
2012.000000	99.152774 
2011.000000	99.156827 
2010.000000	99.155324 
2009.000000	99.156577 
2008.000000	99.162120 
2007.000000	99.165789 
2006.000000	99.163837 
2005.000000	99.159121 
2004.000000	99.155645 
2003.000000	99.154503 
2002.000000	99.154843 
2001.000000	99.153997 
2000.000000	99.147437 
1999.000000	99.132862 
1998.000000	99.114070 
1997.000000	99.098429 
1996.000000	99.091381 
1995.000000	99.094769 
1994.000000	99.107799 
1993.000000	99.126088 
1992.000000	99.141350 
1991.000000	99.146588 
1990.000000	99.141685 
1989.000000	99.131822 
1988.000000	99.122755 
1987.000000	99.119654 
1986.000000	99.127058 
1985.000000	99.145848 
1984.000000	99.170783 
1983.000000	99.193254 
1982.000000	99.205923 
1981.000000	99.204772 
1980.000000	99.190642 
1979.000000	99.171018 
1978.000000	99.156334 
1977.000000	99.150100 
1976.000000	99.145082 
1975.000000	99.133261 
1974.000000	99.116846 
1973.000000	99.105606 
1972.000000	99.105389 
1971.000000	99.112996 
1970.000000	99.121633 
1969.000000	99.128141 
1968.000000	99.134240 
1967.000000	99.142184 
1966.000000	99.150594 
1965.000000	99.155277 
1964.000000	99.153801 
1963.000000	99.147744 
1962.000000	99.140121 
1961.000000	99.132510 
1960.000000	99.125722 
1959.000000	99.121080 
1958.000000	99.118621 
1957.000000	99.115576 
1956.000000	99.109409 
1955.000000	99.101158 
1954.000000	99.093359 
1953.000000	99.086612 
1952.000000	99.081436 
1951.000000	99.081730 
1950.000000	99.091751 
1949.000000	99.109349 
1948.000000	99.126326 
1947.000000	99.136092 
1946.000000	99.136896 
1945.000000	99.128295 
1944.000000	99.110766 
1943.000000	99.090788 
1942.000000	99.079526 
1941.000000	99.081054 
1940.000000	99.087930 
1939.000000	99.091736 
1938.000000	99.091590 
1937.000000	99.090779 
1936.000000	99.090255 
1935.000000	99.088595 
1934.000000	99.085636 
1933.000000	99.082523 
1932.000000	99.079716 
1931.000000	99.078605 
1930.000000	99.083477 
1929.000000	99.096861 
1928.000000	99.113637 
1927.000000	99.124279 
1926.000000	99.123493 
1925.000000	99.113116 
1924.000000	99.098482 
1923.000000	99.085707 
1922.000000	99.080897 
1921.000000	99.086576 
1920.000000	99.098570 
1919.000000	99.108700 
1918.000000	99.111275 
1917.000000	99.107300 
1916.000000	99.101984 
1915.000000	99.099966 
1914.000000	99.103047 
1913.000000	99.109502 
1912.000000	99.114959 
1911.000000	99.115668 
1910.000000	99.111356 
1909.000000	99.104403 
1908.000000	99.097976 
1907.000000	99.096155 
1906.000000	99.102750 
1905.000000	99.116333 
1904.000000	99.127897 
1903.000000	99.127573 
1902.000000	99.113708 
1901.000000	99.093789 
1900.000000	99.078163 
1899.000000	99.073612 
1898.000000	99.080344 
1897.000000	99.092273 
1896.000000	99.101132 
1895.000000	99.103485 
1894.000000	99.103342 
1893.000000	99.105813 
1892.000000	99.110599 
1891.000000	99.113681 
1890.000000	99.113112 
1889.000000	99.111020 
1888.000000	99.110438 
1887.000000	99.112645 
1886.000000	99.116732 
1885.000000	99.119601 
1884.000000	99.118029 
1883.000000	99.112275 
1882.000000	99.106115 
1881.000000	99.102688 
1880.000000	99.102546 
1879.000000	99.105303 
1878.000000	99.109621 
1877.000000	99.111785 
1876.000000	99.108778 
1875.000000	99.103888 
1874.000000	99.104880 
1873.000000	99.114036 
1872.000000	99.123993 
1871.000000	99.126011 
1870.000000	99.119246 
1869.000000	99.109235 
1868.000000	99.098479 
1867.000000	99.085357 
1866.000000	99.071238 
1865.000000	99.060379 
1864.000000	99.055686 
1863.000000	99.058883 
1862.000000	99.071325 
1861.000000	99.090493 
1860.000000	99.107861 
1859.000000	99.115995 
1858.000000	99.116727 
1857.000000	99.117618 
1856.000000	99.122307 
1855.000000	99.128703 
1854.000000	99.133888 
1853.000000	99.136161 
1852.000000	99.133916 
1851.000000	99.126353 
1850.000000	99.115564 
1849.000000	99.105810 
1848.000000	99.100004 
1847.000000	99.098351 
1846.000000	99.099864 
1845.000000	99.102211 
1844.000000	99.101377 
1843.000000	99.096823 
1842.000000	99.093766 
1841.000000	99.096490 
1840.000000	99.104203 
1839.000000	99.113121 
1838.000000	99.120099 
1837.000000	99.124238 
1836.000000	99.125959 
1835.000000	99.126597 
1834.000000	99.127748 
1833.000000	99.129918 
1832.000000	99.132077 
1831.000000	99.132107 
1830.000000	99.129077 
1829.000000	99.125631 
1828.000000	99.125584 
1827.000000	99.129299 
1826.000000	99.133721 
1825.000000	99.136102 
1824.000000	99.136172 
1823.000000	99.135056 
1822.000000	99.133222 
1821.000000	99.129419 
1820.000000	99.121968 
1819.000000	99.111519 
1818.000000	99.102376 
1817.000000	99.099205 
1816.000000	99.101470 
1815.000000	99.104445 
1814.000000	99.105473 
1813.000000	99.106700 
1812.000000	99.111793 
1811.000000	99.120993 
1810.000000	99.131831 
1809.000000	99.142039 
1808.000000	99.148449 
1807.000000	99.147649 
1806.000000	99.140562 
1805.000000	99.132847 
1804.000000	99.128993 
1803.000000	99.128038 
1802.000000	99.126810 
1801.000000	99.125515 
1800.000000	99.125817 
1799.000000	99.126823 
1798.000000	99.127119 
1797.000000	99.126443 
1796.000000	99.124949 
1795.000000	99.123967 
1794.000000	99.125657 
1793.000000	99.130018 
1792.000000	99.133291 
1791.000000	99.132173 
1790.000000	99.128962 
1789.000000	99.128805 
1788.000000	99.134043 
1787.000000	99.142737 
1786.000000	99.150766 
1785.000000	99.153964 
1784.000000	99.150040 
1783.000000	99.141350 
1782.000000	99.133872 
1781.000000	99.131563 
1780.000000	99.131819 
1779.000000	99.129189 
1778.000000	99.123618 
1777.000000	99.119721 
1776.000000	99.120413 
1775.000000	99.125893 
1774.000000	99.135568 
1773.000000	99.147128 
1772.000000	99.154388 
1771.000000	99.152818 
1770.000000	99.145269 
1769.000000	99.137648 
1768.000000	99.133944 
1767.000000	99.133685 
1766.000000	99.133672 
1765.000000	99.132893 
1764.000000	99.132969 
1763.000000	99.135426 
1762.000000	99.139631 
1761.000000	99.143607 
1760.000000	99.146049 
1759.000000	99.146596 
1758.000000	99.145437 
1757.000000	99.142979 
1756.000000	99.140180 
1755.000000	99.137673 
1754.000000	99.134638 
1753.000000	99.130003 
1752.000000	99.125470 
1751.000000	99.126351 
1750.000000	99.134723 
1749.000000	99.145161 
1748.000000	99.151644 
1747.000000	99.153108 
1746.000000	99.151554 
1745.000000	99.149139 
1744.000000	99.147639 
1743.000000	99.147928 
1742.000000	99.149389 
1741.000000	99.151295 
1740.000000	99.153034 
1739.000000	99.153735 
1738.000000	99.153091 
1737.000000	99.151703 
1736.000000	99.149810 
1735.000000	99.146338 
1734.000000	99.139947 
1733.000000	99.133840 
1732.000000	99.133380 
1731.000000	99.139010 
1730.000000	99.147251 
1729.000000	99.153514 
1728.000000	99.155977 
1727.000000	99.156266 
1726.000000	99.156270 
1725.000000	99.155754 
1724.000000	99.154166 
1723.000000	99.153145 
1722.000000	99.155546 
1721.000000	99.162082 
1720.000000	99.170378 
1719.000000	99.175925 
1718.000000	99.174426 
1717.000000	99.167777 
1716.000000	99.160992 
1715.000000	99.155292 
1714.000000	99.151436 
1713.000000	99.150086 
1712.000000	99.149553 
1711.000000	99.148740 
1710.000000	99.148857 
1709.000000	99.151142 
1708.000000	99.154641 
1707.000000	99.157820 
1706.000000	99.161756 
1705.000000	99.167559 
1704.000000	99.169943 
1703.000000	99.161916 
1702.000000	99.143802 
1701.000000	99.128633 
1700.000000	99.127880 
1699.000000	99.133265 
1698.000000	99.135565 
1697.000000	99.137970 
1696.000000	99.144635 
1695.000000	99.152667 
1694.000000	99.158301 
1693.000000	99.161151 
1692.000000	99.160595 
1691.000000	99.157406 
1690.000000	99.154815 
1689.000000	99.154737 
1688.000000	99.154366 
1687.000000	99.149879 
1686.000000	99.143087 
1685.000000	99.142064 
1684.000000	99.148433 
1683.000000	99.154877 
1682.000000	99.158269 
1681.000000	99.159222 
1680.000000	99.160055 
1679.000000	99.162021 
1678.000000	99.164391 
1677.000000	99.166140 
1676.000000	99.167863 
1675.000000	99.170568 
1674.000000	99.173271 
1673.000000	99.174651 
1672.000000	99.174902 
1671.000000	99.175833 
1670.000000	99.178485 
1669.000000	99.180690 
1668.000000	99.181640 
1667.000000	99.182864 
1666.000000	99.183249 
1665.000000	99.180717 
1664.000000	99.176570 
1663.000000	99.175517 
1662.000000	99.180099 
1661.000000	99.186560 
1660.000000	99.189981 
1659.000000	99.190528 
1658.000000	99.192145 
1657.000000	99.194463 
1656.000000	99.192832 
1655.000000	99.184608 
1654.000000	99.178294 
1653.000000	99.177186 
1652.000000	99.174943 
1651.000000	99.174639 
1650.000000	99.174456 
1649.000000	99.170734 
1648.000000	99.165201 
1647.000000	99.159838 
1646.000000	99.155370 
1645.000000	99.154693 
1644.000000	99.159555 
1643.000000	99.167492 
1642.000000	99.174968 
1641.000000	99.180393 
1640.000000	99.183123 
1639.000000	99.183012 
1638.000000	99.181030 
1637.000000	99.179627 
1636.000000	99.178726 
1635.000000	99.176543 
1634.000000	99.176282 
1633.000000	99.180043 
1632.000000	99.184780 
1631.000000	99.187731 
1630.000000	99.188399 
1629.000000	99.187175 
1628.000000	99.184998 
1627.000000	99.183716 
1626.000000	99.184924 
1625.000000	99.188633 
1624.000000	99.193472 
1623.000000	99.197428 
1622.000000	99.199359 
1621.000000	99.198990 
1620.000000	99.196123 
1619.000000	99.191944 
1618.000000	99.190105 
1617.000000	99.191817 
1616.000000	99.193036 
1615.000000	99.191900 
1614.000000	99.189205 
1613.000000	99.184667 
1612.000000	99.179078 
1611.000000	99.174456 
1610.000000	99.171815 
1609.000000	99.170388 
1608.000000	99.169330 
1607.000000	99.168635 
1606.000000	99.167631 
1605.000000	99.165599 
1604.000000	99.163924 
1603.000000	99.165235 
1602.000000	99.169706 
1601.000000	99.174201 
1600.000000	99.176552 
1599.000000	99.178141 
1598.000000	99.180778 
1597.000000	99.183872 
1596.000000	99.185980 
1595.000000	99.187346 
1594.000000	99.188909 
1593.000000	99.189789 
1592.000000	99.188570 
1591.000000	99.186254 
1590.000000	99.185215 
1589.000000	99.185744 
1588.000000	99.186501 
1587.000000	99.187559 
1586.000000	99.189352 
1585.000000	99.189907 
1584.000000	99.186692 
1583.000000	99.180520 
1582.000000	99.175455 
1581.000000	99.174065 
1580.000000	99.175098 
1579.000000	99.176378 
1578.000000	99.177790 
1577.000000	99.179586 
1576.000000	99.179624 
1575.000000	99.179147 
1574.000000	99.181660 
1573.000000	99.184427 
1572.000000	99.183484 
1571.000000	99.180299 
1570.000000	99.179258 
1569.000000	99.180848 
1568.000000	99.182526 
1567.000000	99.183195 
1566.000000	99.183197 
1565.000000	99.182917 
1564.000000	99.183288 
1563.000000	99.183726 
1562.000000	99.184064 
1561.000000	99.183589 
1560.000000	99.183947 
1559.000000	99.181882 
1558.000000	99.173612 
1557.000000	99.169215 
1556.000000	99.171320 
1555.000000	99.174913 
1554.000000	99.175258 
1553.000000	99.172658 
1552.000000	99.170020 
1551.000000	99.170318 
1550.000000	99.174255 
1549.000000	99.179689 
1548.000000	99.182958 
1547.000000	99.182265 
1546.000000	99.177647 
1545.000000	99.170802 
1544.000000	99.163806 
1543.000000	99.157518 
1542.000000	99.154296 
1541.000000	99.159116 
1540.000000	99.166301 
1539.000000	99.165799 
1538.000000	99.162266 
1537.000000	99.160990 
1536.000000	99.160004 
1535.000000	99.158873 
1534.000000	99.160628 
1533.000000	99.165336 
1532.000000	99.168188 
1531.000000	99.166166 
1530.000000	99.162174 
1529.000000	99.160001 
1528.000000	99.159450 
1527.000000	99.158459 
1526.000000	99.156990 
1525.000000	99.156282 
1524.000000	99.155916 
1523.000000	99.155316 
1522.000000	99.156900 
1521.000000	99.161188 
1520.000000	99.162741 
1519.000000	99.157941 
1518.000000	99.149882 
1517.000000	99.144325 
1516.000000	99.142875 
1515.000000	99.142713 
1514.000000	99.142157 
1513.000000	99.141529 
1512.000000	99.140820 
1511.000000	99.138310 
1510.000000	99.132958 
1509.000000	99.126289 
1508.000000	99.125239 
1507.000000	99.134046 
1506.000000	99.141220 
1505.000000	99.139861 
1504.000000	99.136322 
1503.000000	99.134061 
1502.000000	99.133676 
1501.000000	99.137267 
1500.000000	99.144786 
1499.000000	99.153351 
1498.000000	99.158763 
1497.000000	99.161167 
1496.000000	99.162272 
1495.000000	99.160074 
1494.000000	99.152414 
1493.000000	99.140630 
1492.000000	99.127768 
1491.000000	99.116981 
1490.000000	99.110361 
1489.000000	99.107764 
1488.000000	99.105169 
1487.000000	99.099664 
1486.000000	99.094729 
1485.000000	99.093532 
1484.000000	99.095139 
1483.000000	99.097263 
1482.000000	99.097781 
1481.000000	99.095621 
1480.000000	99.090929 
1479.000000	99.085122 
1478.000000	99.080259 
1477.000000	99.077672 
1476.000000	99.076253 
1475.000000	99.073097 
1474.000000	99.068976 
1473.000000	99.069879 
1472.000000	99.077435 
1471.000000	99.084491 
1470.000000	99.086506 
1469.000000	99.085856 
1468.000000	99.085513 
1467.000000	99.085875 
1466.000000	99.086540 
1465.000000	99.087611 
1464.000000	99.088622 
1463.000000	99.088911 
1462.000000	99.089267 
1461.000000	99.091011 
1460.000000	99.093530 
1459.000000	99.093866 
1458.000000	99.087013 
1457.000000	99.071092 
1456.000000	99.052953 
1455.000000	99.039754 
1454.000000	99.032393 
1453.000000	99.030358 
1452.000000	99.031739 
1451.000000	99.033699 
1450.000000	99.035507 
1449.000000	99.040082 
1448.000000	99.048325 
1447.000000	99.055772 
1446.000000	99.058831 
1445.000000	99.059543 
1444.000000	99.060831 
1443.000000	99.062048 
1442.000000	99.061813 
1441.000000	99.061338 
1440.000000	99.063283 
1439.000000	99.068334 
1438.000000	99.073406 
1437.000000	99.074207 
1436.000000	99.069718 
1435.000000	99.061995 
1434.000000	99.054040 
1433.000000	99.049318 
1432.000000	99.049336 
1431.000000	99.052737 
1430.000000	99.055817 
1429.000000	99.055768 
1428.000000	99.052440 
1427.000000	99.046503 
1426.000000	99.038286 
1425.000000	99.028333 
1424.000000	99.019738 
1423.000000	99.014680 
1422.000000	99.009994 
1421.000000	99.001101 
1420.000000	98.986998 
1419.000000	98.970027 
1418.000000	98.950915 
1417.000000	98.929324 
1416.000000	98.907345 
1415.000000	98.886545 
1414.000000	98.865019 
1413.000000	98.840603 
1412.000000	98.815739 
1411.000000	98.795636 
1410.000000	98.781089 
1409.000000	98.769618 
1408.000000	98.761122 
1407.000000	98.757009 
1406.000000	98.756668 
1405.000000	98.759459 
1404.000000	98.768273 
1403.000000	98.783872 
1402.000000	98.800742 
1401.000000	98.813739 
1400.000000	98.823327 
1399.000000	98.831242 
1398.000000	98.830498 
1397.000000	98.808141 
1396.000000	98.761738 
1395.000000	98.711950 
1394.000000	98.690573 
1393.000000	98.709990 
1392.000000	98.756392 
1391.000000	98.807215 
1390.000000	98.845189 
1389.000000	98.862943 
1388.000000	98.862250 
1387.000000	98.850676 
1386.000000	98.836049 
1385.000000	98.823161 
1384.000000	98.814372 
1383.000000	98.810067 
1382.000000	98.809298 
1381.000000	98.812112 
1380.000000	98.819384 
1379.000000	98.830634 
1378.000000	98.843095 
1377.000000	98.853962 
1376.000000	98.863467 
1375.000000	98.874834 
1374.000000	98.890112 
1373.000000	98.906832 
1372.000000	98.921194 
1371.000000	98.933531 
1370.000000	98.947241 
1369.000000	98.963024 
1368.000000	98.979047 
1367.000000	98.994125 
1366.000000	99.008370 
1365.000000	99.021416 
1364.000000	99.030991 
1363.000000	99.035722 
1362.000000	99.038434 
1361.000000	99.042975 
1360.000000	99.049661 
1359.000000	99.056844 
1358.000000	99.064124 
1357.000000	99.072041 
1356.000000	99.080120 
1355.000000	99.086854 
1354.000000	99.091527 
1353.000000	99.094879 
1352.000000	99.096677 
1351.000000	99.096034 
1350.000000	99.094575 
1349.000000	99.094549 
1348.000000	99.096540 
1347.000000	99.099916 
1346.000000	99.104620 
1345.000000	99.110435 
1344.000000	99.115550 
1343.000000	99.118030 
1342.000000	99.118218 
1341.000000	99.117776 
1340.000000	99.117122 
1339.000000	99.115701 
1338.000000	99.113928 
1337.000000	99.113294 
1336.000000	99.114382 
1335.000000	99.116104 
1334.000000	99.117808 
1333.000000	99.120577 
1332.000000	99.125124 
1331.000000	99.130044 
1330.000000	99.133043 
1329.000000	99.133059 
1328.000000	99.130705 
1327.000000	99.127534 
1326.000000	99.124943 
1325.000000	99.122955 
1324.000000	99.121614 
1323.000000	99.121860 
1322.000000	99.123883 
1321.000000	99.125664 
1320.000000	99.124741 
1319.000000	99.121251 
1318.000000	99.117869 
1317.000000	99.116703 
1316.000000	99.117180 
1315.000000	99.117294 
1314.000000	99.115923 
1313.000000	99.113872 
1312.000000	99.112954 
1311.000000	99.114385 
1310.000000	99.117847 
1309.000000	99.121756 
1308.000000	99.124150 
1307.000000	99.123718 
1306.000000	99.120625 
1305.000000	99.116338 
1304.000000	99.113519 
1303.000000	99.114610 
1302.000000	99.119870 
1301.000000	99.126741 
1300.000000	99.131620 
1299.000000	99.132356 
1298.000000	99.129398 
1297.000000	99.125150 
1296.000000	99.122234 
1295.000000	99.122034 
1294.000000	99.123993 
1293.000000	99.126267 
1292.000000	99.127088 
1291.000000	99.125500 
1290.000000	99.121531 
1289.000000	99.116403 
1288.000000	99.112154 
1287.000000	99.109900 
1286.000000	99.108269 
1285.000000	99.104847 
1284.000000	99.099476 
1283.000000	99.094633 
1282.000000	99.092176 
1281.000000	99.091071 
1280.000000	99.089131 
1279.000000	99.085649 
1278.000000	99.080976 
1277.000000	99.074788 
1276.000000	99.066378 
1275.000000	99.056473 
1274.000000	99.047106 
1273.000000	99.039737 
1272.000000	99.034447 
1271.000000	99.030280 
1270.000000	99.025194 
1269.000000	99.016641 
1268.000000	99.004045 
1267.000000	98.990001 
1266.000000	98.977301 
1265.000000	98.965822 
1264.000000	98.954030 
1263.000000	98.942078 
1262.000000	98.931045 
1261.000000	98.920164 
1260.000000	98.907928 
1259.000000	98.895578 
1258.000000	98.886152 
1257.000000	98.880360 
1256.000000	98.876313 
1255.000000	98.873177 
1254.000000	98.871736 
1253.000000	98.870989 
1252.000000	98.867985 
1251.000000	98.862881 
1250.000000	98.860923 
1249.000000	98.867010 
1248.000000	98.880507 
1247.000000	98.896634 
1246.000000	98.909680 
1245.000000	98.913383 
1244.000000	98.903020 
1243.000000	98.882514 
1242.000000	98.867017 
1241.000000	98.871608 
1240.000000	98.895960 
1239.000000	98.923855 
1238.000000	98.938952 
1237.000000	98.938093 
1236.000000	98.928463 
1235.000000	98.916664 
1234.000000	98.904279 
1233.000000	98.891500 
1232.000000	98.880409 
1231.000000	98.873584 
1230.000000	98.871419 
1229.000000	98.871957 
1228.000000	98.873052 
1227.000000	98.874603 
1226.000000	98.878734 
1225.000000	98.887187 
1224.000000	98.898440 
1223.000000	98.908562 
1222.000000	98.915548 
1221.000000	98.921621 
1220.000000	98.930359 
1219.000000	98.942662 
1218.000000	98.956432 
1217.000000	98.969165 
1216.000000	98.979570 
1215.000000	98.987638 
1214.000000	98.994824 
1213.000000	99.003555 
1212.000000	99.014718 
1211.000000	99.025670 
1210.000000	99.032530 
1209.000000	99.034591 
1208.000000	99.034872 
1207.000000	99.036231 
1206.000000	99.038697 
1205.000000	99.041061 
1204.000000	99.043239 
1203.000000	99.045680 
1202.000000	99.047410 
1201.000000	99.046334 
1200.000000	99.041779 
1199.000000	99.035965 
1198.000000	99.032352 
1197.000000	99.032716 
1196.000000	99.035965 
1195.000000	99.039466 
1194.000000	99.041139 
1193.000000	99.040254 
1192.000000	99.037031 
1191.000000	99.032475 
1190.000000	99.028659 
1189.000000	99.028165 
1188.000000	99.032296 
1187.000000	99.039763 
1186.000000	99.047370 
1185.000000	99.052036 
1184.000000	99.052214 
1183.000000	99.048184 
1182.000000	99.041890 
1181.000000	99.036229 
1180.000000	99.033596 
1179.000000	99.034618 
1178.000000	99.038010 
1177.000000	99.041461 
1176.000000	99.042888 
1175.000000	99.041654 
1174.000000	99.039122 
1173.000000	99.037549 
1172.000000	99.038173 
1171.000000	99.040543 
1170.000000	99.043523 
1169.000000	99.046089 
1168.000000	99.046868 
1167.000000	99.044053 
1166.000000	99.036988 
1165.000000	99.027660 
1164.000000	99.019712 
1163.000000	99.015661 
1162.000000	99.015245 
1161.000000	99.016251 
1160.000000	99.016665 
1159.000000	99.016355 
1158.000000	99.017019 
1157.000000	99.020225 
1156.000000	99.025166 
1155.000000	99.028638 
1154.000000	99.027739 
1153.000000	99.022488 
1152.000000	99.015566 
1151.000000	99.009943 
1150.000000	99.007052 
1149.000000	99.006531 
1148.000000	99.006597 
1147.000000	99.004667 
1146.000000	98.998829 
1145.000000	98.989593 
1144.000000	98.979978 
1143.000000	98.973302 
1142.000000	98.970580 
1141.000000	98.970096 
1140.000000	98.969393 
1139.000000	98.967381 
1138.000000	98.964539 
1137.000000	98.961648 
1136.000000	98.958913 
1135.000000	98.956236 
1134.000000	98.953669 
1133.000000	98.951171 
1132.000000	98.948266 
1131.000000	98.944502 
1130.000000	98.940193 
1129.000000	98.936204 
1128.000000	98.932817 
1127.000000	98.929090 
1126.000000	98.923634 
1125.000000	98.916020 
1124.000000	98.907342 
1123.000000	98.899282 
1122.000000	98.892393 
1121.000000	98.885346 
1120.000000	98.876273 
1119.000000	98.864813 
1118.000000	98.852206 
1117.000000	98.839174 
1116.000000	98.824569 
1115.000000	98.806765 
1114.000000	98.785720 
1113.000000	98.762849 
1112.000000	98.739560 
1111.000000	98.717114 
1110.000000	98.697174 
1109.000000	98.680716 
1108.000000	98.666354 
1107.000000	98.650995 
1106.000000	98.633038 
1105.000000	98.613846 
1104.000000	98.595235 
1103.000000	98.577274 
1102.000000	98.559755 
1101.000000	98.545047 
1100.000000	98.536489 
1099.000000	98.532933 
1098.000000	98.529098 
1097.000000	98.521144 
1096.000000	98.510726 
1095.000000	98.500813 
1094.000000	98.489117 
1093.000000	98.468686 
1092.000000	98.435380 
1091.000000	98.392315 
1090.000000	98.345760 
1089.000000	98.298502 
1088.000000	98.249319 
1087.000000	98.197957 
1086.000000	98.147933 
1085.000000	98.103438 
1084.000000	98.064631 
1083.000000	98.027067 
1082.000000	97.986008 
1081.000000	97.941266 
1080.000000	97.897616 
1079.000000	97.860503 
1078.000000	97.832041 
1077.000000	97.811538 
1076.000000	97.798464 
1075.000000	97.793221 
1074.000000	97.796107 
1073.000000	97.807194 
1072.000000	97.824585 
1071.000000	97.838656 
1070.000000	97.830734 
1069.000000	97.786733 
1068.000000	97.716880 
1067.000000	97.656871 
1066.000000	97.641845 
1065.000000	97.677941 
1064.000000	97.741106 
1063.000000	97.799387 
1062.000000	97.831514 
1061.000000	97.829392 
1060.000000	97.795771 
1059.000000	97.746094 
1058.000000	97.705311 
1057.000000	97.692138 
1056.000000	97.704259 
1055.000000	97.722025 
1054.000000	97.727375 
1053.000000	97.718152 
1052.000000	97.705412 
1051.000000	97.700439 
1050.000000	97.705761 
1049.000000	97.716599 
1048.000000	97.728109 
1047.000000	97.740001 
1046.000000	97.754705 
1045.000000	97.772727 
1044.000000	97.791934 
1043.000000	97.811833 
1042.000000	97.835561 
1041.000000	97.864612 
1040.000000	97.893728 
1039.000000	97.916391 
1038.000000	97.935751 
1037.000000	97.964304 
1036.000000	98.010045 
1035.000000	98.067603 
1034.000000	98.125883 
1033.000000	98.178362 
1032.000000	98.219837 
1031.000000	98.239239 
1030.000000	98.228066 
1029.000000	98.197734 
1028.000000	98.178775 
1027.000000	98.196041 
1026.000000	98.247066 
1025.000000	98.307870 
1024.000000	98.356074 
1023.000000	98.384502 
1022.000000	98.397404 
1021.000000	98.401770 
1020.000000	98.403612 
1019.000000	98.407400 
1018.000000	98.414919 
1017.000000	98.425042 
1016.000000	98.435986 
1015.000000	98.447689 
1014.000000	98.461754 
1013.000000	98.479431 
1012.000000	98.499731 
1011.000000	98.519377 
1010.000000	98.535274 
1009.000000	98.547555 
1008.000000	98.559587 
1007.000000	98.574411 
1006.000000	98.591915 
1005.000000	98.610129 
1004.000000	98.628120 
1003.000000	98.646215 
1002.000000	98.664155 
1001.000000	98.680909 
1000.000000	98.696274 
999.000000	 98.710855 
998.000000	 98.724008 
997.000000	 98.733555 
996.000000	 98.738921 
995.000000	 98.743598 
994.000000	 98.752658 
993.000000	 98.767440 
992.000000	 98.783682 
991.000000	 98.795394 
990.000000	 98.800183 
989.000000	 98.800647 
988.000000	 98.801405 
987.000000	 98.805472 
986.000000	 98.812890 
985.000000	 98.821639 
984.000000	 98.829460 
983.000000	 98.835412 
982.000000	 98.840335 
981.000000	 98.845861 
980.000000	 98.852838 
979.000000	 98.860733 
978.000000	 98.868477 
977.000000	 98.875675 
976.000000	 98.882869 
975.000000	 98.890785 
974.000000	 98.899392 
973.000000	 98.907739 
972.000000	 98.914778 
971.000000	 98.920380 
970.000000	 98.925444 
969.000000	 98.931092 
968.000000	 98.938053 
967.000000	 98.946573 
966.000000	 98.955975 
965.000000	 98.964038 
964.000000	 98.968090 
963.000000	 98.967858 
962.000000	 98.966516 
961.000000	 98.967621 
960.000000	 98.971433 
959.000000	 98.975442 
958.000000	 98.977861 
957.000000	 98.978958 
956.000000	 98.979410 
955.000000	 98.979582 
954.000000	 98.980811 
953.000000	 98.985143 
952.000000	 98.992589 
951.000000	 99.000087 
950.000000	 99.004442 
949.000000	 99.005354 
948.000000	 99.004787 
947.000000	 99.004713 
946.000000	 99.006533 
945.000000	 99.011269 
944.000000	 99.018517 
943.000000	 99.025634 
942.000000	 99.029399 
941.000000	 99.028550 
940.000000	 99.024191 
939.000000	 99.018461 
938.000000	 99.013509 
937.000000	 99.010718 
936.000000	 99.009541 
935.000000	 99.007503 
934.000000	 99.002553 
933.000000	 98.995397 
932.000000	 98.988925 
931.000000	 98.985770 
930.000000	 98.986938 
929.000000	 98.991958 
928.000000	 98.999126 
927.000000	 99.006000 
926.000000	 99.010947 
925.000000	 99.014176 
924.000000	 99.016370 
923.000000	 99.016619 
922.000000	 99.012844 
921.000000	 99.004246 
920.000000	 98.992457 
919.000000	 98.980368 
918.000000	 98.970458 
917.000000	 98.963829 
916.000000	 98.959810 
915.000000	 98.956491 
914.000000	 98.952635 
913.000000	 98.949148 
912.000000	 98.947644 
911.000000	 98.947317 
910.000000	 98.944410 
909.000000	 98.935601 
908.000000	 98.921391 
907.000000	 98.905435 
906.000000	 98.890973 
905.000000	 98.878812 
904.000000	 98.868888 
903.000000	 98.862670 
902.000000	 98.862546 
901.000000	 98.868469 
900.000000	 98.876286 
899.000000	 98.880686 
898.000000	 98.879759 
897.000000	 98.875506 
896.000000	 98.869647 
895.000000	 98.860970 
894.000000	 98.848519 
893.000000	 98.836278 
892.000000	 98.832154 
891.000000	 98.841444 
890.000000	 98.862221 
889.000000	 98.887542 
888.000000	 98.910807 
887.000000	 98.928147 
886.000000	 98.937442 
885.000000	 98.937694 
884.000000	 98.930104 
883.000000	 98.918649 
882.000000	 98.908418 
881.000000	 98.903319 
880.000000	 98.905497 
879.000000	 98.915739 
878.000000	 98.932471 
877.000000	 98.950126 
876.000000	 98.960427 
875.000000	 98.957432 
874.000000	 98.942168 
873.000000	 98.922296 
872.000000	 98.907442 
871.000000	 98.904094 
870.000000	 98.912178 
869.000000	 98.924829 
868.000000	 98.933262 
867.000000	 98.934542 
866.000000	 98.934476 
865.000000	 98.941051 
864.000000	 98.955543 
863.000000	 98.972079 
862.000000	 98.985080 
861.000000	 98.993901 
860.000000	 99.000254 
859.000000	 99.005437 
858.000000	 99.011951 
857.000000	 99.023864 
856.000000	 99.041953 
855.000000	 99.060430 
854.000000	 99.071919 
853.000000	 99.074771 
852.000000	 99.072962 
851.000000	 99.070269 
850.000000	 99.067751 
849.000000	 99.066004 
848.000000	 99.066313 
847.000000	 99.069073 
846.000000	 99.073572 
845.000000	 99.079873 
844.000000	 99.088858 
843.000000	 99.099678 
842.000000	 99.108606 
841.000000	 99.111445 
840.000000	 99.107226 
839.000000	 99.100137 
838.000000	 99.097449 
837.000000	 99.103030 
836.000000	 99.111955 
835.000000	 99.114696 
834.000000	 99.109038 
833.000000	 99.104092 
832.000000	 99.107620 
831.000000	 99.112496 
830.000000	 99.103843 
829.000000	 99.080700 
828.000000	 99.061860 
827.000000	 99.064363 
826.000000	 99.082066 
825.000000	 99.094097 
824.000000	 99.092010 
823.000000	 99.088370 
822.000000	 99.097115 
821.000000	 99.114753 
820.000000	 99.125554 
819.000000	 99.119637 
818.000000	 99.101971 
817.000000	 99.086075 
816.000000	 99.081439 
815.000000	 99.086015 
814.000000	 99.089196 
813.000000	 99.082471 
812.000000	 99.067728 
811.000000	 99.054932 
810.000000	 99.051793 
809.000000	 99.056779 
808.000000	 99.062574 
807.000000	 99.064306 
806.000000	 99.062185 
805.000000	 99.056708 
804.000000	 99.045204 
803.000000	 99.026230 
802.000000	 99.005456 
801.000000	 98.992658 
800.000000	 98.991611 
799.000000	 98.996192 
798.000000	 98.998582 
797.000000	 98.998551 
796.000000	 99.001369 
795.000000	 99.008866 
794.000000	 99.017596 
793.000000	 99.025315 
792.000000	 99.033452 
791.000000	 99.041223 
790.000000	 99.042381 
789.000000	 99.032107 
788.000000	 99.014616 
787.000000	 98.999832 
786.000000	 98.993445 
785.000000	 98.993185 
784.000000	 98.994178 
783.000000	 98.994467 
782.000000	 98.994875 
781.000000	 98.996324 
780.000000	 98.998389 
779.000000	 98.999297 
778.000000	 98.997623 
777.000000	 98.995507 
776.000000	 98.998992 
775.000000	 99.012041 
774.000000	 99.030251 
773.000000	 99.043905 
772.000000	 99.048082 
771.000000	 99.046535 
770.000000	 99.044493 
769.000000	 99.041612 
768.000000	 99.035369 
767.000000	 99.028531 
766.000000	 99.028053 
765.000000	 99.036282 
764.000000	 99.047195 
763.000000	 99.052882 
762.000000	 99.051551 
761.000000	 99.047858 
760.000000	 99.047081 
759.000000	 99.050471 
758.000000	 99.054756 
757.000000	 99.054727 
756.000000	 99.047729 
755.000000	 99.037713 
754.000000	 99.033856 
753.000000	 99.042537 
752.000000	 99.060710 
751.000000	 99.078681 
750.000000	 99.088969 
749.000000	 99.090399 
748.000000	 99.084664 
747.000000	 99.073861 
746.000000	 99.063073 
745.000000	 99.059883 
744.000000	 99.065849 
743.000000	 99.071039 
742.000000	 99.063508 
741.000000	 99.044250 
740.000000	 99.026900 
739.000000	 99.021713 
738.000000	 99.025505 
737.000000	 99.029478 
736.000000	 99.030862 
735.000000	 99.032492 
734.000000	 99.036038 
733.000000	 99.041767 
732.000000	 99.051783 
731.000000	 99.066400 
730.000000	 99.078815 
729.000000	 99.080541 
728.000000	 99.071544 
727.000000	 99.059784 
726.000000	 99.051570 
725.000000	 99.047239 
724.000000	 99.046243 
723.000000	 99.050395 
722.000000	 99.059811 
721.000000	 99.069941 
720.000000	 99.074905 
719.000000	 99.071544 
718.000000	 99.060031 
717.000000	 99.044045 
716.000000	 99.031118 
715.000000	 99.027651 
714.000000	 99.030982 
713.000000	 99.031103 
712.000000	 99.022967 
711.000000	 99.012725 
710.000000	 99.008421 
709.000000	 99.009095 
708.000000	 99.007794 
707.000000	 99.002194 
706.000000	 98.997575 
705.000000	 98.999160 
704.000000	 99.005164 
703.000000	 99.009496 
702.000000	 99.008483 
701.000000	 99.003962 
700.000000	 99.000773 
699.000000	 99.000458 
698.000000	 98.998769 
697.000000	 98.989763 
696.000000	 98.971636 
695.000000	 98.948561 
694.000000	 98.927197 
693.000000	 98.915002 
692.000000	 98.919507 
691.000000	 98.940413 
690.000000	 98.964119 
689.000000	 98.973374 
688.000000	 98.965481 
687.000000	 98.955027 
686.000000	 98.953798 
685.000000	 98.957947 
684.000000	 98.958838 
683.000000	 98.954657 
682.000000	 98.947622 
681.000000	 98.940556 
680.000000	 98.941348 
679.000000	 98.958271 
678.000000	 98.982734 
677.000000	 98.991746 
676.000000	 98.976200 
675.000000	 98.952868 
674.000000	 98.943048 
673.000000	 98.946821 
672.000000	 98.944270 
671.000000	 98.917464 
670.000000	 98.861976 
669.000000	 98.790332 
668.000000	 98.739305 
667.000000	 98.738099 
666.000000	 98.777007 
665.000000	 98.835115 
664.000000	 98.884750 
663.000000	 98.907252 
662.000000	 98.907088 
661.000000	 98.909030 
660.000000	 98.930644 
659.000000	 98.963065 
658.000000	 98.979837 
657.000000	 98.962179 
656.000000	 98.913530 
655.000000	 98.856898 
654.000000	 98.822937 
653.000000	 98.822757 
652.000000	 98.831521 
651.000000	 98.818442 
650.000000	 98.791971 

