4000.000000	99.157735 
3999.000000	99.158748 
3998.000000	99.158565 
3997.000000	99.156525 
3996.000000	99.152816 
3995.000000	99.148698 
3994.000000	99.146091 
3993.000000	99.146399 
3992.000000	99.149298 
3991.000000	99.152708 
3990.000000	99.154397 
3989.000000	99.153965 
3988.000000	99.153225 
3987.000000	99.154469 
3986.000000	99.158306 
3985.000000	99.163062 
3984.000000	99.166029 
3983.000000	99.165348 
3982.000000	99.161190 
3981.000000	99.155452 
3980.000000	99.150157 
3979.000000	99.146093 
3978.000000	99.143100 
3977.000000	99.141333 
3976.000000	99.141827 
3975.000000	99.145570 
3974.000000	99.152238 
3973.000000	99.159838 
3972.000000	99.165579 
3971.000000	99.167457 
3970.000000	99.165441 
3969.000000	99.161361 
3968.000000	99.157545 
3967.000000	99.155240 
3966.000000	99.154329 
3965.000000	99.154293 
3964.000000	99.154718 
3963.000000	99.154812 
3962.000000	99.153260 
3961.000000	99.149285 
3960.000000	99.143780 
3959.000000	99.139088 
3958.000000	99.137267 
3957.000000	99.138548 
3956.000000	99.141563 
3955.000000	99.144558 
3954.000000	99.146393 
3953.000000	99.146495 
3952.000000	99.144529 
3951.000000	99.140812 
3950.000000	99.136695 
3949.000000	99.134203 
3948.000000	99.134575 
3947.000000	99.137129 
3946.000000	99.140112 
3945.000000	99.142383 
3944.000000	99.143953 
3943.000000	99.144921 
3942.000000	99.144985 
3941.000000	99.143869 
3940.000000	99.141396 
3939.000000	99.137264 
3938.000000	99.131318 
3937.000000	99.124393 
3936.000000	99.118818 
3935.000000	99.117286 
3934.000000	99.121213 
3933.000000	99.129620 
3932.000000	99.139374 
3931.000000	99.146500 
3930.000000	99.148129 
3929.000000	99.144374 
3928.000000	99.138197 
3927.000000	99.133288 
3926.000000	99.131898 
3925.000000	99.133578 
3924.000000	99.135830 
3923.000000	99.136382 
3922.000000	99.134581 
3921.000000	99.131611 
3920.000000	99.129581 
3919.000000	99.130316 
3918.000000	99.134391 
3917.000000	99.140722 
3916.000000	99.147371 
3915.000000	99.152873 
3914.000000	99.157034 
3913.000000	99.160330 
3912.000000	99.162937 
3911.000000	99.164834 
3910.000000	99.166187 
3909.000000	99.167203 
3908.000000	99.167602 
3907.000000	99.165811 
3906.000000	99.159473 
3905.000000	99.147008 
3904.000000	99.129649 
3903.000000	99.112448 
3902.000000	99.101684 
3901.000000	99.100823 
3900.000000	99.108743 
3899.000000	99.120587 
3898.000000	99.131170 
3897.000000	99.137681 
3896.000000	99.139692 
3895.000000	99.138229 
3894.000000	99.134967 
3893.000000	99.131487 
3892.000000	99.128798 
3891.000000	99.127262 
3890.000000	99.126825 
3889.000000	99.126695 
3888.000000	99.125976 
3887.000000	99.124491 
3886.000000	99.122617 
3885.000000	99.120923 
3884.000000	99.119883 
3883.000000	99.119870 
3882.000000	99.121443 
3881.000000	99.124674 
3880.000000	99.128595 
3879.000000	99.131623 
3878.000000	99.133204 
3877.000000	99.134688 
3876.000000	99.138139 
3875.000000	99.143014 
3874.000000	99.145326 
3873.000000	99.141750 
3872.000000	99.133905 
3871.000000	99.127023 
3870.000000	99.124844 
3869.000000	99.127053 
3868.000000	99.130784 
3867.000000	99.133679 
3866.000000	99.135447 
3865.000000	99.136230 
3864.000000	99.135184 
3863.000000	99.132413 
3862.000000	99.130139 
3861.000000	99.131224 
3860.000000	99.136398 
3859.000000	99.142867 
3858.000000	99.145856 
3857.000000	99.142186 
3856.000000	99.132950 
3855.000000	99.124211 
3854.000000	99.121156 
3853.000000	99.124024 
3852.000000	99.131170 
3851.000000	99.140302 
3850.000000	99.148599 
3849.000000	99.154714 
3848.000000	99.158205 
3847.000000	99.159063 
3846.000000	99.157718 
3845.000000	99.155124 
3844.000000	99.152800 
3843.000000	99.151868 
3842.000000	99.151630 
3841.000000	99.150313 
3840.000000	99.147108 
3839.000000	99.142987 
3838.000000	99.139659 
3837.000000	99.137719 
3836.000000	99.136731 
3835.000000	99.136966 
3834.000000	99.139778 
3833.000000	99.146085 
3832.000000	99.154432 
3831.000000	99.161186 
3830.000000	99.163514 
3829.000000	99.161590 
3828.000000	99.158091 
3827.000000	99.155720 
3826.000000	99.154905 
3825.000000	99.154184 
3824.000000	99.152802 
3823.000000	99.152586 
3822.000000	99.155389 
3821.000000	99.159555 
3820.000000	99.162634 
3819.000000	99.164691 
3818.000000	99.167028 
3817.000000	99.170306 
3816.000000	99.172669 
3815.000000	99.170926 
3814.000000	99.164556 
3813.000000	99.156758 
3812.000000	99.151736 
3811.000000	99.151548 
3810.000000	99.155033 
3809.000000	99.159579 
3808.000000	99.163138 
3807.000000	99.164513 
3806.000000	99.163193 
3805.000000	99.159718 
3804.000000	99.156194 
3803.000000	99.155874 
3802.000000	99.159494 
3801.000000	99.163437 
3800.000000	99.164240 
3799.000000	99.161702 
3798.000000	99.157561 
3797.000000	99.153496 
3796.000000	99.149861 
3795.000000	99.146306 
3794.000000	99.143046 
3793.000000	99.141125 
3792.000000	99.141525 
3791.000000	99.144115 
3790.000000	99.147470 
3789.000000	99.149927 
3788.000000	99.150619 
3787.000000	99.149726 
3786.000000	99.148344 
3785.000000	99.147971 
3784.000000	99.149497 
3783.000000	99.152424 
3782.000000	99.155488 
3781.000000	99.157976 
3780.000000	99.159924 
3779.000000	99.161323 
3778.000000	99.161659 
3777.000000	99.160202 
3776.000000	99.156844 
3775.000000	99.152680 
3774.000000	99.149213 
3773.000000	99.147287 
3772.000000	99.146984 
3771.000000	99.147646 
3770.000000	99.147779 
3769.000000	99.146265 
3768.000000	99.143710 
3767.000000	99.141638 
3766.000000	99.140908 
3765.000000	99.140985 
3764.000000	99.140661 
3763.000000	99.139589 
3762.000000	99.139010 
3761.000000	99.140346 
3760.000000	99.142869 
3759.000000	99.144411 
3758.000000	99.144472 
3757.000000	99.144759 
3756.000000	99.146515 
3755.000000	99.148993 
3754.000000	99.150566 
3753.000000	99.150552 
3752.000000	99.149314 
3751.000000	99.147001 
3750.000000	99.144257 
3749.000000	99.142301 
3748.000000	99.141466 
3747.000000	99.141474 
3746.000000	99.142554 
3745.000000	99.143891 
3744.000000	99.144155 
3743.000000	99.143400 
3742.000000	99.141660 
3741.000000	99.138311 
3740.000000	99.133156 
3739.000000	99.126874 
3738.000000	99.121556 
3737.000000	99.119515 
3736.000000	99.120418 
3735.000000	99.121080 
3734.000000	99.119407 
3733.000000	99.117243 
3732.000000	99.118033 
3731.000000	99.122387 
3730.000000	99.127337 
3729.000000	99.129615 
3728.000000	99.128557 
3727.000000	99.125283 
3726.000000	99.120633 
3725.000000	99.115244 
3724.000000	99.110970 
3723.000000	99.110278 
3722.000000	99.113734 
3721.000000	99.119232 
3720.000000	99.123312 
3719.000000	99.123683 
3718.000000	99.120595 
3717.000000	99.115478 
3716.000000	99.109217 
3715.000000	99.101955 
3714.000000	99.094598 
3713.000000	99.089490 
3712.000000	99.088039 
3711.000000	99.089273 
3710.000000	99.091027 
3709.000000	99.091110 
3708.000000	99.087934 
3707.000000	99.080828 
3706.000000	99.070551 
3705.000000	99.059357 
3704.000000	99.049840 
3703.000000	99.042953 
3702.000000	99.036807 
3701.000000	99.028738 
3700.000000	99.018044 
3699.000000	99.005858 
3698.000000	98.993705 
3697.000000	98.982556 
3696.000000	98.972741 
3695.000000	98.964669 
3694.000000	98.959266 
3693.000000	98.957233 
3692.000000	98.957547 
3691.000000	98.957350 
3690.000000	98.953989 
3689.000000	98.948161 
3688.000000	98.943390 
3687.000000	98.940983 
3686.000000	98.939215 
3685.000000	98.937199 
3684.000000	98.936023 
3683.000000	98.936795 
3682.000000	98.938471 
3681.000000	98.937647 
3680.000000	98.930506 
3679.000000	98.915353 
3678.000000	98.894872 
3677.000000	98.876713 
3676.000000	98.867686 
3675.000000	98.866614 
3674.000000	98.866478 
3673.000000	98.862184 
3672.000000	98.854691 
3671.000000	98.849949 
3670.000000	98.851384 
3669.000000	98.856472 
3668.000000	98.861419 
3667.000000	98.864647 
3666.000000	98.866378 
3665.000000	98.866852 
3664.000000	98.865413 
3663.000000	98.861413 
3662.000000	98.854861 
3661.000000	98.845970 
3660.000000	98.835275 
3659.000000	98.824574 
3658.000000	98.817217 
3657.000000	98.815376 
3656.000000	98.816913 
3655.000000	98.817078 
3654.000000	98.812943 
3653.000000	98.805545 
3652.000000	98.798181 
3651.000000	98.793096 
3650.000000	98.789347 
3649.000000	98.786019 
3648.000000	98.785332 
3647.000000	98.788719 
3646.000000	98.794400 
3645.000000	98.800162 
3644.000000	98.805492 
3643.000000	98.811167 
3642.000000	98.817998 
3641.000000	98.825591 
3640.000000	98.832289 
3639.000000	98.835775 
3638.000000	98.834401 
3637.000000	98.828599 
3636.000000	98.820576 
3635.000000	98.812211 
3634.000000	98.803001 
3633.000000	98.791126 
3632.000000	98.776936 
3631.000000	98.764766 
3630.000000	98.759970 
3629.000000	98.761730 
3628.000000	98.763726 
3627.000000	98.762893 
3626.000000	98.761078 
3625.000000	98.760887 
3624.000000	98.762609 
3623.000000	98.764431 
3622.000000	98.765531 
3621.000000	98.768122 
3620.000000	98.774305 
3619.000000	98.781828 
3618.000000	98.786384 
3617.000000	98.787393 
3616.000000	98.788925 
3615.000000	98.795341 
3614.000000	98.806009 
3613.000000	98.815309 
3612.000000	98.818971 
3611.000000	98.818716 
3610.000000	98.819748 
3609.000000	98.824828 
3608.000000	98.831813 
3607.000000	98.837833 
3606.000000	98.843513 
3605.000000	98.851408 
3604.000000	98.862491 
3603.000000	98.875174 
3602.000000	98.887046 
3601.000000	98.896711 
3600.000000	98.903358 
3599.000000	98.905929 
3598.000000	98.904171 
3597.000000	98.899681 
3596.000000	98.895746 
3595.000000	98.895620 
3594.000000	98.899945 
3593.000000	98.906233 
3592.000000	98.910709 
3591.000000	98.910760 
3590.000000	98.907025 
3589.000000	98.903132 
3588.000000	98.902504 
3587.000000	98.905022 
3586.000000	98.908131 
3585.000000	98.910232 
3584.000000	98.912143 
3583.000000	98.915151 
3582.000000	98.919193 
3581.000000	98.922767 
3580.000000	98.924447 
3579.000000	98.923887 
3578.000000	98.921424 
3577.000000	98.917708 
3576.000000	98.913773 
3575.000000	98.911147 
3574.000000	98.910803 
3573.000000	98.912064 
3572.000000	98.913202 
3571.000000	98.912960 
3570.000000	98.911116 
3569.000000	98.908201 
3568.000000	98.904906 
3567.000000	98.901830 
3566.000000	98.899806 
3565.000000	98.899664 
3564.000000	98.901946 
3563.000000	98.907097 
3562.000000	98.914782 
3561.000000	98.923027 
3560.000000	98.929032 
3559.000000	98.931237 
3558.000000	98.930505 
3557.000000	98.929069 
3556.000000	98.928425 
3555.000000	98.928245 
3554.000000	98.927118 
3553.000000	98.923805 
3552.000000	98.918361 
3551.000000	98.912303 
3550.000000	98.907364 
3549.000000	98.904325 
3548.000000	98.903086 
3547.000000	98.903183 
3546.000000	98.904075 
3545.000000	98.904774 
3544.000000	98.904263 
3543.000000	98.903014 
3542.000000	98.903496 
3541.000000	98.908085 
3540.000000	98.916419 
3539.000000	98.924911 
3538.000000	98.929526 
3537.000000	98.929033 
3536.000000	98.925713 
3535.000000	98.922696 
3534.000000	98.921062 
3533.000000	98.920012 
3532.000000	98.919124 
3531.000000	98.919405 
3530.000000	98.921464 
3529.000000	98.923491 
3528.000000	98.922431 
3527.000000	98.917444 
3526.000000	98.911131 
3525.000000	98.906942 
3524.000000	98.906017 
3523.000000	98.906964 
3522.000000	98.908152 
3521.000000	98.909207 
3520.000000	98.910795 
3519.000000	98.913695 
3518.000000	98.918304 
3517.000000	98.924109 
3516.000000	98.929361 
3515.000000	98.931871 
3514.000000	98.930591 
3513.000000	98.926494 
3512.000000	98.921655 
3511.000000	98.917492 
3510.000000	98.914031 
3509.000000	98.911025 
3508.000000	98.909362 
3507.000000	98.910639 
3506.000000	98.915054 
3505.000000	98.919849 
3504.000000	98.920937 
3503.000000	98.917226 
3502.000000	98.912831 
3501.000000	98.913381 
3500.000000	98.920002 
3499.000000	98.927985 
3498.000000	98.931321 
3497.000000	98.928122 
3496.000000	98.921435 
3495.000000	98.915477 
3494.000000	98.912065 
3493.000000	98.910467 
3492.000000	98.909463 
3491.000000	98.908627 
3490.000000	98.908235 
3489.000000	98.908763 
3488.000000	98.910437 
3487.000000	98.912796 
3486.000000	98.914748 
3485.000000	98.915393 
3484.000000	98.914825 
3483.000000	98.913922 
3482.000000	98.913301 
3481.000000	98.912837 
3480.000000	98.912263 
3479.000000	98.911740 
3478.000000	98.911465 
3477.000000	98.911204 
3476.000000	98.910839 
3475.000000	98.911247 
3474.000000	98.913646 
3473.000000	98.917545 
3472.000000	98.920196 
3471.000000	98.919100 
3470.000000	98.914874 
3469.000000	98.910775 
3468.000000	98.909282 
3467.000000	98.909880 
3466.000000	98.910560 
3465.000000	98.910576 
3464.000000	98.910870 
3463.000000	98.912212 
3462.000000	98.913986 
3461.000000	98.915170 
3460.000000	98.915789 
3459.000000	98.916770 
3458.000000	98.918462 
3457.000000	98.919734 
3456.000000	98.919038 
3455.000000	98.916190 
3454.000000	98.912726 
3453.000000	98.910301 
3452.000000	98.908961 
3451.000000	98.907501 
3450.000000	98.905238 
3449.000000	98.902777 
3448.000000	98.900802 
3447.000000	98.898816 
3446.000000	98.895811 
3445.000000	98.892146 
3444.000000	98.889983 
3443.000000	98.891407 
3442.000000	98.896139 
3441.000000	98.901301 
3440.000000	98.903730 
3439.000000	98.902431 
3438.000000	98.898733 
3437.000000	98.894405 
3436.000000	98.890310 
3435.000000	98.886886 
3434.000000	98.885122 
3433.000000	98.886142 
3432.000000	98.889655 
3431.000000	98.893679 
3430.000000	98.896208 
3429.000000	98.897077 
3428.000000	98.897751 
3427.000000	98.899142 
3426.000000	98.899956 
3425.000000	98.897557 
3424.000000	98.890649 
3423.000000	98.880991 
3422.000000	98.872286 
3421.000000	98.867476 
3420.000000	98.867298 
3419.000000	98.870922 
3418.000000	98.876967 
3417.000000	98.883583 
3416.000000	98.888469 
3415.000000	98.889925 
3414.000000	98.888036 
3413.000000	98.884420 
3412.000000	98.880814 
3411.000000	98.878181 
3410.000000	98.876876 
3409.000000	98.876903 
3408.000000	98.877698 
3407.000000	98.878175 
3406.000000	98.877539 
3405.000000	98.875915 
3404.000000	98.874045 
3403.000000	98.872507 
3402.000000	98.871578 
3401.000000	98.871777 
3400.000000	98.874045 
3399.000000	98.879015 
3398.000000	98.885968 
3397.000000	98.892491 
3396.000000	98.895304 
3395.000000	98.891991 
3394.000000	98.882681 
3393.000000	98.870451 
3392.000000	98.859837 
3391.000000	98.854275 
3390.000000	98.854597 
3389.000000	98.859468 
3388.000000	98.866672 
3387.000000	98.874031 
3386.000000	98.880103 
3385.000000	98.884807 
3384.000000	98.889047 
3383.000000	98.892873 
3382.000000	98.894148 
3381.000000	98.890223 
3380.000000	98.881505 
3379.000000	98.872707 
3378.000000	98.869338 
3377.000000	98.872674 
3376.000000	98.878644 
3375.000000	98.881878 
3374.000000	98.880571 
3373.000000	98.877495 
3372.000000	98.876870 
3371.000000	98.880561 
3370.000000	98.886759 
3369.000000	98.891646 
3368.000000	98.892475 
3367.000000	98.889761 
3366.000000	98.886836 
3365.000000	98.886944 
3364.000000	98.890486 
3363.000000	98.895107 
3362.000000	98.898207 
3361.000000	98.898790 
3360.000000	98.896998 
3359.000000	98.893077 
3358.000000	98.887848 
3357.000000	98.883736 
3356.000000	98.883720 
3355.000000	98.888266 
3354.000000	98.893860 
3353.000000	98.895578 
3352.000000	98.891424 
3351.000000	98.884128 
3350.000000	98.878747 
3349.000000	98.878601 
3348.000000	98.883194 
3347.000000	98.889283 
3346.000000	98.893703 
3345.000000	98.895498 
3344.000000	98.895997 
3343.000000	98.897106 
3342.000000	98.899221 
3341.000000	98.900560 
3340.000000	98.898615 
3339.000000	98.892757 
3338.000000	98.885683 
3337.000000	98.881905 
3336.000000	98.884180 
3335.000000	98.891179 
3334.000000	98.898901 
3333.000000	98.904231 
3332.000000	98.906815 
3331.000000	98.907760 
3330.000000	98.907543 
3329.000000	98.905845 
3328.000000	98.902869 
3327.000000	98.899688 
3326.000000	98.897103 
3325.000000	98.894848 
3324.000000	98.892336 
3323.000000	98.889862 
3322.000000	98.888530 
3321.000000	98.889034 
3320.000000	98.890916 
3319.000000	98.893266 
3318.000000	98.895987 
3317.000000	98.899831 
3316.000000	98.904829 
3315.000000	98.909135 
3314.000000	98.910392 
3313.000000	98.908499 
3312.000000	98.906150 
3311.000000	98.905911 
3310.000000	98.907294 
3309.000000	98.907690 
3308.000000	98.905863 
3307.000000	98.903347 
3306.000000	98.902260 
3305.000000	98.902953 
3304.000000	98.904461 
3303.000000	98.906304 
3302.000000	98.908754 
3301.000000	98.911497 
3300.000000	98.912992 
3299.000000	98.911648 
3298.000000	98.907579 
3297.000000	98.903073 
3296.000000	98.900977 
3295.000000	98.902250 
3294.000000	98.905185 
3293.000000	98.907418 
3292.000000	98.908516 
3291.000000	98.909781 
3290.000000	98.911531 
3289.000000	98.911945 
3288.000000	98.909396 
3287.000000	98.904927 
3286.000000	98.901221 
3285.000000	98.899507 
3284.000000	98.898781 
3283.000000	98.898064 
3282.000000	98.898232 
3281.000000	98.900983 
3280.000000	98.906569 
3279.000000	98.913057 
3278.000000	98.917691 
3277.000000	98.918917 
3276.000000	98.917306 
3275.000000	98.914634 
3274.000000	98.912064 
3273.000000	98.909428 
3272.000000	98.906411 
3271.000000	98.903802 
3270.000000	98.902864 
3269.000000	98.903698 
3268.000000	98.904910 
3267.000000	98.904896 
3266.000000	98.902946 
3265.000000	98.899392 
3264.000000	98.895580 
3263.000000	98.893827 
3262.000000	98.896310 
3261.000000	98.903073 
3260.000000	98.911321 
3259.000000	98.917189 
3258.000000	98.918441 
3257.000000	98.915651 
3256.000000	98.911213 
3255.000000	98.907405 
3254.000000	98.905121 
3253.000000	98.904071 
3252.000000	98.903971 
3251.000000	98.905258 
3250.000000	98.908391 
3249.000000	98.912734 
3248.000000	98.916614 
3247.000000	98.918531 
3246.000000	98.918029 
3245.000000	98.915555 
3244.000000	98.912023 
3243.000000	98.908542 
3242.000000	98.906023 
3241.000000	98.904722 
3240.000000	98.904512 
3239.000000	98.905744 
3238.000000	98.909443 
3237.000000	98.916231 
3236.000000	98.925060 
3235.000000	98.933172 
3234.000000	98.937478 
3233.000000	98.936514 
3232.000000	98.931610 
3231.000000	98.926165 
3230.000000	98.923201 
3229.000000	98.923264 
3228.000000	98.924606 
3227.000000	98.925049 
3226.000000	98.923348 
3225.000000	98.919325 
3224.000000	98.913838 
3223.000000	98.908907 
3222.000000	98.906874 
3221.000000	98.908599 
3220.000000	98.912573 
3219.000000	98.916243 
3218.000000	98.918294 
3217.000000	98.919643 
3216.000000	98.922474 
3215.000000	98.928188 
3214.000000	98.935743 
3213.000000	98.941855 
3212.000000	98.943333 
3211.000000	98.939615 
3210.000000	98.933019 
3209.000000	98.926774 
3208.000000	98.923127 
3207.000000	98.922793 
3206.000000	98.924951 
3205.000000	98.927414 
3204.000000	98.927909 
3203.000000	98.926128 
3202.000000	98.924115 
3201.000000	98.924107 
3200.000000	98.926342 
3199.000000	98.929234 
3198.000000	98.931082 
3197.000000	98.931178 
3196.000000	98.930084 
3195.000000	98.929538 
3194.000000	98.931369 
3193.000000	98.935347 
3192.000000	98.938379 
3191.000000	98.937053 
3190.000000	98.931217 
3189.000000	98.924419 
3188.000000	98.920710 
3187.000000	98.921561 
3186.000000	98.925635 
3185.000000	98.930450 
3184.000000	98.933833 
3183.000000	98.934690 
3182.000000	98.933542 
3181.000000	98.932578 
3180.000000	98.934520 
3179.000000	98.940480 
3178.000000	98.948275 
3177.000000	98.953197 
3176.000000	98.951680 
3175.000000	98.944922 
3174.000000	98.938356 
3173.000000	98.936661 
3172.000000	98.939355 
3171.000000	98.941911 
3170.000000	98.940979 
3169.000000	98.937579 
3168.000000	98.935146 
3167.000000	98.935652 
3166.000000	98.938316 
3165.000000	98.941256 
3164.000000	98.943279 
3163.000000	98.944119 
3162.000000	98.943969 
3161.000000	98.943408 
3160.000000	98.943431 
3159.000000	98.944809 
3158.000000	98.947032 
3157.000000	98.948233 
3156.000000	98.946719 
3155.000000	98.942655 
3154.000000	98.937834 
3153.000000	98.933714 
3152.000000	98.930271 
3151.000000	98.926997 
3150.000000	98.924301 
3149.000000	98.923209 
3148.000000	98.924194 
3147.000000	98.927129 
3146.000000	98.932068 
3145.000000	98.938948 
3144.000000	98.946373 
3143.000000	98.951724 
3142.000000	98.953183 
3141.000000	98.951294 
3140.000000	98.948180 
3139.000000	98.945647 
3138.000000	98.944334 
3137.000000	98.944182 
3136.000000	98.945085 
3135.000000	98.947070 
3134.000000	98.950097 
3133.000000	98.953610 
3132.000000	98.956222 
3131.000000	98.956332 
3130.000000	98.953553 
3129.000000	98.949537 
3128.000000	98.947089 
3127.000000	98.948226 
3126.000000	98.952737 
3125.000000	98.958144 
3124.000000	98.961081 
3123.000000	98.959509 
3122.000000	98.954341 
3121.000000	98.948805 
3120.000000	98.945809 
3119.000000	98.945884 
3118.000000	98.947671 
3117.000000	98.949940 
3116.000000	98.952573 
3115.000000	98.955779 
3114.000000	98.959082 
3113.000000	98.961440 
3112.000000	98.962076 
3111.000000	98.961017 
3110.000000	98.958971 
3109.000000	98.956824 
3108.000000	98.955074 
3107.000000	98.953535 
3106.000000	98.951662 
3105.000000	98.949466 
3104.000000	98.948179 
3103.000000	98.949603 
3102.000000	98.954354 
3101.000000	98.960711 
3100.000000	98.965779 
3099.000000	98.968117 
3098.000000	98.969004 
3097.000000	98.970761 
3096.000000	98.973999 
3095.000000	98.976888 
3094.000000	98.977182 
3093.000000	98.974530 
3092.000000	98.970674 
3091.000000	98.967811 
3090.000000	98.967014 
3089.000000	98.967831 
3088.000000	98.968881 
3087.000000	98.968904 
3086.000000	98.967709 
3085.000000	98.966258 
3084.000000	98.965609 
3083.000000	98.965692 
3082.000000	98.965344 
3081.000000	98.963687 
3080.000000	98.961358 
3079.000000	98.960283 
3078.000000	98.962223 
3077.000000	98.967331 
3076.000000	98.973811 
3075.000000	98.978972 
3074.000000	98.981012 
3073.000000	98.980136 
3072.000000	98.977933 
3071.000000	98.975624 
3070.000000	98.973081 
3069.000000	98.969573 
3068.000000	98.965209 
3067.000000	98.961428 
3066.000000	98.960157 
3065.000000	98.962513 
3064.000000	98.967876 
3063.000000	98.973889 
3062.000000	98.977669 
3061.000000	98.977629 
3060.000000	98.974414 
3059.000000	98.970120 
3058.000000	98.966859 
3057.000000	98.966066 
3056.000000	98.968257 
3055.000000	98.972473 
3054.000000	98.976246 
3053.000000	98.977235 
3052.000000	98.975243 
3051.000000	98.972109 
3050.000000	98.969651 
3049.000000	98.968392 
3048.000000	98.968100 
3047.000000	98.968155 
3046.000000	98.966891 
3045.000000	98.962079 
3044.000000	98.953611 
3043.000000	98.945115 
3042.000000	98.941301 
3041.000000	98.943290 
3040.000000	98.947360 
3039.000000	98.948499 
3038.000000	98.944572 
3037.000000	98.937004 
3036.000000	98.928362 
3035.000000	98.920018 
3034.000000	98.911842 
3033.000000	98.903343 
3032.000000	98.894588 
3031.000000	98.885931 
3030.000000	98.877269 
3029.000000	98.868247 
3028.000000	98.859387 
3027.000000	98.852324 
3026.000000	98.848077 
3025.000000	98.845255 
3024.000000	98.840856 
3023.000000	98.833127 
3022.000000	98.822913 
3021.000000	98.811740 
3020.000000	98.799257 
3019.000000	98.783528 
3018.000000	98.763962 
3017.000000	98.743178 
3016.000000	98.725174 
3015.000000	98.711638 
3014.000000	98.700677 
3013.000000	98.689404 
3012.000000	98.677082 
3011.000000	98.664931 
3010.000000	98.653298 
3009.000000	98.640512 
3008.000000	98.625093 
3007.000000	98.607995 
3006.000000	98.591582 
3005.000000	98.576811 
3004.000000	98.562520 
3003.000000	98.547428 
3002.000000	98.531809 
3001.000000	98.516849 
3000.000000	98.503078 
2999.000000	98.490084 
2998.000000	98.477668 
2997.000000	98.466795 
2996.000000	98.458840 
2995.000000	98.453185 
2994.000000	98.445516 
2993.000000	98.429711 
2992.000000	98.402965 
2991.000000	98.369418 
2990.000000	98.338176 
2989.000000	98.317408 
2988.000000	98.310139 
2987.000000	98.314607 
2986.000000	98.326766 
2985.000000	98.341924 
2984.000000	98.355490 
2983.000000	98.364174 
2982.000000	98.367159 
2981.000000	98.365992 
2980.000000	98.363321 
2979.000000	98.361572 
2978.000000	98.361951 
2977.000000	98.363698 
2976.000000	98.364342 
2975.000000	98.361563 
2974.000000	98.355501 
2973.000000	98.349221 
2972.000000	98.346678 
2971.000000	98.350025 
2970.000000	98.358624 
2969.000000	98.370192 
2968.000000	98.382595 
2967.000000	98.394796 
2966.000000	98.406748 
2965.000000	98.418830 
2964.000000	98.431257 
2963.000000	98.443631 
2962.000000	98.455021 
2961.000000	98.464733 
2960.000000	98.472973 
2959.000000	98.480478 
2958.000000	98.487561 
2957.000000	98.493980 
2956.000000	98.499871 
2955.000000	98.506322 
2954.000000	98.514712 
2953.000000	98.525580 
2952.000000	98.538104 
2951.000000	98.550291 
2950.000000	98.559672 
2949.000000	98.564595 
2948.000000	98.565374 
2947.000000	98.564066 
2946.000000	98.562995 
2945.000000	98.563728 
2944.000000	98.567118 
2943.000000	98.573116 
2942.000000	98.579999 
2941.000000	98.584852 
2940.000000	98.585995 
2939.000000	98.584886 
2938.000000	98.585032 
2937.000000	98.589209 
2936.000000	98.597814 
2935.000000	98.608883 
2934.000000	98.618816 
2933.000000	98.623885 
2932.000000	98.622545 
2931.000000	98.616477 
2930.000000	98.608955 
2929.000000	98.602555 
2928.000000	98.598604 
2927.000000	98.597420 
2926.000000	98.597606 
2925.000000	98.596094 
2924.000000	98.590931 
2923.000000	98.583895 
2922.000000	98.578618 
2921.000000	98.576022 
2920.000000	98.573351 
2919.000000	98.567894 
2918.000000	98.560008 
2917.000000	98.551835 
2916.000000	98.544567 
2915.000000	98.537940 
2914.000000	98.531540 
2913.000000	98.525674 
2912.000000	98.521335 
2911.000000	98.519498 
2910.000000	98.519829 
2909.000000	98.520035 
2908.000000	98.517474 
2907.000000	98.511645 
2906.000000	98.503965 
2905.000000	98.494802 
2904.000000	98.482585 
2903.000000	98.467020 
2902.000000	98.452999 
2901.000000	98.448373 
2900.000000	98.457835 
2899.000000	98.478709 
2898.000000	98.502283 
2897.000000	98.519758 
2896.000000	98.527728 
2895.000000	98.529342 
2894.000000	98.530411 
2893.000000	98.534222 
2892.000000	98.539953 
2891.000000	98.545266 
2890.000000	98.549093 
2889.000000	98.551731 
2888.000000	98.553666 
2887.000000	98.555419 
2886.000000	98.557831 
2885.000000	98.561472 
2884.000000	98.566132 
2883.000000	98.571748 
2882.000000	98.579398 
2881.000000	98.590345 
2880.000000	98.604163 
2879.000000	98.618631 
2878.000000	98.631571 
2877.000000	98.642253 
2876.000000	98.651050 
2875.000000	98.658485 
2874.000000	98.664928 
2873.000000	98.670769 
2872.000000	98.676387 
2871.000000	98.681859 
2870.000000	98.686943 
2869.000000	98.691744 
2868.000000	98.697600 
2867.000000	98.706804 
2866.000000	98.720544 
2865.000000	98.736963 
2864.000000	98.752064 
2863.000000	98.762975 
2862.000000	98.769898 
2861.000000	98.774817 
2860.000000	98.779393 
2859.000000	98.784785 
2858.000000	98.792291 
2857.000000	98.802596 
2856.000000	98.814430 
2855.000000	98.825103 
2854.000000	98.832738 
2853.000000	98.837611 
2852.000000	98.841427 
2851.000000	98.845889 
2850.000000	98.851948 
2849.000000	98.859638 
2848.000000	98.868124 
2847.000000	98.876070 
2846.000000	98.882260 
2845.000000	98.886046 
2844.000000	98.887500 
2843.000000	98.887497 
2842.000000	98.887599 
2841.000000	98.889454 
2840.000000	98.893915 
2839.000000	98.900492 
2838.000000	98.907523 
2837.000000	98.913125 
2836.000000	98.916482 
2835.000000	98.918496 
2834.000000	98.920902 
2833.000000	98.924484 
2832.000000	98.928252 
2831.000000	98.930436 
2830.000000	98.930079 
2829.000000	98.927654 
2828.000000	98.924701 
2827.000000	98.923129 
2826.000000	98.924360 
2825.000000	98.928323 
2824.000000	98.933186 
2823.000000	98.936565 
2822.000000	98.937397 
2821.000000	98.936766 
2820.000000	98.936875 
2819.000000	98.939072 
2818.000000	98.942628 
2817.000000	98.945491 
2816.000000	98.946478 
2815.000000	98.946558 
2814.000000	98.947537 
2813.000000	98.949641 
2812.000000	98.951203 
2811.000000	98.950976 
2810.000000	98.949944 
2809.000000	98.950125 
2808.000000	98.952088 
2807.000000	98.954416 
2806.000000	98.955495 
2805.000000	98.955169 
2804.000000	98.954640 
2803.000000	98.955273 
2802.000000	98.957548 
2801.000000	98.960736 
2800.000000	98.963427 
2799.000000	98.964630 
2798.000000	98.964440 
2797.000000	98.963552 
2796.000000	98.962336 
2795.000000	98.960779 
2794.000000	98.959157 
2793.000000	98.958158 
2792.000000	98.958094 
2791.000000	98.958427 
2790.000000	98.958479 
2789.000000	98.958489 
2788.000000	98.959566 
2787.000000	98.962427 
2786.000000	98.966357 
2785.000000	98.969550 
2784.000000	98.970550 
2783.000000	98.969328 
2782.000000	98.967148 
2781.000000	98.965548 
2780.000000	98.965380 
2779.000000	98.966410 
2778.000000	98.967674 
2777.000000	98.968539 
2776.000000	98.969688 
2775.000000	98.972688 
2774.000000	98.978101 
2773.000000	98.984317 
2772.000000	98.988863 
2771.000000	98.990712 
2770.000000	98.990587 
2769.000000	98.989282 
2768.000000	98.986917 
2767.000000	98.984182 
2766.000000	98.982849 
2765.000000	98.983695 
2764.000000	98.984566 
2763.000000	98.982097 
2762.000000	98.975689 
2761.000000	98.968683 
2760.000000	98.965105 
2759.000000	98.966004 
2758.000000	98.969496 
2757.000000	98.973558 
2756.000000	98.977508 
2755.000000	98.980902 
2754.000000	98.982423 
2753.000000	98.980990 
2752.000000	98.977674 
2751.000000	98.975501 
2750.000000	98.976887 
2749.000000	98.981508 
2748.000000	98.986902 
2747.000000	98.990863 
2746.000000	98.992930 
2745.000000	98.993779 
2744.000000	98.993773 
2743.000000	98.992500 
2742.000000	98.989672 
2741.000000	98.986169 
2740.000000	98.983771 
2739.000000	98.983638 
2738.000000	98.985287 
2737.000000	98.987414 
2736.000000	98.989519 
2735.000000	98.991981 
2734.000000	98.994522 
2733.000000	98.995642 
2732.000000	98.994321 
2731.000000	98.991587 
2730.000000	98.989433 
2729.000000	98.988487 
2728.000000	98.987728 
2727.000000	98.986372 
2726.000000	98.984987 
2725.000000	98.984615 
2724.000000	98.985806 
2723.000000	98.988864 
2722.000000	98.993984 
2721.000000	99.000290 
2720.000000	99.005424 
2719.000000	99.007162 
2718.000000	99.005505 
2717.000000	99.002597 
2716.000000	99.000576 
2715.000000	98.999896 
2714.000000	98.999692 
2713.000000	98.999181 
2712.000000	98.998417 
2711.000000	98.998034 
2710.000000	98.998655 
2709.000000	99.000501 
2708.000000	99.003096 
2707.000000	99.005137 
2706.000000	99.005059 
2705.000000	99.002480 
2704.000000	98.999190 
2703.000000	98.997957 
2702.000000	98.999786 
2701.000000	99.002758 
2700.000000	99.004239 
2699.000000	99.003978 
2698.000000	99.004194 
2697.000000	99.006604 
2696.000000	99.010260 
2695.000000	99.012781 
2694.000000	99.013156 
2693.000000	99.012632 
2692.000000	99.012927 
2691.000000	99.014092 
2690.000000	99.014438 
2689.000000	99.012509 
2688.000000	99.008878 
2687.000000	99.005772 
2686.000000	99.005093 
2685.000000	99.007081 
2684.000000	99.010644 
2683.000000	99.014107 
2682.000000	99.015427 
2681.000000	99.012852 
2680.000000	99.006591 
2679.000000	98.999540 
2678.000000	98.995324 
2677.000000	98.995553 
2676.000000	98.999422 
2675.000000	99.005365 
2674.000000	99.011862 
2673.000000	99.016895 
2672.000000	99.018368 
2671.000000	99.015874 
2670.000000	99.011258 
2669.000000	99.006892 
2668.000000	99.004055 
2667.000000	99.003220 
2666.000000	99.004720 
2665.000000	99.008070 
2664.000000	99.011334 
2663.000000	99.012353 
2662.000000	99.010766 
2661.000000	99.008293 
2660.000000	99.007026 
2659.000000	99.007789 
2658.000000	99.010072 
2657.000000	99.013042 
2656.000000	99.016272 
2655.000000	99.019357 
2654.000000	99.021089 
2653.000000	99.019974 
2652.000000	99.016462 
2651.000000	99.013996 
2650.000000	99.016093 
2649.000000	99.021872 
2648.000000	99.026041 
2647.000000	99.024569 
2646.000000	99.019513 
2645.000000	99.016842 
2644.000000	99.019814 
2643.000000	99.025806 
2642.000000	99.029586 
2641.000000	99.028533 
2640.000000	99.024332 
2639.000000	99.020588 
2638.000000	99.019595 
2637.000000	99.021031 
2636.000000	99.022982 
2635.000000	99.023803 
2634.000000	99.023135 
2633.000000	99.021692 
2632.000000	99.020731 
2631.000000	99.021563 
2630.000000	99.024563 
2629.000000	99.028100 
2628.000000	99.029229 
2627.000000	99.026431 
2626.000000	99.021440 
2625.000000	99.017613 
2624.000000	99.016682 
2623.000000	99.017743 
2622.000000	99.019132 
2621.000000	99.020179 
2620.000000	99.021039 
2619.000000	99.021942 
2618.000000	99.023266 
2617.000000	99.025621 
2616.000000	99.028938 
2615.000000	99.031749 
2614.000000	99.032260 
2613.000000	99.030346 
2612.000000	99.027920 
2611.000000	99.027000 
2610.000000	99.027720 
2609.000000	99.028536 
2608.000000	99.028090 
2607.000000	99.026473 
2606.000000	99.024970 
2605.000000	99.025142 
2604.000000	99.027955 
2603.000000	99.032930 
2602.000000	99.037945 
2601.000000	99.040682 
2600.000000	99.040816 
2599.000000	99.040199 
2598.000000	99.040452 
2597.000000	99.041047 
2596.000000	99.040310 
2595.000000	99.037578 
2594.000000	99.033505 
2593.000000	99.028912 
2592.000000	99.024527 
2591.000000	99.021574 
2590.000000	99.021358 
2589.000000	99.023908 
2588.000000	99.027653 
2587.000000	99.030495 
2586.000000	99.030897 
2585.000000	99.028581 
2584.000000	99.025134 
2583.000000	99.023411 
2582.000000	99.024994 
2581.000000	99.028149 
2580.000000	99.029317 
2579.000000	99.026676 
2578.000000	99.021395 
2577.000000	99.015726 
2576.000000	99.011156 
2575.000000	99.008401 
2574.000000	99.007712 
2573.000000	99.008624 
2572.000000	99.010316 
2571.000000	99.012600 
2570.000000	99.015829 
2569.000000	99.019738 
2568.000000	99.023194 
2567.000000	99.025105 
2566.000000	99.024817 
2565.000000	99.022049 
2564.000000	99.017688 
2563.000000	99.014361 
2562.000000	99.014602 
2561.000000	99.018117 
2560.000000	99.022006 
2559.000000	99.023726 
2558.000000	99.022797 
2557.000000	99.020162 
2556.000000	99.017788 
2555.000000	99.018641 
2554.000000	99.024485 
2553.000000	99.032908 
2552.000000	99.038578 
2551.000000	99.038470 
2550.000000	99.034231 
2549.000000	99.028818 
2548.000000	99.022990 
2547.000000	99.016500 
2546.000000	99.010889 
2545.000000	99.009022 
2544.000000	99.012326 
2543.000000	99.019291 
2542.000000	99.025968 
2541.000000	99.027842 
2540.000000	99.023155 
2539.000000	99.015203 
2538.000000	99.009542 
2537.000000	99.007983 
2536.000000	99.007351 
2535.000000	99.005162 
2534.000000	99.003523 
2533.000000	99.004978 
2532.000000	99.007114 
2531.000000	99.005253 
2530.000000	98.999585 
2529.000000	98.995639 
2528.000000	98.996947 
2527.000000	99.000363 
2526.000000	99.000314 
2525.000000	98.995830 
2524.000000	98.991680 
2523.000000	98.993254 
2522.000000	99.001440 
2521.000000	99.012134 
2520.000000	99.019705 
2519.000000	99.020761 
2518.000000	99.015344 
2517.000000	99.005855 
2516.000000	98.995740 
2515.000000	98.988514 
2514.000000	98.986327 
2513.000000	98.988720 
2512.000000	98.993515 
2511.000000	98.999138 
2510.000000	99.005185 
2509.000000	99.010941 
2508.000000	99.015214 
2507.000000	99.018072 
2506.000000	99.020716 
2505.000000	99.022684 
2504.000000	99.021260 
2503.000000	99.015284 
2502.000000	99.007895 
2501.000000	99.003615 
2500.000000	99.003970 
2499.000000	99.007554 
2498.000000	99.012725 
2497.000000	99.017823 
2496.000000	99.020017 
2495.000000	99.017072 
2494.000000	99.010330 
2493.000000	99.003748 
2492.000000	98.999934 
2491.000000	98.999030 
2490.000000	99.001223 
2489.000000	99.007803 
2488.000000	99.018893 
2487.000000	99.031682 
2486.000000	99.041569 
2485.000000	99.044413 
2484.000000	99.038497 
2483.000000	99.026333 
2482.000000	99.014510 
2481.000000	99.009276 
2480.000000	99.011068 
2479.000000	99.014582 
2478.000000	99.014810 
2477.000000	99.011887 
2476.000000	99.009814 
2475.000000	99.011933 
2474.000000	99.018215 
2473.000000	99.025465 
2472.000000	99.029442 
2471.000000	99.028100 
2470.000000	99.023655 
2469.000000	99.020552 
2468.000000	99.020749 
2467.000000	99.022024 
2466.000000	99.021349 
2465.000000	99.018534 
2464.000000	99.015628 
2463.000000	99.014083 
2462.000000	99.013923 
2461.000000	99.014796 
2460.000000	99.016233 
2459.000000	99.017055 
2458.000000	99.015863 
2457.000000	99.012407 
2456.000000	99.007862 
2455.000000	99.003849 
2454.000000	99.001645 
2453.000000	99.001872 
2452.000000	99.003864 
2451.000000	99.005301 
2450.000000	99.003533 
2449.000000	98.998081 
2448.000000	98.991759 
2447.000000	98.988923 
2446.000000	98.992191 
2445.000000	99.000306 
2444.000000	99.008750 
2443.000000	99.012723 
2442.000000	99.010304 
2441.000000	99.003481 
2440.000000	98.996461 
2439.000000	98.992879 
2438.000000	98.993949 
2437.000000	98.998268 
2436.000000	99.002843 
2435.000000	99.004884 
2434.000000	99.003681 
2433.000000	99.001383 
2432.000000	99.001638 
2431.000000	99.006657 
2430.000000	99.014911 
2429.000000	99.021723 
2428.000000	99.022830 
2427.000000	99.018007 
2426.000000	99.011188 
2425.000000	99.006810 
2424.000000	99.006284 
2423.000000	99.008317 
2422.000000	99.011855 
2421.000000	99.017042 
2420.000000	99.022873 
2419.000000	99.025693 
2418.000000	99.022065 
2417.000000	99.013064 
2416.000000	99.004074 
2415.000000	98.999665 
2414.000000	98.999700 
2413.000000	99.000963 
2412.000000	99.001225 
2411.000000	99.000319 
2410.000000	98.998168 
2409.000000	98.993962 
2408.000000	98.987845 
2407.000000	98.981999 
2406.000000	98.979155 
2405.000000	98.980553 
2404.000000	98.985588 
2403.000000	98.992417 
2402.000000	98.998385 
2401.000000	99.001037 
2400.000000	98.999911 
2399.000000	98.996986 
2398.000000	98.994723 
2397.000000	98.994161 
2396.000000	98.995165 
2395.000000	98.997275 
2394.000000	98.999366 
2393.000000	98.999668 
2392.000000	98.997617 
2391.000000	98.994929 
2390.000000	98.993438 
2389.000000	98.992755 
2388.000000	98.991818 
2387.000000	98.991812 
2386.000000	98.994931 
2385.000000	99.000347 
2384.000000	99.004197 
2383.000000	99.004438 
2382.000000	99.003249 
2381.000000	99.003184 
2380.000000	99.003204 
2379.000000	99.000922 
2378.000000	98.997433 
2377.000000	98.996781 
2376.000000	99.000534 
2375.000000	99.005575 
2374.000000	99.008115 
2373.000000	99.007683 
2372.000000	99.006006 
2371.000000	99.003999 
2370.000000	99.001601 
2369.000000	98.999287 
2368.000000	98.998051 
2367.000000	98.998689 
2366.000000	99.002307 
2365.000000	99.010032 
2364.000000	99.020337 
2363.000000	99.027860 
2362.000000	99.027131 
2361.000000	99.017842 
2360.000000	99.005239 
2359.000000	98.995405 
2358.000000	98.991265 
2357.000000	98.992663 
2356.000000	98.998509 
2355.000000	99.007430 
2354.000000	99.016633 
2353.000000	99.022327 
2352.000000	99.022860 
2351.000000	99.020210 
2350.000000	99.017036 
2349.000000	99.014147 
2348.000000	99.011825 
2347.000000	99.011259 
2346.000000	99.013529 
2345.000000	99.017913 
2344.000000	99.022275 
2343.000000	99.024692 
2342.000000	99.024378 
2341.000000	99.022142 
2340.000000	99.020184 
2339.000000	99.020986 
2338.000000	99.025134 
2337.000000	99.029737 
2336.000000	99.030268 
2335.000000	99.025142 
2334.000000	99.017940 
2333.000000	99.014139 
2332.000000	99.015784 
2331.000000	99.019933 
2330.000000	99.022248 
2329.000000	99.021626 
2328.000000	99.021525 
2327.000000	99.026110 
2326.000000	99.034951 
2325.000000	99.041954 
2324.000000	99.041488 
2323.000000	99.035355 
2322.000000	99.031144 
2321.000000	99.032651 
2320.000000	99.034973 
2319.000000	99.031420 
2318.000000	99.022338 
2317.000000	99.014379 
2316.000000	99.012571 
2315.000000	99.016118 
2314.000000	99.021270 
2313.000000	99.025475 
2312.000000	99.027905 
2311.000000	99.028058 
2310.000000	99.025542 
2309.000000	99.020927 
2308.000000	99.015827 
2307.000000	99.011884 
2306.000000	99.009915 
2305.000000	99.010075 
2304.000000	99.012671 
2303.000000	99.018075 
2302.000000	99.025577 
2301.000000	99.033008 
2300.000000	99.038722 
2299.000000	99.043378 
2298.000000	99.048287 
2297.000000	99.052004 
2296.000000	99.050639 
2295.000000	99.042849 
2294.000000	99.033075 
2293.000000	99.028324 
2292.000000	99.032056 
2291.000000	99.042214 
2290.000000	99.054030 
2289.000000	99.063233 
2288.000000	99.067366 
2287.000000	99.066213 
2286.000000	99.061471 
2285.000000	99.055009 
2284.000000	99.047504 
2283.000000	99.039718 
2282.000000	99.034417 
2281.000000	99.034713 
2280.000000	99.040017 
2279.000000	99.045587 
2278.000000	99.047163 
2277.000000	99.044791 
2276.000000	99.041290 
2275.000000	99.038509 
2274.000000	99.036506 
2273.000000	99.035242 
2272.000000	99.035172 
2271.000000	99.036415 
2270.000000	99.038666 
2269.000000	99.041977 
2268.000000	99.046578 
2267.000000	99.051890 
2266.000000	99.056525 
2265.000000	99.059133 
2264.000000	99.058364 
2263.000000	99.052490 
2262.000000	99.041123 
2261.000000	99.028097 
2260.000000	99.020652 
2259.000000	99.023639 
2258.000000	99.034835 
2257.000000	99.047245 
2256.000000	99.055573 
2255.000000	99.058922 
2254.000000	99.058163 
2253.000000	99.054092 
2252.000000	99.049199 
2251.000000	99.047854 
2250.000000	99.052218 
2249.000000	99.058992 
2248.000000	99.062927 
2247.000000	99.062372 
2246.000000	99.059170 
2245.000000	99.054886 
2244.000000	99.049866 
2243.000000	99.045649 
2242.000000	99.045055 
2241.000000	99.049429 
2240.000000	99.058049 
2239.000000	99.070112 
2238.000000	99.084092 
2237.000000	99.094738 
2236.000000	99.094832 
2235.000000	99.082622 
2234.000000	99.065474 
2233.000000	99.053668 
2232.000000	99.051184 
2231.000000	99.053693 
2230.000000	99.054241 
2229.000000	99.049499 
2228.000000	99.041727 
2227.000000	99.036220 
2226.000000	99.036474 
2225.000000	99.041375 
2224.000000	99.047699 
2223.000000	99.054423 
2222.000000	99.061608 
2221.000000	99.065281 
2220.000000	99.058717 
2219.000000	99.042129 
2218.000000	99.027516 
2217.000000	99.028776 
2216.000000	99.047393 
2215.000000	99.071427 
2214.000000	99.087846 
2213.000000	99.092285 
2212.000000	99.087721 
2211.000000	99.079074 
2210.000000	99.071675 
2209.000000	99.070911 
2208.000000	99.078136 
2207.000000	99.086906 
2206.000000	99.086956 
2205.000000	99.074503 
2204.000000	99.058058 
2203.000000	99.051837 
2202.000000	99.062089 
2201.000000	99.080042 
2200.000000	99.089538 
2199.000000	99.082357 
2198.000000	99.065526 
2197.000000	99.053777 
2196.000000	99.056054 
2195.000000	99.069847 
2194.000000	99.086351 
2193.000000	99.097958 
2192.000000	99.101308 
2191.000000	99.097254 
2190.000000	99.091065 
2189.000000	99.090916 
2188.000000	99.101244 
2187.000000	99.115718 
2186.000000	99.120090 
2185.000000	99.105999 
2184.000000	99.081431 
2183.000000	99.063886 
2182.000000	99.063027 
2181.000000	99.073260 
2180.000000	99.083749 
2179.000000	99.091200 
2178.000000	99.099745 
2177.000000	99.111883 
2176.000000	99.123782 
2175.000000	99.128647 
2174.000000	99.122576 
2173.000000	99.108886 
2172.000000	99.098783 
2171.000000	99.104892 
2170.000000	99.129770 
2169.000000	99.160982 
2168.000000	99.181025 
2167.000000	99.182587 
2166.000000	99.172418 
2165.000000	99.162938 
2164.000000	99.163784 
2163.000000	99.178599 
2162.000000	99.202268 
2161.000000	99.219095 
2160.000000	99.210612 
2159.000000	99.171399 
2158.000000	99.115315 
2157.000000	99.062891 
2156.000000	99.025666 
2155.000000	99.005024 
2154.000000	98.999629 
2153.000000	99.007886 
2152.000000	99.025510 
2151.000000	99.045132 
2150.000000	99.059807 
2149.000000	99.067681 
2148.000000	99.073675 
2147.000000	99.084441 
2146.000000	99.099348 
2145.000000	99.108249 
2144.000000	99.101749 
2143.000000	99.082860 
2142.000000	99.064877 
2141.000000	99.057903 
2140.000000	99.060416 
2139.000000	99.064018 
2138.000000	99.062691 
2137.000000	99.056219 
2136.000000	99.048035 
2135.000000	99.042146 
2134.000000	99.040700 
2133.000000	99.042579 
2132.000000	99.044311 
2131.000000	99.042501 
2130.000000	99.035383 
2129.000000	99.023667 
2128.000000	99.011407 
2127.000000	99.004587 
2126.000000	99.006480 
2125.000000	99.014908 
2124.000000	99.025968 
2123.000000	99.039125 
2122.000000	99.055391 
2121.000000	99.071612 
2120.000000	99.081380 
2119.000000	99.082655 
2118.000000	99.080591 
2117.000000	99.081094 
2116.000000	99.084609 
2115.000000	99.088023 
2114.000000	99.089723 
2113.000000	99.090111 
2112.000000	99.089190 
2111.000000	99.086651 
2110.000000	99.083622 
2109.000000	99.081863 
2108.000000	99.081076 
2107.000000	99.078390 
2106.000000	99.071007 
2105.000000	99.059538 
2104.000000	99.049214 
2103.000000	99.047013 
2102.000000	99.055558 
2101.000000	99.069427 
2100.000000	99.079337 
2099.000000	99.080574 
2098.000000	99.075940 
2097.000000	99.070898 
2096.000000	99.068492 
2095.000000	99.069458 
2094.000000	99.073951 
2093.000000	99.080903 
2092.000000	99.087618 
2091.000000	99.092076 
2090.000000	99.094715 
2089.000000	99.096875 
2088.000000	99.098297 
2087.000000	99.096885 
2086.000000	99.090410 
2085.000000	99.079080 
2084.000000	99.068074 
2083.000000	99.066497 
2082.000000	99.080086 
2081.000000	99.103626 
2080.000000	99.123756 
2079.000000	99.131811 
2078.000000	99.132101 
2077.000000	99.135769 
2076.000000	99.147771 
2075.000000	99.161416 
2074.000000	99.164874 
2073.000000	99.152322 
2072.000000	99.129867 
2071.000000	99.110716 
2070.000000	99.103633 
2069.000000	99.106242 
2068.000000	99.110077 
2067.000000	99.110380 
2066.000000	99.108499 
2065.000000	99.107170 
2064.000000	99.108280 
2063.000000	99.114236 
2062.000000	99.125372 
2061.000000	99.135338 
2060.000000	99.135771 
2059.000000	99.127867 
2058.000000	99.123228 
2057.000000	99.129854 
2056.000000	99.142725 
2055.000000	99.152427 
2054.000000	99.158081 
2053.000000	99.166113 
2052.000000	99.179487 
2051.000000	99.194012 
2050.000000	99.203998 
2049.000000	99.207409 
2048.000000	99.206352 
2047.000000	99.205601 
2046.000000	99.209837 
2045.000000	99.219027 
2044.000000	99.226934 
2043.000000	99.227090 
2042.000000	99.219847 
2041.000000	99.211562 
2040.000000	99.207736 
2039.000000	99.209132 
2038.000000	99.213182 
2037.000000	99.216075 
2036.000000	99.214146 
2035.000000	99.205820 
2034.000000	99.192690 
2033.000000	99.178867 
2032.000000	99.170552 
2031.000000	99.174809 
2030.000000	99.193861 
2029.000000	99.218716 
2028.000000	99.233235 
2027.000000	99.227674 
2026.000000	99.205541 
2025.000000	99.177495 
2024.000000	99.153779 
2023.000000	99.143096 
2022.000000	99.150672 
2021.000000	99.171181 
2020.000000	99.188883 
2019.000000	99.191798 
2018.000000	99.183485 
2017.000000	99.176573 
2016.000000	99.177491 
2015.000000	99.182745 
2014.000000	99.186860 
2013.000000	99.187066 
2012.000000	99.182871 
2011.000000	99.177321 
2010.000000	99.177341 
2009.000000	99.187232 
2008.000000	99.202083 
2007.000000	99.212389 
2006.000000	99.214331 
2005.000000	99.211260 
2004.000000	99.206693 
2003.000000	99.200775 
2002.000000	99.192556 
2001.000000	99.181169 
2000.000000	99.165485 
1999.000000	99.146392 
1998.000000	99.128750 
1997.000000	99.117785 
1996.000000	99.114231 
1995.000000	99.115800 
1994.000000	99.121793 
1993.000000	99.132334 
1992.000000	99.143341 
1991.000000	99.147218 
1990.000000	99.140686 
1989.000000	99.129129 
1988.000000	99.122370 
1987.000000	99.127363 
1986.000000	99.143783 
1985.000000	99.164934 
1984.000000	99.183356 
1983.000000	99.196509 
1982.000000	99.205998 
1981.000000	99.211609 
1980.000000	99.209973 
1979.000000	99.200912 
1978.000000	99.190856 
1977.000000	99.185257 
1976.000000	99.180518 
1975.000000	99.169498 
1974.000000	99.153403 
1973.000000	99.142105 
1972.000000	99.142533 
1971.000000	99.151508 
1970.000000	99.161113 
1969.000000	99.167393 
1968.000000	99.171793 
1967.000000	99.176136 
1966.000000	99.179006 
1965.000000	99.177465 
1964.000000	99.171050 
1963.000000	99.163295 
1962.000000	99.159447 
1961.000000	99.162344 
1960.000000	99.169783 
1959.000000	99.175736 
1958.000000	99.174507 
1957.000000	99.164781 
1956.000000	99.150442 
1955.000000	99.136792 
1954.000000	99.125305 
1953.000000	99.112863 
1952.000000	99.097214 
1951.000000	99.082278 
1950.000000	99.075776 
1949.000000	99.081083 
1948.000000	99.093076 
1947.000000	99.102803 
1946.000000	99.104498 
1945.000000	99.097855 
1944.000000	99.086302 
1943.000000	99.074903 
1942.000000	99.067842 
1941.000000	99.065462 
1940.000000	99.065062 
1939.000000	99.064683 
1938.000000	99.063997 
1937.000000	99.062380 
1936.000000	99.058728 
1935.000000	99.053454 
1934.000000	99.048879 
1933.000000	99.047021 
1932.000000	99.048083 
1931.000000	99.051768 
1930.000000	99.057943 
1929.000000	99.064556 
1928.000000	99.067154 
1927.000000	99.062881 
1926.000000	99.053205 
1925.000000	99.041175 
1924.000000	99.028911 
1923.000000	99.019583 
1922.000000	99.018448 
1921.000000	99.027626 
1920.000000	99.041913 
1919.000000	99.052546 
1918.000000	99.054355 
1917.000000	99.048714 
1916.000000	99.040344 
1915.000000	99.034021 
1914.000000	99.033779 
1913.000000	99.040723 
1912.000000	99.050481 
1911.000000	99.055604 
1910.000000	99.051768 
1909.000000	99.041085 
1908.000000	99.029891 
1907.000000	99.024680 
1906.000000	99.028805 
1905.000000	99.039530 
1904.000000	99.048649 
1903.000000	99.048637 
1902.000000	99.038420 
1901.000000	99.023070 
1900.000000	99.009868 
1899.000000	99.004847 
1898.000000	99.009605 
1897.000000	99.018904 
1896.000000	99.023915 
1895.000000	99.021200 
1894.000000	99.016490 
1893.000000	99.016319 
1892.000000	99.019518 
1891.000000	99.020535 
1890.000000	99.017972 
1889.000000	99.015613 
1888.000000	99.016005 
1887.000000	99.018522 
1886.000000	99.022711 
1885.000000	99.027927 
1884.000000	99.030436 
1883.000000	99.025608 
1882.000000	99.013918 
1881.000000	99.002069 
1880.000000	98.997203 
1879.000000	99.000767 
1878.000000	99.007686 
1877.000000	99.010574 
1876.000000	99.006124 
1875.000000	98.998898 
1874.000000	98.997462 
1873.000000	99.004990 
1872.000000	99.015238 
1871.000000	99.019296 
1870.000000	99.014680 
1869.000000	99.006090 
1868.000000	98.997249 
1867.000000	98.987415 
1866.000000	98.976735 
1865.000000	98.968006 
1864.000000	98.963882 
1863.000000	98.966108 
1862.000000	98.975713 
1861.000000	98.990856 
1860.000000	99.005334 
1859.000000	99.013420 
1858.000000	99.015851 
1857.000000	99.017510 
1856.000000	99.020477 
1855.000000	99.023199 
1854.000000	99.024414 
1853.000000	99.024346 
1852.000000	99.022667 
1851.000000	99.018175 
1850.000000	99.011583 
1849.000000	99.006068 
1848.000000	99.003961 
1847.000000	99.004617 
1846.000000	99.005967 
1845.000000	99.005921 
1844.000000	99.002725 
1843.000000	98.997804 
1842.000000	98.995948 
1841.000000	98.999914 
1840.000000	99.007492 
1839.000000	99.013821 
1838.000000	99.015902 
1837.000000	99.014821 
1836.000000	99.013443 
1835.000000	99.013407 
1834.000000	99.014444 
1833.000000	99.015807 
1832.000000	99.017216 
1831.000000	99.017942 
1830.000000	99.017058 
1829.000000	99.015284 
1828.000000	99.014763 
1827.000000	99.016054 
1826.000000	99.017624 
1825.000000	99.018547 
1824.000000	99.019376 
1823.000000	99.020556 
1822.000000	99.021336 
1821.000000	99.019862 
1820.000000	99.014481 
1819.000000	99.005885 
1818.000000	98.997986 
1817.000000	98.994775 
1816.000000	98.995831 
1815.000000	98.997550 
1814.000000	98.998625 
1813.000000	99.001669 
1812.000000	99.008938 
1811.000000	99.018297 
1810.000000	99.026229 
1809.000000	99.032277 
1808.000000	99.036533 
1807.000000	99.036668 
1806.000000	99.031107 
1805.000000	99.021934 
1804.000000	99.012714 
1803.000000	99.005067 
1802.000000	98.999710 
1801.000000	98.998844 
1800.000000	99.002308 
1799.000000	99.005724 
1798.000000	99.006425 
1797.000000	99.006281 
1796.000000	99.007990 
1795.000000	99.012217 
1794.000000	99.017896 
1793.000000	99.023344 
1792.000000	99.026825 
1791.000000	99.027349 
1790.000000	99.026019 
1789.000000	99.025374 
1788.000000	99.026754 
1787.000000	99.028815 
1786.000000	99.029091 
1785.000000	99.026316 
1784.000000	99.021312 
1783.000000	99.016421 
1782.000000	99.014072 
1781.000000	99.014743 
1780.000000	99.014978 
1779.000000	99.010811 
1778.000000	99.003605 
1777.000000	98.998936 
1776.000000	99.000776 
1775.000000	99.009282 
1774.000000	99.022320 
1773.000000	99.036161 
1772.000000	99.044918 
1771.000000	99.045070 
1770.000000	99.039283 
1769.000000	99.032391 
1768.000000	99.028231 
1767.000000	99.027467 
1766.000000	99.027882 
1765.000000	99.028233 
1764.000000	99.029316 
1763.000000	99.032197 
1762.000000	99.036427 
1761.000000	99.040376 
1760.000000	99.042791 
1759.000000	99.043336 
1758.000000	99.042275 
1757.000000	99.040530 
1756.000000	99.038879 
1755.000000	99.036255 
1754.000000	99.030341 
1753.000000	99.020660 
1752.000000	99.011879 
1751.000000	99.012344 
1750.000000	99.023725 
1749.000000	99.037331 
1748.000000	99.045075 
1747.000000	99.045583 
1746.000000	99.041346 
1745.000000	99.036019 
1744.000000	99.033765 
1743.000000	99.037073 
1742.000000	99.043751 
1741.000000	99.048964 
1740.000000	99.049635 
1739.000000	99.046646 
1738.000000	99.042314 
1737.000000	99.036975 
1736.000000	99.029225 
1735.000000	99.019426 
1734.000000	99.011971 
1733.000000	99.011538 
1732.000000	99.017749 
1731.000000	99.026722 
1730.000000	99.034479 
1729.000000	99.037756 
1728.000000	99.036655 
1727.000000	99.034018 
1726.000000	99.031947 
1725.000000	99.029613 
1724.000000	99.025924 
1723.000000	99.023402 
1722.000000	99.026199 
1721.000000	99.034860 
1720.000000	99.045177 
1719.000000	99.050792 
1718.000000	99.047304 
1717.000000	99.037670 
1716.000000	99.027826 
1715.000000	99.019588 
1714.000000	99.014252 
1713.000000	99.013071 
1712.000000	99.014425 
1711.000000	99.016023 
1710.000000	99.017022 
1709.000000	99.017383 
1708.000000	99.016462 
1707.000000	99.014219 
1706.000000	99.014158 
1705.000000	99.019663 
1704.000000	99.025731 
1703.000000	99.023280 
1702.000000	99.009729 
1701.000000	98.996258 
1700.000000	98.995943 
1699.000000	99.003016 
1698.000000	99.006711 
1697.000000	99.006540 
1696.000000	99.005676 
1695.000000	99.004982 
1694.000000	99.004440 
1693.000000	99.003294 
1692.000000	98.998759 
1691.000000	98.990358 
1690.000000	98.981996 
1689.000000	98.978346 
1688.000000	98.978689 
1687.000000	98.977969 
1686.000000	98.974246 
1685.000000	98.971577 
1684.000000	98.971793 
1683.000000	98.970855 
1682.000000	98.966766 
1681.000000	98.960288 
1680.000000	98.954839 
1679.000000	98.952825 
1678.000000	98.953005 
1677.000000	98.952602 
1676.000000	98.951190 
1675.000000	98.950580 
1674.000000	98.951161 
1673.000000	98.951843 
1672.000000	98.951931 
1671.000000	98.952390 
1670.000000	98.953796 
1669.000000	98.954189 
1668.000000	98.952975 
1667.000000	98.951488 
1666.000000	98.948859 
1665.000000	98.943372 
1664.000000	98.936283 
1663.000000	98.931782 
1662.000000	98.932288 
1661.000000	98.935677 
1660.000000	98.938469 
1659.000000	98.939743 
1658.000000	98.941005 
1657.000000	98.941150 
1656.000000	98.936738 
1655.000000	98.926187 
1654.000000	98.918269 
1653.000000	98.917062 
1652.000000	98.916156 
1651.000000	98.917412 
1650.000000	98.918351 
1649.000000	98.914180 
1648.000000	98.905632 
1647.000000	98.895201 
1646.000000	98.885546 
1645.000000	98.880072 
1644.000000	98.880252 
1643.000000	98.883895 
1642.000000	98.887950 
1641.000000	98.891406 
1640.000000	98.893770 
1639.000000	98.894327 
1638.000000	98.893114 
1637.000000	98.892355 
1636.000000	98.893272 
1635.000000	98.893910 
1634.000000	98.894729 
1633.000000	98.896424 
1632.000000	98.897303 
1631.000000	98.896614 
1630.000000	98.895303 
1629.000000	98.894489 
1628.000000	98.894882 
1627.000000	98.896838 
1626.000000	98.900387 
1625.000000	98.905564 
1624.000000	98.912410 
1623.000000	98.919758 
1622.000000	98.925286 
1621.000000	98.927537 
1620.000000	98.926421 
1619.000000	98.923277 
1618.000000	98.921501 
1617.000000	98.923067 
1616.000000	98.925451 
1615.000000	98.926248 
1614.000000	98.924823 
1613.000000	98.921243 
1612.000000	98.917958 
1611.000000	98.917624 
1610.000000	98.919633 
1609.000000	98.921191 
1608.000000	98.921290 
1607.000000	98.921162 
1606.000000	98.921289 
1605.000000	98.921798 
1604.000000	98.924112 
1603.000000	98.929422 
1602.000000	98.935737 
1601.000000	98.939227 
1600.000000	98.939458 
1599.000000	98.940096 
1598.000000	98.943763 
1597.000000	98.949263 
1596.000000	98.954532 
1595.000000	98.959623 
1594.000000	98.965073 
1593.000000	98.969502 
1592.000000	98.971542 
1591.000000	98.972526 
1590.000000	98.974667 
1589.000000	98.977772 
1588.000000	98.980324 
1587.000000	98.982599 
1586.000000	98.985141 
1585.000000	98.986190 
1584.000000	98.983769 
1583.000000	98.978962 
1582.000000	98.975657 
1581.000000	98.976108 
1580.000000	98.978665 
1579.000000	98.980593 
1578.000000	98.981648 
1577.000000	98.983214 
1576.000000	98.984869 
1575.000000	98.987031 
1574.000000	98.990856 
1573.000000	98.993543 
1572.000000	98.992458 
1571.000000	98.990257 
1570.000000	98.991674 
1569.000000	98.996278 
1568.000000	98.999771 
1567.000000	98.999990 
1566.000000	98.997953 
1565.000000	98.996286 
1564.000000	98.998075 
1563.000000	99.002497 
1562.000000	99.006834 
1561.000000	99.007840 
1560.000000	99.006741 
1559.000000	99.004751 
1558.000000	98.999542 
1557.000000	98.995870 
1556.000000	98.995388 
1555.000000	98.995549 
1554.000000	98.994027 
1553.000000	98.991353 
1552.000000	98.988816 
1551.000000	98.988551 
1550.000000	98.991966 
1549.000000	98.997345 
1548.000000	99.000369 
1547.000000	98.998222 
1546.000000	98.991129 
1545.000000	98.982672 
1544.000000	98.976920 
1543.000000	98.974450 
1542.000000	98.974436 
1541.000000	98.977283 
1540.000000	98.977243 
1539.000000	98.970100 
1538.000000	98.964090 
1537.000000	98.963130 
1536.000000	98.962959 
1535.000000	98.961340 
1534.000000	98.960363 
1533.000000	98.960864 
1532.000000	98.959208 
1531.000000	98.953186 
1530.000000	98.946331 
1529.000000	98.943195 
1528.000000	98.943928 
1527.000000	98.945164 
1526.000000	98.944877 
1525.000000	98.944173 
1524.000000	98.943946 
1523.000000	98.943942 
1522.000000	98.945413 
1521.000000	98.948280 
1520.000000	98.948023 
1519.000000	98.941307 
1518.000000	98.930116 
1517.000000	98.919661 
1516.000000	98.912944 
1515.000000	98.908635 
1514.000000	98.905164 
1513.000000	98.902742 
1512.000000	98.901703 
1511.000000	98.900211 
1510.000000	98.895886 
1509.000000	98.889060 
1508.000000	98.887206 
1507.000000	98.896989 
1506.000000	98.906483 
1505.000000	98.905485 
1504.000000	98.900131 
1503.000000	98.895349 
1502.000000	98.892304 
1501.000000	98.892693 
1500.000000	98.896239 
1499.000000	98.900601 
1498.000000	98.902894 
1497.000000	98.904298 
1496.000000	98.906678 
1495.000000	98.907200 
1494.000000	98.902084 
1493.000000	98.891366 
1492.000000	98.877774 
1491.000000	98.865259 
1490.000000	98.857229 
1489.000000	98.854078 
1488.000000	98.851623 
1487.000000	98.846837 
1486.000000	98.842494 
1485.000000	98.841170 
1484.000000	98.841650 
1483.000000	98.840947 
1482.000000	98.836964 
1481.000000	98.830316 
1480.000000	98.823426 
1479.000000	98.818086 
1478.000000	98.814730 
1477.000000	98.813021 
1476.000000	98.811794 
1475.000000	98.809039 
1474.000000	98.805323 
1473.000000	98.805426 
1472.000000	98.810344 
1471.000000	98.813841 
1470.000000	98.812759 
1469.000000	98.810403 
1468.000000	98.810228 
1467.000000	98.812099 
1466.000000	98.813621 
1465.000000	98.813365 
1464.000000	98.811421 
1463.000000	98.808430 
1462.000000	98.805364 
1461.000000	98.803121 
1460.000000	98.801397 
1459.000000	98.798059 
1458.000000	98.789551 
1457.000000	98.775820 
1456.000000	98.763297 
1455.000000	98.755961 
1454.000000	98.751977 
1453.000000	98.749799 
1452.000000	98.748492 
1451.000000	98.747483 
1450.000000	98.747462 
1449.000000	98.750694 
1448.000000	98.757077 
1447.000000	98.762128 
1446.000000	98.762597 
1445.000000	98.760883 
1444.000000	98.759948 
1443.000000	98.759047 
1442.000000	98.756563 
1441.000000	98.753637 
1440.000000	98.753085 
1439.000000	98.755502 
1438.000000	98.757604 
1437.000000	98.755657 
1436.000000	98.749974 
1435.000000	98.742668 
1434.000000	98.735316 
1433.000000	98.730395 
1432.000000	98.730004 
1431.000000	98.733835 
1430.000000	98.738129 
1429.000000	98.739149 
1428.000000	98.737031 
1427.000000	98.733870 
1426.000000	98.730458 
1425.000000	98.726468 
1424.000000	98.723120 
1423.000000	98.721264 
1422.000000	98.718115 
1421.000000	98.710385 
1420.000000	98.698755 
1419.000000	98.687137 
1418.000000	98.675917 
1417.000000	98.662798 
1416.000000	98.649135 
1415.000000	98.637287 
1414.000000	98.626006 
1413.000000	98.612342 
1412.000000	98.596785 
1411.000000	98.583457 
1410.000000	98.574246 
1409.000000	98.568035 
1408.000000	98.564482 
1407.000000	98.564114 
1406.000000	98.566429 
1405.000000	98.571668 
1404.000000	98.582284 
1403.000000	98.597874 
1402.000000	98.613361 
1401.000000	98.625447 
1400.000000	98.636078 
1399.000000	98.647288 
1398.000000	98.652975 
1397.000000	98.642751 
1396.000000	98.615271 
1395.000000	98.585537 
1394.000000	98.574868 
1393.000000	98.591144 
1392.000000	98.625858 
1391.000000	98.664629 
1390.000000	98.695216 
1389.000000	98.711345 
1388.000000	98.713708 
1387.000000	98.708010 
1386.000000	98.700037 
1385.000000	98.693377 
1384.000000	98.690352 
1383.000000	98.691612 
1382.000000	98.695749 
1381.000000	98.701631 
1380.000000	98.709698 
1379.000000	98.720293 
1378.000000	98.731506 
1377.000000	98.740254 
1376.000000	98.746076 
1375.000000	98.752717 
1374.000000	98.764101 
1373.000000	98.778776 
1372.000000	98.791704 
1371.000000	98.801428 
1370.000000	98.811154 
1369.000000	98.823222 
1368.000000	98.836971 
1367.000000	98.850381 
1366.000000	98.861972 
1365.000000	98.871008 
1364.000000	98.876519 
1363.000000	98.878699 
1362.000000	98.880444 
1361.000000	98.884510 
1360.000000	98.890807 
1359.000000	98.898277 
1358.000000	98.906859 
1357.000000	98.916415 
1356.000000	98.925328 
1355.000000	98.931652 
1354.000000	98.935339 
1353.000000	98.937994 
1352.000000	98.939679 
1351.000000	98.939223 
1350.000000	98.937791 
1349.000000	98.937694 
1348.000000	98.939749 
1347.000000	98.943216 
1346.000000	98.947745 
1345.000000	98.953267 
1344.000000	98.958493 
1343.000000	98.961544 
1342.000000	98.962001 
1341.000000	98.960817 
1340.000000	98.958752 
1339.000000	98.956272 
1338.000000	98.954230 
1337.000000	98.953682 
1336.000000	98.954978 
1335.000000	98.957591 
1334.000000	98.961231 
1333.000000	98.965957 
1332.000000	98.970681 
1331.000000	98.973368 
1330.000000	98.973228 
1329.000000	98.971481 
1328.000000	98.969794 
1327.000000	98.969130 
1326.000000	98.969740 
1325.000000	98.970752 
1324.000000	98.971146 
1323.000000	98.970766 
1322.000000	98.969961 
1321.000000	98.968612 
1320.000000	98.966364 
1319.000000	98.963793 
1318.000000	98.962328 
1317.000000	98.962618 
1316.000000	98.963430 
1315.000000	98.962773 
1314.000000	98.960008 
1313.000000	98.956753 
1312.000000	98.955430 
1311.000000	98.957126 
1310.000000	98.960970 
1309.000000	98.965119 
1308.000000	98.967725 
1307.000000	98.967489 
1306.000000	98.964356 
1305.000000	98.959772 
1304.000000	98.956519 
1303.000000	98.956880 
1302.000000	98.960596 
1301.000000	98.964790 
1300.000000	98.966199 
1299.000000	98.963508 
1298.000000	98.957873 
1297.000000	98.951720 
1296.000000	98.947119 
1295.000000	98.945169 
1294.000000	98.945957 
1293.000000	98.948527 
1292.000000	98.950802 
1291.000000	98.950215 
1290.000000	98.945635 
1289.000000	98.938824 
1288.000000	98.932942 
1287.000000	98.929088 
1286.000000	98.925077 
1285.000000	98.918567 
1284.000000	98.910584 
1283.000000	98.904518 
1282.000000	98.902092 
1281.000000	98.901715 
1280.000000	98.900708 
1279.000000	98.897670 
1278.000000	98.892235 
1277.000000	98.884223 
1276.000000	98.874076 
1275.000000	98.863622 
1274.000000	98.855128 
1273.000000	98.849571 
1272.000000	98.846170 
1271.000000	98.843053 
1270.000000	98.838086 
1269.000000	98.829980 
1268.000000	98.819459 
1267.000000	98.808675 
1266.000000	98.798749 
1265.000000	98.788857 
1264.000000	98.778176 
1263.000000	98.767300 
1262.000000	98.756964 
1261.000000	98.746810 
1260.000000	98.736808 
1259.000000	98.728614 
1258.000000	98.723564 
1257.000000	98.720379 
1256.000000	98.716532 
1255.000000	98.711187 
1254.000000	98.705223 
1253.000000	98.698976 
1252.000000	98.691955 
1251.000000	98.684934 
1250.000000	98.680428 
1249.000000	98.680487 
1248.000000	98.685136 
1247.000000	98.692546 
1246.000000	98.698807 
1245.000000	98.698060 
1244.000000	98.686137 
1243.000000	98.666168 
1242.000000	98.648912 
1241.000000	98.644674 
1240.000000	98.654340 
1239.000000	98.668875 
1238.000000	98.677291 
1237.000000	98.674561 
1236.000000	98.662644 
1235.000000	98.646161 
1234.000000	98.628504 
1233.000000	98.611275 
1232.000000	98.595547 
1231.000000	98.582069 
1230.000000	98.570265 
1229.000000	98.558429 
1228.000000	98.545946 
1227.000000	98.534748 
1226.000000	98.527307 
1225.000000	98.523050 
1224.000000	98.517925 
1223.000000	98.508144 
1222.000000	98.493699 
1221.000000	98.477543 
1220.000000	98.462073 
1219.000000	98.447408 
1218.000000	98.432454 
1217.000000	98.416180 
1216.000000	98.397504 
1215.000000	98.375257 
1214.000000	98.349505 
1213.000000	98.322495 
1212.000000	98.296958 
1211.000000	98.273063 
1210.000000	98.248104 
1209.000000	98.219835 
1208.000000	98.189116 
1207.000000	98.158409 
1206.000000	98.128710 
1205.000000	98.099345 
1204.000000	98.070045 
1203.000000	98.041247 
1202.000000	98.012252 
1201.000000	97.981121 
1200.000000	97.947330 
1199.000000	97.913121 
1198.000000	97.881117 
1197.000000	97.851672 
1196.000000	97.823351 
1195.000000	97.794734 
1194.000000	97.764683 
1193.000000	97.731871 
1192.000000	97.695648 
1191.000000	97.657352 
1190.000000	97.619935 
1189.000000	97.586249 
1188.000000	97.557438 
1187.000000	97.531858 
1186.000000	97.505143 
1185.000000	97.472719 
1184.000000	97.433199 
1183.000000	97.388939 
1182.000000	97.343254 
1181.000000	97.298058 
1180.000000	97.254126 
1179.000000	97.211695 
1178.000000	97.169652 
1177.000000	97.125640 
1176.000000	97.078471 
1175.000000	97.029686 
1174.000000	96.981781 
1173.000000	96.935617 
1172.000000	96.890417 
1171.000000	96.845205 
1170.000000	96.799263 
1169.000000	96.752175 
1168.000000	96.704543 
1167.000000	96.658204 
1166.000000	96.615616 
1165.000000	96.580292 
1164.000000	96.557787 
1163.000000	96.553513 
1162.000000	96.567706 
1161.000000	96.593542 
1160.000000	96.621128 
1159.000000	96.642534 
1158.000000	96.653143 
1157.000000	96.650487 
1156.000000	96.633605 
1155.000000	96.603231 
1154.000000	96.561730 
1153.000000	96.512832 
1152.000000	96.461197 
1151.000000	96.410957 
1150.000000	96.363848 
1149.000000	96.319257 
1148.000000	96.276018 
1147.000000	96.233072 
1146.000000	96.188764 
1145.000000	96.141595 
1144.000000	96.092225 
1143.000000	96.043204 
1142.000000	95.996170 
1141.000000	95.950575 
1140.000000	95.905149 
1139.000000	95.858799 
1138.000000	95.810094 
1137.000000	95.758136 
1136.000000	95.704368 
1135.000000	95.651463 
1134.000000	95.600006 
1133.000000	95.548160 
1132.000000	95.494564 
1131.000000	95.439231 
1130.000000	95.381792 
1129.000000	95.321756 
1128.000000	95.260669 
1127.000000	95.200864 
1126.000000	95.141658 
1125.000000	95.080022 
1124.000000	95.015431 
1123.000000	94.950453 
1122.000000	94.885788 
1121.000000	94.818759 
1120.000000	94.748268 
1119.000000	94.677464 
1118.000000	94.609518 
1117.000000	94.544091 
1116.000000	94.479939 
1115.000000	94.417764 
1114.000000	94.358232 
1113.000000	94.299956 
1112.000000	94.241676 
1111.000000	94.184461 
1110.000000	94.130070 
1109.000000	94.078753 
1108.000000	94.029327 
1107.000000	93.979279 
1106.000000	93.925313 
1105.000000	93.866736 
1104.000000	93.807553 
1103.000000	93.752095 
1102.000000	93.699305 
1101.000000	93.645900 
1100.000000	93.593558 
1099.000000	93.546699 
1098.000000	93.504977 
1097.000000	93.462856 
1096.000000	93.417762 
1095.000000	93.371832 
1094.000000	93.324948 
1093.000000	93.272775 
1092.000000	93.213728 
1091.000000	93.151591 
1090.000000	93.088751 
1089.000000	93.022657 
1088.000000	92.951901 
1087.000000	92.880533 
1086.000000	92.813224 
1085.000000	92.750554 
1084.000000	92.691329 
1083.000000	92.634829 
1082.000000	92.578685 
1081.000000	92.519478 
1080.000000	92.457717 
1079.000000	92.397911 
1078.000000	92.342242 
1077.000000	92.288829 
1076.000000	92.237070 
1075.000000	92.188919 
1074.000000	92.143518 
1073.000000	92.096033 
1072.000000	92.042069 
1071.000000	91.976618 
1070.000000	91.889338 
1069.000000	91.771369 
1068.000000	91.631132 
1067.000000	91.495129 
1066.000000	91.386430 
1065.000000	91.306305 
1064.000000	91.239529 
1063.000000	91.169846 
1062.000000	91.085629 
1061.000000	90.979494 
1060.000000	90.852552 
1059.000000	90.717653 
1058.000000	90.591732 
1057.000000	90.483253 
1056.000000	90.387450 
1055.000000	90.290893 
1054.000000	90.180373 
1053.000000	90.052600 
1052.000000	89.917226 
1051.000000	89.786275 
1050.000000	89.660436 
1049.000000	89.531824 
1048.000000	89.398527 
1047.000000	89.266363 
1046.000000	89.136749 
1045.000000	89.004088 
1044.000000	88.867031 
1043.000000	88.732528 
1042.000000	88.605422 
1041.000000	88.482096 
1040.000000	88.358418 
1039.000000	88.237414 
1038.000000	88.125523 
1037.000000	88.027070 
1036.000000	87.944915 
1035.000000	87.880323 
1034.000000	87.829385 
1033.000000	87.784237 
1032.000000	87.738412 
1031.000000	87.686991 
1030.000000	87.625420 
1029.000000	87.557261 
1028.000000	87.500637 
1027.000000	87.474923 
1026.000000	87.478973 
1025.000000	87.491775 
1024.000000	87.495181 
1023.000000	87.486332 
1022.000000	87.468558 
1021.000000	87.442950 
1020.000000	87.412271 
1019.000000	87.382339 
1018.000000	87.354652 
1017.000000	87.325305 
1016.000000	87.293816 
1015.000000	87.265011 
1014.000000	87.240261 
1013.000000	87.215392 
1012.000000	87.189367 
1011.000000	87.166622 
1010.000000	87.148967 
1009.000000	87.133668 
1008.000000	87.121091 
1007.000000	87.115482 
1006.000000	87.116709 
1005.000000	87.120309 
1004.000000	87.127224 
1003.000000	87.144011 
1002.000000	87.171452 
1001.000000	87.202418 
1000.000000	87.233134 
999.000000	 87.267020 
998.000000	 87.304934 
997.000000	 87.341373 
996.000000	 87.374046 
995.000000	 87.408896 
994.000000	 87.451751 
993.000000	 87.501648 
992.000000	 87.554810 
991.000000	 87.608597 
990.000000	 87.660144 
989.000000	 87.708295 
988.000000	 87.758122 
987.000000	 87.816636 
986.000000	 87.883594 
985.000000	 87.953944 
984.000000	 88.028877 
983.000000	 88.115402 
982.000000	 88.214669 
981.000000	 88.320166 
980.000000	 88.428426 
979.000000	 88.542074 
978.000000	 88.661282 
977.000000	 88.782139 
976.000000	 88.905407 
975.000000	 89.037227 
974.000000	 89.178380 
973.000000	 89.321634 
972.000000	 89.462417 
971.000000	 89.603605 
970.000000	 89.747046 
969.000000	 89.888923 
968.000000	 90.027056 
967.000000	 90.164847 
966.000000	 90.303757 
965.000000	 90.438645 
964.000000	 90.564957 
963.000000	 90.685021 
962.000000	 90.803232 
961.000000	 90.919722 
960.000000	 91.032272 
959.000000	 91.140187 
958.000000	 91.243038 
957.000000	 91.339319 
956.000000	 91.429437 
955.000000	 91.517048 
954.000000	 91.604877 
953.000000	 91.691322 
952.000000	 91.772461 
951.000000	 91.845240 
950.000000	 91.908587 
949.000000	 91.964267 
948.000000	 92.016593 
947.000000	 92.068250 
946.000000	 92.116820 
945.000000	 92.158843 
944.000000	 92.196002 
943.000000	 92.232582 
942.000000	 92.267791 
941.000000	 92.296480 
940.000000	 92.317843 
939.000000	 92.337694 
938.000000	 92.360988 
937.000000	 92.387082 
936.000000	 92.413539 
935.000000	 92.439554 
934.000000	 92.464241 
933.000000	 92.486396 
932.000000	 92.507749 
931.000000	 92.532394 
930.000000	 92.561723 
929.000000	 92.593597 
928.000000	 92.626747 
927.000000	 92.661387 
926.000000	 92.695030 
925.000000	 92.722755 
924.000000	 92.742640 
923.000000	 92.756372 
922.000000	 92.763914 
921.000000	 92.762695 
920.000000	 92.753370 
919.000000	 92.741509 
918.000000	 92.731855 
917.000000	 92.725169 
916.000000	 92.721921 
915.000000	 92.724475 
914.000000	 92.734224 
913.000000	 92.751160 
912.000000	 92.777462 
911.000000	 92.816681 
910.000000	 92.868067 
909.000000	 92.926611 
908.000000	 92.989888 
907.000000	 93.059829 
906.000000	 93.136881 
905.000000	 93.218218 
904.000000	 93.303671 
903.000000	 93.398036 
902.000000	 93.504635 
901.000000	 93.620254 
900.000000	 93.738451 
899.000000	 93.854594 
898.000000	 93.966149 
897.000000	 94.071039 
896.000000	 94.167420 
895.000000	 94.254194 
894.000000	 94.332395 
893.000000	 94.407422 
892.000000	 94.487428 
891.000000	 94.575732 
890.000000	 94.666198 
889.000000	 94.749991 
888.000000	 94.825193 
887.000000	 94.895033 
886.000000	 94.958494 
885.000000	 95.009506 
884.000000	 95.046513 
883.000000	 95.077063 
882.000000	 95.110410 
881.000000	 95.149694 
880.000000	 95.193627 
879.000000	 95.241377 
878.000000	 95.291891 
877.000000	 95.340828 
876.000000	 95.382127 
875.000000	 95.413094 
874.000000	 95.437381 
873.000000	 95.463425 
872.000000	 95.499528 
871.000000	 95.548408 
870.000000	 95.605506 
869.000000	 95.663159 
868.000000	 95.716378 
867.000000	 95.764721 
866.000000	 95.810770 
865.000000	 95.858235 
864.000000	 95.909847 
863.000000	 95.965187 
862.000000	 96.021247 
861.000000	 96.075725 
860.000000	 96.128067 
859.000000	 96.177418 
858.000000	 96.223232 
857.000000	 96.268721 
856.000000	 96.318684 
855.000000	 96.371127 
854.000000	 96.415948 
853.000000	 96.446274 
852.000000	 96.467051 
851.000000	 96.487534 
850.000000	 96.509129 
849.000000	 96.526786 
848.000000	 96.539463 
847.000000	 96.551502 
846.000000	 96.564236 
845.000000	 96.573810 
844.000000	 96.578756 
843.000000	 96.582952 
842.000000	 96.587769 
841.000000	 96.586334 
840.000000	 96.570371 
839.000000	 96.540770 
838.000000	 96.507445 
837.000000	 96.478569 
836.000000	 96.452466 
835.000000	 96.421682 
834.000000	 96.384466 
833.000000	 96.349650 
832.000000	 96.327321 
831.000000	 96.316044 
830.000000	 96.305334 
829.000000	 96.293066 
828.000000	 96.292729 
827.000000	 96.315717 
826.000000	 96.351966 
825.000000	 96.379743 
824.000000	 96.392619 
823.000000	 96.403836 
822.000000	 96.423652 
821.000000	 96.445985 
820.000000	 96.460382 
819.000000	 96.465378 
818.000000	 96.465600 
817.000000	 96.463466 
816.000000	 96.457785 
815.000000	 96.445262 
814.000000	 96.419692 
813.000000	 96.373488 
812.000000	 96.303531 
811.000000	 96.213254 
810.000000	 96.106600 
809.000000	 95.982050 
808.000000	 95.834267 
807.000000	 95.659106 
806.000000	 95.456102 
805.000000	 95.230231 
804.000000	 94.994444 
803.000000	 94.767541 
802.000000	 94.565742 
801.000000	 94.397731 
800.000000	 94.268543 
799.000000	 94.183155 
798.000000	 94.143426 
797.000000	 94.145309 
796.000000	 94.180845 
795.000000	 94.239844 
794.000000	 94.310740 
793.000000	 94.384666 
792.000000	 94.457351 
791.000000	 94.522447 
790.000000	 94.566809 
789.000000	 94.580421 
788.000000	 94.568936 
787.000000	 94.547380 
786.000000	 94.521262 
785.000000	 94.482156 
784.000000	 94.422846 
783.000000	 94.348229 
782.000000	 94.269330 
781.000000	 94.195464 
780.000000	 94.135711 
779.000000	 94.099570 
778.000000	 94.091040 
777.000000	 94.108012 
776.000000	 94.149795 
775.000000	 94.217245 
774.000000	 94.302757 
773.000000	 94.389429 
772.000000	 94.465061 
771.000000	 94.529671 
770.000000	 94.585071 
769.000000	 94.625313 
768.000000	 94.644420 
767.000000	 94.647847 
766.000000	 94.648486 
765.000000	 94.653671 
764.000000	 94.661504 
763.000000	 94.667164 
762.000000	 94.667741 
761.000000	 94.663357 
760.000000	 94.658491 
759.000000	 94.660536 
758.000000	 94.672645 
757.000000	 94.689272 
756.000000	 94.702348 
755.000000	 94.710829 
754.000000	 94.721355 
753.000000	 94.740575 
752.000000	 94.769511 
751.000000	 94.804178 
750.000000	 94.839027 
749.000000	 94.869750 
748.000000	 94.894586 
747.000000	 94.914626 
746.000000	 94.934105 
745.000000	 94.959468 
744.000000	 94.994380 
743.000000	 95.033994 
742.000000	 95.068277 
741.000000	 95.094535 
740.000000	 95.122925 
739.000000	 95.165140 
738.000000	 95.220762 
737.000000	 95.279698 
736.000000	 95.334468 
735.000000	 95.383865 
734.000000	 95.427881 
733.000000	 95.466636 
732.000000	 95.502435 
731.000000	 95.534914 
730.000000	 95.555870 
729.000000	 95.558014 
728.000000	 95.548605 
727.000000	 95.544643 
726.000000	 95.553063 
725.000000	 95.565613 
724.000000	 95.575390 
723.000000	 95.587605 
722.000000	 95.609054 
721.000000	 95.635975 
720.000000	 95.659052 
719.000000	 95.674588 
718.000000	 95.684604 
717.000000	 95.691083 
716.000000	 95.696170 
715.000000	 95.703667 
714.000000	 95.714430 
713.000000	 95.723067 
712.000000	 95.723917 
711.000000	 95.718043 
710.000000	 95.710977 
709.000000	 95.705598 
708.000000	 95.699852 
707.000000	 95.689362 
706.000000	 95.670332 
705.000000	 95.642863 
704.000000	 95.611491 
703.000000	 95.578068 
702.000000	 95.534442 
701.000000	 95.467789 
700.000000	 95.373308 
699.000000	 95.256968 
698.000000	 95.126924 
697.000000	 94.990993 
696.000000	 94.864244 
695.000000	 94.769110 
694.000000	 94.723191 
693.000000	 94.730623 
692.000000	 94.783587 
691.000000	 94.863724 
690.000000	 94.944054 
689.000000	 95.003794 
688.000000	 95.045895 
687.000000	 95.088904 
686.000000	 95.138344 
685.000000	 95.179436 
684.000000	 95.200603 
683.000000	 95.208737 
682.000000	 95.216580 
681.000000	 95.229335 
680.000000	 95.249363 
679.000000	 95.279484 
678.000000	 95.311515 
677.000000	 95.325923 
676.000000	 95.318577 
675.000000	 95.313371 
674.000000	 95.334708 
673.000000	 95.377416 
672.000000	 95.416820 
671.000000	 95.440451 
670.000000	 95.456274 
669.000000	 95.472246 
668.000000	 95.476747 
667.000000	 95.469869 
666.000000	 95.480007 
665.000000	 95.510179 
664.000000	 95.542854 
663.000000	 95.565231 
662.000000	 95.575078 
661.000000	 95.577910 
660.000000	 95.581798 
659.000000	 95.590372 
658.000000	 95.594959 
657.000000	 95.576993 
656.000000	 95.528303 
655.000000	 95.464948 
654.000000	 95.412770 
653.000000	 95.379696 
652.000000	 95.352034 
651.000000	 95.318627 
650.000000	 95.289507 

