4000.000000	99.298020 
3999.000000	99.297848 
3998.000000	99.297663 
3997.000000	99.297111 
3996.000000	99.296038 
3995.000000	99.294732 
3994.000000	99.293746 
3993.000000	99.293430 
3992.000000	99.293659 
3991.000000	99.293944 
3990.000000	99.293866 
3989.000000	99.293454 
3988.000000	99.293153 
3987.000000	99.293442 
3986.000000	99.294422 
3985.000000	99.295680 
3984.000000	99.296503 
3983.000000	99.296345 
3982.000000	99.295165 
3981.000000	99.293398 
3980.000000	99.291564 
3979.000000	99.289899 
3978.000000	99.288442 
3977.000000	99.287386 
3976.000000	99.287132 
3975.000000	99.287946 
3974.000000	99.289670 
3973.000000	99.291705 
3972.000000	99.293281 
3971.000000	99.293899 
3970.000000	99.293509 
3969.000000	99.292403 
3968.000000	99.291001 
3967.000000	99.289647 
3966.000000	99.288569 
3965.000000	99.287943 
3964.000000	99.287789 
3963.000000	99.287791 
3962.000000	99.287412 
3961.000000	99.286324 
3960.000000	99.284680 
3959.000000	99.282996 
3958.000000	99.281771 
3957.000000	99.281130 
3956.000000	99.280880 
3955.000000	99.280784 
3954.000000	99.280740 
3953.000000	99.280700 
3952.000000	99.280536 
3951.000000	99.280202 
3950.000000	99.279924 
3949.000000	99.280058 
3948.000000	99.280699 
3947.000000	99.281511 
3946.000000	99.282098 
3945.000000	99.282428 
3944.000000	99.282775 
3943.000000	99.283178 
3942.000000	99.283278 
3941.000000	99.282775 
3940.000000	99.281772 
3939.000000	99.280560 
3938.000000	99.279355 
3937.000000	99.278320 
3936.000000	99.277775 
3935.000000	99.278140 
3934.000000	99.279632 
3933.000000	99.281999 
3932.000000	99.284460 
3931.000000	99.286040 
3930.000000	99.286170 
3929.000000	99.285030 
3928.000000	99.283467 
3927.000000	99.282456 
3926.000000	99.282536 
3925.000000	99.283517 
3924.000000	99.284554 
3923.000000	99.284874 
3922.000000	99.284432 
3921.000000	99.283863 
3920.000000	99.283868 
3919.000000	99.284690 
3918.000000	99.286080 
3917.000000	99.287565 
3916.000000	99.288724 
3915.000000	99.289372 
3914.000000	99.289663 
3913.000000	99.289923 
3912.000000	99.290294 
3911.000000	99.290674 
3910.000000	99.291007 
3909.000000	99.291436 
3908.000000	99.292043 
3907.000000	99.292463 
3906.000000	99.291969 
3905.000000	99.290102 
3904.000000	99.287075 
3903.000000	99.283786 
3902.000000	99.281394 
3901.000000	99.280630 
3900.000000	99.281497 
3899.000000	99.283267 
3898.000000	99.284905 
3897.000000	99.285798 
3896.000000	99.285863 
3895.000000	99.285236 
3894.000000	99.284138 
3893.000000	99.282900 
3892.000000	99.281896 
3891.000000	99.281233 
3890.000000	99.280677 
3889.000000	99.279967 
3888.000000	99.279136 
3887.000000	99.278611 
3886.000000	99.278766 
3885.000000	99.279348 
3884.000000	99.279716 
3883.000000	99.279669 
3882.000000	99.279629 
3881.000000	99.279998 
3880.000000	99.280607 
3879.000000	99.280910 
3878.000000	99.280693 
3877.000000	99.280225 
3876.000000	99.279911 
3875.000000	99.279875 
3874.000000	99.279871 
3873.000000	99.279628 
3872.000000	99.279230 
3871.000000	99.279022 
3870.000000	99.279158 
3869.000000	99.279469 
3868.000000	99.279721 
3867.000000	99.279877 
3866.000000	99.280030 
3865.000000	99.280235 
3864.000000	99.280473 
3863.000000	99.280727 
3862.000000	99.280999 
3861.000000	99.281303 
3860.000000	99.281640 
3859.000000	99.282000 
3858.000000	99.282365 
3857.000000	99.282723 
3856.000000	99.283068 
3855.000000	99.283408 
3854.000000	99.283768 
3853.000000	99.284163 
3852.000000	99.284588 
3851.000000	99.285031 
3850.000000	99.285483 
3849.000000	99.285941 
3848.000000	99.286402 
3847.000000	99.286857 
3846.000000	99.287296 
3845.000000	99.287716 
3844.000000	99.288133 
3843.000000	99.288580 
3842.000000	99.289079 
3841.000000	99.289596 
3840.000000	99.290048 
3839.000000	99.290368 
3838.000000	99.290556 
3837.000000	99.290702 
3836.000000	99.290916 
3835.000000	99.291255 
3834.000000	99.291725 
3833.000000	99.292327 
3832.000000	99.293057 
3831.000000	99.293838 
3830.000000	99.294498 
3829.000000	99.294891 
3828.000000	99.295018 
3827.000000	99.295060 
3826.000000	99.295248 
3825.000000	99.295620 
3824.000000	99.296004 
3823.000000	99.296310 
3822.000000	99.296680 
3821.000000	99.297246 
3820.000000	99.297828 
3819.000000	99.298133 
3818.000000	99.298074 
3817.000000	99.297847 
3816.000000	99.297690 
3815.000000	99.297503 
3814.000000	99.297035 
3813.000000	99.296427 
3812.000000	99.296197 
3811.000000	99.296631 
3810.000000	99.297453 
3809.000000	99.298096 
3808.000000	99.298304 
3807.000000	99.298252 
3806.000000	99.298073 
3805.000000	99.297593 
3804.000000	99.296771 
3803.000000	99.296015 
3802.000000	99.295808 
3801.000000	99.296052 
3800.000000	99.296100 
3799.000000	99.295554 
3798.000000	99.294629 
3797.000000	99.293854 
3796.000000	99.293502 
3795.000000	99.293399 
3794.000000	99.293217 
3793.000000	99.292840 
3792.000000	99.292407 
3791.000000	99.292122 
3790.000000	99.292101 
3789.000000	99.292340 
3788.000000	99.292743 
3787.000000	99.293121 
3786.000000	99.293307 
3785.000000	99.293285 
3784.000000	99.293173 
3783.000000	99.293005 
3782.000000	99.292672 
3781.000000	99.292166 
3780.000000	99.291723 
3779.000000	99.291578 
3778.000000	99.291669 
3777.000000	99.291709 
3776.000000	99.291475 
3775.000000	99.291031 
3774.000000	99.290586 
3773.000000	99.290273 
3772.000000	99.290175 
3771.000000	99.290339 
3770.000000	99.290449 
3769.000000	99.289901 
3768.000000	99.288670 
3767.000000	99.287660 
3766.000000	99.287816 
3765.000000	99.289022 
3764.000000	99.289991 
3763.000000	99.289429 
3762.000000	99.287256 
3761.000000	99.284660 
3760.000000	99.282964 
3759.000000	99.282594 
3758.000000	99.283388 
3757.000000	99.285333 
3756.000000	99.288179 
3755.000000	99.291181 
3754.000000	99.293788 
3753.000000	99.296358 
3752.000000	99.299357 
3751.000000	99.301645 
3750.000000	99.301642 
3749.000000	99.299748 
3748.000000	99.296988 
3747.000000	99.293471 
3746.000000	99.289723 
3745.000000	99.287620 
3744.000000	99.287747 
3743.000000	99.287669 
3742.000000	99.285255 
3741.000000	99.280997 
3740.000000	99.276351 
3739.000000	99.271925 
3738.000000	99.268193 
3737.000000	99.266759 
3736.000000	99.268403 
3735.000000	99.270436 
3734.000000	99.268978 
3733.000000	99.264316 
3732.000000	99.260510 
3731.000000	99.260194 
3730.000000	99.262407 
3729.000000	99.264832 
3728.000000	99.266591 
3727.000000	99.268127 
3726.000000	99.269304 
3725.000000	99.269428 
3724.000000	99.268963 
3723.000000	99.269561 
3722.000000	99.271565 
3721.000000	99.273199 
3720.000000	99.272267 
3719.000000	99.268059 
3718.000000	99.262035 
3717.000000	99.256483 
3716.000000	99.252104 
3715.000000	99.247919 
3714.000000	99.243217 
3713.000000	99.238900 
3712.000000	99.236060 
3711.000000	99.234122 
3710.000000	99.231525 
3709.000000	99.227148 
3708.000000	99.220783 
3707.000000	99.212964 
3706.000000	99.204399 
3705.000000	99.195621 
3704.000000	99.186919 
3703.000000	99.178461 
3702.000000	99.170161 
3701.000000	99.161636 
3700.000000	99.152511 
3699.000000	99.142895 
3698.000000	99.133732 
3697.000000	99.126515 
3696.000000	99.121923 
3695.000000	99.119121 
3694.000000	99.116729 
3693.000000	99.113718 
3692.000000	99.109100 
3691.000000	99.101941 
3690.000000	99.092834 
3689.000000	99.084705 
3688.000000	99.080211 
3687.000000	99.078569 
3686.000000	99.076952 
3685.000000	99.074388 
3684.000000	99.072242 
3683.000000	99.071672 
3682.000000	99.071836 
3681.000000	99.070647 
3680.000000	99.066529 
3679.000000	99.058832 
3678.000000	99.048018 
3677.000000	99.037241 
3676.000000	99.031792 
3675.000000	99.032893 
3674.000000	99.035534 
3673.000000	99.034594 
3672.000000	99.029575 
3671.000000	99.024324 
3670.000000	99.022675 
3669.000000	99.024161 
3668.000000	99.025932 
3667.000000	99.026758 
3666.000000	99.026965 
3665.000000	99.026799 
3664.000000	99.026053 
3663.000000	99.024703 
3662.000000	99.023273 
3661.000000	99.022144 
3660.000000	99.020969 
3659.000000	99.019352 
3658.000000	99.018059 
3657.000000	99.018757 
3656.000000	99.021862 
3655.000000	99.025496 
3654.000000	99.027465 
3653.000000	99.027230 
3652.000000	99.025598 
3651.000000	99.023425 
3650.000000	99.020749 
3649.000000	99.017743 
3648.000000	99.016105 
3647.000000	99.017458 
3646.000000	99.021395 
3645.000000	99.026525 
3644.000000	99.032107 
3643.000000	99.038103 
3642.000000	99.044526 
3641.000000	99.050782 
3640.000000	99.055932 
3639.000000	99.059309 
3638.000000	99.060764 
3637.000000	99.060751 
3636.000000	99.060264 
3635.000000	99.060362 
3634.000000	99.061195 
3633.000000	99.061818 
3632.000000	99.061550 
3631.000000	99.061194 
3630.000000	99.062505 
3629.000000	99.065136 
3628.000000	99.065820 
3627.000000	99.063491 
3626.000000	99.060875 
3625.000000	99.060495 
3624.000000	99.062283 
3623.000000	99.064443 
3622.000000	99.065685 
3621.000000	99.066922 
3620.000000	99.070039 
3619.000000	99.074977 
3618.000000	99.079535 
3617.000000	99.082420 
3616.000000	99.084509 
3615.000000	99.087417 
3614.000000	99.091500 
3613.000000	99.095375 
3612.000000	99.097608 
3611.000000	99.098497 
3610.000000	99.099609 
3609.000000	99.101834 
3608.000000	99.104414 
3607.000000	99.106250 
3606.000000	99.107643 
3605.000000	99.109822 
3604.000000	99.113339 
3603.000000	99.117553 
3602.000000	99.121286 
3601.000000	99.123833 
3600.000000	99.125138 
3599.000000	99.125404 
3598.000000	99.125071 
3597.000000	99.124890 
3596.000000	99.125596 
3595.000000	99.127538 
3594.000000	99.130332 
3593.000000	99.133048 
3592.000000	99.134846 
3591.000000	99.135320 
3590.000000	99.134769 
3589.000000	99.134271 
3588.000000	99.134993 
3587.000000	99.136856 
3586.000000	99.138760 
3585.000000	99.140093 
3584.000000	99.141212 
3583.000000	99.142582 
3582.000000	99.144137 
3581.000000	99.145425 
3580.000000	99.146140 
3579.000000	99.146354 
3578.000000	99.146295 
3577.000000	99.146168 
3576.000000	99.146199 
3575.000000	99.146641 
3574.000000	99.147575 
3573.000000	99.148698 
3572.000000	99.149530 
3571.000000	99.149833 
3570.000000	99.149752 
3569.000000	99.149695 
3568.000000	99.150036 
3567.000000	99.150706 
3566.000000	99.151237 
3565.000000	99.151381 
3564.000000	99.151390 
3563.000000	99.151702 
3562.000000	99.152517 
3561.000000	99.153608 
3560.000000	99.154480 
3559.000000	99.154801 
3558.000000	99.154637 
3557.000000	99.154340 
3556.000000	99.154255 
3555.000000	99.154481 
3554.000000	99.154892 
3553.000000	99.155248 
3552.000000	99.155324 
3551.000000	99.155053 
3550.000000	99.154556 
3549.000000	99.154062 
3548.000000	99.153815 
3547.000000	99.153913 
3546.000000	99.154219 
3545.000000	99.154405 
3544.000000	99.154268 
3543.000000	99.153996 
3542.000000	99.154042 
3541.000000	99.154685 
3540.000000	99.155798 
3539.000000	99.156918 
3538.000000	99.157637 
3537.000000	99.157910 
3536.000000	99.157970 
3535.000000	99.158061 
3534.000000	99.158223 
3533.000000	99.158368 
3532.000000	99.158451 
3531.000000	99.158499 
3530.000000	99.158477 
3529.000000	99.158254 
3528.000000	99.157794 
3527.000000	99.157315 
3526.000000	99.157117 
3525.000000	99.157282 
3524.000000	99.157604 
3523.000000	99.157834 
3522.000000	99.157924 
3521.000000	99.157991 
3520.000000	99.158129 
3519.000000	99.158349 
3518.000000	99.158635 
3517.000000	99.158966 
3516.000000	99.159252 
3515.000000	99.159365 
3514.000000	99.159251 
3513.000000	99.158981 
3512.000000	99.158713 
3511.000000	99.158566 
3510.000000	99.158561 
3509.000000	99.158654 
3508.000000	99.158809 
3507.000000	99.159002 
3506.000000	99.159205 
3505.000000	99.159369 
3504.000000	99.159469 
3503.000000	99.159529 
3502.000000	99.159593 
3501.000000	99.159700 
3500.000000	99.159841 
3499.000000	99.159994 
3498.000000	99.160141 
3497.000000	99.160278 
3496.000000	99.160407 
3495.000000	99.160536 
3494.000000	99.160672 
3493.000000	99.160820 
3492.000000	99.160982 
3491.000000	99.161157 
3490.000000	99.161343 
3489.000000	99.161536 
3488.000000	99.161733 
3487.000000	99.161926 
3486.000000	99.162106 
3485.000000	99.162268 
3484.000000	99.162414 
3483.000000	99.162555 
3482.000000	99.162704 
3481.000000	99.162861 
3480.000000	99.163019 
3479.000000	99.163169 
3478.000000	99.163308 
3477.000000	99.163426 
3476.000000	99.163519 
3475.000000	99.163600 
3474.000000	99.163705 
3473.000000	99.163860 
3472.000000	99.164041 
3471.000000	99.164175 
3470.000000	99.164232 
3469.000000	99.164283 
3468.000000	99.164434 
3467.000000	99.164654 
3466.000000	99.164775 
3465.000000	99.164679 
3464.000000	99.164440 
3463.000000	99.164234 
3462.000000	99.164134 
3461.000000	99.164105 
3460.000000	99.164149 
3459.000000	99.164358 
3458.000000	99.164748 
3457.000000	99.165099 
3456.000000	99.165105 
3455.000000	99.164672 
3454.000000	99.164055 
3453.000000	99.163675 
3452.000000	99.163679 
3451.000000	99.163796 
3450.000000	99.163622 
3449.000000	99.163056 
3448.000000	99.162355 
3447.000000	99.161778 
3446.000000	99.161290 
3445.000000	99.160725 
3444.000000	99.160136 
3443.000000	99.159792 
3442.000000	99.159791 
3441.000000	99.159794 
3440.000000	99.159302 
3439.000000	99.158172 
3438.000000	99.156758 
3437.000000	99.155568 
3436.000000	99.154837 
3435.000000	99.154515 
3434.000000	99.154510 
3433.000000	99.154817 
3432.000000	99.155365 
3431.000000	99.155897 
3430.000000	99.156131 
3429.000000	99.156056 
3428.000000	99.155942 
3427.000000	99.155972 
3426.000000	99.155923 
3425.000000	99.155365 
3424.000000	99.154182 
3423.000000	99.152760 
3422.000000	99.151617 
3421.000000	99.150944 
3420.000000	99.150669 
3419.000000	99.150775 
3418.000000	99.151307 
3417.000000	99.152049 
3416.000000	99.152462 
3415.000000	99.152128 
3414.000000	99.151170 
3413.000000	99.150172 
3412.000000	99.149677 
3411.000000	99.149773 
3410.000000	99.150100 
3409.000000	99.150151 
3408.000000	99.149618 
3407.000000	99.148563 
3406.000000	99.147344 
3405.000000	99.146376 
3404.000000	99.145915 
3403.000000	99.145994 
3402.000000	99.146464 
3401.000000	99.147161 
3400.000000	99.148056 
3399.000000	99.149264 
3398.000000	99.150813 
3397.000000	99.152411 
3396.000000	99.153507 
3395.000000	99.153665 
3394.000000	99.152834 
3393.000000	99.151336 
3392.000000	99.149699 
3391.000000	99.148444 
3390.000000	99.147916 
3389.000000	99.148191 
3388.000000	99.149096 
3387.000000	99.150324 
3386.000000	99.151617 
3385.000000	99.152855 
3384.000000	99.153963 
3383.000000	99.154759 
3382.000000	99.154943 
3381.000000	99.154339 
3380.000000	99.153172 
3379.000000	99.152058 
3378.000000	99.151576 
3377.000000	99.151815 
3376.000000	99.152413 
3375.000000	99.152944 
3374.000000	99.153268 
3373.000000	99.153487 
3372.000000	99.153715 
3371.000000	99.153955 
3370.000000	99.154144 
3369.000000	99.154204 
3368.000000	99.154086 
3367.000000	99.153859 
3366.000000	99.153722 
3365.000000	99.153840 
3364.000000	99.154162 
3363.000000	99.154480 
3362.000000	99.154642 
3361.000000	99.154647 
3360.000000	99.154531 
3359.000000	99.154280 
3358.000000	99.153902 
3357.000000	99.153551 
3356.000000	99.153448 
3355.000000	99.153651 
3354.000000	99.153964 
3353.000000	99.154116 
3352.000000	99.154030 
3351.000000	99.153861 
3350.000000	99.153837 
3349.000000	99.154080 
3348.000000	99.154567 
3347.000000	99.155136 
3346.000000	99.155548 
3345.000000	99.155620 
3344.000000	99.155349 
3343.000000	99.154934 
3342.000000	99.154623 
3341.000000	99.154476 
3340.000000	99.154324 
3339.000000	99.153982 
3338.000000	99.153525 
3337.000000	99.153272 
3336.000000	99.153459 
3335.000000	99.153991 
3334.000000	99.154530 
3333.000000	99.154864 
3332.000000	99.155073 
3331.000000	99.155312 
3330.000000	99.155547 
3329.000000	99.155584 
3328.000000	99.155349 
3327.000000	99.155013 
3326.000000	99.154789 
3325.000000	99.154650 
3324.000000	99.154312 
3323.000000	99.153550 
3322.000000	99.152521 
3321.000000	99.151720 
3320.000000	99.151572 
3319.000000	99.152109 
3318.000000	99.153021 
3317.000000	99.153936 
3316.000000	99.154595 
3315.000000	99.154857 
3314.000000	99.154761 
3313.000000	99.154615 
3312.000000	99.154828 
3311.000000	99.155487 
3310.000000	99.156183 
3309.000000	99.156372 
3308.000000	99.155916 
3307.000000	99.155160 
3306.000000	99.154600 
3305.000000	99.154535 
3304.000000	99.155007 
3303.000000	99.155845 
3302.000000	99.156668 
3301.000000	99.157018 
3300.000000	99.156616 
3299.000000	99.155524 
3298.000000	99.154130 
3297.000000	99.152970 
3296.000000	99.152411 
3295.000000	99.152414 
3294.000000	99.152592 
3293.000000	99.152599 
3292.000000	99.152491 
3291.000000	99.152535 
3290.000000	99.152716 
3289.000000	99.152644 
3288.000000	99.152032 
3287.000000	99.151058 
3286.000000	99.150166 
3285.000000	99.149593 
3284.000000	99.149236 
3283.000000	99.148900 
3282.000000	99.148552 
3281.000000	99.148329 
3280.000000	99.148381 
3279.000000	99.148732 
3278.000000	99.149230 
3277.000000	99.149612 
3276.000000	99.149652 
3275.000000	99.149249 
3274.000000	99.148416 
3273.000000	99.147280 
3272.000000	99.146144 
3271.000000	99.145411 
3270.000000	99.145293 
3269.000000	99.145607 
3268.000000	99.145897 
3267.000000	99.145838 
3266.000000	99.145443 
3265.000000	99.144969 
3264.000000	99.144731 
3263.000000	99.144995 
3262.000000	99.145869 
3261.000000	99.147131 
3260.000000	99.148258 
3259.000000	99.148730 
3258.000000	99.148414 
3257.000000	99.147654 
3256.000000	99.146940 
3255.000000	99.146396 
3254.000000	99.145756 
3253.000000	99.144909 
3252.000000	99.144298 
3251.000000	99.144534 
3250.000000	99.145632 
3249.000000	99.146833 
3248.000000	99.147312 
3247.000000	99.146874 
3246.000000	99.145820 
3245.000000	99.144457 
3244.000000	99.143005 
3243.000000	99.141820 
3242.000000	99.141289 
3241.000000	99.141389 
3240.000000	99.141677 
3239.000000	99.141876 
3238.000000	99.142275 
3237.000000	99.143392 
3236.000000	99.145327 
3235.000000	99.147537 
3234.000000	99.149188 
3233.000000	99.149730 
3232.000000	99.149212 
3231.000000	99.148148 
3230.000000	99.147099 
3229.000000	99.146302 
3228.000000	99.145671 
3227.000000	99.145007 
3226.000000	99.144168 
3225.000000	99.143177 
3224.000000	99.142302 
3223.000000	99.141937 
3222.000000	99.142241 
3221.000000	99.142899 
3220.000000	99.143339 
3219.000000	99.143247 
3218.000000	99.142821 
3217.000000	99.142595 
3216.000000	99.143087 
3215.000000	99.144484 
3214.000000	99.146442 
3213.000000	99.148162 
3212.000000	99.148904 
3211.000000	99.148459 
3210.000000	99.147171 
3209.000000	99.145632 
3208.000000	99.144387 
3207.000000	99.143788 
3206.000000	99.143870 
3205.000000	99.144311 
3204.000000	99.144719 
3203.000000	99.145024 
3202.000000	99.145433 
3201.000000	99.146013 
3200.000000	99.146543 
3199.000000	99.146836 
3198.000000	99.147002 
3197.000000	99.147285 
3196.000000	99.147804 
3195.000000	99.148532 
3194.000000	99.149370 
3193.000000	99.150087 
3192.000000	99.150326 
3191.000000	99.149829 
3190.000000	99.148646 
3189.000000	99.147131 
3188.000000	99.145808 
3187.000000	99.145254 
3186.000000	99.145870 
3185.000000	99.147524 
3184.000000	99.149480 
3183.000000	99.150924 
3182.000000	99.151604 
3181.000000	99.151882 
3180.000000	99.152354 
3179.000000	99.153436 
3178.000000	99.155053 
3177.000000	99.156561 
3176.000000	99.157246 
3175.000000	99.157135 
3174.000000	99.157033 
3173.000000	99.157413 
3172.000000	99.157536 
3171.000000	99.156314 
3170.000000	99.153870 
3169.000000	99.151716 
3168.000000	99.151155 
3167.000000	99.152069 
3166.000000	99.153535 
3165.000000	99.155031 
3164.000000	99.156618 
3163.000000	99.158206 
3162.000000	99.159294 
3161.000000	99.159548 
3160.000000	99.159205 
3159.000000	99.158720 
3158.000000	99.158198 
3157.000000	99.157373 
3156.000000	99.156084 
3155.000000	99.154534 
3154.000000	99.153011 
3153.000000	99.151447 
3152.000000	99.149495 
3151.000000	99.147139 
3150.000000	99.145089 
3149.000000	99.144290 
3148.000000	99.145077 
3147.000000	99.146998 
3146.000000	99.149397 
3145.000000	99.151915 
3144.000000	99.154318 
3143.000000	99.156143 
3142.000000	99.156864 
3141.000000	99.156393 
3140.000000	99.155248 
3139.000000	99.154233 
3138.000000	99.153903 
3137.000000	99.154273 
3136.000000	99.154938 
3135.000000	99.155464 
3134.000000	99.155769 
3133.000000	99.156096 
3132.000000	99.156582 
3131.000000	99.156976 
3130.000000	99.156921 
3129.000000	99.156486 
3128.000000	99.156251 
3127.000000	99.156776 
3126.000000	99.158029 
3125.000000	99.159337 
3124.000000	99.159909 
3123.000000	99.159451 
3122.000000	99.158319 
3121.000000	99.157249 
3120.000000	99.156783 
3119.000000	99.156907 
3118.000000	99.157252 
3117.000000	99.157553 
3116.000000	99.157835 
3115.000000	99.158219 
3114.000000	99.158680 
3113.000000	99.159081 
3112.000000	99.159370 
3111.000000	99.159646 
3110.000000	99.160024 
3109.000000	99.160480 
3108.000000	99.160850 
3107.000000	99.160965 
3106.000000	99.160780 
3105.000000	99.160423 
3104.000000	99.160175 
3103.000000	99.160304 
3102.000000	99.160886 
3101.000000	99.161743 
3100.000000	99.162584 
3099.000000	99.163220 
3098.000000	99.163639 
3097.000000	99.163907 
3096.000000	99.164076 
3095.000000	99.164145 
3094.000000	99.164083 
3093.000000	99.163853 
3092.000000	99.163450 
3091.000000	99.162939 
3090.000000	99.162504 
3089.000000	99.162438 
3088.000000	99.162958 
3087.000000	99.163879 
3086.000000	99.164547 
3085.000000	99.164355 
3084.000000	99.163340 
3083.000000	99.162029 
3082.000000	99.160679 
3081.000000	99.159098 
3080.000000	99.157378 
3079.000000	99.156475 
3078.000000	99.157612 
3077.000000	99.161072 
3076.000000	99.165683 
3075.000000	99.169517 
3074.000000	99.171148 
3073.000000	99.170454 
3072.000000	99.168451 
3071.000000	99.166230 
3070.000000	99.163948 
3069.000000	99.161013 
3068.000000	99.157290 
3067.000000	99.153871 
3066.000000	99.152463 
3065.000000	99.154045 
3064.000000	99.157966 
3063.000000	99.162010 
3062.000000	99.163454 
3061.000000	99.160756 
3060.000000	99.154742 
3059.000000	99.148140 
3058.000000	99.143748 
3057.000000	99.143078 
3056.000000	99.146229 
3055.000000	99.152046 
3054.000000	99.158074 
3053.000000	99.161346 
3052.000000	99.160157 
3051.000000	99.155100 
3050.000000	99.148310 
3049.000000	99.142076 
3048.000000	99.138107 
3047.000000	99.136918 
3046.000000	99.136961 
3045.000000	99.135136 
3044.000000	99.129630 
3043.000000	99.122286 
3042.000000	99.117128 
3041.000000	99.116143 
3040.000000	99.117222 
3039.000000	99.116599 
3038.000000	99.112564 
3037.000000	99.106301 
3036.000000	99.099594 
3035.000000	99.092542 
3034.000000	99.083840 
3033.000000	99.072883 
3032.000000	99.060947 
3031.000000	99.049969 
3030.000000	99.040435 
3029.000000	99.031276 
3028.000000	99.021937 
3027.000000	99.013439 
3026.000000	99.006651 
3025.000000	99.000205 
3024.000000	98.991324 
3023.000000	98.978705 
3022.000000	98.963669 
3021.000000	98.948238 
3020.000000	98.932800 
3019.000000	98.916159 
3018.000000	98.897548 
3017.000000	98.877994 
3016.000000	98.859583 
3015.000000	98.843495 
3014.000000	98.829042 
3013.000000	98.814730 
3012.000000	98.799996 
3011.000000	98.785402 
3010.000000	98.771184 
3009.000000	98.756450 
3008.000000	98.740286 
3007.000000	98.723084 
3006.000000	98.706110 
3005.000000	98.689972 
3004.000000	98.674076 
3003.000000	98.657535 
3002.000000	98.640152 
3001.000000	98.622562 
3000.000000	98.605742 
2999.000000	98.590400 
2998.000000	98.576696 
2997.000000	98.564618 
2996.000000	98.554352 
2995.000000	98.545314 
2994.000000	98.534437 
2993.000000	98.516727 
2992.000000	98.489353 
2991.000000	98.455623 
2990.000000	98.424025 
2989.000000	98.402691 
2988.000000	98.394760 
2987.000000	98.398231 
2986.000000	98.408628 
2985.000000	98.421452 
2984.000000	98.433101 
2983.000000	98.441063 
2982.000000	98.444211 
2981.000000	98.443197 
2980.000000	98.440315 
2979.000000	98.438296 
2978.000000	98.438550 
2977.000000	98.440250 
2976.000000	98.441120 
2975.000000	98.439269 
2974.000000	98.434718 
2973.000000	98.429795 
2972.000000	98.428090 
2971.000000	98.432193 
2970.000000	98.441799 
2969.000000	98.454221 
2968.000000	98.467141 
2967.000000	98.480539 
2966.000000	98.495503 
2965.000000	98.511750 
2964.000000	98.527218 
2963.000000	98.539958 
2962.000000	98.549762 
2961.000000	98.557874 
2960.000000	98.565618 
2959.000000	98.573413 
2958.000000	98.580873 
2957.000000	98.587799 
2956.000000	98.594967 
2955.000000	98.603607 
2954.000000	98.614113 
2953.000000	98.625815 
2952.000000	98.638038 
2951.000000	98.650417 
2950.000000	98.661812 
2949.000000	98.670149 
2948.000000	98.674339 
2947.000000	98.675675 
2946.000000	98.676522 
2945.000000	98.678316 
2944.000000	98.681594 
2943.000000	98.686919 
2942.000000	98.694042 
2941.000000	98.700605 
2940.000000	98.703751 
2939.000000	98.703713 
2938.000000	98.704467 
2937.000000	98.709979 
2936.000000	98.720319 
2935.000000	98.731712 
2934.000000	98.739782 
2933.000000	98.742531 
2932.000000	98.741093 
2931.000000	98.738102 
2930.000000	98.735235 
2929.000000	98.732392 
2928.000000	98.729202 
2927.000000	98.726243 
2926.000000	98.723874 
2925.000000	98.720849 
2924.000000	98.715696 
2923.000000	98.709075 
2922.000000	98.703151 
2921.000000	98.698579 
2920.000000	98.693707 
2919.000000	98.687001 
2918.000000	98.678820 
2917.000000	98.670252 
2916.000000	98.661515 
2915.000000	98.652300 
2914.000000	98.642924 
2913.000000	98.634449 
2912.000000	98.628106 
2911.000000	98.624804 
2910.000000	98.624390 
2909.000000	98.625111 
2908.000000	98.624527 
2907.000000	98.621378 
2906.000000	98.615758 
2905.000000	98.607359 
2904.000000	98.595065 
2903.000000	98.579642 
2902.000000	98.566059 
2901.000000	98.561539 
2900.000000	98.569733 
2899.000000	98.587644 
2898.000000	98.607226 
2897.000000	98.620890 
2896.000000	98.626408 
2895.000000	98.627184 
2894.000000	98.628375 
2893.000000	98.632665 
2892.000000	98.639380 
2891.000000	98.646448 
2890.000000	98.652245 
2889.000000	98.655959 
2888.000000	98.657597 
2887.000000	98.658318 
2886.000000	98.660037 
2885.000000	98.664052 
2884.000000	98.670400 
2883.000000	98.678744 
2882.000000	98.689241 
2881.000000	98.701978 
2880.000000	98.716014 
2879.000000	98.729693 
2878.000000	98.741891 
2877.000000	98.752756 
2876.000000	98.763338 
2875.000000	98.774538 
2874.000000	98.786078 
2873.000000	98.796389 
2872.000000	98.803894 
2871.000000	98.808676 
2870.000000	98.812629 
2869.000000	98.818024 
2868.000000	98.826236 
2867.000000	98.837592 
2866.000000	98.851464 
2865.000000	98.866214 
2864.000000	98.879868 
2863.000000	98.891501 
2862.000000	98.901610 
2861.000000	98.911049 
2860.000000	98.920344 
2859.000000	98.930276 
2858.000000	98.941901 
2857.000000	98.955102 
2856.000000	98.967839 
2855.000000	98.977859 
2854.000000	98.984878 
2853.000000	98.990520 
2852.000000	98.996323 
2851.000000	99.002571 
2850.000000	99.009013 
2849.000000	99.015694 
2848.000000	99.022713 
2847.000000	99.029661 
2846.000000	99.035609 
2845.000000	99.039596 
2844.000000	99.041254 
2843.000000	99.041278 
2842.000000	99.041340 
2841.000000	99.043249 
2840.000000	99.047893 
2839.000000	99.054818 
2838.000000	99.062628 
2837.000000	99.069830 
2836.000000	99.075614 
2835.000000	99.080027 
2834.000000	99.083430 
2833.000000	99.085895 
2832.000000	99.087350 
2831.000000	99.088049 
2830.000000	99.088368 
2829.000000	99.088264 
2828.000000	99.087624 
2827.000000	99.087249 
2826.000000	99.088732 
2825.000000	99.092826 
2824.000000	99.098341 
2823.000000	99.103102 
2822.000000	99.105769 
2821.000000	99.106523 
2820.000000	99.106447 
2819.000000	99.106737 
2818.000000	99.108146 
2817.000000	99.110587 
2816.000000	99.113187 
2815.000000	99.114966 
2814.000000	99.115530 
2813.000000	99.115140 
2812.000000	99.114486 
2811.000000	99.114565 
2810.000000	99.116291 
2809.000000	99.119698 
2808.000000	99.123532 
2807.000000	99.126063 
2806.000000	99.126460 
2805.000000	99.125315 
2804.000000	99.123977 
2803.000000	99.123493 
2802.000000	99.124102 
2801.000000	99.125485 
2800.000000	99.127285 
2799.000000	99.129335 
2798.000000	99.131411 
2797.000000	99.132983 
2796.000000	99.133537 
2795.000000	99.133169 
2794.000000	99.132654 
2793.000000	99.132776 
2792.000000	99.133633 
2791.000000	99.134691 
2790.000000	99.135398 
2789.000000	99.135681 
2788.000000	99.135937 
2787.000000	99.136615 
2786.000000	99.137796 
2785.000000	99.139120 
2784.000000	99.140107 
2783.000000	99.140545 
2782.000000	99.140577 
2781.000000	99.140505 
2780.000000	99.140573 
2779.000000	99.140919 
2778.000000	99.141595 
2777.000000	99.142573 
2776.000000	99.143761 
2775.000000	99.145027 
2774.000000	99.146203 
2773.000000	99.147144 
2772.000000	99.147871 
2771.000000	99.148629 
2770.000000	99.149626 
2769.000000	99.150708 
2768.000000	99.151477 
2767.000000	99.151794 
2766.000000	99.151986 
2765.000000	99.152397 
2764.000000	99.152869 
2763.000000	99.152905 
2762.000000	99.152261 
2761.000000	99.151224 
2760.000000	99.150392 
2759.000000	99.150189 
2758.000000	99.150645 
2757.000000	99.151557 
2756.000000	99.152706 
2755.000000	99.153890 
2754.000000	99.154842 
2753.000000	99.155300 
2752.000000	99.155291 
2751.000000	99.155234 
2750.000000	99.155603 
2749.000000	99.156439 
2748.000000	99.157328 
2747.000000	99.157869 
2746.000000	99.158066 
2745.000000	99.158213 
2744.000000	99.158508 
2743.000000	99.158893 
2742.000000	99.159243 
2741.000000	99.159574 
2740.000000	99.160011 
2739.000000	99.160610 
2738.000000	99.161312 
2737.000000	99.162051 
2736.000000	99.162823 
2735.000000	99.163618 
2734.000000	99.164314 
2733.000000	99.164764 
2732.000000	99.164963 
2731.000000	99.165063 
2730.000000	99.165223 
2729.000000	99.165483 
2728.000000	99.165832 
2727.000000	99.166282 
2726.000000	99.166824 
2725.000000	99.167374 
2724.000000	99.167832 
2723.000000	99.168216 
2722.000000	99.168665 
2721.000000	99.169283 
2720.000000	99.170035 
2719.000000	99.170759 
2718.000000	99.171300 
2717.000000	99.171631 
2716.000000	99.171850 
2715.000000	99.172111 
2714.000000	99.172500 
2713.000000	99.172988 
2712.000000	99.173487 
2711.000000	99.173933 
2710.000000	99.174340 
2709.000000	99.174779 
2708.000000	99.175319 
2707.000000	99.175952 
2706.000000	99.176576 
2705.000000	99.177077 
2704.000000	99.177467 
2703.000000	99.177881 
2702.000000	99.178406 
2701.000000	99.178979 
2700.000000	99.179501 
2699.000000	99.179994 
2698.000000	99.180558 
2697.000000	99.181176 
2696.000000	99.181677 
2695.000000	99.181923 
2694.000000	99.181959 
2693.000000	99.181968 
2692.000000	99.182120 
2691.000000	99.182434 
2690.000000	99.182787 
2689.000000	99.183050 
2688.000000	99.183223 
2687.000000	99.183434 
2686.000000	99.183768 
2685.000000	99.184192 
2684.000000	99.184658 
2683.000000	99.185155 
2682.000000	99.185659 
2681.000000	99.186098 
2680.000000	99.186432 
2679.000000	99.186711 
2678.000000	99.187020 
2677.000000	99.187401 
2676.000000	99.187836 
2675.000000	99.188287 
2674.000000	99.188725 
2673.000000	99.189146 
2672.000000	99.189563 
2671.000000	99.189973 
2670.000000	99.190376 
2669.000000	99.190773 
2668.000000	99.191164 
2667.000000	99.191551 
2666.000000	99.191938 
2665.000000	99.192325 
2664.000000	99.192711 
2663.000000	99.193096 
2662.000000	99.193477 
2661.000000	99.193859 
2660.000000	99.194242 
2659.000000	99.194629 
2658.000000	99.195019 
2657.000000	99.195413 
2656.000000	99.195814 
2655.000000	99.196220 
2654.000000	99.196633 
2653.000000	99.197049 
2652.000000	99.197469 
2651.000000	99.197892 
2650.000000	99.198319 
2649.000000	99.198742 
2648.000000	99.199155 
2647.000000	99.199552 
2646.000000	99.199936 
2645.000000	99.200316 
2644.000000	99.200696 
2643.000000	99.201072 
2642.000000	99.201436 
2641.000000	99.201785 
2640.000000	99.202124 
2639.000000	99.202460 
2638.000000	99.202798 
2637.000000	99.203134 
2636.000000	99.203456 
2635.000000	99.203759 
2634.000000	99.204043 
2633.000000	99.204314 
2632.000000	99.204575 
2631.000000	99.204828 
2630.000000	99.205076 
2629.000000	99.205320 
2628.000000	99.205561 
2627.000000	99.205800 
2626.000000	99.206038 
2625.000000	99.206277 
2624.000000	99.206507 
2623.000000	99.206722 
2622.000000	99.206924 
2621.000000	99.207135 
2620.000000	99.207380 
2619.000000	99.207651 
2618.000000	99.207902 
2617.000000	99.208125 
2616.000000	99.208385 
2615.000000	99.208758 
2614.000000	99.209215 
2613.000000	99.209624 
2612.000000	99.209881 
2611.000000	99.210006 
2610.000000	99.210048 
2609.000000	99.209932 
2608.000000	99.209508 
2607.000000	99.208802 
2606.000000	99.208138 
2605.000000	99.207919 
2604.000000	99.208323 
2603.000000	99.209151 
2602.000000	99.209938 
2601.000000	99.210290 
2600.000000	99.210212 
2599.000000	99.210064 
2598.000000	99.210099 
2597.000000	99.210092 
2596.000000	99.209639 
2595.000000	99.208769 
2594.000000	99.208008 
2593.000000	99.207779 
2592.000000	99.208020 
2591.000000	99.208459 
2590.000000	99.209089 
2589.000000	99.210115 
2588.000000	99.211503 
2587.000000	99.212732 
2586.000000	99.213149 
2585.000000	99.212560 
2584.000000	99.211431 
2583.000000	99.210465 
2582.000000	99.209912 
2581.000000	99.209466 
2580.000000	99.208869 
2579.000000	99.208298 
2578.000000	99.207974 
2577.000000	99.207630 
2576.000000	99.206761 
2575.000000	99.205362 
2574.000000	99.204080 
2573.000000	99.203568 
2572.000000	99.203939 
2571.000000	99.204908 
2570.000000	99.206049 
2569.000000	99.206854 
2568.000000	99.206895 
2567.000000	99.206172 
2566.000000	99.205217 
2565.000000	99.204652 
2564.000000	99.204682 
2563.000000	99.205100 
2562.000000	99.205621 
2561.000000	99.206054 
2560.000000	99.206238 
2559.000000	99.206004 
2558.000000	99.205303 
2557.000000	99.204411 
2556.000000	99.203922 
2555.000000	99.204391 
2554.000000	99.205821 
2553.000000	99.207429 
2552.000000	99.208190 
2551.000000	99.207717 
2550.000000	99.206411 
2549.000000	99.204932 
2548.000000	99.203652 
2547.000000	99.202652 
2546.000000	99.201922 
2545.000000	99.201446 
2544.000000	99.201267 
2543.000000	99.201450 
2542.000000	99.201771 
2541.000000	99.201612 
2540.000000	99.200542 
2539.000000	99.198945 
2538.000000	99.197684 
2537.000000	99.197048 
2536.000000	99.196539 
2535.000000	99.195846 
2534.000000	99.195405 
2533.000000	99.195606 
2532.000000	99.195951 
2531.000000	99.195580 
2530.000000	99.194431 
2529.000000	99.193352 
2528.000000	99.193071 
2527.000000	99.193488 
2526.000000	99.194005 
2525.000000	99.194234 
2524.000000	99.194237 
2523.000000	99.194254 
2522.000000	99.194450 
2521.000000	99.194859 
2520.000000	99.195368 
2519.000000	99.195678 
2518.000000	99.195420 
2517.000000	99.194431 
2516.000000	99.192997 
2515.000000	99.191690 
2514.000000	99.190881 
2513.000000	99.190571 
2512.000000	99.190732 
2511.000000	99.191517 
2510.000000	99.192898 
2509.000000	99.194341 
2508.000000	99.195243 
2507.000000	99.195609 
2506.000000	99.195879 
2505.000000	99.196191 
2504.000000	99.196184 
2503.000000	99.195604 
2502.000000	99.194726 
2501.000000	99.194070 
2500.000000	99.193961 
2499.000000	99.194515 
2498.000000	99.195708 
2497.000000	99.197183 
2496.000000	99.198270 
2495.000000	99.198539 
2494.000000	99.198174 
2493.000000	99.197716 
2492.000000	99.197504 
2491.000000	99.197521 
2490.000000	99.197678 
2489.000000	99.197988 
2488.000000	99.198514 
2487.000000	99.199282 
2486.000000	99.200158 
2485.000000	99.200727 
2484.000000	99.200566 
2483.000000	99.199691 
2482.000000	99.198630 
2481.000000	99.197946 
2480.000000	99.197698 
2479.000000	99.197599 
2478.000000	99.197448 
2477.000000	99.197255 
2476.000000	99.197099 
2475.000000	99.197045 
2474.000000	99.197142 
2473.000000	99.197357 
2472.000000	99.197557 
2471.000000	99.197621 
2470.000000	99.197548 
2469.000000	99.197412 
2468.000000	99.197279 
2467.000000	99.197171 
2466.000000	99.197075 
2465.000000	99.196966 
2464.000000	99.196835 
2463.000000	99.196694 
2462.000000	99.196563 
2461.000000	99.196450 
2460.000000	99.196346 
2459.000000	99.196239 
2458.000000	99.196120 
2457.000000	99.195989 
2456.000000	99.195852 
2455.000000	99.195712 
2454.000000	99.195568 
2453.000000	99.195421 
2452.000000	99.195270 
2451.000000	99.195112 
2450.000000	99.194947 
2449.000000	99.194775 
2448.000000	99.194599 
2447.000000	99.194420 
2446.000000	99.194239 
2445.000000	99.194055 
2444.000000	99.193861 
2443.000000	99.193657 
2442.000000	99.193444 
2441.000000	99.193230 
2440.000000	99.193018 
2439.000000	99.192807 
2438.000000	99.192588 
2437.000000	99.192366 
2436.000000	99.192134 
2435.000000	99.191867 
2434.000000	99.191554 
2433.000000	99.191234 
2432.000000	99.190961 
2431.000000	99.190756 
2430.000000	99.190569 
2429.000000	99.190294 
2428.000000	99.189822 
2427.000000	99.189122 
2426.000000	99.188310 
2425.000000	99.187599 
2424.000000	99.187142 
2423.000000	99.186960 
2422.000000	99.186969 
2421.000000	99.187046 
2420.000000	99.187034 
2419.000000	99.186721 
2418.000000	99.185936 
2417.000000	99.184729 
2416.000000	99.183421 
2415.000000	99.182360 
2414.000000	99.181603 
2413.000000	99.180940 
2412.000000	99.180210 
2411.000000	99.179523 
2410.000000	99.179090 
2409.000000	99.178884 
2408.000000	99.178576 
2407.000000	99.177848 
2406.000000	99.176676 
2405.000000	99.175333 
2404.000000	99.174232 
2403.000000	99.173704 
2402.000000	99.173708 
2401.000000	99.173752 
2400.000000	99.173244 
2399.000000	99.171988 
2398.000000	99.170254 
2397.000000	99.168547 
2396.000000	99.167492 
2395.000000	99.167585 
2394.000000	99.168677 
2393.000000	99.169896 
2392.000000	99.170451 
2391.000000	99.170445 
2390.000000	99.170421 
2389.000000	99.170456 
2388.000000	99.170294 
2387.000000	99.170169 
2386.000000	99.170645 
2385.000000	99.171576 
2384.000000	99.172037 
2383.000000	99.171592 
2382.000000	99.170956 
2381.000000	99.171000 
2380.000000	99.171610 
2379.000000	99.172120 
2378.000000	99.172450 
2377.000000	99.173128 
2376.000000	99.174336 
2375.000000	99.175506 
2374.000000	99.175890 
2373.000000	99.175179 
2372.000000	99.173643 
2371.000000	99.172099 
2370.000000	99.171526 
2369.000000	99.172314 
2368.000000	99.173955 
2367.000000	99.175779 
2366.000000	99.177704 
2365.000000	99.179992 
2364.000000	99.182550 
2363.000000	99.184871 
2362.000000	99.186402 
2361.000000	99.186910 
2360.000000	99.186784 
2359.000000	99.186719 
2358.000000	99.187195 
2357.000000	99.188273 
2356.000000	99.189924 
2355.000000	99.192187 
2354.000000	99.194463 
2353.000000	99.195984 
2352.000000	99.196474 
2351.000000	99.196464 
2350.000000	99.196779 
2349.000000	99.197640 
2348.000000	99.198834 
2347.000000	99.199897 
2346.000000	99.200689 
2345.000000	99.201473 
2344.000000	99.202518 
2343.000000	99.204131 
2342.000000	99.206001 
2341.000000	99.207592 
2340.000000	99.208466 
2339.000000	99.208896 
2338.000000	99.209430 
2337.000000	99.210108 
2336.000000	99.210491 
2335.000000	99.210198 
2334.000000	99.209537 
2333.000000	99.209251 
2332.000000	99.209920 
2331.000000	99.211041 
2330.000000	99.211823 
2329.000000	99.211844 
2328.000000	99.212104 
2327.000000	99.213446 
2326.000000	99.215990 
2325.000000	99.218709 
2324.000000	99.220470 
2323.000000	99.221074 
2322.000000	99.221196 
2321.000000	99.221476 
2320.000000	99.221507 
2319.000000	99.220602 
2318.000000	99.219051 
2317.000000	99.217859 
2316.000000	99.217717 
2315.000000	99.218182 
2314.000000	99.218690 
2313.000000	99.218976 
2312.000000	99.219326 
2311.000000	99.219590 
2310.000000	99.219464 
2309.000000	99.218683 
2308.000000	99.217581 
2307.000000	99.216567 
2306.000000	99.215974 
2305.000000	99.215818 
2304.000000	99.216105 
2303.000000	99.216703 
2302.000000	99.217340 
2301.000000	99.217563 
2300.000000	99.217272 
2299.000000	99.216844 
2298.000000	99.216822 
2297.000000	99.217129 
2296.000000	99.217202 
2295.000000	99.216670 
2294.000000	99.215924 
2293.000000	99.215628 
2292.000000	99.216012 
2291.000000	99.216753 
2290.000000	99.217455 
2289.000000	99.217956 
2288.000000	99.218201 
2287.000000	99.218126 
2286.000000	99.217763 
2285.000000	99.217266 
2284.000000	99.216726 
2283.000000	99.216209 
2282.000000	99.215888 
2281.000000	99.215970 
2280.000000	99.216382 
2279.000000	99.216832 
2278.000000	99.217141 
2277.000000	99.217352 
2276.000000	99.217591 
2275.000000	99.217917 
2274.000000	99.218327 
2273.000000	99.218794 
2272.000000	99.219246 
2271.000000	99.219598 
2270.000000	99.219870 
2269.000000	99.220186 
2268.000000	99.220621 
2267.000000	99.221122 
2266.000000	99.221623 
2265.000000	99.222122 
2264.000000	99.222615 
2263.000000	99.223013 
2262.000000	99.223228 
2261.000000	99.223325 
2260.000000	99.223466 
2259.000000	99.223783 
2258.000000	99.224281 
2257.000000	99.224911 
2256.000000	99.225585 
2255.000000	99.226198 
2254.000000	99.226702 
2253.000000	99.227120 
2252.000000	99.227513 
2251.000000	99.227914 
2250.000000	99.228320 
2249.000000	99.228725 
2248.000000	99.229142 
2247.000000	99.229576 
2246.000000	99.230024 
2245.000000	99.230480 
2244.000000	99.230943 
2243.000000	99.231416 
2242.000000	99.231900 
2241.000000	99.232393 
2240.000000	99.232886 
2239.000000	99.233367 
2238.000000	99.233825 
2237.000000	99.234254 
2236.000000	99.234643 
2235.000000	99.234992 
2234.000000	99.235309 
2233.000000	99.235611 
2232.000000	99.235910 
2231.000000	99.236212 
2230.000000	99.236518 
2229.000000	99.236830 
2228.000000	99.237154 
2227.000000	99.237488 
2226.000000	99.237825 
2225.000000	99.238157 
2224.000000	99.238486 
2223.000000	99.238818 
2222.000000	99.239158 
2221.000000	99.239502 
2220.000000	99.239838 
2219.000000	99.240159 
2218.000000	99.240474 
2217.000000	99.240794 
2216.000000	99.241122 
2215.000000	99.241448 
2214.000000	99.241761 
2213.000000	99.242071 
2212.000000	99.242405 
2211.000000	99.242790 
2210.000000	99.243239 
2209.000000	99.243755 
2208.000000	99.244390 
2207.000000	99.245214 
2206.000000	99.246147 
2205.000000	99.246805 
2204.000000	99.246930 
2203.000000	99.247114 
2202.000000	99.248472 
2201.000000	99.251059 
2200.000000	99.253131 
2199.000000	99.252888 
2198.000000	99.250467 
2197.000000	99.247821 
2196.000000	99.246729 
2195.000000	99.247622 
2194.000000	99.249960 
2193.000000	99.252863 
2192.000000	99.255295 
2191.000000	99.256506 
2190.000000	99.256884 
2189.000000	99.257990 
2188.000000	99.260923 
2187.000000	99.264445 
2186.000000	99.265385 
2185.000000	99.261575 
2184.000000	99.254334 
2183.000000	99.247599 
2182.000000	99.244325 
2181.000000	99.244334 
2180.000000	99.245757 
2179.000000	99.247577 
2178.000000	99.249984 
2177.000000	99.252979 
2176.000000	99.255895 
2175.000000	99.258266 
2174.000000	99.260357 
2173.000000	99.262981 
2172.000000	99.267555 
2171.000000	99.275608 
2170.000000	99.286827 
2169.000000	99.297802 
2168.000000	99.304328 
2167.000000	99.305195 
2166.000000	99.302477 
2165.000000	99.298741 
2164.000000	99.295580 
2163.000000	99.294592 
2162.000000	99.296807 
2161.000000	99.299637 
2160.000000	99.296981 
2159.000000	99.285168 
2158.000000	99.267748 
2157.000000	99.252573 
2156.000000	99.244251 
2155.000000	99.242111 
2154.000000	99.243945 
2153.000000	99.248381 
2152.000000	99.253892 
2151.000000	99.257782 
2150.000000	99.257746 
2149.000000	99.254414 
2148.000000	99.251414 
2147.000000	99.251861 
2146.000000	99.254836 
2145.000000	99.256224 
2144.000000	99.253512 
2143.000000	99.248630 
2142.000000	99.245157 
2141.000000	99.243620 
2140.000000	99.241394 
2139.000000	99.237133 
2138.000000	99.233221 
2137.000000	99.232794 
2136.000000	99.235628 
2135.000000	99.238263 
2134.000000	99.237967 
2133.000000	99.235573 
2132.000000	99.233907 
2131.000000	99.234084 
2130.000000	99.234137 
2129.000000	99.231487 
2128.000000	99.226314 
2127.000000	99.221719 
2126.000000	99.220333 
2125.000000	99.221789 
2124.000000	99.223965 
2123.000000	99.225819 
2122.000000	99.227943 
2121.000000	99.230678 
2120.000000	99.233192 
2119.000000	99.234646 
2118.000000	99.235235 
2117.000000	99.235507 
2116.000000	99.235509 
2115.000000	99.235216 
2114.000000	99.235092 
2113.000000	99.235461 
2112.000000	99.235717 
2111.000000	99.235121 
2110.000000	99.234111 
2109.000000	99.233921 
2108.000000	99.234828 
2107.000000	99.235601 
2106.000000	99.234974 
2105.000000	99.233143 
2104.000000	99.231597 
2103.000000	99.231670 
2102.000000	99.233392 
2101.000000	99.235493 
2100.000000	99.236463 
2099.000000	99.235803 
2098.000000	99.234300 
2097.000000	99.233263 
2096.000000	99.233459 
2095.000000	99.234819 
2094.000000	99.236843 
2093.000000	99.238959 
2092.000000	99.240749 
2091.000000	99.242126 
2090.000000	99.243344 
2089.000000	99.244643 
2088.000000	99.245877 
2087.000000	99.246660 
2086.000000	99.246892 
2085.000000	99.247039 
2084.000000	99.247807 
2083.000000	99.249577 
2082.000000	99.252099 
2081.000000	99.254634 
2080.000000	99.256540 
2079.000000	99.257863 
2078.000000	99.259314 
2077.000000	99.261504 
2076.000000	99.264147 
2075.000000	99.266207 
2074.000000	99.266880 
2073.000000	99.266219 
2072.000000	99.265170 
2071.000000	99.264886 
2070.000000	99.265890 
2069.000000	99.267855 
2068.000000	99.269864 
2067.000000	99.271156 
2066.000000	99.271649 
2065.000000	99.271865 
2064.000000	99.272525 
2063.000000	99.274120 
2062.000000	99.276534 
2061.000000	99.278894 
2060.000000	99.280288 
2059.000000	99.280785 
2058.000000	99.281419 
2057.000000	99.282962 
2056.000000	99.285056 
2055.000000	99.286857 
2054.000000	99.288229 
2053.000000	99.289751 
2052.000000	99.291736 
2051.000000	99.293727 
2050.000000	99.295036 
2049.000000	99.295507 
2048.000000	99.295585 
2047.000000	99.295783 
2046.000000	99.296265 
2045.000000	99.296883 
2044.000000	99.297396 
2043.000000	99.297667 
2042.000000	99.297768 
2041.000000	99.297883 
2040.000000	99.298074 
2039.000000	99.298194 
2038.000000	99.298031 
2037.000000	99.297560 
2036.000000	99.297017 
2035.000000	99.296649 
2034.000000	99.296350 
2033.000000	99.295706 
2032.000000	99.294590 
2031.000000	99.293578 
2030.000000	99.293492 
2029.000000	99.294485 
2028.000000	99.295604 
2027.000000	99.295613 
2026.000000	99.294098 
2025.000000	99.291515 
2024.000000	99.288846 
2023.000000	99.287090 
2022.000000	99.286793 
2021.000000	99.287497 
2020.000000	99.287675 
2019.000000	99.286167 
2018.000000	99.283548 
2017.000000	99.281531 
2016.000000	99.280767 
2015.000000	99.280259 
2014.000000	99.279093 
2013.000000	99.277604 
2012.000000	99.276558 
2011.000000	99.276213 
2010.000000	99.276630 
2009.000000	99.277957 
2008.000000	99.279717 
2007.000000	99.280624 
2006.000000	99.279835 
2005.000000	99.277951 
2004.000000	99.276156 
2003.000000	99.274708 
2002.000000	99.272758 
2001.000000	99.269352 
2000.000000	99.264278 
1999.000000	99.258168 
1998.000000	99.252122 
1997.000000	99.247302 
1996.000000	99.244793 
1995.000000	99.245420 
1994.000000	99.249071 
1993.000000	99.254142 
1992.000000	99.258256 
1991.000000	99.260003 
1990.000000	99.259522 
1989.000000	99.257549 
1988.000000	99.255389 
1987.000000	99.255795 
1986.000000	99.261699 
1985.000000	99.272810 
1984.000000	99.284291 
1983.000000	99.290680 
1982.000000	99.290786 
1981.000000	99.287544 
1980.000000	99.284432 
1979.000000	99.282742 
1978.000000	99.281562 
1977.000000	99.278807 
1976.000000	99.272827 
1975.000000	99.264464 
1974.000000	99.257293 
1973.000000	99.254447 
1972.000000	99.255249 
1971.000000	99.256396 
1970.000000	99.256504 
1969.000000	99.257871 
1968.000000	99.262868 
1967.000000	99.269841 
1966.000000	99.274386 
1965.000000	99.274369 
1964.000000	99.271694 
1963.000000	99.269206 
1962.000000	99.267532 
1961.000000	99.265714 
1960.000000	99.263504 
1959.000000	99.261410 
1958.000000	99.259171 
1957.000000	99.255983 
1956.000000	99.252148 
1955.000000	99.248864 
1954.000000	99.246059 
1953.000000	99.241992 
1952.000000	99.235806 
1951.000000	99.229441 
1950.000000	99.225916 
1949.000000	99.226243 
1948.000000	99.228881 
1947.000000	99.231683 
1946.000000	99.233399 
1945.000000	99.233425 
1944.000000	99.231616 
1943.000000	99.228851 
1942.000000	99.226684 
1941.000000	99.225702 
1940.000000	99.225167 
1939.000000	99.224373 
1938.000000	99.223409 
1937.000000	99.222655 
1936.000000	99.222209 
1935.000000	99.221853 
1934.000000	99.221186 
1933.000000	99.219787 
1932.000000	99.217682 
1931.000000	99.215756 
1930.000000	99.215212 
1929.000000	99.216332 
1928.000000	99.218091 
1927.000000	99.219068 
1926.000000	99.218561 
1925.000000	99.216721 
1924.000000	99.214332 
1923.000000	99.212554 
1922.000000	99.212258 
1921.000000	99.213307 
1920.000000	99.214711 
1919.000000	99.215485 
1918.000000	99.215400 
1917.000000	99.214844 
1916.000000	99.214200 
1915.000000	99.213673 
1914.000000	99.213496 
1913.000000	99.213835 
1912.000000	99.214451 
1911.000000	99.214784 
1910.000000	99.214445 
1909.000000	99.213488 
1908.000000	99.212255 
1907.000000	99.211182 
1906.000000	99.210648 
1905.000000	99.210633 
1904.000000	99.210516 
1903.000000	99.209486 
1902.000000	99.207297 
1901.000000	99.204556 
1900.000000	99.202275 
1899.000000	99.201147 
1898.000000	99.201165 
1897.000000	99.201568 
1896.000000	99.201374 
1895.000000	99.200349 
1894.000000	99.199282 
1893.000000	99.198990 
1892.000000	99.199299 
1891.000000	99.199374 
1890.000000	99.198816 
1889.000000	99.198131 
1888.000000	99.198046 
1887.000000	99.198801 
1886.000000	99.200076 
1885.000000	99.201124 
1884.000000	99.201186 
1883.000000	99.200157 
1882.000000	99.198693 
1881.000000	99.197428 
1880.000000	99.196433 
1879.000000	99.195570 
1878.000000	99.194779 
1877.000000	99.193796 
1876.000000	99.192370 
1875.000000	99.191182 
1874.000000	99.191680 
1873.000000	99.194287 
1872.000000	99.197265 
1871.000000	99.198196 
1870.000000	99.196359 
1869.000000	99.193124 
1868.000000	99.189919 
1867.000000	99.186725 
1866.000000	99.183338 
1865.000000	99.180268 
1864.000000	99.178342 
1863.000000	99.178447 
1862.000000	99.181277 
1861.000000	99.186278 
1860.000000	99.190992 
1859.000000	99.193048 
1858.000000	99.192861 
1857.000000	99.192976 
1856.000000	99.195003 
1855.000000	99.198345 
1854.000000	99.201615 
1853.000000	99.203933 
1852.000000	99.204829 
1851.000000	99.203949 
1850.000000	99.201609 
1849.000000	99.198920 
1848.000000	99.196826 
1847.000000	99.195466 
1846.000000	99.194855 
1845.000000	99.195198 
1844.000000	99.196145 
1843.000000	99.196951 
1842.000000	99.197680 
1841.000000	99.198985 
1840.000000	99.201127 
1839.000000	99.203694 
1838.000000	99.206072 
1837.000000	99.207900 
1836.000000	99.209211 
1835.000000	99.210419 
1834.000000	99.212052 
1833.000000	99.214198 
1832.000000	99.216218 
1831.000000	99.216837 
1830.000000	99.215303 
1829.000000	99.212614 
1828.000000	99.210728 
1827.000000	99.210461 
1826.000000	99.211306 
1825.000000	99.212591 
1824.000000	99.213782 
1823.000000	99.214401 
1822.000000	99.214181 
1821.000000	99.212934 
1820.000000	99.210466 
1819.000000	99.207016 
1818.000000	99.203854 
1817.000000	99.202626 
1816.000000	99.203589 
1815.000000	99.205320 
1814.000000	99.206740 
1813.000000	99.208422 
1812.000000	99.211482 
1811.000000	99.215755 
1810.000000	99.220043 
1809.000000	99.223678 
1808.000000	99.226270 
1807.000000	99.226983 
1806.000000	99.225471 
1805.000000	99.222816 
1804.000000	99.220719 
1803.000000	99.219878 
1802.000000	99.219932 
1801.000000	99.220618 
1800.000000	99.221645 
1799.000000	99.222446 
1798.000000	99.222878 
1797.000000	99.223335 
1796.000000	99.224081 
1795.000000	99.225086 
1794.000000	99.226282 
1793.000000	99.227580 
1792.000000	99.228773 
1791.000000	99.229600 
1790.000000	99.230099 
1789.000000	99.230729 
1788.000000	99.231895 
1787.000000	99.233515 
1786.000000	99.235066 
1785.000000	99.236020 
1784.000000	99.236262 
1783.000000	99.236210 
1782.000000	99.236437 
1781.000000	99.237146 
1780.000000	99.237980 
1779.000000	99.238557 
1778.000000	99.238986 
1777.000000	99.239620 
1776.000000	99.240574 
1775.000000	99.241750 
1774.000000	99.243040 
1773.000000	99.244292 
1772.000000	99.245251 
1771.000000	99.245825 
1770.000000	99.246183 
1769.000000	99.246532 
1768.000000	99.246997 
1767.000000	99.247585 
1766.000000	99.248230 
1765.000000	99.248896 
1764.000000	99.249591 
1763.000000	99.250342 
1762.000000	99.251176 
1761.000000	99.252103 
1760.000000	99.253055 
1759.000000	99.253922 
1758.000000	99.254632 
1757.000000	99.255186 
1756.000000	99.255622 
1755.000000	99.255976 
1754.000000	99.256275 
1753.000000	99.256579 
1752.000000	99.257054 
1751.000000	99.257895 
1750.000000	99.259064 
1749.000000	99.260211 
1748.000000	99.261074 
1747.000000	99.261637 
1746.000000	99.261974 
1745.000000	99.262178 
1744.000000	99.262389 
1743.000000	99.262732 
1742.000000	99.263201 
1741.000000	99.263711 
1740.000000	99.264194 
1739.000000	99.264608 
1738.000000	99.264922 
1737.000000	99.265121 
1736.000000	99.265213 
1735.000000	99.265224 
1734.000000	99.265216 
1733.000000	99.265305 
1732.000000	99.265523 
1731.000000	99.265805 
1730.000000	99.266078 
1729.000000	99.266294 
1728.000000	99.266440 
1727.000000	99.266536 
1726.000000	99.266598 
1725.000000	99.266631 
1724.000000	99.266641 
1723.000000	99.266639 
1722.000000	99.266626 
1721.000000	99.266593 
1720.000000	99.266528 
1719.000000	99.266420 
1718.000000	99.266265 
1717.000000	99.266072 
1716.000000	99.265856 
1715.000000	99.265623 
1714.000000	99.265376 
1713.000000	99.265117 
1712.000000	99.264848 
1711.000000	99.264565 
1710.000000	99.264266 
1709.000000	99.263947 
1708.000000	99.263604 
1707.000000	99.263236 
1706.000000	99.262843 
1705.000000	99.262426 
1704.000000	99.261981 
1703.000000	99.261510 
1702.000000	99.261017 
1701.000000	99.260523 
1700.000000	99.260042 
1699.000000	99.259575 
1698.000000	99.259113 
1697.000000	99.258644 
1696.000000	99.258165 
1695.000000	99.257674 
1694.000000	99.257171 
1693.000000	99.256652 
1692.000000	99.256113 
1691.000000	99.255552 
1690.000000	99.254965 
1689.000000	99.254351 
1688.000000	99.253710 
1687.000000	99.253047 
1686.000000	99.252372 
1685.000000	99.251691 
1684.000000	99.251012 
1683.000000	99.250336 
1682.000000	99.249664 
1681.000000	99.248991 
1680.000000	99.248325 
1679.000000	99.247674 
1678.000000	99.247029 
1677.000000	99.246381 
1676.000000	99.245745 
1675.000000	99.245164 
1674.000000	99.244635 
1673.000000	99.244102 
1672.000000	99.243513 
1671.000000	99.242919 
1670.000000	99.242412 
1669.000000	99.241966 
1668.000000	99.241526 
1667.000000	99.241044 
1666.000000	99.240299 
1665.000000	99.239079 
1664.000000	99.237602 
1663.000000	99.236574 
1662.000000	99.236486 
1661.000000	99.237075 
1660.000000	99.237634 
1659.000000	99.237954 
1658.000000	99.238327 
1657.000000	99.238541 
1656.000000	99.237667 
1655.000000	99.235444 
1654.000000	99.233670 
1653.000000	99.233342 
1652.000000	99.233060 
1651.000000	99.233193 
1650.000000	99.232716 
1649.000000	99.231137 
1648.000000	99.229121 
1647.000000	99.227430 
1646.000000	99.226189 
1645.000000	99.225955 
1644.000000	99.227004 
1643.000000	99.228602 
1642.000000	99.229810 
1641.000000	99.230333 
1640.000000	99.230269 
1639.000000	99.229740 
1638.000000	99.229036 
1637.000000	99.228794 
1636.000000	99.229029 
1635.000000	99.228930 
1634.000000	99.229465 
1633.000000	99.230932 
1632.000000	99.232282 
1631.000000	99.233001 
1630.000000	99.233303 
1629.000000	99.233503 
1628.000000	99.233654 
1627.000000	99.233894 
1626.000000	99.234702 
1625.000000	99.236706 
1624.000000	99.239911 
1623.000000	99.243185 
1622.000000	99.245394 
1621.000000	99.246694 
1620.000000	99.247450 
1619.000000	99.248154 
1618.000000	99.249834 
1617.000000	99.252414 
1616.000000	99.253982 
1615.000000	99.253892 
1614.000000	99.252635 
1613.000000	99.250607 
1612.000000	99.248758 
1611.000000	99.247615 
1610.000000	99.246622 
1609.000000	99.245390 
1608.000000	99.244748 
1607.000000	99.245624 
1606.000000	99.247429 
1605.000000	99.249118 
1604.000000	99.250864 
1603.000000	99.253764 
1602.000000	99.257773 
1601.000000	99.261157 
1600.000000	99.262837 
1599.000000	99.263841 
1598.000000	99.265653 
1597.000000	99.268369 
1596.000000	99.271186 
1595.000000	99.273861 
1594.000000	99.276671 
1593.000000	99.279291 
1592.000000	99.280980 
1591.000000	99.281756 
1590.000000	99.282450 
1589.000000	99.283575 
1588.000000	99.284997 
1587.000000	99.286591 
1586.000000	99.288133 
1585.000000	99.288920 
1584.000000	99.288393 
1583.000000	99.286895 
1582.000000	99.285898 
1581.000000	99.286516 
1580.000000	99.288471 
1579.000000	99.290822 
1578.000000	99.293145 
1577.000000	99.294929 
1576.000000	99.295104 
1575.000000	99.294710 
1574.000000	99.295749 
1573.000000	99.297145 
1572.000000	99.297288 
1571.000000	99.296637 
1570.000000	99.296750 
1569.000000	99.297727 
1568.000000	99.298400 
1567.000000	99.298151 
1566.000000	99.297385 
1565.000000	99.296983 
1564.000000	99.297386 
1563.000000	99.297958 
1562.000000	99.297871 
1561.000000	99.297085 
1560.000000	99.297209 
1559.000000	99.298601 
1558.000000	99.298172 
1557.000000	99.297470 
1556.000000	99.297348 
1555.000000	99.296986 
1554.000000	99.296026 
1553.000000	99.294530 
1552.000000	99.292847 
1551.000000	99.291593 
1550.000000	99.291327 
1549.000000	99.291670 
1548.000000	99.291652 
1547.000000	99.290829 
1546.000000	99.289478 
1545.000000	99.288188 
1544.000000	99.287212 
1543.000000	99.286262 
1542.000000	99.285312 
1541.000000	99.284606 
1540.000000	99.283515 
1539.000000	99.281731 
1538.000000	99.280363 
1537.000000	99.279585 
1536.000000	99.278817 
1535.000000	99.277847 
1534.000000	99.276965 
1533.000000	99.276268 
1532.000000	99.275331 
1531.000000	99.273884 
1530.000000	99.272223 
1529.000000	99.270793 
1528.000000	99.269644 
1527.000000	99.268601 
1526.000000	99.267696 
1525.000000	99.267085 
1524.000000	99.266619 
1523.000000	99.266106 
1522.000000	99.265793 
1521.000000	99.265792 
1520.000000	99.265316 
1519.000000	99.263659 
1518.000000	99.261018 
1517.000000	99.258240 
1516.000000	99.255967 
1515.000000	99.254185 
1514.000000	99.252682 
1513.000000	99.251361 
1512.000000	99.250110 
1511.000000	99.248713 
1510.000000	99.246882 
1509.000000	99.244816 
1508.000000	99.243889 
1507.000000	99.245285 
1506.000000	99.246254 
1505.000000	99.244950 
1504.000000	99.242647 
1503.000000	99.240141 
1502.000000	99.238119 
1501.000000	99.237390 
1500.000000	99.238214 
1499.000000	99.239942 
1498.000000	99.241425 
1497.000000	99.242103 
1496.000000	99.241843 
1495.000000	99.239994 
1494.000000	99.236046 
1493.000000	99.230641 
1492.000000	99.225206 
1491.000000	99.221284 
1490.000000	99.219336 
1489.000000	99.218201 
1488.000000	99.216107 
1487.000000	99.212644 
1486.000000	99.209177 
1485.000000	99.206836 
1484.000000	99.205512 
1483.000000	99.204597 
1482.000000	99.203551 
1481.000000	99.201925 
1480.000000	99.199422 
1479.000000	99.196135 
1478.000000	99.192771 
1477.000000	99.190304 
1476.000000	99.189135 
1475.000000	99.188275 
1474.000000	99.187177 
1473.000000	99.187231 
1472.000000	99.188998 
1471.000000	99.190231 
1470.000000	99.189364 
1469.000000	99.187349 
1468.000000	99.185981 
1467.000000	99.186222 
1466.000000	99.187919 
1465.000000	99.190003 
1464.000000	99.190800 
1463.000000	99.189826 
1462.000000	99.188201 
1461.000000	99.187361 
1460.000000	99.187673 
1459.000000	99.187895 
1458.000000	99.185046 
1457.000000	99.176864 
1456.000000	99.166346 
1455.000000	99.158086 
1454.000000	99.152957 
1453.000000	99.150211 
1452.000000	99.148431 
1451.000000	99.146349 
1450.000000	99.144655 
1449.000000	99.145775 
1448.000000	99.150070 
1447.000000	99.153719 
1446.000000	99.153661 
1445.000000	99.151740 
1444.000000	99.150844 
1443.000000	99.151121 
1442.000000	99.150766 
1441.000000	99.148998 
1440.000000	99.147134 
1439.000000	99.146903 
1438.000000	99.147929 
1437.000000	99.147822 
1436.000000	99.144944 
1435.000000	99.139782 
1434.000000	99.134303 
1433.000000	99.130693 
1432.000000	99.129807 
1431.000000	99.130962 
1430.000000	99.131989 
1429.000000	99.130879 
1428.000000	99.127548 
1427.000000	99.123013 
1426.000000	99.117984 
1425.000000	99.112584 
1424.000000	99.107283 
1423.000000	99.102551 
1422.000000	99.097148 
1421.000000	99.089514 
1420.000000	99.079741 
1419.000000	99.069651 
1418.000000	99.059295 
1417.000000	99.047482 
1416.000000	99.035430 
1415.000000	99.024521 
1414.000000	99.013800 
1413.000000	99.001433 
1412.000000	98.988220 
1411.000000	98.977400 
1410.000000	98.970211 
1409.000000	98.965260 
1408.000000	98.961819 
1407.000000	98.960291 
1406.000000	98.960643 
1405.000000	98.963048 
1404.000000	98.968732 
1403.000000	98.977353 
1402.000000	98.985727 
1401.000000	98.991720 
1400.000000	98.996534 
1399.000000	99.001738 
1398.000000	99.003822 
1397.000000	98.996276 
1396.000000	98.978127 
1395.000000	98.958897 
1394.000000	98.952230 
1393.000000	98.962670 
1392.000000	98.984421 
1391.000000	99.008374 
1390.000000	99.027412 
1389.000000	99.038332 
1388.000000	99.041591 
1387.000000	99.039848 
1386.000000	99.035665 
1385.000000	99.031113 
1384.000000	99.028291 
1383.000000	99.028601 
1382.000000	99.031770 
1381.000000	99.036913 
1380.000000	99.043810 
1379.000000	99.052380 
1378.000000	99.061344 
1377.000000	99.068711 
1376.000000	99.074169 
1375.000000	99.080036 
1374.000000	99.088837 
1373.000000	99.099894 
1372.000000	99.110479 
1371.000000	99.119783 
1370.000000	99.129414 
1369.000000	99.140211 
1368.000000	99.151386 
1367.000000	99.161893 
1366.000000	99.171253 
1365.000000	99.179252 
1364.000000	99.185650 
1363.000000	99.191153 
1362.000000	99.197445 
1361.000000	99.204798 
1360.000000	99.211557 
1359.000000	99.216822 
1358.000000	99.221883 
1357.000000	99.228373 
1356.000000	99.236120 
1355.000000	99.243615 
1354.000000	99.250015 
1353.000000	99.255437 
1352.000000	99.259040 
1351.000000	99.259200 
1350.000000	99.257318 
1349.000000	99.256785 
1348.000000	99.259556 
1347.000000	99.265274 
1346.000000	99.272801 
1345.000000	99.280419 
1344.000000	99.285722 
1343.000000	99.287293 
1342.000000	99.286371 
1341.000000	99.285342 
1340.000000	99.284967 
1339.000000	99.284455 
1338.000000	99.283708 
1337.000000	99.283904 
1336.000000	99.285644 
1335.000000	99.287976 
1334.000000	99.289985 
1333.000000	99.292082 
1332.000000	99.294871 
1331.000000	99.297876 
1330.000000	99.300031 
1329.000000	99.300539 
1328.000000	99.299357 
1327.000000	99.297370 
1326.000000	99.296073 
1325.000000	99.295898 
1324.000000	99.296363 
1323.000000	99.297119 
1322.000000	99.298054 
1321.000000	99.298538 
1320.000000	99.297830 
1319.000000	99.296453 
1318.000000	99.296029 
1317.000000	99.297210 
1316.000000	99.298476 
1315.000000	99.297800 
1314.000000	99.295120 
1313.000000	99.292676 
1312.000000	99.292698 
1311.000000	99.295187 
1310.000000	99.298293 
1309.000000	99.300300 
1308.000000	99.300814 
1307.000000	99.300192 
1306.000000	99.298806 
1305.000000	99.296852 
1304.000000	99.295239 
1303.000000	99.295326 
1302.000000	99.297566 
1301.000000	99.300636 
1300.000000	99.302413 
1299.000000	99.301691 
1298.000000	99.298947 
1297.000000	99.295909 
1296.000000	99.294390 
1295.000000	99.295302 
1294.000000	99.298097 
1293.000000	99.301146 
1292.000000	99.302837 
1291.000000	99.302455 
1290.000000	99.300534 
1289.000000	99.298698 
1288.000000	99.298640 
1287.000000	99.300344 
1286.000000	99.301481 
1285.000000	99.299683 
1284.000000	99.295488 
1283.000000	99.292159 
1282.000000	99.291998 
1281.000000	99.293979 
1280.000000	99.295631 
1279.000000	99.295836 
1278.000000	99.294681 
1277.000000	99.292001 
1276.000000	99.287549 
1275.000000	99.282348 
1274.000000	99.278330 
1273.000000	99.276477 
1272.000000	99.276069 
1271.000000	99.275631 
1270.000000	99.273821 
1269.000000	99.269799 
1268.000000	99.263804 
1267.000000	99.257373 
1266.000000	99.252035 
1265.000000	99.247933 
1264.000000	99.244250 
1263.000000	99.240441 
1262.000000	99.236309 
1261.000000	99.231550 
1260.000000	99.226385 
1259.000000	99.222230 
1258.000000	99.220271 
1257.000000	99.219757 
1256.000000	99.218891 
1255.000000	99.217127 
1254.000000	99.215198 
1253.000000	99.213118 
1252.000000	99.209976 
1251.000000	99.206226 
1250.000000	99.204445 
1249.000000	99.206926 
1248.000000	99.213653 
1247.000000	99.222779 
1246.000000	99.231226 
1245.000000	99.234581 
1244.000000	99.229161 
1243.000000	99.216629 
1242.000000	99.205393 
1241.000000	99.204316 
1240.000000	99.214609 
1239.000000	99.228939 
1238.000000	99.238388 
1237.000000	99.239336 
1236.000000	99.233756 
1235.000000	99.225280 
1234.000000	99.216163 
1233.000000	99.207120 
1232.000000	99.198653 
1231.000000	99.191664 
1230.000000	99.186582 
1229.000000	99.182352 
1228.000000	99.177216 
1227.000000	99.170924 
1226.000000	99.165533 
1225.000000	99.163160 
1224.000000	99.163221 
1223.000000	99.162710 
1222.000000	99.159193 
1221.000000	99.152814 
1220.000000	99.145408 
1219.000000	99.138406 
1218.000000	99.131719 
1217.000000	99.124138 
1216.000000	99.114517 
1215.000000	99.102827 
1214.000000	99.090303 
1213.000000	99.078305 
1212.000000	99.066768 
1211.000000	99.053771 
1210.000000	99.037093 
1209.000000	99.016471 
1208.000000	98.994113 
1207.000000	98.972765 
1206.000000	98.953455 
1205.000000	98.935434 
1204.000000	98.917743 
1203.000000	98.899758 
1202.000000	98.880342 
1201.000000	98.857990 
1200.000000	98.832699 
1199.000000	98.806760 
1198.000000	98.782667 
1197.000000	98.760872 
1196.000000	98.740249 
1195.000000	98.719764 
1194.000000	98.698561 
1193.000000	98.675070 
1192.000000	98.647828 
1191.000000	98.617486 
1190.000000	98.586973 
1189.000000	98.559334 
1188.000000	98.535767 
1187.000000	98.515241 
1186.000000	98.494995 
1185.000000	98.471729 
1184.000000	98.443446 
1183.000000	98.410558 
1182.000000	98.375036 
1181.000000	98.338726 
1180.000000	98.302789 
1179.000000	98.267931 
1178.000000	98.233913 
1177.000000	98.199164 
1176.000000	98.162202 
1175.000000	98.123605 
1174.000000	98.085658 
1173.000000	98.049881 
1172.000000	98.015830 
1171.000000	97.982406 
1170.000000	97.949323 
1169.000000	97.916916 
1168.000000	97.885285 
1167.000000	97.854452 
1166.000000	97.825670 
1165.000000	97.802434 
1164.000000	97.789588 
1163.000000	97.790332 
1162.000000	97.803480 
1161.000000	97.823619 
1160.000000	97.843853 
1159.000000	97.858475 
1158.000000	97.864062 
1157.000000	97.859404 
1156.000000	97.844659 
1155.000000	97.820276 
1154.000000	97.787003 
1153.000000	97.747302 
1152.000000	97.705826 
1151.000000	97.666964 
1150.000000	97.631753 
1149.000000	97.598300 
1148.000000	97.564955 
1147.000000	97.531477 
1146.000000	97.497386 
1145.000000	97.461591 
1144.000000	97.424465 
1143.000000	97.388483 
1142.000000	97.355523 
1141.000000	97.324688 
1140.000000	97.293584 
1139.000000	97.260579 
1138.000000	97.225256 
1137.000000	97.188076 
1136.000000	97.150371 
1135.000000	97.113481 
1134.000000	97.077272 
1133.000000	97.040601 
1132.000000	97.003387 
1131.000000	96.966648 
1130.000000	96.930268 
1129.000000	96.892574 
1128.000000	96.852635 
1127.000000	96.811275 
1126.000000	96.769492 
1125.000000	96.727746 
1124.000000	96.686900 
1123.000000	96.647477 
1122.000000	96.607576 
1121.000000	96.564270 
1120.000000	96.517905 
1119.000000	96.472243 
1118.000000	96.429281 
1117.000000	96.386827 
1116.000000	96.342502 
1115.000000	96.297201 
1114.000000	96.252827 
1113.000000	96.209243 
1112.000000	96.165624 
1111.000000	96.122699 
1110.000000	96.081652 
1109.000000	96.042348 
1108.000000	96.003825 
1107.000000	95.965126 
1106.000000	95.925258 
1105.000000	95.883824 
1104.000000	95.842075 
1103.000000	95.801731 
1102.000000	95.762928 
1101.000000	95.725182 
1100.000000	95.690013 
1099.000000	95.658455 
1098.000000	95.628094 
1097.000000	95.595148 
1096.000000	95.559665 
1095.000000	95.524516 
1094.000000	95.489142 
1093.000000	95.448929 
1092.000000	95.401789 
1091.000000	95.350848 
1090.000000	95.298987 
1089.000000	95.245023 
1088.000000	95.187758 
1087.000000	95.130026 
1086.000000	95.075692 
1085.000000	95.025253 
1084.000000	94.976819 
1083.000000	94.929003 
1082.000000	94.880862 
1081.000000	94.831546 
1080.000000	94.781923 
1079.000000	94.734390 
1078.000000	94.689833 
1077.000000	94.647291 
1076.000000	94.607153 
1075.000000	94.571079 
1074.000000	94.537974 
1073.000000	94.503890 
1072.000000	94.465846 
1071.000000	94.420097 
1070.000000	94.356675 
1069.000000	94.264845 
1068.000000	94.149182 
1067.000000	94.034605 
1066.000000	93.947631 
1065.000000	93.893647 
1064.000000	93.856672 
1063.000000	93.816321 
1062.000000	93.759650 
1061.000000	93.681651 
1060.000000	93.584551 
1059.000000	93.479178 
1058.000000	93.380881 
1057.000000	93.299148 
1056.000000	93.231019 
1055.000000	93.164440 
1054.000000	93.087882 
1053.000000	92.998900 
1052.000000	92.904878 
1051.000000	92.814454 
1050.000000	92.728582 
1049.000000	92.642877 
1048.000000	92.557215 
1047.000000	92.476872 
1046.000000	92.403957 
1045.000000	92.334118 
1044.000000	92.263355 
1043.000000	92.192970 
1042.000000	92.125618 
1041.000000	92.060682 
1040.000000	91.996426 
1039.000000	91.934154 
1038.000000	91.878230 
1037.000000	91.833736 
1036.000000	91.804404 
1035.000000	91.790063 
1034.000000	91.785556 
1033.000000	91.783861 
1032.000000	91.778862 
1031.000000	91.763758 
1030.000000	91.732787 
1029.000000	91.691462 
1028.000000	91.660825 
1027.000000	91.661305 
1026.000000	91.691317 
1025.000000	91.728480 
1024.000000	91.752508 
1023.000000	91.759939 
1022.000000	91.757076 
1021.000000	91.749058 
1020.000000	91.739415 
1019.000000	91.732121 
1018.000000	91.728395 
1017.000000	91.725331 
1016.000000	91.720714 
1015.000000	91.715859 
1014.000000	91.712488 
1013.000000	91.710781 
1012.000000	91.711171 
1011.000000	91.713792 
1010.000000	91.716235 
1009.000000	91.716842 
1008.000000	91.719798 
1007.000000	91.731323 
1006.000000	91.751127 
1005.000000	91.773691 
1004.000000	91.797705 
1003.000000	91.827296 
1002.000000	91.863480 
1001.000000	91.901464 
1000.000000	91.937677 
999.000000	 91.973030 
998.000000	 92.008093 
997.000000	 92.041642 
996.000000	 92.075636 
995.000000	 92.115286 
994.000000	 92.161872 
993.000000	 92.210493 
992.000000	 92.256438 
991.000000	 92.299153 
990.000000	 92.339464 
989.000000	 92.378432 
988.000000	 92.419676 
987.000000	 92.467116 
986.000000	 92.519660 
985.000000	 92.573800 
984.000000	 92.631519 
983.000000	 92.698876 
982.000000	 92.776339 
981.000000	 92.857020 
980.000000	 92.935834 
979.000000	 93.014665 
978.000000	 93.096761 
977.000000	 93.182205 
976.000000	 93.270938 
975.000000	 93.364374 
974.000000	 93.461607 
973.000000	 93.558942 
972.000000	 93.655078 
971.000000	 93.752134 
970.000000	 93.850190 
969.000000	 93.945882 
968.000000	 94.038130 
967.000000	 94.130292 
966.000000	 94.224475 
965.000000	 94.317946 
964.000000	 94.407283 
963.000000	 94.492270 
962.000000	 94.573909 
961.000000	 94.652216 
960.000000	 94.727855 
959.000000	 94.802581 
958.000000	 94.876178 
957.000000	 94.945857 
956.000000	 95.010285 
955.000000	 95.071641 
954.000000	 95.132565 
953.000000	 95.193380 
952.000000	 95.252901 
951.000000	 95.309386 
950.000000	 95.360324 
949.000000	 95.404258 
948.000000	 95.443465 
947.000000	 95.482112 
946.000000	 95.521400 
945.000000	 95.559318 
944.000000	 95.594897 
943.000000	 95.628863 
942.000000	 95.659829 
941.000000	 95.684291 
940.000000	 95.702003 
939.000000	 95.717927 
938.000000	 95.737052 
937.000000	 95.759940 
936.000000	 95.784461 
935.000000	 95.808764 
934.000000	 95.831291 
933.000000	 95.851017 
932.000000	 95.869386 
931.000000	 95.889714 
930.000000	 95.913469 
929.000000	 95.939224 
928.000000	 95.965641 
927.000000	 95.992546 
926.000000	 96.018511 
925.000000	 96.040735 
924.000000	 96.058503 
923.000000	 96.073814 
922.000000	 96.087321 
921.000000	 96.096616 
920.000000	 96.100315 
919.000000	 96.101437 
918.000000	 96.104732 
917.000000	 96.112102 
916.000000	 96.122037 
915.000000	 96.132344 
914.000000	 96.142779 
913.000000	 96.156332 
912.000000	 96.177885 
911.000000	 96.209690 
910.000000	 96.248204 
909.000000	 96.287706 
908.000000	 96.327072 
907.000000	 96.370306 
906.000000	 96.420420 
905.000000	 96.475864 
904.000000	 96.533655 
903.000000	 96.593768 
902.000000	 96.659516 
901.000000	 96.734458 
900.000000	 96.818257 
899.000000	 96.904320 
898.000000	 96.983060 
897.000000	 97.049716 
896.000000	 97.107648 
895.000000	 97.163035 
894.000000	 97.219171 
893.000000	 97.277826 
892.000000	 97.341917 
891.000000	 97.411754 
890.000000	 97.480962 
889.000000	 97.541777 
888.000000	 97.593643 
887.000000	 97.641859 
886.000000	 97.688626 
885.000000	 97.730978 
884.000000	 97.767943 
883.000000	 97.803727 
882.000000	 97.841513 
881.000000	 97.878991 
880.000000	 97.913525 
879.000000	 97.948102 
878.000000	 97.988044 
877.000000	 98.033367 
876.000000	 98.077824 
875.000000	 98.115187 
874.000000	 98.144830 
873.000000	 98.171903 
872.000000	 98.203353 
871.000000	 98.242977 
870.000000	 98.288736 
869.000000	 98.334721 
868.000000	 98.376293 
867.000000	 98.413686 
866.000000	 98.451352 
865.000000	 98.494180 
864.000000	 98.543786 
863.000000	 98.597587 
862.000000	 98.651308 
861.000000	 98.702200 
860.000000	 98.749496 
859.000000	 98.793206 
858.000000	 98.835007 
857.000000	 98.879506 
856.000000	 98.930390 
855.000000	 98.983907 
854.000000	 99.030023 
853.000000	 99.062517 
852.000000	 99.085073 
851.000000	 99.105321 
850.000000	 99.125963 
849.000000	 99.145128 
848.000000	 99.162599 
847.000000	 99.180693 
846.000000	 99.199804 
845.000000	 99.217500 
844.000000	 99.232340 
843.000000	 99.245150 
842.000000	 99.255914 
841.000000	 99.262342 
840.000000	 99.262797 
839.000000	 99.258895 
838.000000	 99.254022 
837.000000	 99.249604 
836.000000	 99.243188 
835.000000	 99.230889 
834.000000	 99.213105 
833.000000	 99.197032 
832.000000	 99.189953 
831.000000	 99.189316 
830.000000	 99.184765 
829.000000	 99.173772 
828.000000	 99.169519 
827.000000	 99.185501 
826.000000	 99.215320 
825.000000	 99.238174 
824.000000	 99.244809 
823.000000	 99.247231 
822.000000	 99.260226 
821.000000	 99.283395 
820.000000	 99.305744 
819.000000	 99.319290 
818.000000	 99.323448 
817.000000	 99.321699 
816.000000	 99.317600 
815.000000	 99.310583 
814.000000	 99.293163 
813.000000	 99.255568 
812.000000	 99.195494 
811.000000	 99.120348 
810.000000	 99.037430 
809.000000	 98.944723 
808.000000	 98.834338 
807.000000	 98.701948 
806.000000	 98.549495 
805.000000	 98.381697 
804.000000	 98.205237 
803.000000	 98.030864 
802.000000	 97.871516 
801.000000	 97.737438 
800.000000	 97.634570 
799.000000	 97.565746 
798.000000	 97.530815 
797.000000	 97.526721 
796.000000	 97.548565 
795.000000	 97.589124 
794.000000	 97.638321 
793.000000	 97.686827 
792.000000	 97.730004 
791.000000	 97.765278 
790.000000	 97.787477 
789.000000	 97.791978 
788.000000	 97.781913 
787.000000	 97.766106 
786.000000	 97.748199 
785.000000	 97.722634 
784.000000	 97.683631 
783.000000	 97.633930 
782.000000	 97.582322 
781.000000	 97.536352 
780.000000	 97.499847 
779.000000	 97.474091 
778.000000	 97.459179 
777.000000	 97.457369 
776.000000	 97.475559 
775.000000	 97.519247 
774.000000	 97.582286 
773.000000	 97.648092 
772.000000	 97.704017 
771.000000	 97.750183 
770.000000	 97.791839 
769.000000	 97.828542 
768.000000	 97.855767 
767.000000	 97.873912 
766.000000	 97.890080 
765.000000	 97.910796 
764.000000	 97.935757 
763.000000	 97.958644 
762.000000	 97.972972 
761.000000	 97.978340 
760.000000	 97.982123 
759.000000	 97.993760 
758.000000	 98.016138 
757.000000	 98.043669 
756.000000	 98.069086 
755.000000	 98.090455 
754.000000	 98.111553 
753.000000	 98.137811 
752.000000	 98.172366 
751.000000	 98.213041 
750.000000	 98.251841 
749.000000	 98.279899 
748.000000	 98.295222 
747.000000	 98.305480 
746.000000	 98.322597 
745.000000	 98.354081 
744.000000	 98.397847 
743.000000	 98.443702 
742.000000	 98.481492 
741.000000	 98.510192 
740.000000	 98.537889 
739.000000	 98.571718 
738.000000	 98.610322 
737.000000	 98.648185 
736.000000	 98.683870 
735.000000	 98.720079 
734.000000	 98.758610 
733.000000	 98.799938 
732.000000	 98.844663 
731.000000	 98.889050 
730.000000	 98.921877 
729.000000	 98.933908 
728.000000	 98.929504 
727.000000	 98.922427 
726.000000	 98.921064 
725.000000	 98.924674 
724.000000	 98.933998 
723.000000	 98.955700 
722.000000	 98.992060 
721.000000	 99.033149 
720.000000	 99.064982 
719.000000	 99.082768 
718.000000	 99.092742 
717.000000	 99.103783 
716.000000	 99.120792 
715.000000	 99.142795 
714.000000	 99.163570 
713.000000	 99.176406 
712.000000	 99.180610 
711.000000	 99.181976 
710.000000	 99.185919 
709.000000	 99.192448 
708.000000	 99.197581 
707.000000	 99.196520 
706.000000	 99.186553 
705.000000	 99.169657 
704.000000	 99.151287 
703.000000	 99.133897 
702.000000	 99.111501 
701.000000	 99.074426 
700.000000	 99.018890 
699.000000	 98.947180 
698.000000	 98.861880 
697.000000	 98.766899 
696.000000	 98.674320 
695.000000	 98.603417 
694.000000	 98.568970 
693.000000	 98.575178 
692.000000	 98.618770 
691.000000	 98.687885 
690.000000	 98.760527 
689.000000	 98.815689 
688.000000	 98.850604 
687.000000	 98.879410 
686.000000	 98.910923 
685.000000	 98.939252 
684.000000	 98.958710 
683.000000	 98.973850 
682.000000	 98.991102 
681.000000	 99.011793 
680.000000	 99.037219 
679.000000	 99.068588 
678.000000	 99.097077 
677.000000	 99.108902 
676.000000	 99.105455 
675.000000	 99.104333 
674.000000	 99.118458 
673.000000	 99.142331 
672.000000	 99.159872 
671.000000	 99.159074 
670.000000	 99.135562 
669.000000	 99.095863 
668.000000	 99.066284 
667.000000	 99.073489 
666.000000	 99.116352 
665.000000	 99.176201 
664.000000	 99.230612 
663.000000	 99.267426 
662.000000	 99.287816 
661.000000	 99.302610 
660.000000	 99.321299 
659.000000	 99.342061 
658.000000	 99.352697 
657.000000	 99.343850 
656.000000	 99.319614 
655.000000	 99.294644 
654.000000	 99.282938 
653.000000	 99.284268 
652.000000	 99.284472 
651.000000	 99.275029 
650.000000	 99.267762 

