4000.000000	100.082574 
3999.000000	100.082287 
3998.000000	100.081994 
3997.000000	100.081373 
3996.000000	100.080261 
3995.000000	100.078859 
3994.000000	100.077562 
3993.000000	100.076657 
3992.000000	100.076212 
3991.000000	100.076122 
3990.000000	100.076183 
3989.000000	100.076270 
3988.000000	100.076512 
3987.000000	100.077195 
3986.000000	100.078393 
3985.000000	100.079714 
3984.000000	100.080524 
3983.000000	100.080454 
3982.000000	100.079605 
3981.000000	100.078315 
3980.000000	100.076717 
3979.000000	100.074725 
3978.000000	100.072477 
3977.000000	100.070650 
3976.000000	100.070105 
3975.000000	100.071159 
3974.000000	100.073234 
3973.000000	100.075180 
3972.000000	100.076154 
3971.000000	100.076129 
3970.000000	100.075608 
3969.000000	100.075037 
3968.000000	100.074515 
3967.000000	100.073979 
3966.000000	100.073445 
3965.000000	100.072987 
3964.000000	100.072582 
3963.000000	100.072022 
3962.000000	100.071025 
3961.000000	100.069490 
3960.000000	100.067646 
3959.000000	100.065976 
3958.000000	100.064885 
3957.000000	100.064396 
3956.000000	100.064208 
3955.000000	100.064028 
3954.000000	100.063812 
3953.000000	100.063624 
3952.000000	100.063420 
3951.000000	100.063099 
3950.000000	100.062699 
3949.000000	100.062471 
3948.000000	100.062636 
3947.000000	100.063070 
3946.000000	100.063320 
3945.000000	100.063058 
3944.000000	100.062508 
3943.000000	100.062265 
3942.000000	100.062599 
3941.000000	100.063043 
3940.000000	100.062853 
3939.000000	100.061774 
3938.000000	100.060179 
3937.000000	100.058604 
3936.000000	100.057347 
3935.000000	100.056535 
3934.000000	100.056353 
3933.000000	100.056919 
3932.000000	100.057966 
3931.000000	100.058894 
3930.000000	100.059134 
3929.000000	100.058525 
3928.000000	100.057317 
3927.000000	100.056015 
3926.000000	100.055233 
3925.000000	100.055381 
3924.000000	100.056300 
3923.000000	100.057301 
3922.000000	100.057794 
3921.000000	100.057791 
3920.000000	100.057593 
3919.000000	100.057343 
3918.000000	100.057127 
3917.000000	100.057172 
3916.000000	100.057611 
3915.000000	100.058188 
3914.000000	100.058556 
3913.000000	100.058757 
3912.000000	100.059107 
3911.000000	100.059713 
3910.000000	100.060403 
3909.000000	100.060929 
3908.000000	100.061167 
3907.000000	100.061003 
3906.000000	100.060384 
3905.000000	100.059464 
3904.000000	100.058605 
3903.000000	100.058042 
3902.000000	100.057694 
3901.000000	100.057479 
3900.000000	100.057525 
3899.000000	100.057925 
3898.000000	100.058496 
3897.000000	100.058957 
3896.000000	100.059214 
3895.000000	100.059337 
3894.000000	100.059395 
3893.000000	100.059441 
3892.000000	100.059559 
3891.000000	100.059796 
3890.000000	100.060088 
3889.000000	100.060348 
3888.000000	100.060565 
3887.000000	100.060782 
3886.000000	100.061027 
3885.000000	100.061296 
3884.000000	100.061577 
3883.000000	100.061868 
3882.000000	100.062174 
3881.000000	100.062505 
3880.000000	100.062867 
3879.000000	100.063261 
3878.000000	100.063675 
3877.000000	100.064096 
3876.000000	100.064520 
3875.000000	100.064943 
3874.000000	100.065366 
3873.000000	100.065783 
3872.000000	100.066192 
3871.000000	100.066600 
3870.000000	100.067015 
3869.000000	100.067440 
3868.000000	100.067871 
3867.000000	100.068300 
3866.000000	100.068731 
3865.000000	100.069174 
3864.000000	100.069630 
3863.000000	100.070098 
3862.000000	100.070577 
3861.000000	100.071067 
3860.000000	100.071566 
3859.000000	100.072067 
3858.000000	100.072560 
3857.000000	100.073037 
3856.000000	100.073487 
3855.000000	100.073903 
3854.000000	100.074286 
3853.000000	100.074646 
3852.000000	100.074994 
3851.000000	100.075332 
3850.000000	100.075666 
3849.000000	100.076007 
3848.000000	100.076360 
3847.000000	100.076725 
3846.000000	100.077098 
3845.000000	100.077475 
3844.000000	100.077851 
3843.000000	100.078222 
3842.000000	100.078588 
3841.000000	100.078954 
3840.000000	100.079308 
3839.000000	100.079631 
3838.000000	100.079899 
3837.000000	100.080086 
3836.000000	100.080174 
3835.000000	100.080173 
3834.000000	100.080140 
3833.000000	100.080140 
3832.000000	100.080214 
3831.000000	100.080337 
3830.000000	100.080404 
3829.000000	100.080284 
3828.000000	100.079951 
3827.000000	100.079568 
3826.000000	100.079409 
3825.000000	100.079567 
3824.000000	100.079824 
3823.000000	100.079862 
3822.000000	100.079591 
3821.000000	100.079349 
3820.000000	100.079490 
3819.000000	100.079555 
3818.000000	100.079050 
3817.000000	100.078287 
3816.000000	100.077671 
3815.000000	100.077116 
3814.000000	100.076009 
3813.000000	100.074141 
3812.000000	100.072638 
3811.000000	100.072631 
3810.000000	100.073955 
3809.000000	100.075450 
3808.000000	100.076183 
3807.000000	100.076271 
3806.000000	100.076327 
3805.000000	100.076118 
3804.000000	100.075129 
3803.000000	100.073821 
3802.000000	100.072954 
3801.000000	100.072845 
3800.000000	100.072757 
3799.000000	100.071083 
3798.000000	100.068037 
3797.000000	100.065458 
3796.000000	100.064028 
3795.000000	100.062978 
3794.000000	100.061331 
3793.000000	100.059140 
3792.000000	100.057368 
3791.000000	100.056683 
3790.000000	100.056910 
3789.000000	100.057541 
3788.000000	100.057960 
3787.000000	100.057519 
3786.000000	100.056131 
3785.000000	100.054921 
3784.000000	100.055401 
3783.000000	100.057793 
3782.000000	100.060710 
3781.000000	100.062579 
3780.000000	100.062796 
3779.000000	100.061657 
3778.000000	100.059535 
3777.000000	100.056366 
3776.000000	100.052814 
3775.000000	100.050641 
3774.000000	100.051063 
3773.000000	100.053424 
3772.000000	100.056127 
3771.000000	100.058301 
3770.000000	100.060110 
3769.000000	100.061347 
3768.000000	100.060836 
3767.000000	100.058268 
3766.000000	100.055511 
3765.000000	100.054553 
3764.000000	100.055205 
3763.000000	100.055687 
3762.000000	100.055358 
3761.000000	100.055417 
3760.000000	100.056552 
3759.000000	100.058062 
3758.000000	100.059707 
3757.000000	100.062420 
3756.000000	100.066889 
3755.000000	100.072405 
3754.000000	100.078200 
3753.000000	100.083922 
3752.000000	100.088192 
3751.000000	100.089016 
3750.000000	100.086757 
3749.000000	100.084120 
3748.000000	100.082138 
3747.000000	100.079248 
3746.000000	100.074279 
3745.000000	100.068646 
3744.000000	100.066917 
3743.000000	100.069603 
3742.000000	100.069614 
3741.000000	100.065408 
3740.000000	100.061896 
3739.000000	100.059398 
3738.000000	100.055217 
3737.000000	100.049991 
3736.000000	100.047605 
3735.000000	100.049479 
3734.000000	100.052369 
3733.000000	100.053008 
3732.000000	100.051809 
3731.000000	100.050240 
3730.000000	100.047922 
3729.000000	100.044330 
3728.000000	100.040573 
3727.000000	100.038159 
3726.000000	100.037245 
3725.000000	100.036553 
3724.000000	100.034973 
3723.000000	100.033056 
3722.000000	100.031866 
3721.000000	100.031365 
3720.000000	100.030605 
3719.000000	100.028915 
3718.000000	100.026564 
3717.000000	100.024235 
3716.000000	100.022208 
3715.000000	100.020314 
3714.000000	100.018679 
3713.000000	100.017619 
3712.000000	100.016997 
3711.000000	100.015999 
3710.000000	100.013440 
3709.000000	100.008839 
3708.000000	100.003032 
3707.000000	99.997474  
3706.000000	99.993180  
3705.000000	99.990302  
3704.000000	99.988322  
3703.000000	99.986317  
3702.000000	99.983488  
3701.000000	99.979712  
3700.000000	99.975401  
3699.000000	99.971023  
3698.000000	99.967112  
3697.000000	99.964194  
3696.000000	99.962392  
3695.000000	99.961319  
3694.000000	99.960665  
3693.000000	99.960482  
3692.000000	99.960406  
3691.000000	99.959268  
3690.000000	99.956144  
3689.000000	99.951533  
3688.000000	99.946842  
3687.000000	99.942528  
3686.000000	99.938144  
3685.000000	99.933961  
3684.000000	99.930860  
3683.000000	99.928943  
3682.000000	99.927349  
3681.000000	99.925250  
3680.000000	99.922650  
3679.000000	99.919888  
3678.000000	99.916852  
3677.000000	99.913394  
3676.000000	99.910100  
3675.000000	99.907856  
3674.000000	99.905849  
3673.000000	99.902209  
3672.000000	99.897048  
3671.000000	99.891983  
3670.000000	99.888042  
3669.000000	99.885219  
3668.000000	99.882478  
3667.000000	99.879024  
3666.000000	99.875421  
3665.000000	99.872377  
3664.000000	99.869709  
3663.000000	99.866733  
3662.000000	99.863046  
3661.000000	99.858712  
3660.000000	99.853833  
3659.000000	99.848274  
3658.000000	99.842299  
3657.000000	99.837309  
3656.000000	99.835021  
3655.000000	99.835277  
3654.000000	99.835554  
3653.000000	99.834344  
3652.000000	99.832327  
3651.000000	99.829670  
3650.000000	99.825451  
3649.000000	99.819991  
3648.000000	99.814757  
3647.000000	99.810685  
3646.000000	99.807611  
3645.000000	99.804696  
3644.000000	99.801765  
3643.000000	99.799740  
3642.000000	99.799695  
3641.000000	99.801542  
3640.000000	99.803915  
3639.000000	99.805197  
3638.000000	99.804520  
3637.000000	99.801510  
3636.000000	99.796387  
3635.000000	99.790778  
3634.000000	99.786797  
3633.000000	99.784505  
3632.000000	99.781381  
3631.000000	99.775703  
3630.000000	99.768981  
3629.000000	99.765100  
3628.000000	99.765770  
3627.000000	99.765973  
3626.000000	99.761772  
3625.000000	99.757755  
3624.000000	99.758332  
3623.000000	99.761715  
3622.000000	99.764157  
3621.000000	99.764792  
3620.000000	99.765853  
3619.000000	99.769312  
3618.000000	99.774334  
3617.000000	99.778413  
3616.000000	99.780686  
3615.000000	99.782415  
3614.000000	99.784495  
3613.000000	99.786311  
3612.000000	99.786942  
3611.000000	99.786780  
3610.000000	99.787570  
3609.000000	99.790568  
3608.000000	99.795117  
3607.000000	99.799716  
3606.000000	99.803908  
3605.000000	99.808513  
3604.000000	99.814114  
3603.000000	99.820000  
3602.000000	99.825300  
3601.000000	99.830137  
3600.000000	99.834618  
3599.000000	99.837415  
3598.000000	99.836834  
3597.000000	99.833157  
3596.000000	99.829038  
3595.000000	99.827873  
3594.000000	99.831120  
3593.000000	99.836993  
3592.000000	99.841738  
3591.000000	99.842592  
3590.000000	99.839323  
3589.000000	99.834285  
3588.000000	99.831118  
3587.000000	99.831782  
3586.000000	99.834849  
3585.000000	99.837762  
3584.000000	99.839874  
3583.000000	99.841934  
3582.000000	99.844081  
3581.000000	99.845576  
3580.000000	99.845903  
3579.000000	99.845302  
3578.000000	99.844324  
3577.000000	99.843400  
3576.000000	99.842806  
3575.000000	99.842782  
3574.000000	99.843353  
3573.000000	99.844164  
3572.000000	99.844654  
3571.000000	99.844391  
3570.000000	99.843165  
3569.000000	99.841086  
3568.000000	99.838907  
3567.000000	99.837788  
3566.000000	99.838073  
3565.000000	99.838757  
3564.000000	99.838917  
3563.000000	99.838880  
3562.000000	99.839531  
3561.000000	99.841156  
3560.000000	99.843137  
3559.000000	99.844555  
3558.000000	99.844962  
3557.000000	99.844586  
3556.000000	99.843930  
3555.000000	99.843273  
3554.000000	99.842572  
3553.000000	99.841690  
3552.000000	99.840609  
3551.000000	99.839334  
3550.000000	99.837695  
3549.000000	99.835528  
3548.000000	99.833141  
3547.000000	99.831359  
3546.000000	99.830838  
3545.000000	99.831310  
3544.000000	99.831748  
3543.000000	99.831648  
3542.000000	99.831744  
3541.000000	99.832944  
3540.000000	99.835055  
3539.000000	99.836796  
3538.000000	99.837140  
3537.000000	99.836278  
3536.000000	99.835232  
3535.000000	99.834716  
3534.000000	99.834530  
3533.000000	99.834138  
3532.000000	99.833454  
3531.000000	99.832894  
3530.000000	99.832803  
3529.000000	99.833016  
3528.000000	99.833030  
3527.000000	99.832545  
3526.000000	99.831738  
3525.000000	99.831046  
3524.000000	99.830746  
3523.000000	99.830754  
3522.000000	99.830765  
3521.000000	99.830547  
3520.000000	99.830119  
3519.000000	99.829701  
3518.000000	99.829507  
3517.000000	99.829550  
3516.000000	99.829632  
3515.000000	99.829520  
3514.000000	99.829115  
3513.000000	99.828456  
3512.000000	99.827676  
3511.000000	99.826994  
3510.000000	99.826652  
3509.000000	99.826760  
3508.000000	99.827197  
3507.000000	99.827682  
3506.000000	99.827988  
3505.000000	99.828034  
3504.000000	99.827823  
3503.000000	99.827419  
3502.000000	99.827006  
3501.000000	99.826862  
3500.000000	99.827148  
3499.000000	99.827686  
3498.000000	99.827973  
3497.000000	99.827558  
3496.000000	99.826354  
3495.000000	99.824678  
3494.000000	99.823066  
3493.000000	99.821916  
3492.000000	99.821306  
3491.000000	99.821065  
3490.000000	99.820991  
3489.000000	99.821031  
3488.000000	99.821198  
3487.000000	99.821387  
3486.000000	99.821384  
3485.000000	99.821102  
3484.000000	99.820663  
3483.000000	99.820197  
3482.000000	99.819615  
3481.000000	99.818723  
3480.000000	99.817544  
3479.000000	99.816375  
3478.000000	99.815465  
3477.000000	99.814760  
3476.000000	99.814111  
3475.000000	99.813675  
3474.000000	99.813853  
3473.000000	99.814725  
3472.000000	99.815687  
3471.000000	99.815927  
3470.000000	99.815262  
3469.000000	99.814266  
3468.000000	99.813542  
3467.000000	99.813031  
3466.000000	99.812239  
3465.000000	99.810941  
3464.000000	99.809356  
3463.000000	99.807780  
3462.000000	99.806299  
3461.000000	99.804940  
3460.000000	99.803880  
3459.000000	99.803329  
3458.000000	99.803240  
3457.000000	99.803249  
3456.000000	99.802954  
3455.000000	99.802237  
3454.000000	99.801269  
3453.000000	99.800339  
3452.000000	99.799625  
3451.000000	99.799073  
3450.000000	99.798478  
3449.000000	99.797697  
3448.000000	99.796760  
3447.000000	99.795798  
3446.000000	99.794914  
3445.000000	99.794152  
3444.000000	99.793548  
3443.000000	99.793106  
3442.000000	99.792724  
3441.000000	99.792218  
3440.000000	99.791479  
3439.000000	99.790568  
3438.000000	99.789647  
3437.000000	99.788826  
3436.000000	99.788089  
3435.000000	99.787381  
3434.000000	99.786709  
3433.000000	99.786111  
3432.000000	99.785564  
3431.000000	99.784965  
3430.000000	99.784237  
3429.000000	99.783442  
3428.000000	99.782744  
3427.000000	99.782237  
3426.000000	99.781821  
3425.000000	99.781260  
3424.000000	99.780386  
3423.000000	99.779235  
3422.000000	99.778027  
3421.000000	99.777003  
3420.000000	99.776285  
3419.000000	99.775873  
3418.000000	99.775715  
3417.000000	99.775707  
3416.000000	99.775662  
3415.000000	99.775397  
3414.000000	99.774854  
3413.000000	99.774137  
3412.000000	99.773413  
3411.000000	99.772793  
3410.000000	99.772327  
3409.000000	99.772000  
3408.000000	99.771677  
3407.000000	99.771127  
3406.000000	99.770229  
3405.000000	99.769172  
3404.000000	99.768346  
3403.000000	99.767976  
3402.000000	99.767915  
3401.000000	99.767803  
3400.000000	99.767434  
3399.000000	99.766948  
3398.000000	99.766682  
3397.000000	99.766821  
3396.000000	99.767179  
3395.000000	99.767323  
3394.000000	99.766917  
3393.000000	99.765983  
3392.000000	99.764900  
3391.000000	99.764184  
3390.000000	99.764188  
3389.000000	99.764929  
3388.000000	99.766090  
3387.000000	99.767205  
3386.000000	99.767979  
3385.000000	99.768439  
3384.000000	99.768736  
3383.000000	99.768816  
3382.000000	99.768357  
3381.000000	99.767131  
3380.000000	99.765422  
3379.000000	99.764031  
3378.000000	99.763719  
3377.000000	99.764640  
3376.000000	99.766299  
3375.000000	99.767977  
3374.000000	99.769263  
3373.000000	99.770128  
3372.000000	99.770650  
3371.000000	99.770832  
3370.000000	99.770633  
3369.000000	99.770064  
3368.000000	99.769264  
3367.000000	99.768537  
3366.000000	99.768231  
3365.000000	99.768417  
3364.000000	99.768704  
3363.000000	99.768548  
3362.000000	99.767836  
3361.000000	99.766973  
3360.000000	99.766369  
3359.000000	99.765992  
3358.000000	99.765641  
3357.000000	99.765512  
3356.000000	99.766128  
3355.000000	99.767649  
3354.000000	99.769446  
3353.000000	99.770571  
3352.000000	99.770615  
3351.000000	99.769982  
3350.000000	99.769486  
3349.000000	99.769674  
3348.000000	99.770531  
3347.000000	99.771594  
3346.000000	99.772252  
3345.000000	99.772101  
3344.000000	99.771199  
3343.000000	99.770058  
3342.000000	99.769242  
3341.000000	99.768853  
3340.000000	99.768520  
3339.000000	99.767940  
3338.000000	99.767340  
3337.000000	99.767270  
3336.000000	99.768000  
3335.000000	99.769283  
3334.000000	99.770696  
3333.000000	99.772068  
3332.000000	99.773409  
3331.000000	99.774570  
3330.000000	99.775245  
3329.000000	99.775334  
3328.000000	99.775131  
3327.000000	99.775053  
3326.000000	99.775195  
3325.000000	99.775264  
3324.000000	99.774962  
3323.000000	99.774379  
3322.000000	99.773972  
3321.000000	99.774146  
3320.000000	99.774936  
3319.000000	99.776043  
3318.000000	99.777106  
3317.000000	99.777916  
3316.000000	99.778424  
3315.000000	99.778665  
3314.000000	99.778757  
3313.000000	99.778894  
3312.000000	99.779225  
3311.000000	99.779706  
3310.000000	99.780101  
3309.000000	99.780205  
3308.000000	99.780030  
3307.000000	99.779757  
3306.000000	99.779591  
3305.000000	99.779641  
3304.000000	99.779901  
3303.000000	99.780292  
3302.000000	99.780679  
3301.000000	99.780926  
3300.000000	99.780985  
3299.000000	99.780917  
3298.000000	99.780857  
3297.000000	99.780922  
3296.000000	99.781125  
3295.000000	99.781391  
3294.000000	99.781625  
3293.000000	99.781792  
3292.000000	99.781935  
3291.000000	99.782111  
3290.000000	99.782304  
3289.000000	99.782426  
3288.000000	99.782425  
3287.000000	99.782366  
3286.000000	99.782374  
3285.000000	99.782511  
3284.000000	99.782736  
3283.000000	99.782976  
3282.000000	99.783218  
3281.000000	99.783495  
3280.000000	99.783808  
3279.000000	99.784115  
3278.000000	99.784376  
3277.000000	99.784582  
3276.000000	99.784723  
3275.000000	99.784749  
3274.000000	99.784610  
3273.000000	99.784359  
3272.000000	99.784213  
3271.000000	99.784419  
3270.000000	99.785024  
3269.000000	99.785782  
3268.000000	99.786363  
3267.000000	99.786664  
3266.000000	99.786834  
3265.000000	99.787059  
3264.000000	99.787435  
3263.000000	99.788072  
3262.000000	99.789140  
3261.000000	99.790631  
3260.000000	99.792165  
3259.000000	99.793206  
3258.000000	99.793520  
3257.000000	99.793355  
3256.000000	99.793178  
3255.000000	99.793193  
3254.000000	99.793283  
3253.000000	99.793352  
3252.000000	99.793585  
3251.000000	99.794314  
3250.000000	99.795638  
3249.000000	99.797265  
3248.000000	99.798757  
3247.000000	99.799817  
3246.000000	99.800333  
3245.000000	99.800337  
3244.000000	99.800053  
3243.000000	99.799882  
3242.000000	99.800146  
3241.000000	99.800827  
3240.000000	99.801687  
3239.000000	99.802637  
3238.000000	99.803844  
3237.000000	99.805419  
3236.000000	99.807137  
3235.000000	99.808560  
3234.000000	99.809390  
3233.000000	99.809671  
3232.000000	99.809706  
3231.000000	99.809850  
3230.000000	99.810277  
3229.000000	99.810884  
3228.000000	99.811400  
3227.000000	99.811621  
3226.000000	99.811520  
3225.000000	99.811216  
3224.000000	99.810919  
3223.000000	99.810874  
3222.000000	99.811250  
3221.000000	99.812001  
3220.000000	99.812850  
3219.000000	99.813500  
3218.000000	99.813878  
3217.000000	99.814188  
3216.000000	99.814752  
3215.000000	99.815768  
3214.000000	99.817136  
3213.000000	99.818441  
3212.000000	99.819218  
3211.000000	99.819297  
3210.000000	99.818877  
3209.000000	99.818380  
3208.000000	99.818181  
3207.000000	99.818424  
3206.000000	99.819019  
3205.000000	99.819723  
3204.000000	99.820318  
3203.000000	99.820766  
3202.000000	99.821155  
3201.000000	99.821531  
3200.000000	99.821871  
3199.000000	99.822199  
3198.000000	99.822622  
3197.000000	99.823180  
3196.000000	99.823771  
3195.000000	99.824276  
3194.000000	99.824677  
3193.000000	99.824976  
3192.000000	99.825098  
3191.000000	99.824978  
3190.000000	99.824729  
3189.000000	99.824631  
3188.000000	99.824894  
3187.000000	99.825515  
3186.000000	99.826361  
3185.000000	99.827295  
3184.000000	99.828178  
3183.000000	99.828859  
3182.000000	99.829254  
3181.000000	99.829427  
3180.000000	99.829564  
3179.000000	99.829857  
3178.000000	99.830386  
3177.000000	99.831041  
3176.000000	99.831592  
3175.000000	99.831919  
3174.000000	99.832144  
3173.000000	99.832439  
3172.000000	99.832745  
3171.000000	99.832871  
3170.000000	99.832898  
3169.000000	99.833250  
3168.000000	99.834197  
3167.000000	99.835413  
3166.000000	99.836221  
3165.000000	99.836259  
3164.000000	99.835794  
3163.000000	99.835403  
3162.000000	99.835373  
3161.000000	99.835536  
3160.000000	99.835618  
3159.000000	99.835622  
3158.000000	99.835790  
3157.000000	99.836202  
3156.000000	99.836539  
3155.000000	99.836350  
3154.000000	99.835496  
3153.000000	99.834302  
3152.000000	99.833331  
3151.000000	99.833053  
3150.000000	99.833648  
3149.000000	99.834927  
3148.000000	99.836374  
3147.000000	99.837469  
3146.000000	99.838076  
3145.000000	99.838447  
3144.000000	99.838875  
3143.000000	99.839413  
3142.000000	99.839908  
3141.000000	99.840233  
3140.000000	99.840389  
3139.000000	99.840450  
3138.000000	99.840474  
3137.000000	99.840509  
3136.000000	99.840645  
3135.000000	99.841013  
3134.000000	99.841678  
3133.000000	99.842481  
3132.000000	99.843070  
3131.000000	99.843197  
3130.000000	99.843036  
3129.000000	99.843107  
3128.000000	99.843820  
3127.000000	99.845108  
3126.000000	99.846483  
3125.000000	99.847402  
3124.000000	99.847584  
3123.000000	99.847057  
3122.000000	99.846119  
3121.000000	99.845259  
3120.000000	99.844920  
3119.000000	99.845251  
3118.000000	99.846067  
3117.000000	99.847033  
3116.000000	99.847899  
3115.000000	99.848616  
3114.000000	99.849254  
3113.000000	99.849838  
3112.000000	99.850256  
3111.000000	99.850368  
3110.000000	99.850208  
3109.000000	99.850016  
3108.000000	99.849984  
3107.000000	99.849970  
3106.000000	99.849586  
3105.000000	99.848653  
3104.000000	99.847575  
3103.000000	99.847158  
3102.000000	99.848009  
3101.000000	99.850121  
3100.000000	99.852873  
3099.000000	99.855494  
3098.000000	99.857576  
3097.000000	99.859085  
3096.000000	99.860049  
3095.000000	99.860449  
3094.000000	99.860376  
3093.000000	99.860034  
3092.000000	99.859489  
3091.000000	99.858662  
3090.000000	99.857744  
3089.000000	99.857319  
3088.000000	99.857758  
3087.000000	99.858598  
3086.000000	99.858899  
3085.000000	99.858261  
3084.000000	99.857173  
3083.000000	99.856280  
3082.000000	99.855634  
3081.000000	99.854937  
3080.000000	99.854289  
3079.000000	99.854350  
3078.000000	99.855729  
3077.000000	99.858368  
3076.000000	99.861478  
3075.000000	99.863984  
3074.000000	99.865122  
3073.000000	99.864813  
3072.000000	99.863652  
3071.000000	99.862418  
3070.000000	99.861475  
3069.000000	99.860651  
3068.000000	99.859670  
3067.000000	99.858669  
3066.000000	99.858344  
3065.000000	99.859539  
3064.000000	99.862401  
3063.000000	99.865728  
3062.000000	99.867473  
3061.000000	99.866321  
3060.000000	99.862774  
3059.000000	99.858683  
3058.000000	99.855731  
3057.000000	99.854595  
3056.000000	99.855289  
3055.000000	99.857484  
3054.000000	99.860241  
3053.000000	99.862069  
3052.000000	99.861798  
3051.000000	99.859318  
3050.000000	99.855458  
3049.000000	99.851487  
3048.000000	99.848729  
3047.000000	99.847917  
3046.000000	99.848366  
3045.000000	99.848216  
3044.000000	99.846317  
3043.000000	99.843706  
3042.000000	99.842560  
3041.000000	99.843645  
3040.000000	99.845453  
3039.000000	99.845957  
3038.000000	99.844455  
3037.000000	99.841435  
3036.000000	99.837434  
3035.000000	99.832723  
3034.000000	99.827769  
3033.000000	99.823150  
3032.000000	99.818878  
3031.000000	99.814297  
3030.000000	99.808940  
3029.000000	99.803408  
3028.000000	99.799248  
3027.000000	99.797772  
3026.000000	99.798657  
3025.000000	99.799600  
3024.000000	99.797767  
3023.000000	99.791976  
3022.000000	99.783496  
3021.000000	99.774578  
3020.000000	99.766191  
3019.000000	99.757633  
3018.000000	99.748435  
3017.000000	99.739808  
3016.000000	99.733522  
3015.000000	99.729659  
3014.000000	99.726309  
3013.000000	99.721674  
3012.000000	99.715873  
3011.000000	99.710287  
3010.000000	99.705632  
3009.000000	99.701304  
3008.000000	99.696380  
3007.000000	99.690623  
3006.000000	99.684477  
3005.000000	99.678496  
3004.000000	99.672881  
3003.000000	99.667251  
3002.000000	99.660872  
3001.000000	99.653469  
3000.000000	99.645803  
2999.000000	99.639082  
2998.000000	99.633856  
2997.000000	99.629861  
2996.000000	99.626752  
2995.000000	99.624128  
2994.000000	99.620676  
2993.000000	99.614273  
2992.000000	99.603806  
2991.000000	99.590652  
2990.000000	99.577903  
2989.000000	99.568364  
2988.000000	99.563576  
2987.000000	99.563928  
2986.000000	99.568582  
2985.000000	99.575255  
2984.000000	99.581007  
2983.000000	99.583828  
2982.000000	99.583523  
2981.000000	99.581425  
2980.000000	99.579615  
2979.000000	99.579843  
2978.000000	99.582216  
2977.000000	99.584745  
2976.000000	99.584804  
2975.000000	99.581417  
2974.000000	99.576020  
2973.000000	99.571172  
2972.000000	99.568933  
2971.000000	99.570192  
2970.000000	99.574554  
2969.000000	99.580384  
2968.000000	99.585571  
2967.000000	99.588938  
2966.000000	99.590958  
2965.000000	99.593003  
2964.000000	99.596059  
2963.000000	99.600110  
2962.000000	99.604417  
2961.000000	99.608206  
2960.000000	99.611253  
2959.000000	99.613874  
2958.000000	99.616324  
2957.000000	99.618425  
2956.000000	99.620065  
2955.000000	99.621798  
2954.000000	99.624522  
2953.000000	99.628572  
2952.000000	99.633485  
2951.000000	99.638529  
2950.000000	99.643061  
2949.000000	99.646536  
2948.000000	99.648717  
2947.000000	99.649960  
2946.000000	99.650951  
2945.000000	99.652161  
2944.000000	99.653797  
2943.000000	99.655956  
2942.000000	99.658204  
2941.000000	99.659214  
2940.000000	99.657789  
2939.000000	99.654658  
2938.000000	99.652599  
2937.000000	99.654085  
2936.000000	99.659035  
2935.000000	99.665032  
2934.000000	99.669388  
2933.000000	99.670852  
2932.000000	99.669811  
2931.000000	99.667377  
2930.000000	99.664361  
2929.000000	99.661134  
2928.000000	99.658285  
2927.000000	99.656765  
2926.000000	99.656842  
2925.000000	99.657333  
2924.000000	99.656734  
2923.000000	99.654969  
2922.000000	99.653202  
2921.000000	99.651997  
2920.000000	99.650711  
2919.000000	99.648902  
2918.000000	99.647243  
2917.000000	99.646443  
2916.000000	99.646051  
2915.000000	99.645060  
2914.000000	99.643224  
2913.000000	99.641150  
2912.000000	99.639461  
2911.000000	99.638449  
2910.000000	99.638266  
2909.000000	99.638821  
2908.000000	99.639562  
2907.000000	99.639785  
2906.000000	99.639073  
2905.000000	99.637189  
2904.000000	99.633865  
2903.000000	99.629324  
2902.000000	99.625068  
2901.000000	99.623625  
2900.000000	99.627025  
2899.000000	99.635141  
2898.000000	99.645113  
2897.000000	99.652717  
2896.000000	99.655322  
2895.000000	99.653843  
2894.000000	99.651665  
2893.000000	99.651531  
2892.000000	99.653765  
2891.000000	99.657318  
2890.000000	99.661368  
2889.000000	99.665371  
2888.000000	99.668499  
2887.000000	99.670264  
2886.000000	99.671468  
2885.000000	99.673605  
2884.000000	99.677277  
2883.000000	99.681918  
2882.000000	99.686992  
2881.000000	99.692614  
2880.000000	99.698767  
2879.000000	99.704630  
2878.000000	99.709205  
2877.000000	99.712341  
2876.000000	99.714844  
2875.000000	99.717752  
2874.000000	99.721598  
2873.000000	99.726099  
2872.000000	99.730398  
2871.000000	99.733803  
2870.000000	99.736424  
2869.000000	99.739066  
2868.000000	99.742472  
2867.000000	99.746774  
2866.000000	99.751508  
2865.000000	99.755986  
2864.000000	99.759736  
2863.000000	99.762860  
2862.000000	99.765907  
2861.000000	99.769240  
2860.000000	99.772686  
2859.000000	99.776070  
2858.000000	99.779764  
2857.000000	99.784184  
2856.000000	99.788823  
2855.000000	99.792424  
2854.000000	99.794275  
2853.000000	99.795039  
2852.000000	99.796082  
2851.000000	99.798280  
2850.000000	99.801766  
2849.000000	99.806283  
2848.000000	99.811387  
2847.000000	99.816553  
2846.000000	99.821372  
2845.000000	99.825547  
2844.000000	99.828704  
2843.000000	99.830521  
2842.000000	99.831322  
2841.000000	99.832276  
2840.000000	99.834593  
2839.000000	99.838409  
2838.000000	99.842631  
2837.000000	99.845891  
2836.000000	99.847676  
2835.000000	99.848672  
2834.000000	99.850150  
2833.000000	99.852805  
2832.000000	99.856044  
2831.000000	99.858509  
2830.000000	99.859381  
2829.000000	99.859095  
2828.000000	99.858835  
2827.000000	99.859434  
2826.000000	99.860892  
2825.000000	99.862746  
2824.000000	99.864597  
2823.000000	99.866233  
2822.000000	99.867493  
2821.000000	99.868258  
2820.000000	99.868648  
2819.000000	99.869065  
2818.000000	99.869849  
2817.000000	99.870845  
2816.000000	99.871489  
2815.000000	99.871390  
2814.000000	99.870667  
2813.000000	99.869690  
2812.000000	99.868785  
2811.000000	99.868411  
2810.000000	99.869248  
2809.000000	99.871594  
2808.000000	99.874662  
2807.000000	99.876935  
2806.000000	99.877503  
2805.000000	99.876712  
2804.000000	99.875573  
2803.000000	99.874832  
2802.000000	99.874746  
2801.000000	99.875313  
2800.000000	99.876289  
2799.000000	99.877155  
2798.000000	99.877494  
2797.000000	99.877353  
2796.000000	99.877005  
2795.000000	99.876474  
2794.000000	99.875653  
2793.000000	99.874818  
2792.000000	99.874552  
2791.000000	99.875066  
2790.000000	99.875940  
2789.000000	99.876712  
2788.000000	99.877480  
2787.000000	99.878597  
2786.000000	99.879972  
2785.000000	99.880971  
2784.000000	99.881076  
2783.000000	99.880395  
2782.000000	99.879533  
2781.000000	99.879065  
2780.000000	99.879164  
2779.000000	99.879656  
2778.000000	99.880244  
2777.000000	99.880743  
2776.000000	99.881193  
2775.000000	99.881774  
2774.000000	99.882572  
2773.000000	99.883478  
2772.000000	99.884345  
2771.000000	99.885192  
2770.000000	99.886117  
2769.000000	99.887021  
2768.000000	99.887579  
2767.000000	99.887600  
2766.000000	99.887322  
2765.000000	99.887162  
2764.000000	99.887177  
2763.000000	99.886961  
2762.000000	99.886170  
2761.000000	99.884985  
2760.000000	99.884007  
2759.000000	99.883688  
2758.000000	99.884029  
2757.000000	99.884801  
2756.000000	99.885803  
2755.000000	99.886813  
2754.000000	99.887468  
2753.000000	99.887512  
2752.000000	99.887167  
2751.000000	99.887061  
2750.000000	99.887603  
2749.000000	99.888572  
2748.000000	99.889372  
2747.000000	99.889675  
2746.000000	99.889664  
2745.000000	99.889668  
2744.000000	99.889726  
2743.000000	99.889604  
2742.000000	99.889195  
2741.000000	99.888757  
2740.000000	99.888689  
2739.000000	99.889131  
2738.000000	99.889870  
2737.000000	99.890585  
2736.000000	99.891133  
2735.000000	99.891534  
2734.000000	99.891753  
2733.000000	99.891669  
2732.000000	99.891271  
2731.000000	99.890749  
2730.000000	99.890327  
2729.000000	99.890081  
2728.000000	99.889991  
2727.000000	99.890064  
2726.000000	99.890289  
2725.000000	99.890540  
2724.000000	99.890657  
2723.000000	99.890665  
2722.000000	99.890780  
2721.000000	99.891156  
2720.000000	99.891682  
2719.000000	99.892078  
2718.000000	99.892189  
2717.000000	99.892108  
2716.000000	99.892045  
2715.000000	99.892143  
2714.000000	99.892421  
2713.000000	99.892826  
2712.000000	99.893286  
2711.000000	99.893727  
2710.000000	99.894099  
2709.000000	99.894403  
2708.000000	99.894668  
2707.000000	99.894865  
2706.000000	99.894917  
2705.000000	99.894803  
2704.000000	99.894659  
2703.000000	99.894675  
2702.000000	99.894897  
2701.000000	99.895181  
2700.000000	99.895358  
2699.000000	99.895424  
2698.000000	99.895527  
2697.000000	99.895771  
2696.000000	99.896089  
2695.000000	99.896310  
2694.000000	99.896329  
2693.000000	99.896180  
2692.000000	99.896008  
2691.000000	99.895931  
2690.000000	99.895944  
2689.000000	99.895957  
2688.000000	99.895924  
2687.000000	99.895899  
2686.000000	99.895946  
2685.000000	99.896045  
2684.000000	99.896111  
2683.000000	99.896098  
2682.000000	99.896020  
2681.000000	99.895897  
2680.000000	99.895734  
2679.000000	99.895542  
2678.000000	99.895354  
2677.000000	99.895206  
2676.000000	99.895108  
2675.000000	99.895042  
2674.000000	99.894976  
2673.000000	99.894877  
2672.000000	99.894726  
2671.000000	99.894530  
2670.000000	99.894317  
2669.000000	99.894111  
2668.000000	99.893917  
2667.000000	99.893730  
2666.000000	99.893546  
2665.000000	99.893367  
2664.000000	99.893193  
2663.000000	99.893024  
2662.000000	99.892856  
2661.000000	99.892692  
2660.000000	99.892540  
2659.000000	99.892411  
2658.000000	99.892305  
2657.000000	99.892216  
2656.000000	99.892141  
2655.000000	99.892076  
2654.000000	99.892020  
2653.000000	99.891978  
2652.000000	99.891956  
2651.000000	99.891964  
2650.000000	99.892004  
2649.000000	99.892068  
2648.000000	99.892145  
2647.000000	99.892224  
2646.000000	99.892309  
2645.000000	99.892414  
2644.000000	99.892555  
2643.000000	99.892730  
2642.000000	99.892911  
2641.000000	99.893073  
2640.000000	99.893217  
2639.000000	99.893391  
2638.000000	99.893655  
2637.000000	99.894027  
2636.000000	99.894455  
2635.000000	99.894869  
2634.000000	99.895243  
2633.000000	99.895613  
2632.000000	99.896044  
2631.000000	99.896577  
2630.000000	99.897194  
2629.000000	99.897823  
2628.000000	99.898364  
2627.000000	99.898751  
2626.000000	99.899002  
2625.000000	99.899218  
2624.000000	99.899515  
2623.000000	99.899945  
2622.000000	99.900506  
2621.000000	99.901201  
2620.000000	99.902080  
2619.000000	99.903157  
2618.000000	99.904316  
2617.000000	99.905327  
2616.000000	99.906037  
2615.000000	99.906541  
2614.000000	99.907124  
2613.000000	99.908016  
2612.000000	99.909199  
2611.000000	99.910433  
2610.000000	99.911413  
2609.000000	99.911939  
2608.000000	99.912045  
2607.000000	99.912035  
2606.000000	99.912304  
2605.000000	99.913017  
2604.000000	99.914009  
2603.000000	99.914986  
2602.000000	99.915824  
2601.000000	99.916664  
2600.000000	99.917788  
2599.000000	99.919331  
2598.000000	99.920971  
2597.000000	99.921973  
2596.000000	99.921766  
2595.000000	99.920451  
2594.000000	99.918824  
2593.000000	99.917797  
2592.000000	99.917747  
2591.000000	99.918509  
2590.000000	99.919711  
2589.000000	99.921077  
2588.000000	99.922507  
2587.000000	99.923900  
2586.000000	99.925010  
2585.000000	99.925574  
2584.000000	99.925577  
2583.000000	99.925357  
2582.000000	99.925296  
2581.000000	99.925407  
2580.000000	99.925413  
2579.000000	99.925188  
2578.000000	99.924934  
2577.000000	99.924869  
2576.000000	99.924914  
2575.000000	99.924833  
2574.000000	99.924555  
2573.000000	99.924262  
2572.000000	99.924189  
2571.000000	99.924451  
2570.000000	99.924975  
2569.000000	99.925527  
2568.000000	99.925860  
2567.000000	99.925929  
2566.000000	99.925935  
2565.000000	99.926092  
2564.000000	99.926399  
2563.000000	99.926701  
2562.000000	99.926904  
2561.000000	99.927034  
2560.000000	99.927098  
2559.000000	99.926988  
2558.000000	99.926615  
2557.000000	99.926134  
2556.000000	99.925958  
2555.000000	99.926450  
2554.000000	99.927563  
2553.000000	99.928741  
2552.000000	99.929362  
2551.000000	99.929314  
2550.000000	99.928959  
2549.000000	99.928576  
2548.000000	99.928032  
2547.000000	99.927131  
2546.000000	99.926034  
2545.000000	99.925193  
2544.000000	99.924938  
2543.000000	99.925214  
2542.000000	99.925618  
2541.000000	99.925684  
2540.000000	99.925272  
2539.000000	99.924691  
2538.000000	99.924395  
2537.000000	99.924472  
2536.000000	99.924565  
2535.000000	99.924359  
2534.000000	99.923982  
2533.000000	99.923756  
2532.000000	99.923699  
2531.000000	99.923534  
2530.000000	99.923190  
2529.000000	99.922997  
2528.000000	99.923230  
2527.000000	99.923674  
2526.000000	99.923781  
2525.000000	99.923279  
2524.000000	99.922484  
2523.000000	99.922005  
2522.000000	99.922163  
2521.000000	99.922826  
2520.000000	99.923622  
2519.000000	99.924204  
2518.000000	99.924348  
2517.000000	99.924006  
2516.000000	99.923351  
2515.000000	99.922718  
2514.000000	99.922403  
2513.000000	99.922557  
2512.000000	99.923249  
2511.000000	99.924452  
2510.000000	99.925940  
2509.000000	99.927336  
2508.000000	99.928426  
2507.000000	99.929340  
2506.000000	99.930214  
2505.000000	99.930775  
2504.000000	99.930543  
2503.000000	99.929486  
2502.000000	99.928242  
2501.000000	99.927599  
2500.000000	99.927871  
2499.000000	99.928897  
2498.000000	99.930305  
2497.000000	99.931593  
2496.000000	99.932234  
2495.000000	99.932035  
2494.000000	99.931395  
2493.000000	99.930994  
2492.000000	99.931175  
2491.000000	99.931819  
2490.000000	99.932768  
2489.000000	99.934088  
2488.000000	99.935842  
2487.000000	99.937752  
2486.000000	99.939194  
2485.000000	99.939552  
2484.000000	99.938695  
2483.000000	99.937135  
2482.000000	99.935738  
2481.000000	99.935024  
2480.000000	99.934790  
2479.000000	99.934493  
2478.000000	99.933871  
2477.000000	99.933153  
2476.000000	99.932748  
2475.000000	99.932895  
2474.000000	99.933570  
2473.000000	99.934528  
2472.000000	99.935396  
2471.000000	99.935856  
2470.000000	99.935832  
2469.000000	99.935494  
2468.000000	99.935087  
2467.000000	99.934767  
2466.000000	99.934555  
2465.000000	99.934359  
2464.000000	99.934056  
2463.000000	99.933620  
2462.000000	99.933195  
2461.000000	99.932966  
2460.000000	99.932941  
2459.000000	99.932906  
2458.000000	99.932631  
2457.000000	99.932104  
2456.000000	99.931534  
2455.000000	99.931145  
2454.000000	99.930993  
2453.000000	99.930955  
2452.000000	99.930837  
2451.000000	99.930512  
2450.000000	99.929964  
2449.000000	99.929274  
2448.000000	99.928606  
2447.000000	99.928146  
2446.000000	99.927991  
2445.000000	99.928076  
2444.000000	99.928193  
2443.000000	99.928143  
2442.000000	99.927868  
2441.000000	99.927428  
2440.000000	99.926972  
2439.000000	99.926654  
2438.000000	99.926532  
2437.000000	99.926543  
2436.000000	99.926554  
2435.000000	99.926460  
2434.000000	99.926254  
2433.000000	99.926025  
2432.000000	99.925893  
2431.000000	99.925913  
2430.000000	99.925998  
2429.000000	99.925930  
2428.000000	99.925530  
2427.000000	99.924829  
2426.000000	99.924062  
2425.000000	99.923455  
2424.000000	99.923035  
2423.000000	99.922740  
2422.000000	99.922665  
2421.000000	99.923019  
2420.000000	99.923749  
2419.000000	99.924302  
2418.000000	99.924081  
2417.000000	99.923038  
2416.000000	99.921691  
2415.000000	99.920551  
2414.000000	99.919648  
2413.000000	99.918768  
2412.000000	99.917918  
2411.000000	99.917351  
2410.000000	99.917205  
2409.000000	99.917327  
2408.000000	99.917484  
2407.000000	99.917539  
2406.000000	99.917436  
2405.000000	99.917187  
2404.000000	99.916936  
2403.000000	99.916884  
2402.000000	99.917044  
2401.000000	99.917170  
2400.000000	99.916969  
2399.000000	99.916320  
2398.000000	99.915282  
2397.000000	99.914066  
2396.000000	99.913027  
2395.000000	99.912458  
2394.000000	99.912231  
2393.000000	99.911888  
2392.000000	99.911243  
2391.000000	99.910659  
2390.000000	99.910510  
2389.000000	99.910655  
2388.000000	99.910735  
2387.000000	99.910799  
2386.000000	99.911206  
2385.000000	99.911970  
2384.000000	99.912620  
2383.000000	99.912778  
2382.000000	99.912505  
2381.000000	99.911984  
2380.000000	99.911213  
2379.000000	99.910249  
2378.000000	99.909547  
2377.000000	99.909653  
2376.000000	99.910627  
2375.000000	99.911941  
2374.000000	99.912922  
2373.000000	99.913201  
2372.000000	99.912714  
2371.000000	99.911658  
2370.000000	99.910509  
2369.000000	99.909848  
2368.000000	99.909988  
2367.000000	99.910796  
2366.000000	99.911881  
2365.000000	99.912841  
2364.000000	99.913279  
2363.000000	99.912785  
2362.000000	99.911210  
2361.000000	99.909003  
2360.000000	99.907011  
2359.000000	99.905760  
2358.000000	99.905104  
2357.000000	99.904718  
2356.000000	99.904695  
2355.000000	99.905245  
2354.000000	99.906145  
2353.000000	99.906776  
2352.000000	99.906839  
2351.000000	99.906581  
2350.000000	99.906364  
2349.000000	99.906314  
2348.000000	99.906264  
2347.000000	99.906094  
2346.000000	99.905948  
2345.000000	99.906025  
2344.000000	99.906278  
2343.000000	99.906413  
2342.000000	99.906321  
2341.000000	99.906067  
2340.000000	99.905790  
2339.000000	99.905654  
2338.000000	99.905748  
2337.000000	99.905981  
2336.000000	99.906085  
2335.000000	99.905918  
2334.000000	99.905654  
2333.000000	99.905664  
2332.000000	99.906084  
2331.000000	99.906739  
2330.000000	99.907298  
2329.000000	99.907654  
2328.000000	99.907872  
2327.000000	99.908070  
2326.000000	99.908268  
2325.000000	99.908419  
2324.000000	99.908543  
2323.000000	99.908797  
2322.000000	99.909364  
2321.000000	99.910238  
2320.000000	99.911193  
2319.000000	99.911979  
2318.000000	99.912550  
2317.000000	99.913038  
2316.000000	99.913576  
2315.000000	99.914201  
2314.000000	99.914871  
2313.000000	99.915607  
2312.000000	99.916428  
2311.000000	99.917282  
2310.000000	99.918022  
2309.000000	99.918613  
2308.000000	99.919190  
2307.000000	99.919927  
2306.000000	99.920807  
2305.000000	99.921684  
2304.000000	99.922478  
2303.000000	99.923292  
2302.000000	99.924205  
2301.000000	99.925137  
2300.000000	99.925930  
2299.000000	99.926583  
2298.000000	99.927205  
2297.000000	99.927811  
2296.000000	99.928257  
2295.000000	99.928495  
2294.000000	99.928716  
2293.000000	99.929218  
2292.000000	99.930109  
2291.000000	99.931251  
2290.000000	99.932385  
2289.000000	99.933311  
2288.000000	99.933996  
2287.000000	99.934545  
2286.000000	99.935100  
2285.000000	99.935681  
2284.000000	99.936172  
2283.000000	99.936533  
2282.000000	99.936973  
2281.000000	99.937752  
2280.000000	99.938853  
2279.000000	99.939968  
2278.000000	99.940772  
2277.000000	99.941257  
2276.000000	99.941747  
2275.000000	99.942577  
2274.000000	99.943779  
2273.000000	99.945191  
2272.000000	99.946615  
2271.000000	99.947866  
2270.000000	99.948837  
2269.000000	99.949545  
2268.000000	99.950137  
2267.000000	99.950799  
2266.000000	99.951652  
2265.000000	99.952678  
2264.000000	99.953686  
2263.000000	99.954420  
2262.000000	99.954794  
2261.000000	99.955026  
2260.000000	99.955460  
2259.000000	99.956250  
2258.000000	99.957248  
2257.000000	99.958225  
2256.000000	99.959124  
2255.000000	99.960017  
2254.000000	99.960919  
2253.000000	99.961818  
2252.000000	99.962837  
2251.000000	99.964180  
2250.000000	99.965813  
2249.000000	99.967306  
2248.000000	99.968173  
2247.000000	99.968299  
2246.000000	99.967956  
2245.000000	99.967549  
2244.000000	99.967394  
2243.000000	99.967693  
2242.000000	99.968570  
2241.000000	99.970018  
2240.000000	99.972035  
2239.000000	99.974652  
2238.000000	99.977581  
2237.000000	99.979935  
2236.000000	99.980787  
2235.000000	99.980054  
2234.000000	99.978769  
2233.000000	99.978243  
2232.000000	99.978829  
2231.000000	99.979894  
2230.000000	99.980605  
2229.000000	99.980699  
2228.000000	99.980542  
2227.000000	99.980659  
2226.000000	99.981273  
2225.000000	99.982276  
2224.000000	99.983433  
2223.000000	99.984617  
2222.000000	99.985806  
2221.000000	99.986888  
2220.000000	99.987662  
2219.000000	99.988112  
2218.000000	99.988596  
2217.000000	99.989560  
2216.000000	99.991067  
2215.000000	99.992777  
2214.000000	99.994334  
2213.000000	99.995662  
2212.000000	99.996857  
2211.000000	99.997970  
2210.000000	99.999012  
2209.000000	100.000049 
2208.000000	100.001147 
2207.000000	100.002266 
2206.000000	100.003309 
2205.000000	100.004260 
2204.000000	100.005230 
2203.000000	100.006389 
2202.000000	100.007903 
2201.000000	100.009785 
2200.000000	100.011602 
2199.000000	100.012714 
2198.000000	100.012975 
2197.000000	100.013110 
2196.000000	100.014060 
2195.000000	100.016200 
2194.000000	100.019159 
2193.000000	100.022095 
2192.000000	100.024161 
2191.000000	100.025030 
2190.000000	100.025313 
2189.000000	100.026392 
2188.000000	100.029168 
2187.000000	100.032656 
2186.000000	100.034308 
2185.000000	100.032488 
2184.000000	100.028568 
2183.000000	100.026032 
2182.000000	100.027071 
2181.000000	100.030813 
2180.000000	100.034708 
2179.000000	100.037154 
2178.000000	100.038368 
2177.000000	100.039371 
2176.000000	100.040767 
2175.000000	100.042159 
2174.000000	100.042584 
2173.000000	100.042084 
2172.000000	100.042771 
2171.000000	100.047127 
2170.000000	100.054793 
2169.000000	100.062131 
2168.000000	100.066073 
2167.000000	100.067386 
2166.000000	100.068887 
2165.000000	100.071595 
2164.000000	100.074667 
2163.000000	100.078458 
2162.000000	100.084661 
2161.000000	100.092500 
2160.000000	100.097202 
2159.000000	100.094269 
2158.000000	100.083675 
2157.000000	100.069044 
2156.000000	100.054513 
2155.000000	100.043410 
2154.000000	100.038351 
2153.000000	100.039960 
2152.000000	100.045387 
2151.000000	100.049878 
2150.000000	100.050837 
2149.000000	100.049906 
2148.000000	100.050734 
2147.000000	100.054710 
2146.000000	100.059075 
2145.000000	100.059409 
2144.000000	100.053933 
2143.000000	100.044995 
2142.000000	100.036728 
2141.000000	100.031337 
2140.000000	100.028064 
2139.000000	100.025377 
2138.000000	100.023198 
2137.000000	100.022683 
2136.000000	100.024230 
2135.000000	100.026418 
2134.000000	100.027266 
2133.000000	100.026279 
2132.000000	100.024647 
2131.000000	100.023207 
2130.000000	100.020914 
2129.000000	100.016121 
2128.000000	100.009166 
2127.000000	100.002715 
2126.000000	99.999146  
2125.000000	99.998457  
2124.000000	99.999148  
2123.000000	100.000327 
2122.000000	100.001936 
2121.000000	100.003497 
2120.000000	100.004015 
2119.000000	100.003140 
2118.000000	100.001551 
2117.000000	100.000042 
2116.000000	99.998861  
2115.000000	99.997943  
2114.000000	99.997295  
2113.000000	99.996911  
2112.000000	99.996579  
2111.000000	99.996103  
2110.000000	99.995588  
2109.000000	99.995223  
2108.000000	99.994877  
2107.000000	99.994156  
2106.000000	99.992879  
2105.000000	99.991383  
2104.000000	99.990345  
2103.000000	99.990177  
2102.000000	99.990743  
2101.000000	99.991458  
2100.000000	99.991761  
2099.000000	99.991514  
2098.000000	99.990988  
2097.000000	99.990625  
2096.000000	99.990704  
2095.000000	99.991191  
2094.000000	99.991826  
2093.000000	99.992307  
2092.000000	99.992518  
2091.000000	99.992565  
2090.000000	99.992656  
2089.000000	99.992913  
2088.000000	99.993296  
2087.000000	99.993644  
2086.000000	99.993789  
2085.000000	99.993742  
2084.000000	99.993814  
2083.000000	99.994436  
2082.000000	99.995718  
2081.000000	99.997222  
2080.000000	99.998325  
2079.000000	99.998917  
2078.000000	99.999638  
2077.000000	100.001289 
2076.000000	100.004012 
2075.000000	100.006983 
2074.000000	100.008949 
2073.000000	100.009095 
2072.000000	100.007693 
2071.000000	100.006110 
2070.000000	100.005651 
2069.000000	100.006512 
2068.000000	100.007887 
2067.000000	100.009140 
2066.000000	100.010466 
2065.000000	100.012293 
2064.000000	100.014760 
2063.000000	100.017895 
2062.000000	100.021549 
2061.000000	100.024892 
2060.000000	100.026840 
2059.000000	100.027459 
2058.000000	100.028303 
2057.000000	100.030705 
2056.000000	100.034189 
2055.000000	100.037148 
2054.000000	100.038862 
2053.000000	100.040194 
2052.000000	100.042445 
2051.000000	100.046050 
2050.000000	100.050296 
2049.000000	100.053871 
2048.000000	100.055974 
2047.000000	100.057144 
2046.000000	100.058782 
2045.000000	100.061523 
2044.000000	100.064414 
2043.000000	100.066163 
2042.000000	100.066839 
2041.000000	100.067786 
2040.000000	100.069934 
2039.000000	100.072815 
2038.000000	100.075319 
2037.000000	100.076928 
2036.000000	100.078055 
2035.000000	100.079195 
2034.000000	100.079914 
2033.000000	100.079169 
2032.000000	100.076925 
2031.000000	100.075056 
2030.000000	100.075867 
2029.000000	100.079600 
2028.000000	100.083888 
2027.000000	100.085985 
2026.000000	100.085240 
2025.000000	100.082966 
2024.000000	100.080939 
2023.000000	100.080293 
2022.000000	100.081286 
2021.000000	100.083116 
2020.000000	100.084245 
2019.000000	100.083825 
2018.000000	100.082494 
2017.000000	100.081134 
2016.000000	100.079371 
2015.000000	100.076454 
2014.000000	100.073197 
2013.000000	100.071567 
2012.000000	100.072415 
2011.000000	100.074848 
2010.000000	100.077796 
2009.000000	100.080990 
2008.000000	100.084016 
2007.000000	100.085757 
2006.000000	100.085572 
2005.000000	100.084240 
2004.000000	100.082975 
2003.000000	100.081945 
2002.000000	100.080277 
2001.000000	100.077094 
2000.000000	100.072130 
1999.000000	100.065801 
1998.000000	100.059236 
1997.000000	100.054002 
1996.000000	100.051448 
1995.000000	100.052300 
1994.000000	100.056494 
1993.000000	100.062577 
1992.000000	100.067526 
1991.000000	100.068538 
1990.000000	100.065220 
1989.000000	100.059793 
1988.000000	100.055421 
1987.000000	100.054335 
1986.000000	100.056982 
1985.000000	100.062074 
1984.000000	100.067257 
1983.000000	100.070505 
1982.000000	100.071210 
1981.000000	100.069823 
1980.000000	100.067179 
1979.000000	100.064720 
1978.000000	100.064396 
1977.000000	100.066611 
1976.000000	100.068790 
1975.000000	100.067987 
1974.000000	100.064598 
1973.000000	100.061656 
1972.000000	100.060693 
1971.000000	100.060441 
1970.000000	100.060010 
1969.000000	100.060986 
1968.000000	100.064953 
1967.000000	100.070397 
1966.000000	100.073964 
1965.000000	100.074231 
1964.000000	100.072498 
1963.000000	100.070417 
1962.000000	100.068416 
1961.000000	100.066396 
1960.000000	100.064420 
1959.000000	100.062184 
1958.000000	100.058876 
1957.000000	100.054262 
1956.000000	100.049213 
1955.000000	100.044457 
1954.000000	100.039369 
1953.000000	100.032908 
1952.000000	100.025795 
1951.000000	100.020766 
1950.000000	100.019970 
1949.000000	100.022888 
1948.000000	100.026908 
1947.000000	100.029598 
1946.000000	100.029882 
1945.000000	100.027402 
1944.000000	100.022443 
1943.000000	100.016812 
1942.000000	100.013232 
1941.000000	100.012661 
1940.000000	100.013374 
1939.000000	100.013201 
1938.000000	100.011751 
1937.000000	100.010079 
1936.000000	100.009017 
1935.000000	100.008406 
1934.000000	100.007629 
1933.000000	100.006318 
1932.000000	100.004659 
1931.000000	100.003253 
1930.000000	100.002576 
1929.000000	100.002436 
1928.000000	100.001993 
1927.000000	100.000582 
1926.000000	99.998307  
1925.000000	99.995783  
1924.000000	99.993615  
1923.000000	99.992056  
1922.000000	99.991014  
1921.000000	99.990213  
1920.000000	99.989393  
1919.000000	99.988431  
1918.000000	99.987363  
1917.000000	99.986276  
1916.000000	99.985233  
1915.000000	99.984252  
1914.000000	99.983329  
1913.000000	99.982447  
1912.000000	99.981583  
1911.000000	99.980722  
1910.000000	99.979854  
1909.000000	99.978974  
1908.000000	99.978074  
1907.000000	99.977151  
1906.000000	99.976209  
1905.000000	99.975260  
1904.000000	99.974312  
1903.000000	99.973354  
1902.000000	99.972370  
1901.000000	99.971363  
1900.000000	99.970378  
1899.000000	99.969466  
1898.000000	99.968655  
1897.000000	99.967918  
1896.000000	99.967207  
1895.000000	99.966503  
1894.000000	99.965833  
1893.000000	99.965239  
1892.000000	99.964711  
1891.000000	99.964157  
1890.000000	99.963509  
1889.000000	99.962873  
1888.000000	99.962441  
1887.000000	99.962239  
1886.000000	99.962098  
1885.000000	99.961845  
1884.000000	99.961411  
1883.000000	99.960774  
1882.000000	99.959928  
1881.000000	99.959010  
1880.000000	99.958322  
1879.000000	99.958072  
1878.000000	99.958081  
1877.000000	99.957855  
1876.000000	99.957145  
1875.000000	99.956404  
1874.000000	99.956425  
1873.000000	99.957468  
1872.000000	99.958825  
1871.000000	99.959355  
1870.000000	99.958502  
1869.000000	99.956827  
1868.000000	99.955418  
1867.000000	99.954640  
1866.000000	99.954127  
1865.000000	99.953683  
1864.000000	99.953582  
1863.000000	99.954348  
1862.000000	99.956405  
1861.000000	99.959512  
1860.000000	99.962438  
1859.000000	99.963915  
1858.000000	99.964106  
1857.000000	99.964431  
1856.000000	99.965864  
1855.000000	99.968014  
1854.000000	99.970084  
1853.000000	99.971826  
1852.000000	99.972971  
1851.000000	99.972747  
1850.000000	99.970933  
1849.000000	99.968587  
1848.000000	99.967218  
1847.000000	99.967238  
1846.000000	99.967954  
1845.000000	99.968431  
1844.000000	99.968176  
1843.000000	99.967323  
1842.000000	99.966397  
1841.000000	99.966192  
1840.000000	99.967224  
1839.000000	99.969318  
1838.000000	99.971841  
1837.000000	99.974164  
1836.000000	99.975919  
1835.000000	99.976923  
1834.000000	99.977391  
1833.000000	99.977842  
1832.000000	99.978448  
1831.000000	99.978726  
1830.000000	99.978290  
1829.000000	99.977638  
1828.000000	99.977558  
1827.000000	99.978132  
1826.000000	99.978869  
1825.000000	99.979264  
1824.000000	99.979208  
1823.000000	99.978793  
1822.000000	99.978032  
1821.000000	99.976921  
1820.000000	99.975650  
1819.000000	99.974741  
1818.000000	99.974685  
1817.000000	99.975431  
1816.000000	99.976318  
1815.000000	99.976605  
1814.000000	99.976294  
1813.000000	99.976151  
1812.000000	99.976933  
1811.000000	99.978688  
1810.000000	99.980700  
1809.000000	99.982197  
1808.000000	99.982883  
1807.000000	99.982768  
1806.000000	99.981991  
1805.000000	99.980931  
1804.000000	99.980163  
1803.000000	99.980039  
1802.000000	99.980504  
1801.000000	99.981229  
1800.000000	99.981804  
1799.000000	99.981983  
1798.000000	99.981759  
1797.000000	99.981380  
1796.000000	99.981163  
1795.000000	99.981238  
1794.000000	99.981509  
1793.000000	99.981792  
1792.000000	99.982054  
1791.000000	99.982425  
1790.000000	99.982883  
1789.000000	99.983322  
1788.000000	99.983744  
1787.000000	99.984194  
1786.000000	99.984628  
1785.000000	99.984922  
1784.000000	99.985008  
1783.000000	99.984962  
1782.000000	99.984982  
1781.000000	99.985177  
1780.000000	99.985420  
1779.000000	99.985519  
1778.000000	99.985453  
1777.000000	99.985464  
1776.000000	99.985784  
1775.000000	99.986438  
1774.000000	99.987297  
1773.000000	99.988096  
1772.000000	99.988555  
1771.000000	99.988681  
1770.000000	99.988710  
1769.000000	99.988824  
1768.000000	99.989088  
1767.000000	99.989439  
1766.000000	99.989731  
1765.000000	99.989890  
1764.000000	99.989942  
1763.000000	99.989965  
1762.000000	99.990086  
1761.000000	99.990380  
1760.000000	99.990725  
1759.000000	99.990988  
1758.000000	99.991195  
1757.000000	99.991516  
1756.000000	99.991975  
1755.000000	99.992373  
1754.000000	99.992597  
1753.000000	99.992786  
1752.000000	99.993194  
1751.000000	99.994080  
1750.000000	99.995385  
1749.000000	99.996557  
1748.000000	99.997028  
1747.000000	99.996585  
1746.000000	99.995556  
1745.000000	99.994561  
1744.000000	99.994134  
1743.000000	99.994507  
1742.000000	99.995416  
1741.000000	99.996212  
1740.000000	99.996326  
1739.000000	99.995788  
1738.000000	99.995071  
1737.000000	99.994420  
1736.000000	99.993596  
1735.000000	99.992047  
1734.000000	99.989968  
1733.000000	99.988780  
1732.000000	99.988888  
1731.000000	99.989626  
1730.000000	99.990329  
1729.000000	99.990599  
1728.000000	99.990395  
1727.000000	99.989862  
1726.000000	99.989248  
1725.000000	99.988655  
1724.000000	99.988124  
1723.000000	99.987861  
1722.000000	99.988076  
1721.000000	99.988928  
1720.000000	99.990244  
1719.000000	99.991148  
1718.000000	99.990367  
1717.000000	99.987941  
1716.000000	99.985566  
1715.000000	99.984062  
1714.000000	99.982834  
1713.000000	99.981301  
1712.000000	99.979480  
1711.000000	99.977620  
1710.000000	99.975940  
1709.000000	99.974631  
1708.000000	99.973665  
1707.000000	99.972812  
1706.000000	99.971973  
1705.000000	99.971383  
1704.000000	99.970912  
1703.000000	99.969709  
1702.000000	99.967326  
1701.000000	99.964414  
1700.000000	99.962624  
1699.000000	99.962181  
1698.000000	99.961610  
1697.000000	99.960728  
1696.000000	99.960222  
1695.000000	99.960228  
1694.000000	99.959676  
1693.000000	99.957799  
1692.000000	99.954879  
1691.000000	99.951279  
1690.000000	99.947729  
1689.000000	99.945142  
1688.000000	99.943425  
1687.000000	99.941669  
1686.000000	99.939298  
1685.000000	99.936098  
1684.000000	99.932984  
1683.000000	99.931473  
1682.000000	99.930749  
1681.000000	99.929836  
1680.000000	99.929220  
1679.000000	99.928960  
1678.000000	99.928597  
1677.000000	99.927691  
1676.000000	99.926123  
1675.000000	99.924144  
1674.000000	99.922282  
1673.000000	99.920724  
1672.000000	99.919589  
1671.000000	99.918793  
1670.000000	99.917763  
1669.000000	99.916496  
1668.000000	99.915228  
1667.000000	99.913665  
1666.000000	99.911445  
1665.000000	99.908471  
1664.000000	99.905129  
1663.000000	99.902482  
1662.000000	99.901668  
1661.000000	99.902498  
1660.000000	99.903262  
1659.000000	99.902840  
1658.000000	99.901368  
1657.000000	99.899390  
1656.000000	99.897019  
1655.000000	99.894722  
1654.000000	99.892637  
1653.000000	99.890213  
1652.000000	99.888745  
1651.000000	99.888100  
1650.000000	99.887911  
1649.000000	99.887913  
1648.000000	99.886002  
1647.000000	99.882171  
1646.000000	99.879155  
1645.000000	99.878828  
1644.000000	99.880420  
1643.000000	99.882923  
1642.000000	99.885210  
1641.000000	99.886472  
1640.000000	99.886713  
1639.000000	99.886654  
1638.000000	99.886889  
1637.000000	99.887197  
1636.000000	99.886508  
1635.000000	99.885333  
1634.000000	99.885482  
1633.000000	99.886895  
1632.000000	99.889128  
1631.000000	99.891230  
1630.000000	99.892151  
1629.000000	99.891623  
1628.000000	99.890466  
1627.000000	99.890110  
1626.000000	99.891658  
1625.000000	99.895278  
1624.000000	99.899718  
1623.000000	99.902861  
1622.000000	99.904017  
1621.000000	99.904472  
1620.000000	99.905365  
1619.000000	99.906944  
1618.000000	99.908768  
1617.000000	99.910291  
1616.000000	99.911652  
1615.000000	99.913132  
1614.000000	99.914304  
1613.000000	99.915024  
1612.000000	99.915773  
1611.000000	99.916849  
1610.000000	99.918161  
1609.000000	99.919702  
1608.000000	99.921709  
1607.000000	99.924125  
1606.000000	99.926544  
1605.000000	99.928780  
1604.000000	99.931005  
1603.000000	99.933571  
1602.000000	99.936374  
1601.000000	99.938863  
1600.000000	99.940796  
1599.000000	99.942658  
1598.000000	99.945219  
1597.000000	99.948801  
1596.000000	99.953097  
1595.000000	99.957366  
1594.000000	99.960717  
1593.000000	99.962592  
1592.000000	99.963162  
1591.000000	99.963232  
1590.000000	99.963777  
1589.000000	99.965387  
1588.000000	99.967962  
1587.000000	99.970862  
1586.000000	99.973257  
1585.000000	99.974709  
1584.000000	99.975303  
1583.000000	99.975527  
1582.000000	99.976066  
1581.000000	99.977180  
1580.000000	99.978644  
1579.000000	99.980159  
1578.000000	99.981563  
1577.000000	99.982475  
1576.000000	99.982811  
1575.000000	99.983483  
1574.000000	99.985092  
1573.000000	99.987127  
1572.000000	99.988917  
1571.000000	99.990225  
1570.000000	99.991231  
1569.000000	99.992298  
1568.000000	99.993419  
1567.000000	99.994360  
1566.000000	99.995167  
1565.000000	99.995968  
1564.000000	99.996731  
1563.000000	99.997412  
1562.000000	99.998064  
1561.000000	99.998785  
1560.000000	99.999491  
1559.000000	100.000054 
1558.000000	100.000642 
1557.000000	100.001261 
1556.000000	100.001837 
1555.000000	100.002385 
1554.000000	100.002907 
1553.000000	100.003401 
1552.000000	100.003875 
1551.000000	100.004342 
1550.000000	100.004809 
1549.000000	100.005279 
1548.000000	100.005748 
1547.000000	100.006209 
1546.000000	100.006664 
1545.000000	100.007114 
1544.000000	100.007566 
1543.000000	100.008018 
1542.000000	100.008468 
1541.000000	100.008910 
1540.000000	100.009339 
1539.000000	100.009758 
1538.000000	100.010173 
1537.000000	100.010589 
1536.000000	100.011011 
1535.000000	100.011438 
1534.000000	100.011866 
1533.000000	100.012291 
1532.000000	100.012708 
1531.000000	100.013115 
1530.000000	100.013512 
1529.000000	100.013906 
1528.000000	100.014301 
1527.000000	100.014699 
1526.000000	100.015102 
1525.000000	100.015506 
1524.000000	100.015907 
1523.000000	100.016302 
1522.000000	100.016688 
1521.000000	100.017075 
1520.000000	100.017482 
1519.000000	100.017878 
1518.000000	100.018212 
1517.000000	100.018476 
1516.000000	100.018733 
1515.000000	100.019023 
1514.000000	100.019290 
1513.000000	100.019481 
1512.000000	100.019609 
1511.000000	100.019746 
1510.000000	100.019981 
1509.000000	100.020424 
1508.000000	100.021212 
1507.000000	100.022270 
1506.000000	100.023076 
1505.000000	100.023176 
1504.000000	100.022715 
1503.000000	100.022293 
1502.000000	100.022161 
1501.000000	100.022324 
1500.000000	100.022662 
1499.000000	100.022950 
1498.000000	100.023069 
1497.000000	100.023177 
1496.000000	100.023568 
1495.000000	100.024074 
1494.000000	100.024162 
1493.000000	100.023574 
1492.000000	100.022407 
1491.000000	100.021030 
1490.000000	100.019971 
1489.000000	100.019423 
1488.000000	100.018975 
1487.000000	100.018209 
1486.000000	100.017256 
1485.000000	100.016623 
1484.000000	100.016427 
1483.000000	100.016267 
1482.000000	100.015687 
1481.000000	100.014535 
1480.000000	100.013077 
1479.000000	100.011652 
1478.000000	100.010495 
1477.000000	100.009669 
1476.000000	100.009030 
1475.000000	100.008216 
1474.000000	100.007059 
1473.000000	100.005966 
1472.000000	100.005446 
1471.000000	100.005192 
1470.000000	100.004403 
1469.000000	100.003057 
1468.000000	100.001779 
1467.000000	100.001092 
1466.000000	100.000971 
1465.000000	100.000827 
1464.000000	100.000026 
1463.000000	99.998532  
1462.000000	99.996741  
1461.000000	99.994981  
1460.000000	99.993121  
1459.000000	99.990843  
1458.000000	99.988303  
1457.000000	99.986554  
1456.000000	99.986020  
1455.000000	99.985250  
1454.000000	99.983667  
1453.000000	99.981693  
1452.000000	99.979434  
1451.000000	99.977269  
1450.000000	99.975797  
1449.000000	99.975439  
1448.000000	99.975950  
1447.000000	99.976255  
1446.000000	99.975510  
1445.000000	99.973901  
1444.000000	99.971947  
1443.000000	99.970195  
1442.000000	99.968763  
1441.000000	99.967426  
1440.000000	99.965952  
1439.000000	99.964961  
1438.000000	99.965587  
1437.000000	99.968033  
1436.000000	99.970115  
1435.000000	99.968893  
1434.000000	99.964983  
1433.000000	99.961566  
1432.000000	99.960522  
1431.000000	99.961370  
1430.000000	99.962477  
1429.000000	99.962711  
1428.000000	99.962030  
1427.000000	99.960400  
1426.000000	99.958129  
1425.000000	99.956101  
1424.000000	99.954923  
1423.000000	99.954354  
1422.000000	99.953073  
1421.000000	99.950270  
1420.000000	99.946523  
1419.000000	99.943652  
1418.000000	99.942307  
1417.000000	99.940417  
1416.000000	99.936820  
1415.000000	99.932345  
1414.000000	99.927589  
1413.000000	99.922145  
1412.000000	99.915837  
1411.000000	99.909964  
1410.000000	99.906060  
1409.000000	99.904194  
1408.000000	99.903592  
1407.000000	99.903670  
1406.000000	99.904654  
1405.000000	99.907525  
1404.000000	99.912564  
1403.000000	99.918354  
1402.000000	99.922917  
1401.000000	99.925857  
1400.000000	99.928389  
1399.000000	99.931452  
1398.000000	99.933481  
1397.000000	99.931445  
1396.000000	99.924779  
1395.000000	99.917482  
1394.000000	99.915624  
1393.000000	99.921372  
1392.000000	99.932051  
1391.000000	99.943778  
1390.000000	99.953582  
1389.000000	99.959981  
1388.000000	99.962923  
1387.000000	99.963279  
1386.000000	99.962165  
1385.000000	99.960818  
1384.000000	99.960606  
1383.000000	99.962254  
1382.000000	99.965055  
1381.000000	99.967715  
1380.000000	99.969916  
1379.000000	99.972280  
1378.000000	99.975144  
1377.000000	99.978091  
1376.000000	99.980874  
1375.000000	99.984083  
1374.000000	99.988523  
1373.000000	99.993801  
1372.000000	99.998622  
1371.000000	100.002728 
1370.000000	100.007263 
1369.000000	100.013128 
1368.000000	100.019687 
1367.000000	100.025470 
1366.000000	100.029393 
1365.000000	100.031180 
1364.000000	100.031244 
1363.000000	100.031034 
1362.000000	100.032546 
1361.000000	100.036260 
1360.000000	100.040645 
1359.000000	100.044105 
1358.000000	100.046443 
1357.000000	100.048507 
1356.000000	100.051029 
1355.000000	100.054166 
1354.000000	100.057722 
1353.000000	100.061098 
1352.000000	100.063170 
1351.000000	100.062870 
1350.000000	100.060794 
1349.000000	100.059140 
1348.000000	100.059392 
1347.000000	100.061417 
1346.000000	100.064384 
1345.000000	100.067678 
1344.000000	100.070535 
1343.000000	100.072025 
1342.000000	100.071940 
1341.000000	100.071192 
1340.000000	100.070823 
1339.000000	100.071059 
1338.000000	100.071746 
1337.000000	100.073156 
1336.000000	100.075537 
1335.000000	100.078285 
1334.000000	100.080533 
1333.000000	100.082260 
1332.000000	100.083913 
1331.000000	100.085166 
1330.000000	100.085051 
1329.000000	100.083372 
1328.000000	100.081241 
1327.000000	100.079996 
1326.000000	100.080057 
1325.000000	100.080910 
1324.000000	100.081790 
1323.000000	100.082320 
1322.000000	100.082523 
1321.000000	100.082557 
1320.000000	100.082525 
1319.000000	100.082565 
1318.000000	100.082870 
1317.000000	100.083353 
1316.000000	100.083381 
1315.000000	100.082263 
1314.000000	100.080247 
1313.000000	100.078728 
1312.000000	100.078974 
1311.000000	100.080768 
1310.000000	100.082765 
1309.000000	100.083978 
1308.000000	100.084359 
1307.000000	100.084012 
1306.000000	100.082708 
1305.000000	100.080605 
1304.000000	100.078928 
1303.000000	100.079296 
1302.000000	100.082116 
1301.000000	100.085926 
1300.000000	100.088391 
1299.000000	100.088041 
1298.000000	100.085221 
1297.000000	100.081784 
1296.000000	100.079752 
1295.000000	100.080008 
1294.000000	100.082065 
1293.000000	100.084697 
1292.000000	100.086636 
1291.000000	100.086966 
1290.000000	100.085560 
1289.000000	100.083352 
1288.000000	100.081649 
1287.000000	100.080825 
1286.000000	100.080130 
1285.000000	100.079133 
1284.000000	100.078747 
1283.000000	100.080123 
1282.000000	100.082823 
1281.000000	100.085061 
1280.000000	100.085767 
1279.000000	100.085492 
1278.000000	100.085079 
1277.000000	100.084342 
1276.000000	100.082711 
1275.000000	100.080641 
1274.000000	100.079607 
1273.000000	100.080578 
1272.000000	100.082827 
1271.000000	100.084230 
1270.000000	100.082855 
1269.000000	100.078767 
1268.000000	100.074413 
1267.000000	100.072553 
1266.000000	100.073368 
1265.000000	100.074254 
1264.000000	100.072941 
1263.000000	100.069887 
1262.000000	100.066905 
1261.000000	100.064754 
1260.000000	100.063522 
1259.000000	100.064264 
1258.000000	100.067947 
1257.000000	100.072926 
1256.000000	100.075709 
1255.000000	100.074823 
1254.000000	100.072406 
1253.000000	100.071285 
1252.000000	100.071846 
1251.000000	100.072718 
1250.000000	100.073358 
1249.000000	100.074672 
1248.000000	100.077613 
1247.000000	100.081971 
1246.000000	100.086032 
1245.000000	100.086915 
1244.000000	100.082311 
1243.000000	100.073173 
1242.000000	100.064326 
1241.000000	100.060993 
1240.000000	100.064302 
1239.000000	100.070564 
1238.000000	100.074783 
1237.000000	100.074525 
1236.000000	100.070622 
1235.000000	100.065034 
1234.000000	100.058586 
1233.000000	100.050717 
1232.000000	100.041209 
1231.000000	100.031564 
1230.000000	100.023912 
1229.000000	100.018634 
1228.000000	100.014001 
1227.000000	100.008520 
1226.000000	100.002658 
1225.000000	99.997443  
1224.000000	99.991971  
1223.000000	99.983578  
1222.000000	99.970670  
1221.000000	99.954660  
1220.000000	99.938704  
1219.000000	99.924730  
1218.000000	99.911808  
1217.000000	99.897249  
1216.000000	99.879171  
1215.000000	99.858113  
1214.000000	99.836469  
1213.000000	99.816412  
1212.000000	99.798049  
1211.000000	99.779110  
1210.000000	99.756546  
1209.000000	99.729184  
1208.000000	99.699107  
1207.000000	99.669942  
1206.000000	99.643537  
1205.000000	99.618943  
1204.000000	99.594610  
1203.000000	99.569991  
1202.000000	99.544387  
1201.000000	99.516041  
1200.000000	99.484095  
1199.000000	99.450656  
1198.000000	99.419263  
1197.000000	99.391603  
1196.000000	99.366914  
1195.000000	99.343796  
1194.000000	99.320850  
1193.000000	99.295914  
1192.000000	99.266734  
1191.000000	99.233207  
1190.000000	99.198049  
1189.000000	99.164728  
1188.000000	99.135101  
1187.000000	99.108712  
1186.000000	99.083193  
1185.000000	99.055276  
1184.000000	99.022545  
1183.000000	98.984981  
1182.000000	98.944796  
1181.000000	98.904865  
1180.000000	98.867324  
1179.000000	98.832767  
1178.000000	98.799633  
1177.000000	98.764730  
1176.000000	98.725611  
1175.000000	98.682774  
1174.000000	98.639004  
1173.000000	98.596585  
1172.000000	98.555700  
1171.000000	98.515248  
1170.000000	98.474276  
1169.000000	98.432563  
1168.000000	98.390573  
1167.000000	98.349380  
1166.000000	98.310829  
1165.000000	98.278121  
1164.000000	98.256011  
1163.000000	98.249093  
1162.000000	98.258610  
1161.000000	98.280575  
1160.000000	98.306969  
1159.000000	98.329037  
1158.000000	98.340590  
1157.000000	98.339407  
1156.000000	98.325972  
1155.000000	98.301228  
1154.000000	98.266209  
1153.000000	98.223774  
1152.000000	98.179069  
1151.000000	98.136638  
1150.000000	98.097344  
1149.000000	98.059330  
1148.000000	98.021255  
1147.000000	97.982814  
1146.000000	97.942842  
1145.000000	97.899724  
1144.000000	97.854238  
1143.000000	97.809737  
1142.000000	97.768508  
1141.000000	97.729515  
1140.000000	97.690256  
1139.000000	97.649004  
1138.000000	97.604723  
1137.000000	97.557123  
1136.000000	97.508020  
1135.000000	97.460857  
1134.000000	97.417427  
1133.000000	97.376141  
1132.000000	97.334224  
1131.000000	97.290104  
1130.000000	97.243185  
1129.000000	97.193285  
1128.000000	97.141441  
1127.000000	97.089768  
1126.000000	97.039416  
1125.000000	96.989743  
1124.000000	96.939860  
1123.000000	96.889403  
1122.000000	96.837557  
1121.000000	96.783453  
1120.000000	96.728215  
1119.000000	96.674492  
1118.000000	96.623104  
1117.000000	96.572175  
1116.000000	96.520311  
1115.000000	96.468529  
1114.000000	96.418261  
1113.000000	96.369552  
1112.000000	96.322154  
1111.000000	96.276561  
1110.000000	96.233264  
1109.000000	96.192224  
1108.000000	96.152900  
1107.000000	96.113390  
1106.000000	96.070486  
1105.000000	96.022931  
1104.000000	95.973785  
1103.000000	95.927121  
1102.000000	95.883581  
1101.000000	95.841855  
1100.000000	95.802509  
1099.000000	95.766150  
1098.000000	95.729697  
1097.000000	95.689875  
1096.000000	95.649320  
1095.000000	95.613565  
1094.000000	95.582228  
1093.000000	95.549162  
1092.000000	95.511534  
1091.000000	95.472425  
1090.000000	95.433416  
1089.000000	95.391107  
1088.000000	95.343515  
1087.000000	95.294579  
1086.000000	95.249488  
1085.000000	95.209606  
1084.000000	95.173974  
1083.000000	95.141534  
1082.000000	95.109917  
1081.000000	95.076091  
1080.000000	95.040075  
1079.000000	95.004555  
1078.000000	94.970013  
1077.000000	94.934255  
1076.000000	94.897204  
1075.000000	94.861231  
1074.000000	94.825702  
1073.000000	94.785846  
1072.000000	94.737634  
1071.000000	94.678891  
1070.000000	94.605760  
1069.000000	94.514988  
1068.000000	94.411780  
1067.000000	94.309529  
1066.000000	94.218156  
1065.000000	94.136750  
1064.000000	94.059541  
1063.000000	93.983037  
1062.000000	93.904526  
1061.000000	93.819946  
1060.000000	93.728155  
1059.000000	93.634037  
1058.000000	93.543861  
1057.000000	93.459542  
1056.000000	93.378331  
1055.000000	93.294520  
1054.000000	93.201202  
1053.000000	93.095730  
1052.000000	92.984721  
1051.000000	92.877986  
1050.000000	92.776235  
1049.000000	92.671739  
1048.000000	92.561769  
1047.000000	92.452132  
1046.000000	92.345828  
1045.000000	92.237716  
1044.000000	92.123534  
1043.000000	92.006783  
1042.000000	91.893306  
1041.000000	91.784809  
1040.000000	91.680773  
1039.000000	91.581597  
1038.000000	91.487377  
1037.000000	91.398496  
1036.000000	91.319036  
1035.000000	91.254275  
1034.000000	91.203390  
1033.000000	91.159570  
1032.000000	91.117642  
1031.000000	91.076330  
1030.000000	91.034484  
1029.000000	90.992966  
1028.000000	90.959714  
1027.000000	90.943818  
1026.000000	90.943105  
1025.000000	90.945267  
1024.000000	90.942200  
1023.000000	90.935120  
1022.000000	90.925207  
1021.000000	90.909310  
1020.000000	90.887471  
1019.000000	90.865757  
1018.000000	90.847897  
1017.000000	90.831171  
1016.000000	90.813312  
1015.000000	90.796511  
1014.000000	90.781846  
1013.000000	90.766228  
1012.000000	90.747433  
1011.000000	90.726725  
1010.000000	90.705421  
1009.000000	90.684934  
1008.000000	90.670588  
1007.000000	90.668243  
1006.000000	90.676163  
1005.000000	90.687132  
1004.000000	90.699137  
1003.000000	90.716574  
1002.000000	90.740558  
1001.000000	90.766460  
1000.000000	90.792142  
999.000000	 90.820268  
998.000000	 90.850714  
997.000000	 90.878916  
996.000000	 90.904346  
995.000000	 90.933351  
994.000000	 90.970743  
993.000000	 91.014457  
992.000000	 91.060232  
991.000000	 91.105942  
990.000000	 91.150529  
989.000000	 91.194623  
988.000000	 91.242686  
987.000000	 91.298682  
986.000000	 91.359965  
985.000000	 91.421888  
984.000000	 91.487482  
983.000000	 91.564732  
982.000000	 91.654820  
981.000000	 91.751136  
980.000000	 91.849717  
979.000000	 91.952295  
978.000000	 92.058851  
977.000000	 92.166434  
976.000000	 92.276679  
975.000000	 92.395601  
974.000000	 92.523706  
973.000000	 92.654009  
972.000000	 92.781853  
971.000000	 92.909439  
970.000000	 93.038849  
969.000000	 93.168260  
968.000000	 93.297394  
967.000000	 93.429372  
966.000000	 93.563778  
965.000000	 93.694000  
964.000000	 93.814807  
963.000000	 93.927725  
962.000000	 94.036532  
961.000000	 94.142128  
960.000000	 94.244290  
959.000000	 94.344012  
958.000000	 94.441355  
957.000000	 94.534390  
956.000000	 94.622345  
955.000000	 94.706929  
954.000000	 94.789352  
953.000000	 94.868885  
952.000000	 94.944909  
951.000000	 95.017270  
950.000000	 95.084418  
949.000000	 95.144635  
948.000000	 95.199473  
947.000000	 95.252615  
946.000000	 95.305231  
945.000000	 95.355813  
944.000000	 95.404154  
943.000000	 95.451234  
942.000000	 95.495249  
941.000000	 95.532394  
940.000000	 95.562481  
939.000000	 95.590096  
938.000000	 95.619558  
937.000000	 95.651896  
936.000000	 95.686489  
935.000000	 95.721585  
934.000000	 95.753441  
933.000000	 95.779696  
932.000000	 95.804138  
931.000000	 95.833898  
930.000000	 95.871308  
929.000000	 95.912353  
928.000000	 95.952921  
927.000000	 95.991828  
926.000000	 96.027683  
925.000000	 96.058153  
924.000000	 96.083490  
923.000000	 96.106155  
922.000000	 96.125757  
921.000000	 96.138973  
920.000000	 96.146001  
919.000000	 96.152775  
918.000000	 96.164671  
917.000000	 96.181347  
916.000000	 96.199307  
915.000000	 96.216498  
914.000000	 96.233546  
913.000000	 96.253931  
912.000000	 96.283751  
911.000000	 96.327451  
910.000000	 96.382578  
909.000000	 96.442392  
908.000000	 96.504518  
907.000000	 96.572922  
906.000000	 96.650543  
905.000000	 96.734477  
904.000000	 96.820168  
903.000000	 96.906900  
902.000000	 96.997279  
901.000000	 97.093635  
900.000000	 97.195976  
899.000000	 97.301501  
898.000000	 97.405506  
897.000000	 97.504418  
896.000000	 97.597775  
895.000000	 97.686199  
894.000000	 97.769261  
893.000000	 97.847499  
892.000000	 97.924465  
891.000000	 98.003312  
890.000000	 98.082440  
889.000000	 98.157826  
888.000000	 98.228535  
887.000000	 98.296025  
886.000000	 98.358670  
885.000000	 98.411634  
884.000000	 98.453499  
883.000000	 98.490018  
882.000000	 98.529677  
881.000000	 98.577162  
880.000000	 98.631938  
879.000000	 98.691045  
878.000000	 98.751538  
877.000000	 98.810728  
876.000000	 98.865013  
875.000000	 98.909992  
874.000000	 98.944523  
873.000000	 98.975334  
872.000000	 99.014396  
871.000000	 99.068513  
870.000000	 99.132270  
869.000000	 99.193276  
868.000000	 99.243426  
867.000000	 99.284004  
866.000000	 99.322386  
865.000000	 99.365947  
864.000000	 99.417384  
863.000000	 99.473074  
862.000000	 99.526203  
861.000000	 99.572923  
860.000000	 99.614847  
859.000000	 99.655636  
858.000000	 99.697629  
857.000000	 99.742434  
856.000000	 99.790846  
855.000000	 99.839364  
854.000000	 99.880040  
853.000000	 99.907695  
852.000000	 99.925685  
851.000000	 99.941394  
850.000000	 99.957487  
849.000000	 99.971132  
848.000000	 99.980822  
847.000000	 99.989752  
846.000000	 100.001726 
845.000000	 100.016539 
844.000000	 100.030492 
843.000000	 100.039621 
842.000000	 100.041579 
841.000000	 100.035619 
840.000000	 100.022088 
839.000000	 100.002522 
838.000000	 99.980008  
837.000000	 99.957832  
836.000000	 99.936388  
835.000000	 99.912978  
834.000000	 99.887449  
833.000000	 99.866507  
832.000000	 99.857316  
831.000000	 99.856404  
830.000000	 99.851705  
829.000000	 99.839344  
828.000000	 99.831654  
827.000000	 99.841385  
826.000000	 99.862876  
825.000000	 99.878920  
824.000000	 99.884125  
823.000000	 99.890063  
822.000000	 99.906517  
821.000000	 99.928335  
820.000000	 99.943627  
819.000000	 99.946703  
818.000000	 99.940319  
817.000000	 99.930570  
816.000000	 99.921258  
815.000000	 99.909470  
814.000000	 99.885469  
813.000000	 99.839963  
812.000000	 99.772198  
811.000000	 99.688302  
810.000000	 99.591668  
809.000000	 99.478384  
808.000000	 99.342922  
807.000000	 99.184617  
806.000000	 99.007116  
805.000000	 98.815358  
804.000000	 98.616415  
803.000000	 98.421435  
802.000000	 98.243747  
801.000000	 98.095212  
800.000000	 97.983873  
799.000000	 97.911462  
798.000000	 97.872697  
797.000000	 97.860953  
796.000000	 97.874829  
795.000000	 97.915204  
794.000000	 97.977016  
793.000000	 98.048994  
792.000000	 98.120213  
791.000000	 98.181553  
790.000000	 98.223141  
789.000000	 98.238524  
788.000000	 98.231989  
787.000000	 98.214812  
786.000000	 98.192145  
785.000000	 98.158725  
784.000000	 98.109229  
783.000000	 98.047596  
782.000000	 97.983871  
781.000000	 97.926758  
780.000000	 97.881928  
779.000000	 97.853110  
778.000000	 97.841839  
777.000000	 97.849532  
776.000000	 97.880908  
775.000000	 97.940274  
774.000000	 98.022320  
773.000000	 98.111451  
772.000000	 98.193143  
771.000000	 98.262670  
770.000000	 98.321334  
769.000000	 98.369170  
768.000000	 98.405403  
767.000000	 98.433261  
766.000000	 98.459382  
765.000000	 98.487367  
764.000000	 98.513639  
763.000000	 98.530719  
762.000000	 98.535033  
761.000000	 98.531841  
760.000000	 98.531758  
759.000000	 98.541702  
758.000000	 98.560073  
757.000000	 98.581289  
756.000000	 98.602739  
755.000000	 98.625424  
754.000000	 98.650444  
753.000000	 98.678220  
752.000000	 98.709553  
751.000000	 98.743812  
750.000000	 98.776909  
749.000000	 98.804538  
748.000000	 98.827424  
747.000000	 98.851185  
746.000000	 98.881471  
745.000000	 98.920655  
744.000000	 98.967148  
743.000000	 99.015302  
742.000000	 99.058394  
741.000000	 99.095140  
740.000000	 99.131657  
739.000000	 99.174399  
738.000000	 99.223145  
737.000000	 99.273243  
736.000000	 99.321570  
735.000000	 99.366962  
734.000000	 99.408195  
733.000000	 99.445626  
732.000000	 99.481770  
731.000000	 99.515976  
730.000000	 99.541732  
729.000000	 99.554381  
728.000000	 99.558859  
727.000000	 99.564545  
726.000000	 99.574763  
725.000000	 99.587477  
724.000000	 99.604076  
723.000000	 99.629674  
722.000000	 99.664509  
721.000000	 99.701200  
720.000000	 99.731329  
719.000000	 99.750516  
718.000000	 99.758117  
717.000000	 99.758125  
716.000000	 99.760551  
715.000000	 99.774687  
714.000000	 99.798654  
713.000000	 99.821112  
712.000000	 99.835096  
711.000000	 99.844657  
710.000000	 99.855950  
709.000000	 99.867280  
708.000000	 99.871482  
707.000000	 99.864988  
706.000000	 99.850774  
705.000000	 99.833966  
704.000000	 99.816732  
703.000000	 99.795832  
702.000000	 99.763758  
701.000000	 99.713250  
700.000000	 99.641139  
699.000000	 99.548717  
698.000000	 99.441880  
697.000000	 99.333667  
696.000000	 99.243259  
695.000000	 99.186617  
694.000000	 99.168806  
693.000000	 99.187776  
692.000000	 99.240133  
691.000000	 99.317018  
690.000000	 99.399147  
689.000000	 99.466896  
688.000000	 99.516602  
687.000000	 99.558795  
686.000000	 99.600705  
685.000000	 99.639315  
684.000000	 99.670621  
683.000000	 99.695629  
682.000000	 99.717046  
681.000000	 99.738885  
680.000000	 99.768578  
679.000000	 99.808984  
678.000000	 99.847713  
677.000000	 99.866132  
676.000000	 99.863736  
675.000000	 99.862045  
674.000000	 99.878084  
673.000000	 99.905227  
672.000000	 99.927418  
671.000000	 99.941462  
670.000000	 99.955545  
669.000000	 99.973269  
668.000000	 99.981337  
667.000000	 99.968947  
666.000000	 99.961825  
665.000000	 99.980478  
664.000000	 100.013071 
663.000000	 100.041982 
662.000000	 100.060396 
661.000000	 100.076520 
660.000000	 100.101263 
659.000000	 100.130357 
658.000000	 100.144304 
657.000000	 100.130162 
656.000000	 100.098818 
655.000000	 100.075707 
654.000000	 100.072588 
653.000000	 100.076203 
652.000000	 100.069788 
651.000000	 100.056129 
650.000000	 100.054766 

