4000.000000	99.492366 
3999.000000	99.493599 
3998.000000	99.493990 
3997.000000	99.492884 
3996.000000	99.490605 
3995.000000	99.488332 
3994.000000	99.487318 
3993.000000	99.488107 
3992.000000	99.490341 
3991.000000	99.493144 
3990.000000	99.495643 
3989.000000	99.497454 
3988.000000	99.498887 
3987.000000	99.500568 
3986.000000	99.502694 
3985.000000	99.504661 
3984.000000	99.505519 
3983.000000	99.504698 
3982.000000	99.502257 
3981.000000	99.498526 
3980.000000	99.493600 
3979.000000	99.487538 
3978.000000	99.481312 
3977.000000	99.477225 
3976.000000	99.477687 
3975.000000	99.483114 
3974.000000	99.491194 
3973.000000	99.498445 
3972.000000	99.502612 
3971.000000	99.503745 
3970.000000	99.503278 
3969.000000	99.502382 
3968.000000	99.501354 
3967.000000	99.500147 
3966.000000	99.498996 
3965.000000	99.498471 
3964.000000	99.498759 
3963.000000	99.498983 
3962.000000	99.497574 
3961.000000	99.493648 
3960.000000	99.488021 
3959.000000	99.482907 
3958.000000	99.480321 
3957.000000	99.480565 
3956.000000	99.482494 
3955.000000	99.484782 
3954.000000	99.486694 
3953.000000	99.487826 
3952.000000	99.487817 
3951.000000	99.486973 
3950.000000	99.486430 
3949.000000	99.487248 
3948.000000	99.489199 
3947.000000	99.490670 
3946.000000	99.490155 
3945.000000	99.487762 
3944.000000	99.485225 
3943.000000	99.483970 
3942.000000	99.483831 
3941.000000	99.483721 
3940.000000	99.482618 
3939.000000	99.479703 
3938.000000	99.474615 
3937.000000	99.468223 
3936.000000	99.463300 
3935.000000	99.463489 
3934.000000	99.470818 
3933.000000	99.483545 
3932.000000	99.496422 
3931.000000	99.503816 
3930.000000	99.503250 
3929.000000	99.496700 
3928.000000	99.488895 
3927.000000	99.484191 
3926.000000	99.484521 
3925.000000	99.488454 
3924.000000	99.491954 
3923.000000	99.491777 
3922.000000	99.487929 
3921.000000	99.483172 
3920.000000	99.480465 
3919.000000	99.481025 
3918.000000	99.484365 
3917.000000	99.489116 
3916.000000	99.493719 
3915.000000	99.497072 
3914.000000	99.499191 
3913.000000	99.500899 
3912.000000	99.502511 
3911.000000	99.503697 
3910.000000	99.504455 
3909.000000	99.505633 
3908.000000	99.508139 
3907.000000	99.511265 
3906.000000	99.512182 
3905.000000	99.507550 
3904.000000	99.496180 
3903.000000	99.481418 
3902.000000	99.469870 
3901.000000	99.466602 
3900.000000	99.472003 
3899.000000	99.481902 
3898.000000	99.491141 
3897.000000	99.497268 
3896.000000	99.500428 
3895.000000	99.501403 
3894.000000	99.500460 
3893.000000	99.497326 
3892.000000	99.492098 
3891.000000	99.485963 
3890.000000	99.480829 
3889.000000	99.477745 
3888.000000	99.476678 
3887.000000	99.478140 
3886.000000	99.482518 
3885.000000	99.487781 
3884.000000	99.490566 
3883.000000	99.490055 
3882.000000	99.488915 
3881.000000	99.490088 
3880.000000	99.493477 
3879.000000	99.496386 
3878.000000	99.497381 
3877.000000	99.497808 
3876.000000	99.500365 
3875.000000	99.505604 
3874.000000	99.509599 
3873.000000	99.506980 
3872.000000	99.497417 
3871.000000	99.487319 
3870.000000	99.483543 
3869.000000	99.486525 
3868.000000	99.491508 
3867.000000	99.494949 
3866.000000	99.497583 
3865.000000	99.500902 
3864.000000	99.502332 
3863.000000	99.498485 
3862.000000	99.490734 
3861.000000	99.484785 
3860.000000	99.485716 
3859.000000	99.494396 
3858.000000	99.506796 
3857.000000	99.516404 
3856.000000	99.517708 
3855.000000	99.511481 
3854.000000	99.504410 
3853.000000	99.500760 
3852.000000	99.499313 
3851.000000	99.498133 
3850.000000	99.496251 
3849.000000	99.494639 
3848.000000	99.494390 
3847.000000	99.495679 
3846.000000	99.498173 
3845.000000	99.501407 
3844.000000	99.505374 
3843.000000	99.510929 
3842.000000	99.517610 
3841.000000	99.522952 
3840.000000	99.524761 
3839.000000	99.522800 
3838.000000	99.518272 
3837.000000	99.512685 
3836.000000	99.507198 
3835.000000	99.503232 
3834.000000	99.502163 
3833.000000	99.504684 
3832.000000	99.509929 
3831.000000	99.515207 
3830.000000	99.517938 
3829.000000	99.517416 
3828.000000	99.514722 
3827.000000	99.511914 
3826.000000	99.510357 
3825.000000	99.509605 
3824.000000	99.508670 
3823.000000	99.508875 
3822.000000	99.512694 
3821.000000	99.518716 
3820.000000	99.522244 
3819.000000	99.521654 
3818.000000	99.518854 
3817.000000	99.516744 
3816.000000	99.516233 
3815.000000	99.514516 
3814.000000	99.508998 
3813.000000	99.501736 
3812.000000	99.497861 
3811.000000	99.500424 
3810.000000	99.507650 
3809.000000	99.515144 
3808.000000	99.520138 
3807.000000	99.522746 
3806.000000	99.523543 
3805.000000	99.522300 
3804.000000	99.519235 
3803.000000	99.516693 
3802.000000	99.517051 
3801.000000	99.518485 
3800.000000	99.517212 
3799.000000	99.512624 
3798.000000	99.506990 
3797.000000	99.502611 
3796.000000	99.499765 
3795.000000	99.497284 
3794.000000	99.494724 
3793.000000	99.493047 
3792.000000	99.493161 
3791.000000	99.494532 
3790.000000	99.495803 
3789.000000	99.496431 
3788.000000	99.497165 
3787.000000	99.498676 
3786.000000	99.500566 
3785.000000	99.501879 
3784.000000	99.502347 
3783.000000	99.502716 
3782.000000	99.504204 
3781.000000	99.507586 
3780.000000	99.511948 
3779.000000	99.514750 
3778.000000	99.514115 
3777.000000	99.510592 
3776.000000	99.506306 
3775.000000	99.503487 
3774.000000	99.502893 
3773.000000	99.503339 
3772.000000	99.503250 
3771.000000	99.502420 
3770.000000	99.501318 
3769.000000	99.500085 
3768.000000	99.499339 
3767.000000	99.499834 
3766.000000	99.501270 
3765.000000	99.502159 
3764.000000	99.500863 
3763.000000	99.497125 
3762.000000	99.492863 
3761.000000	99.491058 
3760.000000	99.492694 
3759.000000	99.496052 
3758.000000	99.499918 
3757.000000	99.505111 
3756.000000	99.511850 
3755.000000	99.518554 
3754.000000	99.523466 
3753.000000	99.526210 
3752.000000	99.526712 
3751.000000	99.523622 
3750.000000	99.517655 
3749.000000	99.513423 
3748.000000	99.513477 
3747.000000	99.515183 
3746.000000	99.515358 
3745.000000	99.513966 
3744.000000	99.512151 
3743.000000	99.509733 
3742.000000	99.506188 
3741.000000	99.502108 
3740.000000	99.498453 
3739.000000	99.494569 
3738.000000	99.490234 
3737.000000	99.488761 
3736.000000	99.493880 
3735.000000	99.503238 
3734.000000	99.509356 
3733.000000	99.508644 
3732.000000	99.504209 
3731.000000	99.499926 
3730.000000	99.495883 
3729.000000	99.490051 
3728.000000	99.483122 
3727.000000	99.478775 
3726.000000	99.478828 
3725.000000	99.481016 
3724.000000	99.482895 
3723.000000	99.485155 
3722.000000	99.489172 
3721.000000	99.494537 
3720.000000	99.498886 
3719.000000	99.499583 
3718.000000	99.496229 
3717.000000	99.490450 
3716.000000	99.483732 
3715.000000	99.476329 
3714.000000	99.468425 
3713.000000	99.462184 
3712.000000	99.460254 
3711.000000	99.462757 
3710.000000	99.466801 
3709.000000	99.468966 
3708.000000	99.468043 
3707.000000	99.465067 
3706.000000	99.461955 
3705.000000	99.460275 
3704.000000	99.460619 
3703.000000	99.461957 
3702.000000	99.461253 
3701.000000	99.455663 
3700.000000	99.445317 
3699.000000	99.432695 
3698.000000	99.420700 
3697.000000	99.411585 
3696.000000	99.406009 
3695.000000	99.403442 
3694.000000	99.404081 
3693.000000	99.409264 
3692.000000	99.418850 
3691.000000	99.429319 
3690.000000	99.434925 
3689.000000	99.432406 
3688.000000	99.424310 
3687.000000	99.415264 
3686.000000	99.407011 
3685.000000	99.399756 
3684.000000	99.394218 
3683.000000	99.390726 
3682.000000	99.388353 
3681.000000	99.385677 
3680.000000	99.382070 
3679.000000	99.376957 
3678.000000	99.370193 
3677.000000	99.365230 
3676.000000	99.366649 
3675.000000	99.370976 
3674.000000	99.369923 
3673.000000	99.360654 
3672.000000	99.347094 
3671.000000	99.338257 
3670.000000	99.339623 
3669.000000	99.346486 
3668.000000	99.351941 
3667.000000	99.354711 
3666.000000	99.356629 
3665.000000	99.358665 
3664.000000	99.359840 
3663.000000	99.358708 
3662.000000	99.355139 
3661.000000	99.350003 
3660.000000	99.344102 
3659.000000	99.338220 
3658.000000	99.334111 
3657.000000	99.333775 
3656.000000	99.336810 
3655.000000	99.340338 
3654.000000	99.341928 
3653.000000	99.341230 
3652.000000	99.339184 
3651.000000	99.336663 
3650.000000	99.333370 
3649.000000	99.329473 
3648.000000	99.327507 
3647.000000	99.329179 
3646.000000	99.332852 
3645.000000	99.336111 
3644.000000	99.338510 
3643.000000	99.341445 
3642.000000	99.346844 
3641.000000	99.354876 
3640.000000	99.363478 
3639.000000	99.369744 
3638.000000	99.371735 
3637.000000	99.369541 
3636.000000	99.364953 
3635.000000	99.360299 
3634.000000	99.356538 
3633.000000	99.352418 
3632.000000	99.346236 
3631.000000	99.338845 
3630.000000	99.334723 
3629.000000	99.336125 
3628.000000	99.338188 
3627.000000	99.337026 
3626.000000	99.334743 
3625.000000	99.335203 
3624.000000	99.340078 
3623.000000	99.348001 
3622.000000	99.356375 
3621.000000	99.364280 
3620.000000	99.371455 
3619.000000	99.375292 
3618.000000	99.372965 
3617.000000	99.366162 
3616.000000	99.360014 
3615.000000	99.358917 
3614.000000	99.362646 
3613.000000	99.366329 
3612.000000	99.365764 
3611.000000	99.361937 
3610.000000	99.359191 
3609.000000	99.360521 
3608.000000	99.364565 
3607.000000	99.368140 
3606.000000	99.371073 
3605.000000	99.375796 
3604.000000	99.383856 
3603.000000	99.394137 
3602.000000	99.403938 
3601.000000	99.411434 
3600.000000	99.415828 
3599.000000	99.416378 
3598.000000	99.412857 
3597.000000	99.406427 
3596.000000	99.399557 
3595.000000	99.395443 
3594.000000	99.395784 
3593.000000	99.399677 
3592.000000	99.404592 
3591.000000	99.407869 
3590.000000	99.408616 
3589.000000	99.408535 
3588.000000	99.409682 
3587.000000	99.411062 
3586.000000	99.410691 
3585.000000	99.409063 
3584.000000	99.408598 
3583.000000	99.410557 
3582.000000	99.414217 
3581.000000	99.417766 
3580.000000	99.419714 
3579.000000	99.419465 
3578.000000	99.417099 
3577.000000	99.413581 
3576.000000	99.410612 
3575.000000	99.409897 
3574.000000	99.411716 
3573.000000	99.414344 
3572.000000	99.415460 
3571.000000	99.413997 
3570.000000	99.410673 
3569.000000	99.407899 
3568.000000	99.408226 
3567.000000	99.411076 
3566.000000	99.412948 
3565.000000	99.412209 
3564.000000	99.410959 
3563.000000	99.412392 
3562.000000	99.417382 
3561.000000	99.423361 
3560.000000	99.426745 
3559.000000	99.426343 
3558.000000	99.424292 
3557.000000	99.423666 
3556.000000	99.425653 
3555.000000	99.428809 
3554.000000	99.430638 
3553.000000	99.429337 
3552.000000	99.424863 
3551.000000	99.418866 
3550.000000	99.413355 
3549.000000	99.409470 
3548.000000	99.407795 
3547.000000	99.408653 
3546.000000	99.411558 
3545.000000	99.414214 
3544.000000	99.413838 
3543.000000	99.410227 
3542.000000	99.406926 
3541.000000	99.408169 
3540.000000	99.414872 
3539.000000	99.423647 
3538.000000	99.430160 
3537.000000	99.432889 
3536.000000	99.433362 
3535.000000	99.433392 
3534.000000	99.432942 
3533.000000	99.431301 
3532.000000	99.429107 
3531.000000	99.428395 
3530.000000	99.430229 
3529.000000	99.433008 
3528.000000	99.433893 
3527.000000	99.431830 
3526.000000	99.428438 
3525.000000	99.425835 
3524.000000	99.424348 
3523.000000	99.422759 
3522.000000	99.420617 
3521.000000	99.419257 
3520.000000	99.420557 
3519.000000	99.425103 
3518.000000	99.431714 
3517.000000	99.438185 
3516.000000	99.442254 
3515.000000	99.442634 
3514.000000	99.439654 
3513.000000	99.435126 
3512.000000	99.431193 
3511.000000	99.428992 
3510.000000	99.428228 
3509.000000	99.428216 
3508.000000	99.429049 
3507.000000	99.431390 
3506.000000	99.435228 
3505.000000	99.438943 
3504.000000	99.439994 
3503.000000	99.437211 
3502.000000	99.432786 
3501.000000	99.431177 
3500.000000	99.435197 
3499.000000	99.443182 
3498.000000	99.450041 
3497.000000	99.451312 
3496.000000	99.446465 
3495.000000	99.438697 
3494.000000	99.432088 
3493.000000	99.428886 
3492.000000	99.428859 
3491.000000	99.430383 
3490.000000	99.432080 
3489.000000	99.433844 
3488.000000	99.436333 
3487.000000	99.439487 
3486.000000	99.442007 
3485.000000	99.442548 
3484.000000	99.440928 
3483.000000	99.438012 
3482.000000	99.434833 
3481.000000	99.432353 
3480.000000	99.431534 
3479.000000	99.432517 
3478.000000	99.433776 
3477.000000	99.433333 
3476.000000	99.431447 
3475.000000	99.431306 
3474.000000	99.435830 
3473.000000	99.443759 
3472.000000	99.450009 
3471.000000	99.450532 
3470.000000	99.446347 
3469.000000	99.442133 
3468.000000	99.441273 
3467.000000	99.442866 
3466.000000	99.443725 
3465.000000	99.442295 
3464.000000	99.439829 
3463.000000	99.438315 
3462.000000	99.438342 
3461.000000	99.439429 
3460.000000	99.441414 
3459.000000	99.444575 
3458.000000	99.448466 
3457.000000	99.451306 
3456.000000	99.451150 
3455.000000	99.447736 
3454.000000	99.442985 
3453.000000	99.439784 
3452.000000	99.439891 
3451.000000	99.442882 
3450.000000	99.446800 
3449.000000	99.449787 
3448.000000	99.451001 
3447.000000	99.450316 
3446.000000	99.447772 
3445.000000	99.443875 
3444.000000	99.440121 
3443.000000	99.438327 
3442.000000	99.438930 
3441.000000	99.440166 
3440.000000	99.439568 
3439.000000	99.436289 
3438.000000	99.431645 
3437.000000	99.427639 
3436.000000	99.425577 
3435.000000	99.426078 
3434.000000	99.429357 
3433.000000	99.434870 
3432.000000	99.440782 
3431.000000	99.444793 
3430.000000	99.445896 
3429.000000	99.445267 
3428.000000	99.445201 
3427.000000	99.446874 
3426.000000	99.449093 
3425.000000	99.449215 
3424.000000	99.445537 
3423.000000	99.438982 
3422.000000	99.432522 
3421.000000	99.428967 
3420.000000	99.429330 
3419.000000	99.432851 
3418.000000	99.437831 
3417.000000	99.442318 
3416.000000	99.444743 
3415.000000	99.444610 
3414.000000	99.442585 
3413.000000	99.439720 
3412.000000	99.436839 
3411.000000	99.434805 
3410.000000	99.434625 
3409.000000	99.436384 
3408.000000	99.438203 
3407.000000	99.437279 
3406.000000	99.432626 
3405.000000	99.426305 
3404.000000	99.421490 
3403.000000	99.419627 
3402.000000	99.419929 
3401.000000	99.421400 
3400.000000	99.424283 
3399.000000	99.429184 
3398.000000	99.435441 
3397.000000	99.441133 
3396.000000	99.444534 
3395.000000	99.444938 
3394.000000	99.442203 
3393.000000	99.436503 
3392.000000	99.429071 
3391.000000	99.422514 
3390.000000	99.419526 
3389.000000	99.421072 
3388.000000	99.426021 
3387.000000	99.432405 
3386.000000	99.438785 
3385.000000	99.444553 
3384.000000	99.449340 
3383.000000	99.452386 
3382.000000	99.452491 
3381.000000	99.448954 
3380.000000	99.442869 
3379.000000	99.437342 
3378.000000	99.435468 
3377.000000	99.437549 
3376.000000	99.440691 
3375.000000	99.441636 
3374.000000	99.439894 
3373.000000	99.437880 
3372.000000	99.438372 
3371.000000	99.442264 
3370.000000	99.448242 
3369.000000	99.453591 
3368.000000	99.455426 
3367.000000	99.452473 
3366.000000	99.446465 
3365.000000	99.441121 
3364.000000	99.438964 
3363.000000	99.439468 
3362.000000	99.440631 
3361.000000	99.441453 
3360.000000	99.441933 
3359.000000	99.441468 
3358.000000	99.439015 
3357.000000	99.435194 
3356.000000	99.432718 
3355.000000	99.433625 
3354.000000	99.436596 
3353.000000	99.437999 
3352.000000	99.435450 
3351.000000	99.429999 
3350.000000	99.425130 
3349.000000	99.424019 
3348.000000	99.427446 
3347.000000	99.433399 
3346.000000	99.438460 
3345.000000	99.440140 
3344.000000	99.438473 
3343.000000	99.435592 
3342.000000	99.433608 
3341.000000	99.432829 
3340.000000	99.431936 
3339.000000	99.429849 
3338.000000	99.427365 
3337.000000	99.426713 
3336.000000	99.429309 
3335.000000	99.434148 
3334.000000	99.438852 
3333.000000	99.442136 
3332.000000	99.444633 
3331.000000	99.447129 
3330.000000	99.448739 
3329.000000	99.447630 
3328.000000	99.443421 
3327.000000	99.438114 
3326.000000	99.434284 
3325.000000	99.432677 
3324.000000	99.431895 
3323.000000	99.430458 
3322.000000	99.428760 
3321.000000	99.428660 
3320.000000	99.431273 
3319.000000	99.435573 
3318.000000	99.439427 
3317.000000	99.441541 
3316.000000	99.441936 
3315.000000	99.441111 
3314.000000	99.439815 
3313.000000	99.439533 
3312.000000	99.441777 
3311.000000	99.446112 
3310.000000	99.449747 
3309.000000	99.450077 
3308.000000	99.447256 
3307.000000	99.443591 
3306.000000	99.441001 
3305.000000	99.440043 
3304.000000	99.440874 
3303.000000	99.443535 
3302.000000	99.446867 
3301.000000	99.448346 
3300.000000	99.445966 
3299.000000	99.440220 
3298.000000	99.433876 
3297.000000	99.429895 
3296.000000	99.429366 
3295.000000	99.431014 
3294.000000	99.432565 
3293.000000	99.432904 
3292.000000	99.433017 
3291.000000	99.434433 
3290.000000	99.436883 
3289.000000	99.438291 
3288.000000	99.437237 
3287.000000	99.434694 
3286.000000	99.432820 
3285.000000	99.432480 
3284.000000	99.432538 
3283.000000	99.431447 
3282.000000	99.429156 
3281.000000	99.427395 
3280.000000	99.428214 
3279.000000	99.432016 
3278.000000	99.436831 
3277.000000	99.439692 
3276.000000	99.438870 
3275.000000	99.434850 
3274.000000	99.429513 
3273.000000	99.424948 
3272.000000	99.422918 
3271.000000	99.424282 
3270.000000	99.428128 
3269.000000	99.431906 
3268.000000	99.433243 
3267.000000	99.431684 
3266.000000	99.428460 
3265.000000	99.425049 
3264.000000	99.422533 
3263.000000	99.421986 
3262.000000	99.424344 
3261.000000	99.429244 
3260.000000	99.434547 
3259.000000	99.437688 
3258.000000	99.437709 
3257.000000	99.435817 
3256.000000	99.433892 
3255.000000	99.432617 
3254.000000	99.431320 
3253.000000	99.429578 
3252.000000	99.428357 
3251.000000	99.429115 
3250.000000	99.431916 
3249.000000	99.435110 
3248.000000	99.436977 
3247.000000	99.437118 
3246.000000	99.436068 
3245.000000	99.434239 
3244.000000	99.431927 
3243.000000	99.429974 
3242.000000	99.429471 
3241.000000	99.430573 
3240.000000	99.432214 
3239.000000	99.433391 
3238.000000	99.434490 
3237.000000	99.436899 
3236.000000	99.441268 
3235.000000	99.446382 
3234.000000	99.449996 
3233.000000	99.450763 
3232.000000	99.449236 
3231.000000	99.447147 
3230.000000	99.445957 
3229.000000	99.446002 
3228.000000	99.446480 
3227.000000	99.445842 
3226.000000	99.442683 
3225.000000	99.437065 
3224.000000	99.431003 
3223.000000	99.427096 
3222.000000	99.426441 
3221.000000	99.428061 
3220.000000	99.430166 
3219.000000	99.431409 
3218.000000	99.431231 
3217.000000	99.430152 
3216.000000	99.430180 
3215.000000	99.433739 
3214.000000	99.440952 
3213.000000	99.448280 
3212.000000	99.450923 
3211.000000	99.446907 
3210.000000	99.438634 
3209.000000	99.430679 
3208.000000	99.426458 
3207.000000	99.426485 
3206.000000	99.428874 
3205.000000	99.431166 
3204.000000	99.432154 
3203.000000	99.432237 
3202.000000	99.432123 
3201.000000	99.431700 
3200.000000	99.430745 
3199.000000	99.430213 
3198.000000	99.431664 
3197.000000	99.435196 
3196.000000	99.438940 
3195.000000	99.441063 
3194.000000	99.441559 
3193.000000	99.441466 
3192.000000	99.440917 
3191.000000	99.438843 
3190.000000	99.434590 
3189.000000	99.429262 
3188.000000	99.425199 
3187.000000	99.424141 
3186.000000	99.425781 
3185.000000	99.427964 
3184.000000	99.428607 
3183.000000	99.427620 
3182.000000	99.426860 
3181.000000	99.428172 
3180.000000	99.431734 
3179.000000	99.436276 
3178.000000	99.440230 
3177.000000	99.442360 
3176.000000	99.442103 
3175.000000	99.440258 
3174.000000	99.438976 
3173.000000	99.439858 
3172.000000	99.441762 
3171.000000	99.441493 
3170.000000	99.437342 
3169.000000	99.431351 
3168.000000	99.427341 
3167.000000	99.427070 
3166.000000	99.429115 
3165.000000	99.431224 
3164.000000	99.432706 
3163.000000	99.434187 
3162.000000	99.436017 
3161.000000	99.437838 
3160.000000	99.439379 
3159.000000	99.440640 
3158.000000	99.441094 
3157.000000	99.439554 
3156.000000	99.435473 
3155.000000	99.429993 
3154.000000	99.425055 
3153.000000	99.421586 
3152.000000	99.419183 
3151.000000	99.417524 
3150.000000	99.417258 
3149.000000	99.419089 
3148.000000	99.422502 
3147.000000	99.426039 
3146.000000	99.428677 
3145.000000	99.430453 
3144.000000	99.431796 
3143.000000	99.432744 
3142.000000	99.433036 
3141.000000	99.432723 
3140.000000	99.432356 
3139.000000	99.432508 
3138.000000	99.433171 
3137.000000	99.433755 
3136.000000	99.433788 
3135.000000	99.433523 
3134.000000	99.433601 
3133.000000	99.434128 
3132.000000	99.434406 
3131.000000	99.433778 
3130.000000	99.432454 
3129.000000	99.431393 
3128.000000	99.431701 
3127.000000	99.434295 
3126.000000	99.439332 
3125.000000	99.445195 
3124.000000	99.448519 
3123.000000	99.446528 
3122.000000	99.439821 
3121.000000	99.432196 
3120.000000	99.427339 
3119.000000	99.426127 
3118.000000	99.427103 
3117.000000	99.428649 
3116.000000	99.430103 
3115.000000	99.431409 
3114.000000	99.432591 
3113.000000	99.433592 
3112.000000	99.434189 
3111.000000	99.434132 
3110.000000	99.433552 
3109.000000	99.433010 
3108.000000	99.432824 
3107.000000	99.432632 
3106.000000	99.431880 
3105.000000	99.430558 
3104.000000	99.429213 
3103.000000	99.428458 
3102.000000	99.428779 
3101.000000	99.430428 
3100.000000	99.433168 
3099.000000	99.436313 
3098.000000	99.439351 
3097.000000	99.442220 
3096.000000	99.444650 
3095.000000	99.445596 
3094.000000	99.444005 
3093.000000	99.440061 
3092.000000	99.435193 
3091.000000	99.431045 
3090.000000	99.428891 
3089.000000	99.429692 
3088.000000	99.433593 
3087.000000	99.438984 
3086.000000	99.442873 
3085.000000	99.442972 
3084.000000	99.439356 
3083.000000	99.433965 
3082.000000	99.428983 
3081.000000	99.425960 
3080.000000	99.425841 
3079.000000	99.428896 
3078.000000	99.434446 
3077.000000	99.440963 
3076.000000	99.446588 
3075.000000	99.449621 
3074.000000	99.448966 
3073.000000	99.444814 
3072.000000	99.438929 
3071.000000	99.433812 
3070.000000	99.431102 
3069.000000	99.430580 
3068.000000	99.430754 
3067.000000	99.430645 
3066.000000	99.431142 
3065.000000	99.434309 
3064.000000	99.440748 
3063.000000	99.447645 
3062.000000	99.450300 
3061.000000	99.446200 
3060.000000	99.437475 
3059.000000	99.429015 
3058.000000	99.424518 
3057.000000	99.424625 
3056.000000	99.427937 
3055.000000	99.432599 
3054.000000	99.436838 
3053.000000	99.439212 
3052.000000	99.439148 
3051.000000	99.437072 
3050.000000	99.433940 
3049.000000	99.430974 
3048.000000	99.429591 
3047.000000	99.430415 
3046.000000	99.431905 
3045.000000	99.430964 
3044.000000	99.426072 
3043.000000	99.419556 
3042.000000	99.415784 
3041.000000	99.416956 
3040.000000	99.421243 
3039.000000	99.425005 
3038.000000	99.426001 
3037.000000	99.424147 
3036.000000	99.420001 
3035.000000	99.413662 
3034.000000	99.405329 
3033.000000	99.396188 
3032.000000	99.388034 
3031.000000	99.381896 
3030.000000	99.377305 
3029.000000	99.373091 
3028.000000	99.368753 
3027.000000	99.364867 
3026.000000	99.362157 
3025.000000	99.360271 
3024.000000	99.357691 
3023.000000	99.352961 
3022.000000	99.345888 
3021.000000	99.337230 
3020.000000	99.327324 
3019.000000	99.315632 
3018.000000	99.302173 
3017.000000	99.288865 
3016.000000	99.278369 
3015.000000	99.271293 
3014.000000	99.265460 
3013.000000	99.258532 
3012.000000	99.250732 
3011.000000	99.244142 
3010.000000	99.239691 
3009.000000	99.235853 
3008.000000	99.230285 
3007.000000	99.221926 
3006.000000	99.211337 
3005.000000	99.199778 
3004.000000	99.188412 
3003.000000	99.177898 
3002.000000	99.168255 
3001.000000	99.159176 
3000.000000	99.150589 
2999.000000	99.142794 
2998.000000	99.136162 
2997.000000	99.130987 
2996.000000	99.127376 
2995.000000	99.124485 
2994.000000	99.119852 
2993.000000	99.110461 
2992.000000	99.095277 
2991.000000	99.076609 
2990.000000	99.058842 
2989.000000	99.046097 
2988.000000	99.040837 
2987.000000	99.043405 
2986.000000	99.051745 
2985.000000	99.061941 
2984.000000	99.070102 
2983.000000	99.074370 
2982.000000	99.075257 
2981.000000	99.074574 
2980.000000	99.074291 
2979.000000	99.075765 
2978.000000	99.078999 
2977.000000	99.082407 
2976.000000	99.083843 
2975.000000	99.082245 
2974.000000	99.078391 
2973.000000	99.074362 
2972.000000	99.072517 
2971.000000	99.074548 
2970.000000	99.080740 
2969.000000	99.089898 
2968.000000	99.100374 
2967.000000	99.111266 
2966.000000	99.122461 
2965.000000	99.133642 
2964.000000	99.143853 
2963.000000	99.152262 
2962.000000	99.159027 
2961.000000	99.165046 
2960.000000	99.170823 
2959.000000	99.175789 
2958.000000	99.178916 
2957.000000	99.180083 
2956.000000	99.180732 
2955.000000	99.182973 
2954.000000	99.187970 
2953.000000	99.195261 
2952.000000	99.203512 
2951.000000	99.211517 
2950.000000	99.218434 
2949.000000	99.223551 
2948.000000	99.226319 
2947.000000	99.226706 
2946.000000	99.225602 
2945.000000	99.224991 
2944.000000	99.227266 
2943.000000	99.233386 
2942.000000	99.241337 
2941.000000	99.247307 
2940.000000	99.249142 
2939.000000	99.248527 
2938.000000	99.249291 
2937.000000	99.254056 
2936.000000	99.262882 
2935.000000	99.274252 
2934.000000	99.286069 
2933.000000	99.295876 
2932.000000	99.301595 
2931.000000	99.302840 
2930.000000	99.301198 
2929.000000	99.299002 
2928.000000	99.297871 
2927.000000	99.298008 
2926.000000	99.298162 
2925.000000	99.296385 
2924.000000	99.291704 
2923.000000	99.285258 
2922.000000	99.279167 
2921.000000	99.274093 
2920.000000	99.268555 
2919.000000	99.260803 
2918.000000	99.250797 
2917.000000	99.240099 
2916.000000	99.230380 
2915.000000	99.222303 
2914.000000	99.215448 
2913.000000	99.209025 
2912.000000	99.202933 
2911.000000	99.198128 
2910.000000	99.195479 
2909.000000	99.194282 
2908.000000	99.192494 
2907.000000	99.188708 
2906.000000	99.183093 
2905.000000	99.176135 
2904.000000	99.167373 
2903.000000	99.156578 
2902.000000	99.146003 
2901.000000	99.140724 
2900.000000	99.144692 
2899.000000	99.157223 
2898.000000	99.172438 
2897.000000	99.183118 
2896.000000	99.185952 
2895.000000	99.183540 
2894.000000	99.181261 
2893.000000	99.182168 
2892.000000	99.185256 
2891.000000	99.188023 
2890.000000	99.189375 
2889.000000	99.189542 
2888.000000	99.188552 
2887.000000	99.186326 
2886.000000	99.184003 
2885.000000	99.183800 
2884.000000	99.187197 
2883.000000	99.193911 
2882.000000	99.202742 
2881.000000	99.212631 
2880.000000	99.222647 
2879.000000	99.231801 
2878.000000	99.239595 
2877.000000	99.246464 
2876.000000	99.253199 
2875.000000	99.260072 
2874.000000	99.266804 
2873.000000	99.273038 
2872.000000	99.278366 
2871.000000	99.282091 
2870.000000	99.283731 
2869.000000	99.284137 
2868.000000	99.285724 
2867.000000	99.290930 
2866.000000	99.300070 
2865.000000	99.310815 
2864.000000	99.320030 
2863.000000	99.326260 
2862.000000	99.330426 
2861.000000	99.334424 
2860.000000	99.339484 
2859.000000	99.345963 
2858.000000	99.353818 
2857.000000	99.362448 
2856.000000	99.370248 
2855.000000	99.375375 
2854.000000	99.377462 
2853.000000	99.378180 
2852.000000	99.379692 
2851.000000	99.382756 
2850.000000	99.386605 
2849.000000	99.390230 
2848.000000	99.393161 
2847.000000	99.395173 
2846.000000	99.395979 
2845.000000	99.395536 
2844.000000	99.394235 
2843.000000	99.392509 
2842.000000	99.390540 
2841.000000	99.388621 
2840.000000	99.387559 
2839.000000	99.388302 
2838.000000	99.391167 
2837.000000	99.395569 
2836.000000	99.400366 
2835.000000	99.404284 
2834.000000	99.406298 
2833.000000	99.406160 
2832.000000	99.404611 
2831.000000	99.402743 
2830.000000	99.400986 
2829.000000	99.399046 
2828.000000	99.396891 
2827.000000	99.395430 
2826.000000	99.395883 
2825.000000	99.398575 
2824.000000	99.402549 
2823.000000	99.406252 
2822.000000	99.408504 
2821.000000	99.409073 
2820.000000	99.408615 
2819.000000	99.407973 
2818.000000	99.407369 
2817.000000	99.406408 
2816.000000	99.405021 
2815.000000	99.404045 
2814.000000	99.404364 
2813.000000	99.405616 
2812.000000	99.406414 
2811.000000	99.406071 
2810.000000	99.405633 
2809.000000	99.406762 
2808.000000	99.409808 
2807.000000	99.413367 
2806.000000	99.415618 
2805.000000	99.415826 
2804.000000	99.414667 
2803.000000	99.413525 
2802.000000	99.413518 
2801.000000	99.414779 
2800.000000	99.416414 
2799.000000	99.417302 
2798.000000	99.417053 
2797.000000	99.416049 
2796.000000	99.414590 
2795.000000	99.412484 
2794.000000	99.409786 
2793.000000	99.407482 
2792.000000	99.406709 
2791.000000	99.407355 
2790.000000	99.408162 
2789.000000	99.408477 
2788.000000	99.409223 
2787.000000	99.411559 
2786.000000	99.414945 
2785.000000	99.417198 
2784.000000	99.416503 
2783.000000	99.412975 
2782.000000	99.408438 
2781.000000	99.405147 
2780.000000	99.404632 
2779.000000	99.406993 
2778.000000	99.410860 
2777.000000	99.414349 
2776.000000	99.416441 
2775.000000	99.417432 
2774.000000	99.418092 
2773.000000	99.418854 
2772.000000	99.420029 
2771.000000	99.422211 
2770.000000	99.425737 
2769.000000	99.429749 
2768.000000	99.432465 
2767.000000	99.432795 
2766.000000	99.431438 
2765.000000	99.429985 
2764.000000	99.428956 
2763.000000	99.427178 
2762.000000	99.423372 
2761.000000	99.418075 
2760.000000	99.413499 
2759.000000	99.411560 
2758.000000	99.412561 
2757.000000	99.415782 
2756.000000	99.420373 
2755.000000	99.424994 
2754.000000	99.427391 
2753.000000	99.425850 
2752.000000	99.421347 
2751.000000	99.417288 
2750.000000	99.416549 
2749.000000	99.419183 
2748.000000	99.423158 
2747.000000	99.426581 
2746.000000	99.428687 
2745.000000	99.429371 
2744.000000	99.428714 
2743.000000	99.427032 
2742.000000	99.424974 
2741.000000	99.423410 
2740.000000	99.423135 
2739.000000	99.424321 
2738.000000	99.426199 
2737.000000	99.427737 
2736.000000	99.428780 
2735.000000	99.429972 
2734.000000	99.431340 
2733.000000	99.431734 
2732.000000	99.430213 
2731.000000	99.427394 
2730.000000	99.424803 
2729.000000	99.423386 
2728.000000	99.423292 
2727.000000	99.424468 
2726.000000	99.426466 
2725.000000	99.428053 
2724.000000	99.428246 
2723.000000	99.427785 
2722.000000	99.428545 
2721.000000	99.431142 
2720.000000	99.433892 
2719.000000	99.434554 
2718.000000	99.432565 
2717.000000	99.429283 
2716.000000	99.426616 
2715.000000	99.425726 
2714.000000	99.426626 
2713.000000	99.428417 
2712.000000	99.430042 
2711.000000	99.431178 
2710.000000	99.432519 
2709.000000	99.435036 
2708.000000	99.438804 
2707.000000	99.442376 
2706.000000	99.443492 
2705.000000	99.440967 
2704.000000	99.436216 
2703.000000	99.432362 
2702.000000	99.431307 
2701.000000	99.431943 
2700.000000	99.431878 
2699.000000	99.430562 
2698.000000	99.429888 
2697.000000	99.431705 
2696.000000	99.435541 
2695.000000	99.439045 
2694.000000	99.440248 
2693.000000	99.439200 
2692.000000	99.437752 
2691.000000	99.437683 
2690.000000	99.438816 
2689.000000	99.439213 
2688.000000	99.437695 
2687.000000	99.435697 
2686.000000	99.435804 
2685.000000	99.438656 
2684.000000	99.442336 
2683.000000	99.444696 
2682.000000	99.445120 
2681.000000	99.443807 
2680.000000	99.440828 
2679.000000	99.436799 
2678.000000	99.433586 
2677.000000	99.433102 
2676.000000	99.435505 
2675.000000	99.439159 
2674.000000	99.442143 
2673.000000	99.443372 
2672.000000	99.442692 
2671.000000	99.440603 
2670.000000	99.437917 
2669.000000	99.435342 
2668.000000	99.433381 
2667.000000	99.432592 
2666.000000	99.433417 
2665.000000	99.435441 
2664.000000	99.437288 
2663.000000	99.437780 
2662.000000	99.437045 
2661.000000	99.436185 
2660.000000	99.436028 
2659.000000	99.436503 
2658.000000	99.437107 
2657.000000	99.437784 
2656.000000	99.439220 
2655.000000	99.441981 
2654.000000	99.445053 
2653.000000	99.445974 
2652.000000	99.443625 
2651.000000	99.440607 
2650.000000	99.441054 
2649.000000	99.445382 
2648.000000	99.449046 
2647.000000	99.448034 
2646.000000	99.444377 
2645.000000	99.444056 
2644.000000	99.449662 
2643.000000	99.457193 
2642.000000	99.460589 
2641.000000	99.458003 
2640.000000	99.452772 
2639.000000	99.449356 
2638.000000	99.449480 
2637.000000	99.451726 
2636.000000	99.453680 
2635.000000	99.453931 
2634.000000	99.452405 
2633.000000	99.449674 
2632.000000	99.446759 
2631.000000	99.445407 
2630.000000	99.447220 
2629.000000	99.451579 
2628.000000	99.455234 
2627.000000	99.455272 
2626.000000	99.452289 
2625.000000	99.449505 
2624.000000	99.448844 
2623.000000	99.449115 
2622.000000	99.448223 
2621.000000	99.445901 
2620.000000	99.443639 
2619.000000	99.442800 
2618.000000	99.443482 
2617.000000	99.444736 
2616.000000	99.445416 
2615.000000	99.445235 
2614.000000	99.445238 
2613.000000	99.446784 
2612.000000	99.449827 
2611.000000	99.452757 
2610.000000	99.454090 
2609.000000	99.453675 
2608.000000	99.452106 
2607.000000	99.450005 
2606.000000	99.448476 
2605.000000	99.449308 
2604.000000	99.453398 
2603.000000	99.459104 
2602.000000	99.463186 
2601.000000	99.463842 
2600.000000	99.462535 
2599.000000	99.462500 
2598.000000	99.465210 
2597.000000	99.468215 
2596.000000	99.466849 
2595.000000	99.458928 
2594.000000	99.447860 
2593.000000	99.440232 
2592.000000	99.439731 
2591.000000	99.444033 
2590.000000	99.448060 
2589.000000	99.449236 
2588.000000	99.448566 
2587.000000	99.447616 
2586.000000	99.446558 
2585.000000	99.445436 
2584.000000	99.445446 
2583.000000	99.447575 
2582.000000	99.450763 
2581.000000	99.452628 
2580.000000	99.451831 
2579.000000	99.448877 
2578.000000	99.444870 
2577.000000	99.440556 
2576.000000	99.436738 
2575.000000	99.434603 
2574.000000	99.434920 
2573.000000	99.437293 
2572.000000	99.440716 
2571.000000	99.444581 
2570.000000	99.448660 
2569.000000	99.452324 
2568.000000	99.454462 
2567.000000	99.454414 
2566.000000	99.452762 
2565.000000	99.451084 
2564.000000	99.450929 
2563.000000	99.452807 
2562.000000	99.455834 
2561.000000	99.458314 
2560.000000	99.458800 
2559.000000	99.456710 
2558.000000	99.452285 
2557.000000	99.446606 
2556.000000	99.441817 
2555.000000	99.440357 
2554.000000	99.443036 
2553.000000	99.448066 
2552.000000	99.452677 
2551.000000	99.455350 
2550.000000	99.455680 
2549.000000	99.452771 
2548.000000	99.445696 
2547.000000	99.436140 
2546.000000	99.429030 
2545.000000	99.429012 
2544.000000	99.436263 
2543.000000	99.446152 
2542.000000	99.452685 
2541.000000	99.452402 
2540.000000	99.446306 
2539.000000	99.439004 
2538.000000	99.435189 
2537.000000	99.435769 
2536.000000	99.437591 
2535.000000	99.437471 
2534.000000	99.435653 
2533.000000	99.434283 
2532.000000	99.433651 
2531.000000	99.432141 
2530.000000	99.429840 
2529.000000	99.429625 
2528.000000	99.433115 
2527.000000	99.437118 
2526.000000	99.436419 
2525.000000	99.430232 
2524.000000	99.424175 
2523.000000	99.424913 
2522.000000	99.433496 
2521.000000	99.444627 
2520.000000	99.451873 
2519.000000	99.452574 
2518.000000	99.447992 
2517.000000	99.440505 
2516.000000	99.431942 
2515.000000	99.424046 
2514.000000	99.418969 
2513.000000	99.418577 
2512.000000	99.423430 
2511.000000	99.432327 
2510.000000	99.442417 
2509.000000	99.450293 
2508.000000	99.454181 
2507.000000	99.455192 
2506.000000	99.455420 
2505.000000	99.454704 
2504.000000	99.450567 
2503.000000	99.441893 
2502.000000	99.431430 
2501.000000	99.423757 
2500.000000	99.421587 
2499.000000	99.424758 
2498.000000	99.431520 
2497.000000	99.439346 
2496.000000	99.445113 
2495.000000	99.446442 
2494.000000	99.443338 
2493.000000	99.437927 
2492.000000	99.432751 
2491.000000	99.429939 
2490.000000	99.431404 
2489.000000	99.438396 
2488.000000	99.450396 
2487.000000	99.464828 
2486.000000	99.477704 
2485.000000	99.484549 
2484.000000	99.482246 
2483.000000	99.471721 
2482.000000	99.458473 
2481.000000	99.448742 
2480.000000	99.444646 
2479.000000	99.443689 
2478.000000	99.442577 
2477.000000	99.440409 
2476.000000	99.438681 
2475.000000	99.439782 
2474.000000	99.445215 
2473.000000	99.453358 
2472.000000	99.459000 
2471.000000	99.457423 
2470.000000	99.449819 
2469.000000	99.442837 
2468.000000	99.441640 
2467.000000	99.444895 
2466.000000	99.447570 
2465.000000	99.446955 
2464.000000	99.444403 
2463.000000	99.442562 
2462.000000	99.442870 
2461.000000	99.445030 
2460.000000	99.447155 
2459.000000	99.446772 
2458.000000	99.443269 
2457.000000	99.439200 
2456.000000	99.437809 
2455.000000	99.439415 
2454.000000	99.441414 
2453.000000	99.441545 
2452.000000	99.439627 
2451.000000	99.436187 
2450.000000	99.431255 
2449.000000	99.425324 
2448.000000	99.420339 
2447.000000	99.418697 
2446.000000	99.421531 
2445.000000	99.428015 
2444.000000	99.435589 
2443.000000	99.440822 
2442.000000	99.441278 
2441.000000	99.437583 
2440.000000	99.433309 
2439.000000	99.432139 
2438.000000	99.434939 
2437.000000	99.439393 
2436.000000	99.442028 
2435.000000	99.440708 
2434.000000	99.436142 
2433.000000	99.431621 
2432.000000	99.430891 
2431.000000	99.435455 
2430.000000	99.443449 
2429.000000	99.450956 
2428.000000	99.454521 
2427.000000	99.453088 
2426.000000	99.448312 
2425.000000	99.443260 
2424.000000	99.440526 
2423.000000	99.441321 
2422.000000	99.445802 
2421.000000	99.452989 
2420.000000	99.459796 
2419.000000	99.461574 
2418.000000	99.455720 
2417.000000	99.444839 
2416.000000	99.434869 
2415.000000	99.429605 
2414.000000	99.428137 
2413.000000	99.427590 
2412.000000	99.426723 
2411.000000	99.426087 
2410.000000	99.426235 
2409.000000	99.427075 
2408.000000	99.428204 
2407.000000	99.428788 
2406.000000	99.427893 
2405.000000	99.425954 
2404.000000	99.425187 
2403.000000	99.427263 
2402.000000	99.431042 
2401.000000	99.433629 
2400.000000	99.433201 
2399.000000	99.429786 
2398.000000	99.424172 
2397.000000	99.417854 
2396.000000	99.413689 
2395.000000	99.414321 
2394.000000	99.419182 
2393.000000	99.424517 
2392.000000	99.427168 
2391.000000	99.427144 
2390.000000	99.425882 
2389.000000	99.423760 
2388.000000	99.420826 
2387.000000	99.418635 
2386.000000	99.419055 
2385.000000	99.421291 
2384.000000	99.422166 
2383.000000	99.420008 
2382.000000	99.416829 
2381.000000	99.415528 
2380.000000	99.416091 
2379.000000	99.416277 
2378.000000	99.415906 
2377.000000	99.417808 
2376.000000	99.423113 
2375.000000	99.427757 
2374.000000	99.426594 
2373.000000	99.419939 
2372.000000	99.413020 
2371.000000	99.409634 
2370.000000	99.409444 
2369.000000	99.410893 
2368.000000	99.412710 
2367.000000	99.413106 
2366.000000	99.411782 
2365.000000	99.412017 
2364.000000	99.416397 
2363.000000	99.421201 
2362.000000	99.418970 
2361.000000	99.407894 
2360.000000	99.393636 
2359.000000	99.381812 
2358.000000	99.375007 
2357.000000	99.374067 
2356.000000	99.379611 
2355.000000	99.391700 
2354.000000	99.410932 
2353.000000	99.431921 
2352.000000	99.443183 
2351.000000	99.438486 
2350.000000	99.422529 
2349.000000	99.405051 
2348.000000	99.393991 
2347.000000	99.394017 
2346.000000	99.403044 
2345.000000	99.411750 
2344.000000	99.413497 
2343.000000	99.409739 
2342.000000	99.405035 
2341.000000	99.400470 
2340.000000	99.397130 
2339.000000	99.398541 
2338.000000	99.407383 
2337.000000	99.418839 
2336.000000	99.421331 
2335.000000	99.410494 
2334.000000	99.395905 
2333.000000	99.391137 
2332.000000	99.396949 
2331.000000	99.405507 
2330.000000	99.410073 
2329.000000	99.411363 
2328.000000	99.410916 
2327.000000	99.411869 
2326.000000	99.415813 
2325.000000	99.420932 
2324.000000	99.421770 
2323.000000	99.417333 
2322.000000	99.412774 
2321.000000	99.411928 
2320.000000	99.410447 
2319.000000	99.403621 
2318.000000	99.393819 
2317.000000	99.389699 
2316.000000	99.394306 
2315.000000	99.403818 
2314.000000	99.411854 
2313.000000	99.417815 
2312.000000	99.423710 
2311.000000	99.431235 
2310.000000	99.438120 
2309.000000	99.441664 
2308.000000	99.440682 
2307.000000	99.437643 
2306.000000	99.435518 
2305.000000	99.436061 
2304.000000	99.438876 
2303.000000	99.443696 
2302.000000	99.449595 
2301.000000	99.455181 
2300.000000	99.458966 
2299.000000	99.462161 
2298.000000	99.466327 
2297.000000	99.470949 
2296.000000	99.472304 
2295.000000	99.468893 
2294.000000	99.463853 
2293.000000	99.462632 
2292.000000	99.466909 
2291.000000	99.473689 
2290.000000	99.478526 
2289.000000	99.479035 
2288.000000	99.475827 
2287.000000	99.471711 
2286.000000	99.469890 
2285.000000	99.471020 
2284.000000	99.472642 
2283.000000	99.472114 
2282.000000	99.470293 
2281.000000	99.470218 
2280.000000	99.472756 
2279.000000	99.475109 
2278.000000	99.474509 
2277.000000	99.471457 
2276.000000	99.468326 
2275.000000	99.466439 
2274.000000	99.465799 
2273.000000	99.466645 
2272.000000	99.469277 
2271.000000	99.473008 
2270.000000	99.476474 
2269.000000	99.479282 
2268.000000	99.482312 
2267.000000	99.486273 
2266.000000	99.490107 
2265.000000	99.491091 
2264.000000	99.486845 
2263.000000	99.477942 
2262.000000	99.468679 
2261.000000	99.464214 
2260.000000	99.466108 
2259.000000	99.470859 
2258.000000	99.473476 
2257.000000	99.472178 
2256.000000	99.469288 
2255.000000	99.467963 
2254.000000	99.469238 
2253.000000	99.472485 
2252.000000	99.477217 
2251.000000	99.483084 
2250.000000	99.488358 
2249.000000	99.490481 
2248.000000	99.488489 
2247.000000	99.484701 
2246.000000	99.482240 
2245.000000	99.482283 
2244.000000	99.484133 
2243.000000	99.486984 
2242.000000	99.490190 
2241.000000	99.493011 
2240.000000	99.496265 
2239.000000	99.503314 
2238.000000	99.515927 
2237.000000	99.528614 
2236.000000	99.531010 
2235.000000	99.518662 
2234.000000	99.499556 
2233.000000	99.487142 
2232.000000	99.487510 
2231.000000	99.495034 
2230.000000	99.499077 
2229.000000	99.492737 
2228.000000	99.476788 
2227.000000	99.458596 
2226.000000	99.447281 
2225.000000	99.447169 
2224.000000	99.455155 
2223.000000	99.465469 
2222.000000	99.475201 
2221.000000	99.482649 
2220.000000	99.483460 
2219.000000	99.474899 
2218.000000	99.464040 
2217.000000	99.464330 
2216.000000	99.479918 
2215.000000	99.498464 
2214.000000	99.504467 
2213.000000	99.496499 
2212.000000	99.486303 
2211.000000	99.483769 
2210.000000	99.489364 
2209.000000	99.499753 
2208.000000	99.512518 
2207.000000	99.522767 
2206.000000	99.522016 
2205.000000	99.506566 
2204.000000	99.484916 
2203.000000	99.471979 
2202.000000	99.475868 
2201.000000	99.491845 
2200.000000	99.507772 
2199.000000	99.513501 
2198.000000	99.506590 
2197.000000	99.492730 
2196.000000	99.481488 
2195.000000	99.479545 
2194.000000	99.486628 
2193.000000	99.497254 
2192.000000	99.505617 
2191.000000	99.509289 
2190.000000	99.510553 
2189.000000	99.514914 
2188.000000	99.525066 
2187.000000	99.534271 
2186.000000	99.529496 
2185.000000	99.505727 
2184.000000	99.475100 
2183.000000	99.456383 
2182.000000	99.456350 
2181.000000	99.466419 
2180.000000	99.476556 
2179.000000	99.485492 
2178.000000	99.495880 
2177.000000	99.506719 
2176.000000	99.514469 
2175.000000	99.516930 
2174.000000	99.512947 
2173.000000	99.503426 
2172.000000	99.496219 
2171.000000	99.504030 
2170.000000	99.531176 
2169.000000	99.565374 
2168.000000	99.588960 
2167.000000	99.596524 
2166.000000	99.595545 
2165.000000	99.592556 
2164.000000	99.587285 
2163.000000	99.580423 
2162.000000	99.577150 
2161.000000	99.577985 
2160.000000	99.572756 
2159.000000	99.550842 
2158.000000	99.514611 
2157.000000	99.476634 
2156.000000	99.446720 
2155.000000	99.428438 
2154.000000	99.424708 
2153.000000	99.438168 
2152.000000	99.464960 
2151.000000	99.492940 
2150.000000	99.509212 
2149.000000	99.509966 
2148.000000	99.502695 
2147.000000	99.498197 
2146.000000	99.500385 
2145.000000	99.504238 
2144.000000	99.503313 
2143.000000	99.497357 
2142.000000	99.491158 
2141.000000	99.487610 
2140.000000	99.484562 
2139.000000	99.478635 
2138.000000	99.470047 
2137.000000	99.462548 
2136.000000	99.459275 
2135.000000	99.459425 
2134.000000	99.459316 
2133.000000	99.457005 
2132.000000	99.455186 
2131.000000	99.457805 
2130.000000	99.463910 
2129.000000	99.467467 
2128.000000	99.464710 
2127.000000	99.459189 
2126.000000	99.457005 
2125.000000	99.459280 
2124.000000	99.462980 
2123.000000	99.467718 
2122.000000	99.476561 
2121.000000	99.489247 
2120.000000	99.499421 
2119.000000	99.501421 
2118.000000	99.497010 
2117.000000	99.492866 
2116.000000	99.493263 
2115.000000	99.497352 
2114.000000	99.501800 
2113.000000	99.503391 
2112.000000	99.500191 
2111.000000	99.493019 
2110.000000	99.485879 
2109.000000	99.482801 
2108.000000	99.483636 
2107.000000	99.484055 
2106.000000	99.480011 
2105.000000	99.471793 
2104.000000	99.464022 
2103.000000	99.461985 
2102.000000	99.466998 
2101.000000	99.474314 
2100.000000	99.476473 
2099.000000	99.470089 
2098.000000	99.459303 
2097.000000	99.452012 
2096.000000	99.453028 
2095.000000	99.461402 
2094.000000	99.473067 
2093.000000	99.484072 
2092.000000	99.491704 
2091.000000	99.494906 
2090.000000	99.495070 
2089.000000	99.495374 
2088.000000	99.497300 
2087.000000	99.497515 
2086.000000	99.490269 
2085.000000	99.475169 
2084.000000	99.461735 
2083.000000	99.462538 
2082.000000	99.479964 
2081.000000	99.502020 
2080.000000	99.514128 
2079.000000	99.513862 
2078.000000	99.510952 
2077.000000	99.514125 
2076.000000	99.521950 
2075.000000	99.526745 
2074.000000	99.523035 
2073.000000	99.510771 
2072.000000	99.494326 
2071.000000	99.480816 
2070.000000	99.476702 
2069.000000	99.482593 
2068.000000	99.491748 
2067.000000	99.495504 
2066.000000	99.490161 
2065.000000	99.479339 
2064.000000	99.471535 
2063.000000	99.474637 
2062.000000	99.489038 
2061.000000	99.504761 
2060.000000	99.509446 
2059.000000	99.501815 
2058.000000	99.493741 
2057.000000	99.496101 
2056.000000	99.506150 
2055.000000	99.513006 
2054.000000	99.512780 
2053.000000	99.512623 
2052.000000	99.520191 
2051.000000	99.534095 
2050.000000	99.546023 
2049.000000	99.549405 
2048.000000	99.545229 
2047.000000	99.540761 
2046.000000	99.543277 
2045.000000	99.553606 
2044.000000	99.564633 
2043.000000	99.567433 
2042.000000	99.560032 
2041.000000	99.549505 
2040.000000	99.544534 
2039.000000	99.546855 
2038.000000	99.551129 
2037.000000	99.551788 
2036.000000	99.547729 
2035.000000	99.539811 
2034.000000	99.526659 
2033.000000	99.507429 
2032.000000	99.489063 
2031.000000	99.484978 
2030.000000	99.501517 
2029.000000	99.527533 
2028.000000	99.543150 
2027.000000	99.539710 
2026.000000	99.526482 
2025.000000	99.518419 
2024.000000	99.522683 
2023.000000	99.537331 
2022.000000	99.555586 
2021.000000	99.567485 
2020.000000	99.563900 
2019.000000	99.545399 
2018.000000	99.524696 
2017.000000	99.515172 
2016.000000	99.517716 
2015.000000	99.523382 
2014.000000	99.526035 
2013.000000	99.526187 
2012.000000	99.525213 
2011.000000	99.522674 
2010.000000	99.519825 
2009.000000	99.520521 
2008.000000	99.526427 
2007.000000	99.534323 
2006.000000	99.539590 
2005.000000	99.540568 
2004.000000	99.539109 
2003.000000	99.538260 
2002.000000	99.539076 
2001.000000	99.538126 
2000.000000	99.529473 
1999.000000	99.511364 
1998.000000	99.489807 
1997.000000	99.473654 
1996.000000	99.467116 
1995.000000	99.468612 
1994.000000	99.475294 
1993.000000	99.485655 
1992.000000	99.497454 
1991.000000	99.505448 
1990.000000	99.503443 
1989.000000	99.489594 
1988.000000	99.471189 
1987.000000	99.463075 
1986.000000	99.476741 
1985.000000	99.508704 
1984.000000	99.542609 
1983.000000	99.564587 
1982.000000	99.573328 
1981.000000	99.574035 
1980.000000	99.568321 
1979.000000	99.554970 
1978.000000	99.536594 
1977.000000	99.518383 
1976.000000	99.501248 
1975.000000	99.483275 
1974.000000	99.467965 
1973.000000	99.463605 
1972.000000	99.472560 
1971.000000	99.487184 
1970.000000	99.499136 
1969.000000	99.508314 
1968.000000	99.519026 
1967.000000	99.530194 
1966.000000	99.535160 
1965.000000	99.531290 
1964.000000	99.524203 
1963.000000	99.520497 
1962.000000	99.519908 
1961.000000	99.517326 
1960.000000	99.510901 
1959.000000	99.504371 
1958.000000	99.501008 
1957.000000	99.498962 
1956.000000	99.494420 
1955.000000	99.486713 
1954.000000	99.477868 
1953.000000	99.468925 
1952.000000	99.459577 
1951.000000	99.451076 
1950.000000	99.446665 
1949.000000	99.448059 
1948.000000	99.453431 
1947.000000	99.459876 
1946.000000	99.465459 
1945.000000	99.467921 
1944.000000	99.464533 
1943.000000	99.455770 
1942.000000	99.446947 
1941.000000	99.442524 
1940.000000	99.440974 
1939.000000	99.438370 
1938.000000	99.434566 
1937.000000	99.433350 
1936.000000	99.437036 
1935.000000	99.442892 
1934.000000	99.445761 
1933.000000	99.443357 
1932.000000	99.438321 
1931.000000	99.436057 
1930.000000	99.441009 
1929.000000	99.452771 
1928.000000	99.465021 
1927.000000	99.469816 
1926.000000	99.463538 
1925.000000	99.448674 
1924.000000	99.431511 
1923.000000	99.419108 
1922.000000	99.416632 
1921.000000	99.424388 
1920.000000	99.437392 
1919.000000	99.448565 
1918.000000	99.452695 
1917.000000	99.448941 
1916.000000	99.440889 
1915.000000	99.434745 
1914.000000	99.435817 
1913.000000	99.444303 
1912.000000	99.454238 
1911.000000	99.458540 
1910.000000	99.455163 
1909.000000	99.447190 
1908.000000	99.438919 
1907.000000	99.434110 
1906.000000	99.435495 
1905.000000	99.441589 
1904.000000	99.445158 
1903.000000	99.439276 
1902.000000	99.424829 
1901.000000	99.409027 
1900.000000	99.398135 
1899.000000	99.394317 
1898.000000	99.397385 
1897.000000	99.405257 
1896.000000	99.413078 
1895.000000	99.416550 
1894.000000	99.417043 
1893.000000	99.419320 
1892.000000	99.424384 
1891.000000	99.428333 
1890.000000	99.427989 
1889.000000	99.424769 
1888.000000	99.421985 
1887.000000	99.421450 
1886.000000	99.423205 
1885.000000	99.425728 
1884.000000	99.426182 
1883.000000	99.422771 
1882.000000	99.417097 
1881.000000	99.412449 
1880.000000	99.410689 
1879.000000	99.411646 
1878.000000	99.413743 
1877.000000	99.414034 
1876.000000	99.409963 
1875.000000	99.403566 
1874.000000	99.401955 
1873.000000	99.409847 
1872.000000	99.422554 
1871.000000	99.430048 
1870.000000	99.427453 
1869.000000	99.418707 
1868.000000	99.408078 
1867.000000	99.394862 
1866.000000	99.380226 
1865.000000	99.370312 
1864.000000	99.371011 
1863.000000	99.382852 
1862.000000	99.400865 
1861.000000	99.417287 
1860.000000	99.424985 
1859.000000	99.422148 
1858.000000	99.414888 
1857.000000	99.412230 
1856.000000	99.417469 
1855.000000	99.426655 
1854.000000	99.434303 
1853.000000	99.437581 
1852.000000	99.436124 
1851.000000	99.430722 
1850.000000	99.423328 
1849.000000	99.416802 
1848.000000	99.413022 
1847.000000	99.411729 
1846.000000	99.411794 
1845.000000	99.411749 
1844.000000	99.409035 
1843.000000	99.402583 
1842.000000	99.396399 
1841.000000	99.395544 
1840.000000	99.401390 
1839.000000	99.410852 
1838.000000	99.418689 
1837.000000	99.421571 
1836.000000	99.420221 
1835.000000	99.418049 
1834.000000	99.418088 
1833.000000	99.421316 
1832.000000	99.427295 
1831.000000	99.433922 
1830.000000	99.437591 
1829.000000	99.436675 
1828.000000	99.434194 
1827.000000	99.433280 
1826.000000	99.433144 
1825.000000	99.431701 
1824.000000	99.428825 
1823.000000	99.426007 
1822.000000	99.423949 
1821.000000	99.421343 
1820.000000	99.416369 
1819.000000	99.408933 
1818.000000	99.402051 
1817.000000	99.399801 
1816.000000	99.402313 
1815.000000	99.405544 
1814.000000	99.406864 
1813.000000	99.408358 
1812.000000	99.413782 
1811.000000	99.422845 
1810.000000	99.432218 
1809.000000	99.440236 
1808.000000	99.445647 
1807.000000	99.445849 
1806.000000	99.439943 
1805.000000	99.430682 
1804.000000	99.421608 
1803.000000	99.414349 
1802.000000	99.409974 
1801.000000	99.410508 
1800.000000	99.414805 
1799.000000	99.417369 
1798.000000	99.415665 
1797.000000	99.412732 
1796.000000	99.411931 
1795.000000	99.413587 
1794.000000	99.416356 
1793.000000	99.419212 
1792.000000	99.421219 
1791.000000	99.420681 
1790.000000	99.418629 
1789.000000	99.418867 
1788.000000	99.423337 
1787.000000	99.430307 
1786.000000	99.436222 
1785.000000	99.438188 
1784.000000	99.435163 
1783.000000	99.429351 
1782.000000	99.424949 
1781.000000	99.424329 
1780.000000	99.424966 
1779.000000	99.422097 
1778.000000	99.415665 
1777.000000	99.410539 
1776.000000	99.411238 
1775.000000	99.418969 
1774.000000	99.431533 
1773.000000	99.443849 
1772.000000	99.450023 
1771.000000	99.447893 
1770.000000	99.440836 
1769.000000	99.433277 
1768.000000	99.428534 
1767.000000	99.427324 
1766.000000	99.427814 
1765.000000	99.428355 
1764.000000	99.428381 
1763.000000	99.428130 
1762.000000	99.428109 
1761.000000	99.429140 
1760.000000	99.432064 
1759.000000	99.436326 
1758.000000	99.440079 
1757.000000	99.441618 
1756.000000	99.440779 
1755.000000	99.438353 
1754.000000	99.433955 
1753.000000	99.426750 
1752.000000	99.419604 
1751.000000	99.419569 
1750.000000	99.429299 
1749.000000	99.443007 
1748.000000	99.454332 
1747.000000	99.460916 
1746.000000	99.462352 
1745.000000	99.459360 
1744.000000	99.455173 
1743.000000	99.453596 
1742.000000	99.454918 
1741.000000	99.456505 
1740.000000	99.456333 
1739.000000	99.454768 
1738.000000	99.453370 
1737.000000	99.452272 
1736.000000	99.448769 
1735.000000	99.439454 
1734.000000	99.426519 
1733.000000	99.418232 
1732.000000	99.420651 
1731.000000	99.431466 
1730.000000	99.443491 
1729.000000	99.450013 
1728.000000	99.449654 
1727.000000	99.446061 
1726.000000	99.442407 
1725.000000	99.439062 
1724.000000	99.435840 
1723.000000	99.434346 
1722.000000	99.437003 
1721.000000	99.444385 
1720.000000	99.453850 
1719.000000	99.460337 
1718.000000	99.459255 
1717.000000	99.452669 
1716.000000	99.445166 
1715.000000	99.437572 
1714.000000	99.431567 
1713.000000	99.429827 
1712.000000	99.431506 
1711.000000	99.433752 
1710.000000	99.434913 
1709.000000	99.435140 
1708.000000	99.434837 
1707.000000	99.433779 
1706.000000	99.433995 
1705.000000	99.438536 
1704.000000	99.444465 
1703.000000	99.443856 
1702.000000	99.432875 
1701.000000	99.418593 
1700.000000	99.413841 
1699.000000	99.414961 
1698.000000	99.415853 
1697.000000	99.418462 
1696.000000	99.424627 
1695.000000	99.429276 
1694.000000	99.430159 
1693.000000	99.430419 
1692.000000	99.429647 
1691.000000	99.426574 
1690.000000	99.422150 
1689.000000	99.418041 
1688.000000	99.413919 
1687.000000	99.407623 
1686.000000	99.399797 
1685.000000	99.396578 
1684.000000	99.402254 
1683.000000	99.408010 
1682.000000	99.409466 
1681.000000	99.407660 
1680.000000	99.405465 
1679.000000	99.405370 
1678.000000	99.407422 
1677.000000	99.409580 
1676.000000	99.410426 
1675.000000	99.410627 
1674.000000	99.410361 
1673.000000	99.410506 
1672.000000	99.412362 
1671.000000	99.416542 
1670.000000	99.421505 
1669.000000	99.422287 
1668.000000	99.417758 
1667.000000	99.413028 
1666.000000	99.409992 
1665.000000	99.406813 
1664.000000	99.403094 
1663.000000	99.402015 
1662.000000	99.405960 
1661.000000	99.412196 
1660.000000	99.416613 
1659.000000	99.418755 
1658.000000	99.420262 
1657.000000	99.420776 
1656.000000	99.416350 
1655.000000	99.406044 
1654.000000	99.398482 
1653.000000	99.401616 
1652.000000	99.401645 
1651.000000	99.400871 
1650.000000	99.400245 
1649.000000	99.396148 
1648.000000	99.388246 
1647.000000	99.380508 
1646.000000	99.375148 
1645.000000	99.373901 
1644.000000	99.377696 
1643.000000	99.383729 
1642.000000	99.388587 
1641.000000	99.391362 
1640.000000	99.392965 
1639.000000	99.394203 
1638.000000	99.395320 
1637.000000	99.396275 
1636.000000	99.395668 
1635.000000	99.391874 
1634.000000	99.388385 
1633.000000	99.388957 
1632.000000	99.391607 
1631.000000	99.394090 
1630.000000	99.396258 
1629.000000	99.398207 
1628.000000	99.399059 
1627.000000	99.399037 
1626.000000	99.399879 
1625.000000	99.402858 
1624.000000	99.407646 
1623.000000	99.412746 
1622.000000	99.416237 
1621.000000	99.416948 
1620.000000	99.414814 
1619.000000	99.411121 
1618.000000	99.409050 
1617.000000	99.410263 
1616.000000	99.411270 
1615.000000	99.410636 
1614.000000	99.410166 
1613.000000	99.409386 
1612.000000	99.407660 
1611.000000	99.405630 
1610.000000	99.403879 
1609.000000	99.401722 
1608.000000	99.399163 
1607.000000	99.398100 
1606.000000	99.399063 
1605.000000	99.400205 
1604.000000	99.401057 
1603.000000	99.403772 
1602.000000	99.408894 
1601.000000	99.413120 
1600.000000	99.414048 
1599.000000	99.413925 
1598.000000	99.415921 
1597.000000	99.419787 
1596.000000	99.423398 
1595.000000	99.426401 
1594.000000	99.429709 
1593.000000	99.432272 
1592.000000	99.432163 
1591.000000	99.430285 
1590.000000	99.429811 
1589.000000	99.431894 
1588.000000	99.435067 
1587.000000	99.438263 
1586.000000	99.440918 
1585.000000	99.441130 
1584.000000	99.437813 
1583.000000	99.433374 
1582.000000	99.431834 
1581.000000	99.434221 
1580.000000	99.438673 
1579.000000	99.443661 
1578.000000	99.448450 
1577.000000	99.450289 
1576.000000	99.445548 
1575.000000	99.438656 
1574.000000	99.437867 
1573.000000	99.441389 
1572.000000	99.443567 
1571.000000	99.443522 
1570.000000	99.444596 
1569.000000	99.446769 
1568.000000	99.447630 
1567.000000	99.448056 
1566.000000	99.448678 
1565.000000	99.448665 
1564.000000	99.448009 
1563.000000	99.448077 
1562.000000	99.449047 
1561.000000	99.448118 
1560.000000	99.443351 
1559.000000	99.442484 
1558.000000	99.444489 
1557.000000	99.444795 
1556.000000	99.445894 
1555.000000	99.447045 
1554.000000	99.446103 
1553.000000	99.442243 
1552.000000	99.437722 
1551.000000	99.435466 
1550.000000	99.437199 
1549.000000	99.441231 
1548.000000	99.444343 
1547.000000	99.445172 
1546.000000	99.443725 
1545.000000	99.441158 
1544.000000	99.438344 
1543.000000	99.434143 
1542.000000	99.428830 
1541.000000	99.427396 
1540.000000	99.430358 
1539.000000	99.429738 
1538.000000	99.426909 
1537.000000	99.426535 
1536.000000	99.427037 
1535.000000	99.427161 
1534.000000	99.428869 
1533.000000	99.432068 
1532.000000	99.432209 
1531.000000	99.427725 
1530.000000	99.422370 
1529.000000	99.419925 
1528.000000	99.419733 
1527.000000	99.419004 
1526.000000	99.416959 
1525.000000	99.415364 
1524.000000	99.414577 
1523.000000	99.413572 
1522.000000	99.414451 
1521.000000	99.419812 
1520.000000	99.424874 
1519.000000	99.424954 
1518.000000	99.420173 
1517.000000	99.413910 
1516.000000	99.408673 
1515.000000	99.404588 
1514.000000	99.401933 
1513.000000	99.401268 
1512.000000	99.402351 
1511.000000	99.403164 
1510.000000	99.401478 
1509.000000	99.398135 
1508.000000	99.399474 
1507.000000	99.409898 
1506.000000	99.416315 
1505.000000	99.412485 
1504.000000	99.408657 
1503.000000	99.407620 
1502.000000	99.408465 
1501.000000	99.411378 
1500.000000	99.415982 
1499.000000	99.419009 
1498.000000	99.417255 
1497.000000	99.414954 
1496.000000	99.418716 
1495.000000	99.424838 
1494.000000	99.425360 
1493.000000	99.418662 
1492.000000	99.408845 
1491.000000	99.401742 
1490.000000	99.400296 
1489.000000	99.402428 
1488.000000	99.403212 
1487.000000	99.400243 
1486.000000	99.397248 
1485.000000	99.397302 
1484.000000	99.398958 
1483.000000	99.399649 
1482.000000	99.397877 
1481.000000	99.394277 
1480.000000	99.390358 
1479.000000	99.387196 
1478.000000	99.385574 
1477.000000	99.385996 
1476.000000	99.387135 
1475.000000	99.385448 
1474.000000	99.381350 
1473.000000	99.381308 
1472.000000	99.388154 
1471.000000	99.394511 
1470.000000	99.396012 
1469.000000	99.395330 
1468.000000	99.395628 
1467.000000	99.396858 
1466.000000	99.397481 
1465.000000	99.397295 
1464.000000	99.396658 
1463.000000	99.395845 
1462.000000	99.395787 
1461.000000	99.397547 
1460.000000	99.400119 
1459.000000	99.400499 
1458.000000	99.395061 
1457.000000	99.384476 
1456.000000	99.374070 
1455.000000	99.367714 
1454.000000	99.364595 
1453.000000	99.362947 
1452.000000	99.362217 
1451.000000	99.362011 
1450.000000	99.362354 
1449.000000	99.364983 
1448.000000	99.370715 
1447.000000	99.375999 
1446.000000	99.377206 
1445.000000	99.375797 
1444.000000	99.374893 
1443.000000	99.374714 
1442.000000	99.373808 
1441.000000	99.372213 
1440.000000	99.371699 
1439.000000	99.372926 
1438.000000	99.373512 
1437.000000	99.371289 
1436.000000	99.366953 
1435.000000	99.361504 
1434.000000	99.356245 
1433.000000	99.353729 
1432.000000	99.355472 
1431.000000	99.360682 
1430.000000	99.365893 
1429.000000	99.368330 
1428.000000	99.368181 
1427.000000	99.366265 
1426.000000	99.362542 
1425.000000	99.357353 
1424.000000	99.353815 
1423.000000	99.353876 
1422.000000	99.353776 
1421.000000	99.349100 
1420.000000	99.340679 
1419.000000	99.333483 
1418.000000	99.326666 
1417.000000	99.317124 
1416.000000	99.307234 
1415.000000	99.299043 
1414.000000	99.290554 
1413.000000	99.279044 
1412.000000	99.266016 
1411.000000	99.255599 
1410.000000	99.248483 
1409.000000	99.243072 
1408.000000	99.239778 
1407.000000	99.239409 
1406.000000	99.240842 
1405.000000	99.243358 
1404.000000	99.249319 
1403.000000	99.258915 
1402.000000	99.266937 
1401.000000	99.269687 
1400.000000	99.270178 
1399.000000	99.274014 
1398.000000	99.278534 
1397.000000	99.274523 
1396.000000	99.258803 
1395.000000	99.240217 
1394.000000	99.231989 
1393.000000	99.239202 
1392.000000	99.258948 
1391.000000	99.283998 
1390.000000	99.305555 
1389.000000	99.317196 
1388.000000	99.318231 
1387.000000	99.313066 
1386.000000	99.306110 
1385.000000	99.299688 
1384.000000	99.295582 
1383.000000	99.294883 
1382.000000	99.296903 
1381.000000	99.300623 
1380.000000	99.305713 
1379.000000	99.311714 
1378.000000	99.316935 
1377.000000	99.319608 
1376.000000	99.320548 
1375.000000	99.323249 
1374.000000	99.329720 
1373.000000	99.337138 
1372.000000	99.342233 
1371.000000	99.346082 
1370.000000	99.351959 
1369.000000	99.359870 
1368.000000	99.367686 
1367.000000	99.374578 
1366.000000	99.380746 
1365.000000	99.385354 
1364.000000	99.386721 
1363.000000	99.385360 
1362.000000	99.384681 
1361.000000	99.386587 
1360.000000	99.389740 
1359.000000	99.393029 
1358.000000	99.397421 
1357.000000	99.403541 
1356.000000	99.409934 
1355.000000	99.414716 
1354.000000	99.417842 
1353.000000	99.420317 
1352.000000	99.421373 
1351.000000	99.419198 
1350.000000	99.415148 
1349.000000	99.411875 
1348.000000	99.410687 
1347.000000	99.411411 
1346.000000	99.414042 
1345.000000	99.418097 
1344.000000	99.421674 
1343.000000	99.422951 
1342.000000	99.422309 
1341.000000	99.421252 
1340.000000	99.420014 
1339.000000	99.417907 
1338.000000	99.415472 
1337.000000	99.414669 
1336.000000	99.416441 
1335.000000	99.419305 
1334.000000	99.421410 
1333.000000	99.422825 
1332.000000	99.424665 
1331.000000	99.426868 
1330.000000	99.427818 
1329.000000	99.425802 
1328.000000	99.420930 
1327.000000	99.415527 
1326.000000	99.412480 
1325.000000	99.412206 
1324.000000	99.413414 
1323.000000	99.415146 
1322.000000	99.416820 
1321.000000	99.417122 
1320.000000	99.414859 
1319.000000	99.410942 
1318.000000	99.407900 
1317.000000	99.407024 
1316.000000	99.406912 
1315.000000	99.405471 
1314.000000	99.402541 
1313.000000	99.400089 
1312.000000	99.399838 
1311.000000	99.401473 
1310.000000	99.403610 
1309.000000	99.405611 
1308.000000	99.407536 
1307.000000	99.408580 
1306.000000	99.407332 
1305.000000	99.403447 
1304.000000	99.399158 
1303.000000	99.397418 
1302.000000	99.399049 
1301.000000	99.402229 
1300.000000	99.404492 
1299.000000	99.404339 
1298.000000	99.401584 
1297.000000	99.397488 
1296.000000	99.394260 
1295.000000	99.393585 
1294.000000	99.395106 
1293.000000	99.396939 
1292.000000	99.397355 
1291.000000	99.395410 
1290.000000	99.390897 
1289.000000	99.384875 
1288.000000	99.379509 
1287.000000	99.375973 
1286.000000	99.372933 
1285.000000	99.368732 
1284.000000	99.364501 
1283.000000	99.362840 
1282.000000	99.363658 
1281.000000	99.363720 
1280.000000	99.360741 
1279.000000	99.355883 
1278.000000	99.351099 
1277.000000	99.346169 
1276.000000	99.339681 
1275.000000	99.331784 
1274.000000	99.324237 
1273.000000	99.318444 
1272.000000	99.314520 
1271.000000	99.311535 
1270.000000	99.307795 
1269.000000	99.301906 
1268.000000	99.294514 
1267.000000	99.287951 
1266.000000	99.283102 
1265.000000	99.278162 
1264.000000	99.271474 
1263.000000	99.263917 
1262.000000	99.257191 
1261.000000	99.251307 
1260.000000	99.245450 
1259.000000	99.240147 
1258.000000	99.236299 
1257.000000	99.233248 
1256.000000	99.229684 
1255.000000	99.225823 
1254.000000	99.222798 
1253.000000	99.220361 
1252.000000	99.216978 
1251.000000	99.212250 
1250.000000	99.207666 
1249.000000	99.204930 
1248.000000	99.204893 
1247.000000	99.207649 
1246.000000	99.211531 
1245.000000	99.212237 
1244.000000	99.205472 
1243.000000	99.191981 
1242.000000	99.178789 
1241.000000	99.173653 
1240.000000	99.178052 
1239.000000	99.186001 
1238.000000	99.189580 
1237.000000	99.185348 
1236.000000	99.175635 
1235.000000	99.164676 
1234.000000	99.154454 
1233.000000	99.144278 
1232.000000	99.133257 
1231.000000	99.121774 
1230.000000	99.110541 
1229.000000	99.099592 
1228.000000	99.088961 
1227.000000	99.079561 
1226.000000	99.072419 
1225.000000	99.067071 
1224.000000	99.061184 
1223.000000	99.051913 
1222.000000	99.037783 
1221.000000	99.019643 
1220.000000	98.999982 
1219.000000	98.981080 
1218.000000	98.963560 
1217.000000	98.946749 
1216.000000	98.929988 
1215.000000	98.912937 
1214.000000	98.895026 
1213.000000	98.875637 
1212.000000	98.854704 
1211.000000	98.832129 
1210.000000	98.807133 
1209.000000	98.779573 
1208.000000	98.751523 
1207.000000	98.725772 
1206.000000	98.702744 
1205.000000	98.680639 
1204.000000	98.658467 
1203.000000	98.636617 
1202.000000	98.614145 
1201.000000	98.588364 
1200.000000	98.558695 
1199.000000	98.528732 
1198.000000	98.502324 
1197.000000	98.479131 
1196.000000	98.455951 
1195.000000	98.431024 
1194.000000	98.404989 
1193.000000	98.378358 
1192.000000	98.350407 
1191.000000	98.320803 
1190.000000	98.290952 
1189.000000	98.263302 
1188.000000	98.239623 
1187.000000	98.219385 
1186.000000	98.199298 
1185.000000	98.175184 
1184.000000	98.144990 
1183.000000	98.109806 
1182.000000	98.072273 
1181.000000	98.035025 
1180.000000	98.000309 
1179.000000	97.969010 
1178.000000	97.939012 
1177.000000	97.906174 
1176.000000	97.868311 
1175.000000	97.827339 
1174.000000	97.786817 
1173.000000	97.748499 
1172.000000	97.712207 
1171.000000	97.677447 
1170.000000	97.643523 
1169.000000	97.609079 
1168.000000	97.573227 
1167.000000	97.537055 
1166.000000	97.503596 
1165.000000	97.477077 
1164.000000	97.462357 
1163.000000	97.463134 
1162.000000	97.478919 
1161.000000	97.503968 
1160.000000	97.529766 
1159.000000	97.548714 
1158.000000	97.556509 
1157.000000	97.552553 
1156.000000	97.538328 
1155.000000	97.514785 
1154.000000	97.481687 
1153.000000	97.440194 
1152.000000	97.395087 
1151.000000	97.352437 
1150.000000	97.314868 
1149.000000	97.280480 
1148.000000	97.246129 
1147.000000	97.210013 
1146.000000	97.171577 
1145.000000	97.131556 
1144.000000	97.092455 
1143.000000	97.056735 
1142.000000	97.023841 
1141.000000	96.990864 
1140.000000	96.956305 
1139.000000	96.920917 
1138.000000	96.884762 
1137.000000	96.846252 
1136.000000	96.804982 
1135.000000	96.763193 
1134.000000	96.723361 
1133.000000	96.686067 
1132.000000	96.650552 
1131.000000	96.615238 
1130.000000	96.577518 
1129.000000	96.535554 
1128.000000	96.490781 
1127.000000	96.446373 
1126.000000	96.403079 
1125.000000	96.359140 
1124.000000	96.314327 
1123.000000	96.270784 
1122.000000	96.229203 
1121.000000	96.187339 
1120.000000	96.143314 
1119.000000	96.097641 
1118.000000	96.051359 
1117.000000	96.005151 
1116.000000	95.960883 
1115.000000	95.920654 
1114.000000	95.883272 
1113.000000	95.844836 
1112.000000	95.803964 
1111.000000	95.763607 
1110.000000	95.726709 
1109.000000	95.692844 
1108.000000	95.660092 
1107.000000	95.626983 
1106.000000	95.592167 
1105.000000	95.555118 
1104.000000	95.517602 
1103.000000	95.481868 
1102.000000	95.447696 
1101.000000	95.414172 
1100.000000	95.384043 
1099.000000	95.360254 
1098.000000	95.340690 
1097.000000	95.319750 
1096.000000	95.295690 
1095.000000	95.271330 
1094.000000	95.247532 
1093.000000	95.221540 
1092.000000	95.192421 
1091.000000	95.162373 
1090.000000	95.131267 
1089.000000	95.095591 
1088.000000	95.055126 
1087.000000	95.015780 
1086.000000	94.983238 
1085.000000	94.957627 
1084.000000	94.936072 
1083.000000	94.916125 
1082.000000	94.894946 
1081.000000	94.869525 
1080.000000	94.839995 
1079.000000	94.809487 
1078.000000	94.779615 
1077.000000	94.749692 
1076.000000	94.720895 
1075.000000	94.696478 
1074.000000	94.676517 
1073.000000	94.656346 
1072.000000	94.630436 
1071.000000	94.593338 
1070.000000	94.537786 
1069.000000	94.459392 
1068.000000	94.365696 
1067.000000	94.274620 
1066.000000	94.200051 
1065.000000	94.142078 
1064.000000	94.092306 
1063.000000	94.042546 
1062.000000	93.985908 
1061.000000	93.916581 
1060.000000	93.834610 
1059.000000	93.748426 
1058.000000	93.668664 
1057.000000	93.600158 
1056.000000	93.540282 
1055.000000	93.481611 
1054.000000	93.415733 
1053.000000	93.339339 
1052.000000	93.258268 
1051.000000	93.181363 
1050.000000	93.109624 
1049.000000	93.037095 
1048.000000	92.962201 
1047.000000	92.890039 
1046.000000	92.822503 
1045.000000	92.754437 
1044.000000	92.681867 
1043.000000	92.607642 
1042.000000	92.536584 
1041.000000	92.470093 
1040.000000	92.407704 
1039.000000	92.349535 
1038.000000	92.295616 
1037.000000	92.247069 
1036.000000	92.208552 
1035.000000	92.184560 
1034.000000	92.172552 
1033.000000	92.164350 
1032.000000	92.154120 
1031.000000	92.140404 
1030.000000	92.122693 
1029.000000	92.103418 
1028.000000	92.092126 
1027.000000	92.098601 
1026.000000	92.120210 
1025.000000	92.143280 
1024.000000	92.157992 
1023.000000	92.164883 
1022.000000	92.166759 
1021.000000	92.163196 
1020.000000	92.155446 
1019.000000	92.148767 
1018.000000	92.146063 
1017.000000	92.144900 
1016.000000	92.143327 
1015.000000	92.143056 
1014.000000	92.144923 
1013.000000	92.146759 
1012.000000	92.147622 
1011.000000	92.148934 
1010.000000	92.150427 
1009.000000	92.150709 
1008.000000	92.152819 
1007.000000	92.162992 
1006.000000	92.182380 
1005.000000	92.205847 
1004.000000	92.230116 
1003.000000	92.257025 
1002.000000	92.287647 
1001.000000	92.319794 
1000.000000	92.353047 
999.000000	 92.389852 
998.000000	 92.429448 
997.000000	 92.466707 
996.000000	 92.499638 
995.000000	 92.533013 
994.000000	 92.572129 
993.000000	 92.617064 
992.000000	 92.664550 
991.000000	 92.711286 
990.000000	 92.754529 
989.000000	 92.793999 
988.000000	 92.834103 
987.000000	 92.880082 
986.000000	 92.931727 
985.000000	 92.985387 
984.000000	 93.041679 
983.000000	 93.105425 
982.000000	 93.177755 
981.000000	 93.254138 
980.000000	 93.330823 
979.000000	 93.407614 
978.000000	 93.484137 
977.000000	 93.559761 
976.000000	 93.638057 
975.000000	 93.724670 
974.000000	 93.818700 
973.000000	 93.911866 
972.000000	 93.998339 
971.000000	 94.080357 
970.000000	 94.162407 
969.000000	 94.245177 
968.000000	 94.327710 
967.000000	 94.410546 
966.000000	 94.493284 
965.000000	 94.572449 
964.000000	 94.644883 
963.000000	 94.711287 
962.000000	 94.774801 
961.000000	 94.838153 
960.000000	 94.902993 
959.000000	 94.969145 
958.000000	 95.033337 
957.000000	 95.091449 
956.000000	 95.143247 
955.000000	 95.192635 
954.000000	 95.242430 
953.000000	 95.291163 
952.000000	 95.335603 
951.000000	 95.373952 
950.000000	 95.406169 
949.000000	 95.433866 
948.000000	 95.460757 
947.000000	 95.490734 
946.000000	 95.524434 
945.000000	 95.559268 
944.000000	 95.592771 
943.000000	 95.623697 
942.000000	 95.650242 
941.000000	 95.670378 
940.000000	 95.684631 
939.000000	 95.696215 
938.000000	 95.707900 
937.000000	 95.720576 
936.000000	 95.734632 
935.000000	 95.750219 
934.000000	 95.766117 
933.000000	 95.780823 
932.000000	 95.794872 
931.000000	 95.810083 
930.000000	 95.826977 
929.000000	 95.845120 
928.000000	 95.864830 
927.000000	 95.885717 
926.000000	 95.904745 
925.000000	 95.919242 
924.000000	 95.930684 
923.000000	 95.941684 
922.000000	 95.950388 
921.000000	 95.952646 
920.000000	 95.949512 
919.000000	 95.947529 
918.000000	 95.950643 
917.000000	 95.956248 
916.000000	 95.960463 
915.000000	 95.963266 
914.000000	 95.967317 
913.000000	 95.975774 
912.000000	 95.992582 
911.000000	 96.020560 
910.000000	 96.056860 
909.000000	 96.093864 
908.000000	 96.126935 
907.000000	 96.158758 
906.000000	 96.194691 
905.000000	 96.236774 
904.000000	 96.283954 
903.000000	 96.335398 
902.000000	 96.391248 
901.000000	 96.451401 
900.000000	 96.514730 
899.000000	 96.578565 
898.000000	 96.639293 
897.000000	 96.694982 
896.000000	 96.746952 
895.000000	 96.796954 
894.000000	 96.843761 
893.000000	 96.885101 
892.000000	 96.922189 
891.000000	 96.959232 
890.000000	 96.998496 
889.000000	 97.038813 
888.000000	 97.079040 
887.000000	 97.119424 
886.000000	 97.158498 
885.000000	 97.191919 
884.000000	 97.216779 
883.000000	 97.235605 
882.000000	 97.254347 
881.000000	 97.277234 
880.000000	 97.304973 
879.000000	 97.336937 
878.000000	 97.372711 
877.000000	 97.410221 
876.000000	 97.443313 
875.000000	 97.464204 
874.000000	 97.471388 
873.000000	 97.474600 
872.000000	 97.488464 
871.000000	 97.519420 
870.000000	 97.560054 
869.000000	 97.597049 
868.000000	 97.622990 
867.000000	 97.640144 
866.000000	 97.655974 
865.000000	 97.676947 
864.000000	 97.704769 
863.000000	 97.736277 
862.000000	 97.767148 
861.000000	 97.795825 
860.000000	 97.822596 
859.000000	 97.846242 
858.000000	 97.865756 
857.000000	 97.885429 
856.000000	 97.912499 
855.000000	 97.946901 
854.000000	 97.978057 
853.000000	 97.996078 
852.000000	 98.002923 
851.000000	 98.008415 
850.000000	 98.018116 
849.000000	 98.029508 
848.000000	 98.037974 
847.000000	 98.041752 
846.000000	 98.042137 
845.000000	 98.042991 
844.000000	 98.049194 
843.000000	 98.061319 
842.000000	 98.071866 
841.000000	 98.070700 
840.000000	 98.055227 
839.000000	 98.033262 
838.000000	 98.015671 
837.000000	 98.007260 
836.000000	 98.003933 
835.000000	 97.997309 
834.000000	 97.983500 
833.000000	 97.968433 
832.000000	 97.961761 
831.000000	 97.963983 
830.000000	 97.964173 
829.000000	 97.954785 
828.000000	 97.943800 
827.000000	 97.944585 
826.000000	 97.956598 
825.000000	 97.966118 
824.000000	 97.966281 
823.000000	 97.965571 
822.000000	 97.973424 
821.000000	 97.987073 
820.000000	 97.996866 
819.000000	 97.997234 
818.000000	 97.988862 
817.000000	 97.975153 
816.000000	 97.959334 
815.000000	 97.941493 
814.000000	 97.916131 
813.000000	 97.875384 
812.000000	 97.816321 
811.000000	 97.742498 
810.000000	 97.656932 
809.000000	 97.556403 
808.000000	 97.434773 
807.000000	 97.289667 
806.000000	 97.124274 
805.000000	 96.945305 
804.000000	 96.762369 
803.000000	 96.588020 
802.000000	 96.434910 
801.000000	 96.312146 
800.000000	 96.224071 
799.000000	 96.170329 
798.000000	 96.147025 
797.000000	 96.150433 
796.000000	 96.178913 
795.000000	 96.228475 
794.000000	 96.289087 
793.000000	 96.349873 
792.000000	 96.405482 
791.000000	 96.452534 
790.000000	 96.483327 
789.000000	 96.490597 
788.000000	 96.477258 
787.000000	 96.453874 
786.000000	 96.425844 
785.000000	 96.389255 
784.000000	 96.340398 
783.000000	 96.283007 
782.000000	 96.224392 
781.000000	 96.170580 
780.000000	 96.127558 
779.000000	 96.101403 
778.000000	 96.094124 
777.000000	 96.104099 
776.000000	 96.132224 
775.000000	 96.181444 
774.000000	 96.247669 
773.000000	 96.317550 
772.000000	 96.379451 
771.000000	 96.432380 
770.000000	 96.480954 
769.000000	 96.525762 
768.000000	 96.562918 
767.000000	 96.590556 
766.000000	 96.611476 
765.000000	 96.629665 
764.000000	 96.646352 
763.000000	 96.659126 
762.000000	 96.664394 
761.000000	 96.662426 
760.000000	 96.660538 
759.000000	 96.668619 
758.000000	 96.689599 
757.000000	 96.716231 
756.000000	 96.739056 
755.000000	 96.755984 
754.000000	 96.772440 
753.000000	 96.793640 
752.000000	 96.819319 
751.000000	 96.845524 
750.000000	 96.868794 
749.000000	 96.887299 
748.000000	 96.899836 
747.000000	 96.907377 
746.000000	 96.916668 
745.000000	 96.937922 
744.000000	 96.974073 
743.000000	 97.014059 
742.000000	 97.042820 
741.000000	 97.058509 
740.000000	 97.074172 
739.000000	 97.101189 
738.000000	 97.136860 
737.000000	 97.170886 
736.000000	 97.198053 
735.000000	 97.220531 
734.000000	 97.242822 
733.000000	 97.268883 
732.000000	 97.300007 
731.000000	 97.330416 
730.000000	 97.348710 
729.000000	 97.348712 
728.000000	 97.338112 
727.000000	 97.331126 
726.000000	 97.333145 
725.000000	 97.339976 
724.000000	 97.349595 
723.000000	 97.365326 
722.000000	 97.386912 
721.000000	 97.406856 
720.000000	 97.418849 
719.000000	 97.424193 
718.000000	 97.426993 
717.000000	 97.428762 
716.000000	 97.429998 
715.000000	 97.432250 
714.000000	 97.436002 
713.000000	 97.439351 
712.000000	 97.441513 
711.000000	 97.444717 
710.000000	 97.450974 
709.000000	 97.458126 
708.000000	 97.460636 
707.000000	 97.454502 
706.000000	 97.439257 
705.000000	 97.418656 
704.000000	 97.398814 
703.000000	 97.380065 
702.000000	 97.353166 
701.000000	 97.307180 
700.000000	 97.237549 
699.000000	 97.146627 
698.000000	 97.038453 
697.000000	 96.920750 
696.000000	 96.811601 
695.000000	 96.733246 
694.000000	 96.700638 
693.000000	 96.716465 
692.000000	 96.771067 
691.000000	 96.844716 
690.000000	 96.912350 
689.000000	 96.958757 
688.000000	 96.990659 
687.000000	 97.025257 
686.000000	 97.070232 
685.000000	 97.118842 
684.000000	 97.159577 
683.000000	 97.186450 
682.000000	 97.202346 
681.000000	 97.218147 
680.000000	 97.244524 
679.000000	 97.279629 
678.000000	 97.307012 
677.000000	 97.308445 
676.000000	 97.288934 
675.000000	 97.278009 
674.000000	 97.296226 
673.000000	 97.333744 
672.000000	 97.372676 
671.000000	 97.415724 
670.000000	 97.482405 
669.000000	 97.568817 
668.000000	 97.599524 
667.000000	 97.535130 
666.000000	 97.464794 
665.000000	 97.425601 
664.000000	 97.401694 
663.000000	 97.383122 
662.000000	 97.370590 
661.000000	 97.368654 
660.000000	 97.384349 
659.000000	 97.416208 
658.000000	 97.439597 
657.000000	 97.420155 
656.000000	 97.359169 
655.000000	 97.300454 
654.000000	 97.274472 
653.000000	 97.264605 
652.000000	 97.245268 
651.000000	 97.216714 
650.000000	 97.189867 

