4000.000000	99.333272 
3999.000000	99.333826 
3998.000000	99.334428 
3997.000000	99.334454 
3996.000000	99.333258 
3995.000000	99.330826 
3994.000000	99.328301 
3993.000000	99.327435 
3992.000000	99.329031 
3991.000000	99.331909 
3990.000000	99.333871 
3989.000000	99.333871 
3988.000000	99.333016 
3987.000000	99.333397 
3986.000000	99.336108 
3985.000000	99.340298 
3984.000000	99.343734 
3983.000000	99.344241 
3982.000000	99.341129 
3981.000000	99.335518 
3980.000000	99.329173 
3979.000000	99.323237 
3978.000000	99.318373 
3977.000000	99.315578 
3976.000000	99.315998 
3975.000000	99.319669 
3974.000000	99.325033 
3973.000000	99.329964 
3972.000000	99.332999 
3971.000000	99.333728 
3970.000000	99.332502 
3969.000000	99.330114 
3968.000000	99.327554 
3967.000000	99.325531 
3966.000000	99.324324 
3965.000000	99.324045 
3964.000000	99.324553 
3963.000000	99.325010 
3962.000000	99.324095 
3961.000000	99.321182 
3960.000000	99.317173 
3959.000000	99.314052 
3958.000000	99.313369 
3957.000000	99.315065 
3956.000000	99.317736 
3955.000000	99.319732 
3954.000000	99.320332 
3953.000000	99.319816 
3952.000000	99.318735 
3951.000000	99.317627 
3950.000000	99.317128 
3949.000000	99.317960 
3948.000000	99.320026 
3947.000000	99.321930 
3946.000000	99.322236 
3945.000000	99.320980 
3944.000000	99.319541 
3943.000000	99.318841 
3942.000000	99.318613 
3941.000000	99.318196 
3940.000000	99.317023 
3939.000000	99.314375 
3938.000000	99.309562 
3937.000000	99.302959 
3936.000000	99.296739 
3935.000000	99.293775 
3934.000000	99.296072 
3933.000000	99.303497 
3932.000000	99.313300 
3931.000000	99.320818 
3930.000000	99.322166 
3929.000000	99.317505 
3928.000000	99.311022 
3927.000000	99.307398 
3926.000000	99.308288 
3925.000000	99.311460 
3924.000000	99.313548 
3923.000000	99.313397 
3922.000000	99.312075 
3921.000000	99.311101 
3920.000000	99.311156 
3919.000000	99.312239 
3918.000000	99.314331 
3917.000000	99.317508 
3916.000000	99.321683 
3915.000000	99.326230 
3914.000000	99.330193 
3913.000000	99.332738 
3912.000000	99.333525 
3911.000000	99.333132 
3910.000000	99.332653 
3909.000000	99.332932 
3908.000000	99.334121 
3907.000000	99.334702 
3906.000000	99.331774 
3905.000000	99.322536 
3904.000000	99.307120 
3903.000000	99.290590 
3902.000000	99.280101 
3901.000000	99.279677 
3900.000000	99.287814 
3899.000000	99.299224 
3898.000000	99.309210 
3897.000000	99.315750 
3896.000000	99.318317 
3895.000000	99.317164 
3894.000000	99.313520 
3893.000000	99.309361 
3892.000000	99.306018 
3891.000000	99.303178 
3890.000000	99.300582 
3889.000000	99.298731 
3888.000000	99.298289 
3887.000000	99.299217 
3886.000000	99.300518 
3885.000000	99.301111 
3884.000000	99.301075 
3883.000000	99.301285 
3882.000000	99.302605 
3881.000000	99.305107 
3880.000000	99.307536 
3879.000000	99.308145 
3878.000000	99.307293 
3877.000000	99.307711 
3876.000000	99.311930 
3875.000000	99.318345 
3874.000000	99.321053 
3873.000000	99.315677 
3872.000000	99.304543 
3871.000000	99.294468 
3870.000000	99.290446 
3869.000000	99.292915 
3868.000000	99.299135 
3867.000000	99.305698 
3866.000000	99.310674 
3865.000000	99.313903 
3864.000000	99.315684 
3863.000000	99.315741 
3862.000000	99.313760 
3861.000000	99.311528 
3860.000000	99.311776 
3859.000000	99.314411 
3858.000000	99.315907 
3857.000000	99.312683 
3856.000000	99.304933 
3855.000000	99.296772 
3854.000000	99.291249 
3853.000000	99.288983 
3852.000000	99.291849 
3851.000000	99.300745 
3850.000000	99.312297 
3849.000000	99.322541 
3848.000000	99.329087 
3847.000000	99.331039 
3846.000000	99.328241 
3845.000000	99.322084 
3844.000000	99.316278 
3843.000000	99.314349 
3842.000000	99.316311 
3841.000000	99.319422 
3840.000000	99.321076 
3839.000000	99.320798 
3838.000000	99.319916 
3837.000000	99.319162 
3836.000000	99.318331 
3835.000000	99.317595 
3834.000000	99.318268 
3833.000000	99.321838 
3832.000000	99.327800 
3831.000000	99.333308 
3830.000000	99.335543 
3829.000000	99.333734 
3828.000000	99.329453 
3827.000000	99.324941 
3826.000000	99.321072 
3825.000000	99.317680 
3824.000000	99.315115 
3823.000000	99.315094 
3822.000000	99.318752 
3821.000000	99.323754 
3820.000000	99.327060 
3819.000000	99.328306 
3818.000000	99.328408 
3817.000000	99.328092 
3816.000000	99.327130 
3815.000000	99.324758 
3814.000000	99.321145 
3813.000000	99.317492 
3812.000000	99.315434 
3811.000000	99.316508 
3810.000000	99.320708 
3809.000000	99.326256 
3808.000000	99.330931 
3807.000000	99.333333 
3806.000000	99.333488 
3805.000000	99.332210 
3804.000000	99.330237 
3803.000000	99.329078 
3802.000000	99.329550 
3801.000000	99.330108 
3800.000000	99.329510 
3799.000000	99.327796 
3798.000000	99.325397 
3797.000000	99.323331 
3796.000000	99.322396 
3795.000000	99.322256 
3794.000000	99.321803 
3793.000000	99.320307 
3792.000000	99.318097 
3791.000000	99.316359 
3790.000000	99.315959 
3789.000000	99.316954 
3788.000000	99.318907 
3787.000000	99.320863 
3786.000000	99.321474 
3785.000000	99.319881 
3784.000000	99.316740 
3783.000000	99.313974 
3782.000000	99.313303 
3781.000000	99.315305 
3780.000000	99.319220 
3779.000000	99.323264 
3778.000000	99.325525 
3777.000000	99.324917 
3776.000000	99.321505 
3775.000000	99.316525 
3774.000000	99.311945 
3773.000000	99.309458 
3772.000000	99.309678 
3771.000000	99.311499 
3770.000000	99.312585 
3769.000000	99.311656 
3768.000000	99.309705 
3767.000000	99.308334 
3766.000000	99.307982 
3765.000000	99.307749 
3764.000000	99.306755 
3763.000000	99.305159 
3762.000000	99.303937 
3761.000000	99.304095 
3760.000000	99.305659 
3759.000000	99.307894 
3758.000000	99.309991 
3757.000000	99.311796 
3756.000000	99.313905 
3755.000000	99.316515 
3754.000000	99.319106 
3753.000000	99.321214 
3752.000000	99.322955 
3751.000000	99.324086 
3750.000000	99.323832 
3749.000000	99.322503 
3748.000000	99.321047 
3747.000000	99.319611 
3746.000000	99.317759 
3745.000000	99.313733 
3744.000000	99.307415 
3743.000000	99.302477 
3742.000000	99.300582 
3741.000000	99.298856 
3740.000000	99.294613 
3739.000000	99.288719 
3738.000000	99.284598 
3737.000000	99.284260 
3736.000000	99.286234 
3735.000000	99.286760 
3734.000000	99.283654 
3733.000000	99.278804 
3732.000000	99.276551 
3731.000000	99.279633 
3730.000000	99.286498 
3729.000000	99.293082 
3728.000000	99.296656 
3727.000000	99.296992 
3726.000000	99.295322 
3725.000000	99.293225 
3724.000000	99.292276 
3723.000000	99.293741 
3722.000000	99.297756 
3721.000000	99.303020 
3720.000000	99.306745 
3719.000000	99.306685 
3718.000000	99.302908 
3717.000000	99.297082 
3716.000000	99.290953 
3715.000000	99.285196 
3714.000000	99.280269 
3713.000000	99.277440 
3712.000000	99.277209 
3711.000000	99.278144 
3710.000000	99.278108 
3709.000000	99.275684 
3708.000000	99.270635 
3707.000000	99.263607 
3706.000000	99.256134 
3705.000000	99.250142 
3704.000000	99.246672 
3703.000000	99.244720 
3702.000000	99.241251 
3701.000000	99.233836 
3700.000000	99.222986 
3699.000000	99.211157 
3698.000000	99.200470 
3697.000000	99.191626 
3696.000000	99.184633 
3695.000000	99.179870 
3694.000000	99.177628 
3693.000000	99.177045 
3692.000000	99.175603 
3691.000000	99.170125 
3690.000000	99.158973 
3689.000000	99.144420 
3688.000000	99.131832 
3687.000000	99.124593 
3686.000000	99.122195 
3685.000000	99.123208 
3684.000000	99.127160 
3683.000000	99.133696 
3682.000000	99.140637 
3681.000000	99.143496 
3680.000000	99.137962 
3679.000000	99.123155 
3678.000000	99.103862 
3677.000000	99.089554 
3676.000000	99.086983 
3675.000000	99.092848 
3674.000000	99.098011 
3673.000000	99.097412 
3672.000000	99.093142 
3671.000000	99.092406 
3670.000000	99.099371 
3669.000000	99.110262 
3668.000000	99.119384 
3667.000000	99.125054 
3666.000000	99.128839 
3665.000000	99.131933 
3664.000000	99.133387 
3663.000000	99.131987 
3662.000000	99.128187 
3661.000000	99.123712 
3660.000000	99.120640 
3659.000000	99.120958 
3658.000000	99.126361 
3657.000000	99.136060 
3656.000000	99.145698 
3655.000000	99.151364 
3654.000000	99.152817 
3653.000000	99.152314 
3652.000000	99.151758 
3651.000000	99.151318 
3650.000000	99.150141 
3649.000000	99.149415 
3648.000000	99.152502 
3647.000000	99.160013 
3646.000000	99.168999 
3645.000000	99.177173 
3644.000000	99.185047 
3643.000000	99.194559 
3642.000000	99.206816 
3641.000000	99.220852 
3640.000000	99.234456 
3639.000000	99.245277 
3638.000000	99.252017 
3637.000000	99.255211 
3636.000000	99.256513 
3635.000000	99.256708 
3634.000000	99.254683 
3633.000000	99.249544 
3632.000000	99.243254 
3631.000000	99.240457 
3630.000000	99.244386 
3629.000000	99.251242 
3628.000000	99.253889 
3627.000000	99.251981 
3626.000000	99.250275 
3625.000000	99.251873 
3624.000000	99.256538 
3623.000000	99.262081 
3622.000000	99.266685 
3621.000000	99.270313 
3620.000000	99.273252 
3619.000000	99.274225 
3618.000000	99.272072 
3617.000000	99.268567 
3616.000000	99.267670 
3615.000000	99.271880 
3614.000000	99.278956 
3613.000000	99.283363 
3612.000000	99.282074 
3611.000000	99.277698 
3610.000000	99.275114 
3609.000000	99.275846 
3608.000000	99.276849 
3607.000000	99.275579 
3606.000000	99.273832 
3605.000000	99.275151 
3604.000000	99.280616 
3603.000000	99.288154 
3602.000000	99.295116 
3601.000000	99.300497 
3600.000000	99.304047 
3599.000000	99.304694 
3598.000000	99.301459 
3597.000000	99.295308 
3596.000000	99.289643 
3595.000000	99.287956 
3594.000000	99.290537 
3593.000000	99.294608 
3592.000000	99.296781 
3591.000000	99.295078 
3590.000000	99.290223 
3589.000000	99.285290 
3588.000000	99.283154 
3587.000000	99.283298 
3586.000000	99.283253 
3585.000000	99.282781 
3584.000000	99.284592 
3583.000000	99.290543 
3582.000000	99.298833 
3581.000000	99.304942 
3580.000000	99.305634 
3579.000000	99.301658 
3578.000000	99.296321 
3577.000000	99.292614 
3576.000000	99.291767 
3575.000000	99.293730 
3574.000000	99.297380 
3573.000000	99.300658 
3572.000000	99.301702 
3571.000000	99.300045 
3570.000000	99.296455 
3569.000000	99.292210 
3568.000000	99.288773 
3567.000000	99.287421 
3566.000000	99.288654 
3565.000000	99.292137 
3564.000000	99.297432 
3563.000000	99.304581 
3562.000000	99.313300 
3561.000000	99.321803 
3560.000000	99.327236 
3559.000000	99.327821 
3558.000000	99.324523 
3557.000000	99.320301 
3556.000000	99.317746 
3555.000000	99.317349 
3554.000000	99.317655 
3553.000000	99.316534 
3552.000000	99.313026 
3551.000000	99.308267 
3550.000000	99.304238 
3549.000000	99.301948 
3548.000000	99.301258 
3547.000000	99.301705 
3546.000000	99.302856 
3545.000000	99.303656 
3544.000000	99.302974 
3543.000000	99.301402 
3542.000000	99.301503 
3541.000000	99.305156 
3540.000000	99.311151 
3539.000000	99.315964 
3538.000000	99.317411 
3537.000000	99.316901 
3536.000000	99.317832 
3535.000000	99.321825 
3534.000000	99.327253 
3533.000000	99.331551 
3532.000000	99.333876 
3531.000000	99.335124 
3530.000000	99.335576 
3529.000000	99.333782 
3528.000000	99.328502 
3527.000000	99.321216 
3526.000000	99.315365 
3525.000000	99.313193 
3524.000000	99.314072 
3523.000000	99.315957 
3522.000000	99.317657 
3521.000000	99.319129 
3520.000000	99.320624 
3519.000000	99.322317 
3518.000000	99.324641 
3517.000000	99.327862 
3516.000000	99.331131 
3515.000000	99.332636 
3514.000000	99.331032 
3513.000000	99.326695 
3512.000000	99.321371 
3511.000000	99.316779 
3510.000000	99.313534 
3509.000000	99.311363 
3508.000000	99.310151 
3507.000000	99.310499 
3506.000000	99.312909 
3505.000000	99.316237 
3504.000000	99.317692 
3503.000000	99.315392 
3502.000000	99.311026 
3501.000000	99.308827 
3500.000000	99.311508 
3499.000000	99.317806 
3498.000000	99.323924 
3497.000000	99.326839 
3496.000000	99.326012 
3495.000000	99.322747 
3494.000000	99.318902 
3493.000000	99.316124 
3492.000000	99.315404 
3491.000000	99.316818 
3490.000000	99.319946 
3489.000000	99.324550 
3488.000000	99.330342 
3487.000000	99.336077 
3486.000000	99.339718 
3485.000000	99.340051 
3484.000000	99.337800 
3483.000000	99.334885 
3482.000000	99.332794 
3481.000000	99.331966 
3480.000000	99.332285 
3479.000000	99.333254 
3478.000000	99.333663 
3477.000000	99.332178 
3476.000000	99.329095 
3475.000000	99.327153 
3474.000000	99.329382 
3473.000000	99.335688 
3472.000000	99.342352 
3471.000000	99.345646 
3470.000000	99.345576 
3469.000000	99.345285 
3468.000000	99.346933 
3467.000000	99.349261 
3466.000000	99.349769 
3465.000000	99.348210 
3464.000000	99.346788 
3463.000000	99.347274 
3462.000000	99.349144 
3461.000000	99.350921 
3460.000000	99.352369 
3459.000000	99.354553 
3458.000000	99.357989 
3457.000000	99.361330 
3456.000000	99.362273 
3455.000000	99.359631 
3454.000000	99.354513 
3453.000000	99.349464 
3452.000000	99.346434 
3451.000000	99.345733 
3450.000000	99.346620 
3449.000000	99.348420 
3448.000000	99.350659 
3447.000000	99.352601 
3446.000000	99.353518 
3445.000000	99.353642 
3444.000000	99.354115 
3443.000000	99.355414 
3442.000000	99.356231 
3441.000000	99.354628 
3440.000000	99.350417 
3439.000000	99.345681 
3438.000000	99.342600 
3437.000000	99.341217 
3436.000000	99.339951 
3435.000000	99.338021 
3434.000000	99.336626 
3433.000000	99.337590 
3432.000000	99.341208 
3431.000000	99.345910 
3430.000000	99.349819 
3429.000000	99.352449 
3428.000000	99.354695 
3427.000000	99.357092 
3426.000000	99.358375 
3425.000000	99.356386 
3424.000000	99.350701 
3423.000000	99.343831 
3422.000000	99.339175 
3421.000000	99.337964 
3420.000000	99.338914 
3419.000000	99.340608 
3418.000000	99.343134 
3417.000000	99.347030 
3416.000000	99.351519 
3415.000000	99.354583 
3414.000000	99.354699 
3413.000000	99.352196 
3412.000000	99.349032 
3411.000000	99.347336 
3410.000000	99.347830 
3409.000000	99.349273 
3408.000000	99.349444 
3407.000000	99.346961 
3406.000000	99.342390 
3405.000000	99.337692 
3404.000000	99.334751 
3403.000000	99.334245 
3402.000000	99.335593 
3401.000000	99.337795 
3400.000000	99.340280 
3399.000000	99.343012 
3398.000000	99.345863 
3397.000000	99.348132 
3396.000000	99.348871 
3395.000000	99.347616 
3394.000000	99.344618 
3393.000000	99.340503 
3392.000000	99.336073 
3391.000000	99.332525 
3390.000000	99.331551 
3389.000000	99.334628 
3388.000000	99.341836 
3387.000000	99.351339 
3386.000000	99.360278 
3385.000000	99.366429 
3384.000000	99.369068 
3383.000000	99.368308 
3382.000000	99.364163 
3381.000000	99.356978 
3380.000000	99.348690 
3379.000000	99.342728 
3378.000000	99.341612 
3377.000000	99.344601 
3376.000000	99.348225 
3375.000000	99.349433 
3374.000000	99.348028 
3373.000000	99.346123 
3372.000000	99.345689 
3371.000000	99.346912 
3370.000000	99.348515 
3369.000000	99.349128 
3368.000000	99.348483 
3367.000000	99.347650 
3366.000000	99.348072 
3365.000000	99.349864 
3364.000000	99.351176 
3363.000000	99.349850 
3362.000000	99.345899 
3361.000000	99.341650 
3360.000000	99.339029 
3359.000000	99.337407 
3358.000000	99.335005 
3357.000000	99.332037 
3356.000000	99.331084 
3355.000000	99.333782 
3354.000000	99.338102 
3353.000000	99.340008 
3352.000000	99.337624 
3351.000000	99.333144 
3350.000000	99.330683 
3349.000000	99.332734 
3348.000000	99.338516 
3347.000000	99.344780 
3346.000000	99.347908 
3345.000000	99.346099 
3344.000000	99.340616 
3343.000000	99.334935 
3342.000000	99.331895 
3341.000000	99.331342 
3340.000000	99.330796 
3339.000000	99.328560 
3338.000000	99.325781 
3337.000000	99.325133 
3336.000000	99.327790 
3335.000000	99.332260 
3334.000000	99.336243 
3333.000000	99.338956 
3332.000000	99.341259 
3331.000000	99.343895 
3330.000000	99.346236 
3329.000000	99.346941 
3328.000000	99.345504 
3327.000000	99.342808 
3326.000000	99.340154 
3325.000000	99.337841 
3324.000000	99.334865 
3323.000000	99.330366 
3322.000000	99.325393 
3321.000000	99.322736 
3320.000000	99.324374 
3319.000000	99.329209 
3318.000000	99.333914 
3317.000000	99.335993 
3316.000000	99.335378 
3315.000000	99.333253 
3314.000000	99.330571 
3313.000000	99.328322 
3312.000000	99.328011 
3311.000000	99.330442 
3310.000000	99.334197 
3309.000000	99.336432 
3308.000000	99.335385 
3307.000000	99.331626 
3306.000000	99.327139 
3305.000000	99.324097 
3304.000000	99.324325 
3303.000000	99.328452 
3302.000000	99.334741 
3301.000000	99.339377 
3300.000000	99.338994 
3299.000000	99.333315 
3298.000000	99.325451 
3297.000000	99.319643 
3296.000000	99.318191 
3295.000000	99.319853 
3294.000000	99.321209 
3293.000000	99.320172 
3292.000000	99.318206 
3291.000000	99.318341 
3290.000000	99.321000 
3289.000000	99.322938 
3288.000000	99.320896 
3287.000000	99.315444 
3286.000000	99.310341 
3285.000000	99.308496 
3284.000000	99.309462 
3283.000000	99.310765 
3282.000000	99.310917 
3281.000000	99.310808 
3280.000000	99.312427 
3279.000000	99.316483 
3278.000000	99.321363 
3277.000000	99.324360 
3276.000000	99.323710 
3275.000000	99.319345 
3274.000000	99.312309 
3273.000000	99.304388 
3272.000000	99.298140 
3271.000000	99.295879 
3270.000000	99.297792 
3269.000000	99.301552 
3268.000000	99.304353 
3267.000000	99.304936 
3266.000000	99.303473 
3265.000000	99.300541 
3264.000000	99.297160 
3263.000000	99.295196 
3262.000000	99.296384 
3261.000000	99.300608 
3260.000000	99.305622 
3259.000000	99.308588 
3258.000000	99.307890 
3257.000000	99.303945 
3256.000000	99.298766 
3255.000000	99.294554 
3254.000000	99.292311 
3253.000000	99.291815 
3252.000000	99.292775 
3251.000000	99.295145 
3250.000000	99.298054 
3249.000000	99.299608 
3248.000000	99.298803 
3247.000000	99.297011 
3246.000000	99.296466 
3245.000000	99.297530 
3244.000000	99.298443 
3243.000000	99.297601 
3242.000000	99.295063 
3241.000000	99.292000 
3240.000000	99.289839 
3239.000000	99.290089 
3238.000000	99.293829 
3237.000000	99.300620 
3236.000000	99.308248 
3235.000000	99.313916 
3234.000000	99.315716 
3233.000000	99.313411 
3232.000000	99.308548 
3231.000000	99.303754 
3230.000000	99.301053 
3229.000000	99.300474 
3228.000000	99.300495 
3227.000000	99.299712 
3226.000000	99.297671 
3225.000000	99.294490 
3224.000000	99.290705 
3223.000000	99.287541 
3222.000000	99.286288 
3221.000000	99.286916 
3220.000000	99.287839 
3219.000000	99.287507 
3218.000000	99.285995 
3217.000000	99.284945 
3216.000000	99.286283 
3215.000000	99.290818 
3214.000000	99.297296 
3213.000000	99.302673 
3212.000000	99.304102 
3211.000000	99.301162 
3210.000000	99.295943 
3209.000000	99.290992 
3208.000000	99.287614 
3207.000000	99.285964 
3206.000000	99.285667 
3205.000000	99.285887 
3204.000000	99.285529 
3203.000000	99.284082 
3202.000000	99.281999 
3201.000000	99.280013 
3200.000000	99.278530 
3199.000000	99.277841 
3198.000000	99.278269 
3197.000000	99.279714 
3196.000000	99.281636 
3195.000000	99.283876 
3194.000000	99.286866 
3193.000000	99.290476 
3192.000000	99.293243 
3191.000000	99.293472 
3190.000000	99.290912 
3189.000000	99.286884 
3188.000000	99.283050 
3187.000000	99.280515 
3186.000000	99.279672 
3185.000000	99.280132 
3184.000000	99.280829 
3183.000000	99.280808 
3182.000000	99.280112 
3181.000000	99.279690 
3180.000000	99.280505 
3179.000000	99.282824 
3178.000000	99.285933 
3177.000000	99.288231 
3176.000000	99.288129 
3175.000000	99.285555 
3174.000000	99.282318 
3173.000000	99.280206 
3172.000000	99.278796 
3171.000000	99.276016 
3170.000000	99.271191 
3169.000000	99.266728 
3168.000000	99.265982 
3167.000000	99.269674 
3166.000000	99.275074 
3165.000000	99.278756 
3164.000000	99.279680 
3163.000000	99.279364 
3162.000000	99.279566 
3161.000000	99.280457 
3160.000000	99.281015 
3159.000000	99.280426 
3158.000000	99.278549 
3157.000000	99.275448 
3156.000000	99.271327 
3155.000000	99.266952 
3154.000000	99.263389 
3153.000000	99.260971 
3152.000000	99.259039 
3151.000000	99.257089 
3150.000000	99.255733 
3149.000000	99.255993 
3148.000000	99.257920 
3147.000000	99.260460 
3146.000000	99.262572 
3145.000000	99.263976 
3144.000000	99.264854 
3143.000000	99.265404 
3142.000000	99.265954 
3141.000000	99.267026 
3140.000000	99.268754 
3139.000000	99.270259 
3138.000000	99.270024 
3137.000000	99.267283 
3136.000000	99.263126 
3135.000000	99.260159 
3134.000000	99.260716 
3133.000000	99.264872 
3132.000000	99.269938 
3131.000000	99.272244 
3130.000000	99.270024 
3129.000000	99.264961 
3128.000000	99.260884 
3127.000000	99.260727 
3126.000000	99.264388 
3125.000000	99.269175 
3124.000000	99.271917 
3123.000000	99.270758 
3122.000000	99.265801 
3121.000000	99.258987 
3120.000000	99.253358 
3119.000000	99.251420 
3118.000000	99.253397 
3117.000000	99.257205 
3116.000000	99.260485 
3115.000000	99.262488 
3114.000000	99.263742 
3113.000000	99.264449 
3112.000000	99.264054 
3111.000000	99.262369 
3110.000000	99.260313 
3109.000000	99.259125 
3108.000000	99.259111 
3107.000000	99.259383 
3106.000000	99.258649 
3105.000000	99.256316 
3104.000000	99.253160 
3103.000000	99.250976 
3102.000000	99.251176 
3101.000000	99.253561 
3100.000000	99.256716 
3099.000000	99.259522 
3098.000000	99.261830 
3097.000000	99.263698 
3096.000000	99.264678 
3095.000000	99.264181 
3094.000000	99.262214 
3093.000000	99.259403 
3092.000000	99.256599 
3091.000000	99.254737 
3090.000000	99.254652 
3089.000000	99.256407 
3088.000000	99.258792 
3087.000000	99.260036 
3086.000000	99.259333 
3085.000000	99.257458 
3084.000000	99.255620 
3083.000000	99.253916 
3082.000000	99.251432 
3081.000000	99.247982 
3080.000000	99.245230 
3079.000000	99.245485 
3078.000000	99.249469 
3077.000000	99.255664 
3076.000000	99.261766 
3075.000000	99.266205 
3074.000000	99.268214 
3073.000000	99.267347 
3072.000000	99.263644 
3071.000000	99.257963 
3070.000000	99.251515 
3069.000000	99.245113 
3068.000000	99.239353 
3067.000000	99.235430 
3066.000000	99.235144 
3065.000000	99.239621 
3064.000000	99.247819 
3063.000000	99.256297 
3062.000000	99.260817 
3061.000000	99.258973 
3060.000000	99.251931 
3059.000000	99.243557 
3058.000000	99.237655 
3057.000000	99.235956 
3056.000000	99.238155 
3055.000000	99.242774 
3054.000000	99.247584 
3053.000000	99.250187 
3052.000000	99.249327 
3051.000000	99.245767 
3050.000000	99.241580 
3049.000000	99.238709 
3048.000000	99.237994 
3047.000000	99.238598 
3046.000000	99.237921 
3045.000000	99.233193 
3044.000000	99.224408 
3043.000000	99.215176 
3042.000000	99.209484 
3041.000000	99.207802 
3040.000000	99.207295 
3039.000000	99.205444 
3038.000000	99.202063 
3037.000000	99.197725 
3036.000000	99.191857 
3035.000000	99.183327 
3034.000000	99.172164 
3033.000000	99.159846 
3032.000000	99.148116 
3031.000000	99.137921 
3030.000000	99.129225 
3029.000000	99.121471 
3028.000000	99.114264 
3027.000000	99.107607 
3026.000000	99.101122 
3025.000000	99.093159 
3024.000000	99.081511 
3023.000000	99.065602 
3022.000000	99.047469 
3021.000000	99.029832 
3020.000000	99.013267 
3019.000000	98.995934 
3018.000000	98.976371 
3017.000000	98.955996 
3016.000000	98.938005 
3015.000000	98.923716 
3014.000000	98.910920 
3013.000000	98.896487 
3012.000000	98.879877 
3011.000000	98.862906 
3010.000000	98.846510 
3009.000000	98.829526 
3008.000000	98.810999 
3007.000000	98.791837 
3006.000000	98.773059 
3005.000000	98.753836 
3004.000000	98.732966 
3003.000000	98.711466 
3002.000000	98.691780 
3001.000000	98.674670 
3000.000000	98.658594 
2999.000000	98.642435 
2998.000000	98.627444 
2997.000000	98.615929 
2996.000000	98.608629 
2995.000000	98.603023 
2994.000000	98.593224 
2993.000000	98.572288 
2992.000000	98.537271 
2991.000000	98.493476 
2990.000000	98.452710 
2989.000000	98.425948 
2988.000000	98.417218 
2987.000000	98.423747 
2986.000000	98.439830 
2985.000000	98.459420 
2984.000000	98.476628 
2983.000000	98.486760 
2982.000000	98.488342 
2981.000000	98.483927 
2980.000000	98.478337 
2979.000000	98.475435 
2978.000000	98.475681 
2977.000000	98.476218 
2976.000000	98.473649 
2975.000000	98.467284 
2974.000000	98.459856 
2973.000000	98.455248 
2972.000000	98.455850 
2971.000000	98.461861 
2970.000000	98.472102 
2969.000000	98.484868 
2968.000000	98.498612 
2967.000000	98.512637 
2966.000000	98.527114 
2965.000000	98.542007 
2964.000000	98.556220 
2963.000000	98.568273 
2962.000000	98.577838 
2961.000000	98.586193 
2960.000000	98.595005 
2959.000000	98.604826 
2958.000000	98.614844 
2957.000000	98.624001 
2956.000000	98.632205 
2955.000000	98.640402 
2954.000000	98.649619 
2953.000000	98.660169 
2952.000000	98.671701 
2951.000000	98.683521 
2950.000000	98.694608 
2949.000000	98.703718 
2948.000000	98.709956 
2947.000000	98.713255 
2946.000000	98.714369 
2945.000000	98.714828 
2944.000000	98.716843 
2943.000000	98.722071 
2942.000000	98.729520 
2941.000000	98.735374 
2940.000000	98.736255 
2939.000000	98.732885 
2938.000000	98.729772 
2937.000000	98.731142 
2936.000000	98.737607 
2935.000000	98.746371 
2934.000000	98.753678 
2933.000000	98.756933 
2932.000000	98.755508 
2931.000000	98.750344 
2930.000000	98.743025 
2929.000000	98.735410 
2928.000000	98.729702 
2927.000000	98.727418 
2926.000000	98.727403 
2925.000000	98.726037 
2924.000000	98.720963 
2923.000000	98.713988 
2922.000000	98.708707 
2921.000000	98.705771 
2920.000000	98.702453 
2919.000000	98.696744 
2918.000000	98.689782 
2917.000000	98.683577 
2916.000000	98.678107 
2915.000000	98.671716 
2914.000000	98.663374 
2913.000000	98.653707 
2912.000000	98.644610 
2911.000000	98.638327 
2910.000000	98.635926 
2909.000000	98.635939 
2908.000000	98.635123 
2907.000000	98.631055 
2906.000000	98.623268 
2905.000000	98.611740 
2904.000000	98.596121 
2903.000000	98.577819 
2902.000000	98.562802 
2901.000000	98.559135 
2900.000000	98.571156 
2899.000000	98.595408 
2898.000000	98.622083 
2897.000000	98.641440 
2896.000000	98.649916 
2895.000000	98.651359 
2894.000000	98.652534 
2893.000000	98.657347 
2892.000000	98.665189 
2891.000000	98.673567 
2890.000000	98.680661 
2889.000000	98.685347 
2888.000000	98.686806 
2887.000000	98.685679 
2886.000000	98.684841 
2885.000000	98.687630 
2884.000000	98.695278 
2883.000000	98.706631 
2882.000000	98.719941 
2881.000000	98.734112 
2880.000000	98.748426 
2879.000000	98.762097 
2878.000000	98.774501 
2877.000000	98.785533 
2876.000000	98.795571 
2875.000000	98.805137 
2874.000000	98.814442 
2873.000000	98.823142 
2872.000000	98.830690 
2871.000000	98.837008 
2870.000000	98.842706 
2869.000000	98.848767 
2868.000000	98.856323 
2867.000000	98.866382 
2866.000000	98.878941 
2865.000000	98.892383 
2864.000000	98.904661 
2863.000000	98.915330 
2862.000000	98.925574 
2861.000000	98.936099 
2860.000000	98.946156 
2859.000000	98.955261 
2858.000000	98.964605 
2857.000000	98.975627 
2856.000000	98.987883 
2855.000000	98.999516 
2854.000000	99.009466 
2853.000000	99.018161 
2852.000000	99.026210 
2851.000000	99.033539 
2850.000000	99.040140 
2849.000000	99.046888 
2848.000000	99.055011 
2847.000000	99.064842 
2846.000000	99.075211 
2845.000000	99.084013 
2844.000000	99.089509 
2843.000000	99.091543 
2842.000000	99.091891 
2841.000000	99.093404 
2840.000000	99.098369 
2839.000000	99.106922 
2838.000000	99.116608 
2837.000000	99.123887 
2836.000000	99.126910 
2835.000000	99.127103 
2834.000000	99.127686 
2833.000000	99.130538 
2832.000000	99.134755 
2831.000000	99.138044 
2830.000000	99.138888 
2829.000000	99.137404 
2828.000000	99.135062 
2827.000000	99.133979 
2826.000000	99.135766 
2825.000000	99.140307 
2824.000000	99.145823 
2823.000000	99.150456 
2822.000000	99.153596 
2821.000000	99.155640 
2820.000000	99.157027 
2819.000000	99.157915 
2818.000000	99.158323 
2817.000000	99.158163 
2816.000000	99.157429 
2815.000000	99.156595 
2814.000000	99.156360 
2813.000000	99.156684 
2812.000000	99.156648 
2811.000000	99.155853 
2810.000000	99.155530 
2809.000000	99.157537 
2808.000000	99.162335 
2807.000000	99.168390 
2806.000000	99.173432 
2805.000000	99.175913 
2804.000000	99.175589 
2803.000000	99.173437 
2802.000000	99.171168 
2801.000000	99.170272 
2800.000000	99.171094 
2799.000000	99.172777 
2798.000000	99.174009 
2797.000000	99.173788 
2796.000000	99.171893 
2795.000000	99.169174 
2794.000000	99.167380 
2793.000000	99.168073 
2792.000000	99.171214 
2791.000000	99.174944 
2790.000000	99.177161 
2789.000000	99.177497 
2788.000000	99.177626 
2787.000000	99.179442 
2786.000000	99.182989 
2785.000000	99.186264 
2784.000000	99.187030 
2783.000000	99.184686 
2782.000000	99.180609 
2781.000000	99.177083 
2780.000000	99.175900 
2779.000000	99.177377 
2778.000000	99.180275 
2777.000000	99.182944 
2776.000000	99.184818 
2775.000000	99.186542 
2774.000000	99.188512 
2773.000000	99.190038 
2772.000000	99.190551 
2771.000000	99.190965 
2770.000000	99.192778 
2769.000000	99.195989 
2768.000000	99.198938 
2767.000000	99.200281 
2766.000000	99.200186 
2765.000000	99.199327 
2764.000000	99.197658 
2763.000000	99.194732 
2762.000000	99.190637 
2761.000000	99.186124 
2760.000000	99.182206 
2759.000000	99.179993 
2758.000000	99.180404 
2757.000000	99.183429 
2756.000000	99.187705 
2755.000000	99.191128 
2754.000000	99.191989 
2753.000000	99.189893 
2752.000000	99.186208 
2751.000000	99.183617 
2750.000000	99.184363 
2749.000000	99.188285 
2748.000000	99.192908 
2747.000000	99.195864 
2746.000000	99.196930 
2745.000000	99.197393 
2744.000000	99.197924 
2743.000000	99.197872 
2742.000000	99.196651 
2741.000000	99.195127 
2740.000000	99.195119 
2739.000000	99.197593 
2738.000000	99.201645 
2737.000000	99.205402 
2736.000000	99.207736 
2735.000000	99.208762 
2734.000000	99.208776 
2733.000000	99.207418 
2732.000000	99.204356 
2731.000000	99.200338 
2730.000000	99.196859 
2729.000000	99.194816 
2728.000000	99.193996 
2727.000000	99.193781 
2726.000000	99.193739 
2725.000000	99.193635 
2724.000000	99.193654 
2723.000000	99.194866 
2722.000000	99.198721 
2721.000000	99.205413 
2720.000000	99.212861 
2719.000000	99.217765 
2718.000000	99.217939 
2717.000000	99.213905 
2716.000000	99.208533 
2715.000000	99.204975 
2714.000000	99.204438 
2713.000000	99.205678 
2712.000000	99.206700 
2711.000000	99.206870 
2710.000000	99.207202 
2709.000000	99.208796 
2708.000000	99.211404 
2707.000000	99.213492 
2706.000000	99.213495 
2705.000000	99.211264 
2704.000000	99.208571 
2703.000000	99.207865 
2702.000000	99.209955 
2701.000000	99.213081 
2700.000000	99.214840 
2699.000000	99.214858 
2698.000000	99.214925 
2697.000000	99.216571 
2696.000000	99.219271 
2695.000000	99.221243 
2694.000000	99.221419 
2693.000000	99.220321 
2692.000000	99.219283 
2691.000000	99.219029 
2690.000000	99.218916 
2689.000000	99.217714 
2688.000000	99.215334 
2687.000000	99.213478 
2686.000000	99.214110 
2685.000000	99.217413 
2684.000000	99.221572 
2683.000000	99.224278 
2682.000000	99.224091 
2681.000000	99.220868 
2680.000000	99.215803 
2679.000000	99.210960 
2678.000000	99.208015 
2677.000000	99.207337 
2676.000000	99.208599 
2675.000000	99.211793 
2674.000000	99.216779 
2673.000000	99.222135 
2672.000000	99.225619 
2671.000000	99.225997 
2670.000000	99.223782 
2669.000000	99.220252 
2668.000000	99.216558 
2667.000000	99.213762 
2666.000000	99.212691 
2665.000000	99.213307 
2664.000000	99.214785 
2663.000000	99.216394 
2662.000000	99.217896 
2661.000000	99.219205 
2660.000000	99.220327 
2659.000000	99.221567 
2658.000000	99.223146 
2657.000000	99.224755 
2656.000000	99.226130 
2655.000000	99.227617 
2654.000000	99.229242 
2653.000000	99.229943 
2652.000000	99.229324 
2651.000000	99.229630 
2650.000000	99.233584 
2649.000000	99.239804 
2648.000000	99.242891 
2647.000000	99.239584 
2646.000000	99.233184 
2645.000000	99.230078 
2644.000000	99.232823 
2643.000000	99.238211 
2642.000000	99.241370 
2641.000000	99.240197 
2640.000000	99.236213 
2639.000000	99.232692 
2638.000000	99.232091 
2637.000000	99.234152 
2636.000000	99.236135 
2635.000000	99.235334 
2634.000000	99.231438 
2633.000000	99.226481 
2632.000000	99.223211 
2631.000000	99.223724 
2630.000000	99.228311 
2629.000000	99.234405 
2628.000000	99.237563 
2627.000000	99.235219 
2626.000000	99.229556 
2625.000000	99.225566 
2624.000000	99.226162 
2623.000000	99.229926 
2622.000000	99.233425 
2621.000000	99.234579 
2620.000000	99.233590 
2619.000000	99.231797 
2618.000000	99.230585 
2617.000000	99.231065 
2616.000000	99.233864 
2615.000000	99.238624 
2614.000000	99.243669 
2613.000000	99.246659 
2612.000000	99.246244 
2611.000000	99.243257 
2610.000000	99.239996 
2609.000000	99.238235 
2608.000000	99.238151 
2607.000000	99.239050 
2606.000000	99.240617 
2605.000000	99.243247 
2604.000000	99.247379 
2603.000000	99.252493 
2602.000000	99.256690 
2601.000000	99.257889 
2600.000000	99.256065 
2599.000000	99.253616 
2598.000000	99.252504 
2597.000000	99.251611 
2596.000000	99.248370 
2595.000000	99.242678 
2594.000000	99.237339 
2593.000000	99.234446 
2592.000000	99.233261 
2591.000000	99.232424 
2590.000000	99.232412 
2589.000000	99.234272 
2588.000000	99.237034 
2587.000000	99.238099 
2586.000000	99.236112 
2585.000000	99.232530 
2584.000000	99.230280 
2583.000000	99.231089 
2582.000000	99.233767 
2581.000000	99.234976 
2580.000000	99.232308 
2579.000000	99.226794 
2578.000000	99.221788 
2577.000000	99.219449 
2576.000000	99.219269 
2575.000000	99.220028 
2574.000000	99.221749 
2573.000000	99.225003 
2572.000000	99.229363 
2571.000000	99.233398 
2570.000000	99.235683 
2569.000000	99.235484 
2568.000000	99.233139 
2567.000000	99.230085 
2566.000000	99.227790 
2565.000000	99.226422 
2564.000000	99.225233 
2563.000000	99.224197 
2562.000000	99.224262 
2561.000000	99.225867 
2560.000000	99.228188 
2559.000000	99.229902 
2558.000000	99.229885 
2557.000000	99.227700 
2556.000000	99.224896 
2555.000000	99.225314 
2554.000000	99.231761 
2553.000000	99.241859 
2552.000000	99.249166 
2551.000000	99.249222 
2550.000000	99.243046 
2549.000000	99.234492 
2548.000000	99.226334 
2547.000000	99.219785 
2546.000000	99.215734 
2545.000000	99.214803 
2544.000000	99.216976 
2543.000000	99.221615 
2542.000000	99.226613 
2541.000000	99.227922 
2540.000000	99.222615 
2539.000000	99.213026 
2538.000000	99.205083 
2537.000000	99.201564 
2536.000000	99.199983 
2535.000000	99.198389 
2534.000000	99.199108 
2533.000000	99.203617 
2532.000000	99.207367 
2531.000000	99.204774 
2530.000000	99.197894 
2529.000000	99.194937 
2528.000000	99.199756 
2527.000000	99.207167 
2526.000000	99.210108 
2525.000000	99.208003 
2524.000000	99.205913 
2523.000000	99.207853 
2522.000000	99.213417 
2521.000000	99.219704 
2520.000000	99.223858 
2519.000000	99.223578 
2518.000000	99.217257 
2517.000000	99.205359 
2516.000000	99.191602 
2515.000000	99.181595 
2514.000000	99.179221 
2513.000000	99.184057 
2512.000000	99.192469 
2511.000000	99.200796 
2510.000000	99.206940 
2509.000000	99.209916 
2508.000000	99.209998 
2507.000000	99.209568 
2506.000000	99.211566 
2505.000000	99.215752 
2504.000000	99.217958 
2503.000000	99.214602 
2502.000000	99.207070 
2501.000000	99.200435 
2500.000000	99.198734 
2499.000000	99.202577 
2498.000000	99.209965 
2497.000000	99.217469 
2496.000000	99.221270 
2495.000000	99.219342 
2494.000000	99.213176 
2493.000000	99.206285 
2492.000000	99.200927 
2491.000000	99.197217 
2490.000000	99.195298 
2489.000000	99.197083 
2488.000000	99.205069 
2487.000000	99.219325 
2486.000000	99.235397 
2485.000000	99.245446 
2484.000000	99.243206 
2483.000000	99.229373 
2482.000000	99.211843 
2481.000000	99.199604 
2480.000000	99.196224 
2479.000000	99.199111 
2478.000000	99.203488 
2477.000000	99.205859 
2476.000000	99.205084 
2475.000000	99.202579 
2474.000000	99.201630 
2473.000000	99.204637 
2472.000000	99.210307 
2471.000000	99.214516 
2470.000000	99.214356 
2469.000000	99.210632 
2468.000000	99.206304 
2467.000000	99.203497 
2466.000000	99.202439 
2465.000000	99.202434 
2464.000000	99.202975 
2463.000000	99.203973 
2462.000000	99.205314 
2461.000000	99.206394 
2460.000000	99.206274 
2459.000000	99.204510 
2458.000000	99.201855 
2457.000000	99.199998 
2456.000000	99.200480 
2455.000000	99.203496 
2454.000000	99.207373 
2453.000000	99.209390 
2452.000000	99.207742 
2451.000000	99.202903 
2450.000000	99.196815 
2449.000000	99.191121 
2448.000000	99.186875 
2447.000000	99.185449 
2446.000000	99.188085 
2445.000000	99.193846 
2444.000000	99.199073 
2443.000000	99.199849 
2442.000000	99.194858 
2441.000000	99.186003 
2440.000000	99.177246 
2439.000000	99.172971 
2438.000000	99.175775 
2437.000000	99.184338 
2436.000000	99.193759 
2435.000000	99.198990 
2434.000000	99.198296 
2433.000000	99.193893 
2432.000000	99.190178 
2431.000000	99.191038 
2430.000000	99.196966 
2429.000000	99.203787 
2428.000000	99.205609 
2427.000000	99.200412 
2426.000000	99.192107 
2425.000000	99.186307 
2424.000000	99.185154 
2423.000000	99.187373 
2422.000000	99.191779 
2421.000000	99.198038 
2420.000000	99.203965 
2419.000000	99.204943 
2418.000000	99.198082 
2417.000000	99.186336 
2416.000000	99.176811 
2415.000000	99.174428 
2414.000000	99.177813 
2413.000000	99.181603 
2412.000000	99.182042 
2411.000000	99.179569 
2410.000000	99.176567 
2409.000000	99.174272 
2408.000000	99.172577 
2407.000000	99.171614 
2406.000000	99.172109 
2405.000000	99.174451 
2404.000000	99.178285 
2403.000000	99.182673 
2402.000000	99.185900 
2401.000000	99.185884 
2400.000000	99.181980 
2399.000000	99.176075 
2398.000000	99.170927 
2397.000000	99.167867 
2396.000000	99.166823 
2395.000000	99.167391 
2394.000000	99.168416 
2393.000000	99.167774 
2392.000000	99.164770 
2391.000000	99.161977 
2390.000000	99.162341 
2389.000000	99.165094 
2388.000000	99.167275 
2387.000000	99.168812 
2386.000000	99.172551 
2385.000000	99.178813 
2384.000000	99.183682 
2383.000000	99.184341 
2382.000000	99.182855 
2381.000000	99.182297 
2380.000000	99.181880 
2379.000000	99.179100 
2378.000000	99.174983 
2377.000000	99.173632 
2376.000000	99.177078 
2375.000000	99.183310 
2374.000000	99.189019 
2373.000000	99.191816 
2372.000000	99.190256 
2371.000000	99.184661 
2370.000000	99.178104 
2369.000000	99.174314 
2368.000000	99.174397 
2367.000000	99.176981 
2366.000000	99.181053 
2365.000000	99.186911 
2364.000000	99.194299 
2363.000000	99.201437 
2362.000000	99.205989 
2361.000000	99.205957 
2360.000000	99.201540 
2359.000000	99.194817 
2358.000000	99.188603 
2357.000000	99.185660 
2356.000000	99.188588 
2355.000000	99.197733 
2354.000000	99.206868 
2353.000000	99.209245 
2352.000000	99.205205 
2351.000000	99.200728 
2350.000000	99.200453 
2349.000000	99.203261 
2348.000000	99.206397 
2347.000000	99.207440 
2346.000000	99.206588 
2345.000000	99.206166 
2344.000000	99.207200 
2343.000000	99.209557 
2342.000000	99.211618 
2341.000000	99.212948 
2340.000000	99.214128 
2339.000000	99.217103 
2338.000000	99.222425 
2337.000000	99.226861 
2336.000000	99.225176 
2335.000000	99.215412 
2334.000000	99.201643 
2333.000000	99.192499 
2332.000000	99.193771 
2331.000000	99.201922 
2330.000000	99.208497 
2329.000000	99.209534 
2328.000000	99.211307 
2327.000000	99.220401 
2326.000000	99.235177 
2325.000000	99.246807 
2324.000000	99.248258 
2323.000000	99.242364 
2322.000000	99.237282 
2321.000000	99.238009 
2320.000000	99.240313 
2319.000000	99.237552 
2318.000000	99.229414 
2317.000000	99.222135 
2316.000000	99.220553 
2315.000000	99.222784 
2314.000000	99.224376 
2313.000000	99.223882 
2312.000000	99.223546 
2311.000000	99.224681 
2310.000000	99.225969 
2309.000000	99.225212 
2308.000000	99.221502 
2307.000000	99.215573 
2306.000000	99.209788 
2305.000000	99.207760 
2304.000000	99.211531 
2303.000000	99.218730 
2302.000000	99.223639 
2301.000000	99.222767 
2300.000000	99.218785 
2299.000000	99.217601 
2298.000000	99.221769 
2297.000000	99.227417 
2296.000000	99.228754 
2295.000000	99.224259 
2294.000000	99.218150 
2293.000000	99.215962 
2292.000000	99.219887 
2291.000000	99.227706 
2290.000000	99.234883 
2289.000000	99.237671 
2288.000000	99.235490 
2287.000000	99.231124 
2286.000000	99.227634 
2285.000000	99.224969 
2284.000000	99.220498 
2283.000000	99.213458 
2282.000000	99.207064 
2281.000000	99.205046 
2280.000000	99.207261 
2279.000000	99.210544 
2278.000000	99.212813 
2277.000000	99.214376 
2276.000000	99.215761 
2275.000000	99.216407 
2274.000000	99.215849 
2273.000000	99.214324 
2272.000000	99.211749 
2271.000000	99.207531 
2270.000000	99.202338 
2269.000000	99.198897 
2268.000000	99.199649 
2267.000000	99.203778 
2266.000000	99.207387 
2265.000000	99.206680 
2264.000000	99.200804 
2263.000000	99.191838 
2262.000000	99.182915 
2261.000000	99.176652 
2260.000000	99.174529 
2259.000000	99.176656 
2258.000000	99.181667 
2257.000000	99.187582 
2256.000000	99.193011 
2255.000000	99.197161 
2254.000000	99.198825 
2253.000000	99.197071 
2252.000000	99.193765 
2251.000000	99.193149 
2250.000000	99.197047 
2249.000000	99.201387 
2248.000000	99.200668 
2247.000000	99.195004 
2246.000000	99.189600 
2245.000000	99.187708 
2244.000000	99.187313 
2243.000000	99.185937 
2242.000000	99.185279 
2241.000000	99.189190 
2240.000000	99.199300 
2239.000000	99.214154 
2238.000000	99.230010 
2237.000000	99.240546 
2236.000000	99.238993 
2235.000000	99.224370 
2234.000000	99.204822 
2233.000000	99.191777 
2232.000000	99.190200 
2231.000000	99.195483 
2230.000000	99.198807 
2229.000000	99.194268 
2228.000000	99.182452 
2227.000000	99.169398 
2226.000000	99.161932 
2225.000000	99.162880 
2224.000000	99.171061 
2223.000000	99.184974 
2222.000000	99.202506 
2221.000000	99.215816 
2220.000000	99.212661 
2219.000000	99.189146 
2218.000000	99.159076 
2217.000000	99.143844 
2216.000000	99.151491 
2215.000000	99.170316 
2214.000000	99.184026 
2213.000000	99.187917 
2212.000000	99.187908 
2211.000000	99.189204 
2210.000000	99.191862 
2209.000000	99.195453 
2208.000000	99.201068 
2207.000000	99.206433 
2206.000000	99.203757 
2205.000000	99.187684 
2204.000000	99.165021 
2203.000000	99.151972 
2202.000000	99.158897 
2201.000000	99.178887 
2200.000000	99.193895 
2199.000000	99.192246 
2198.000000	99.178082 
2197.000000	99.163953 
2196.000000	99.157730 
2195.000000	99.159029 
2194.000000	99.165538 
2193.000000	99.177245 
2192.000000	99.193019 
2191.000000	99.207247 
2190.000000	99.214174 
2189.000000	99.215094 
2188.000000	99.217113 
2187.000000	99.223033 
2186.000000	99.225850 
2185.000000	99.217044 
2184.000000	99.198510 
2183.000000	99.181310 
2182.000000	99.172512 
2181.000000	99.168517 
2180.000000	99.163248 
2179.000000	99.157730 
2178.000000	99.157357 
2177.000000	99.163246 
2176.000000	99.170881 
2175.000000	99.175700 
2174.000000	99.176673 
2173.000000	99.176615 
2172.000000	99.182484 
2171.000000	99.201884 
2170.000000	99.233482 
2169.000000	99.262514 
2168.000000	99.272487 
2167.000000	99.261653 
2166.000000	99.243046 
2165.000000	99.229611 
2164.000000	99.225630 
2163.000000	99.231381 
2162.000000	99.245508 
2161.000000	99.258347 
2160.000000	99.252588 
2159.000000	99.219829 
2158.000000	99.172105 
2157.000000	99.129247 
2156.000000	99.100032 
2155.000000	99.083109 
2154.000000	99.078922 
2153.000000	99.090664 
2152.000000	99.115537 
2151.000000	99.142089 
2150.000000	99.158135 
2149.000000	99.160392 
2148.000000	99.156804 
2147.000000	99.158902 
2146.000000	99.169757 
2145.000000	99.179701 
2144.000000	99.177159 
2143.000000	99.163370 
2142.000000	99.151434 
2141.000000	99.149757 
2140.000000	99.152081 
2139.000000	99.147675 
2138.000000	99.136604 
2137.000000	99.128798 
2136.000000	99.129997 
2135.000000	99.135140 
2134.000000	99.136902 
2133.000000	99.135534 
2132.000000	99.136862 
2131.000000	99.143021 
2130.000000	99.148963 
2129.000000	99.148503 
2128.000000	99.141754 
2127.000000	99.134876 
2126.000000	99.133021 
2125.000000	99.135757 
2124.000000	99.140209 
2123.000000	99.146176 
2122.000000	99.155240 
2121.000000	99.165991 
2120.000000	99.173934 
2119.000000	99.176780 
2118.000000	99.176979 
2117.000000	99.178107 
2116.000000	99.181178 
2115.000000	99.185439 
2114.000000	99.190177 
2113.000000	99.193955 
2112.000000	99.194256 
2111.000000	99.190269 
2110.000000	99.184982 
2109.000000	99.182400 
2108.000000	99.182822 
2107.000000	99.182080 
2106.000000	99.175634 
2105.000000	99.163514 
2104.000000	99.151881 
2103.000000	99.148998 
2102.000000	99.157546 
2101.000000	99.170554 
2100.000000	99.177193 
2099.000000	99.173360 
2098.000000	99.164696 
2097.000000	99.158971 
2096.000000	99.158398 
2095.000000	99.160740 
2094.000000	99.164459 
2093.000000	99.169316 
2092.000000	99.173801 
2091.000000	99.175666 
2090.000000	99.175004 
2089.000000	99.174419 
2088.000000	99.175389 
2087.000000	99.175709 
2086.000000	99.171414 
2085.000000	99.161448 
2084.000000	99.150536 
2083.000000	99.146550 
2082.000000	99.153537 
2081.000000	99.167247 
2080.000000	99.179230 
2079.000000	99.185821 
2078.000000	99.191334 
2077.000000	99.201708 
2076.000000	99.216482 
2075.000000	99.227820 
2074.000000	99.226559 
2073.000000	99.209805 
2072.000000	99.184745 
2071.000000	99.164638 
2070.000000	99.158686 
2069.000000	99.164693 
2068.000000	99.172392 
2067.000000	99.173546 
2066.000000	99.167325 
2065.000000	99.158062 
2064.000000	99.151852 
2063.000000	99.154284 
2062.000000	99.165818 
2061.000000	99.178056 
2060.000000	99.180250 
2059.000000	99.172227 
2058.000000	99.166032 
2057.000000	99.171792 
2056.000000	99.186644 
2055.000000	99.201252 
2054.000000	99.212172 
2053.000000	99.221780 
2052.000000	99.229135 
2051.000000	99.228149 
2050.000000	99.215710 
2049.000000	99.197369 
2048.000000	99.182683 
2047.000000	99.176944 
2046.000000	99.179187 
2045.000000	99.185339 
2044.000000	99.190891 
2043.000000	99.192885 
2042.000000	99.191982 
2041.000000	99.192064 
2040.000000	99.195929 
2039.000000	99.201323 
2038.000000	99.202418 
2037.000000	99.195595 
2036.000000	99.182852 
2035.000000	99.168088 
2034.000000	99.151277 
2033.000000	99.130461 
2032.000000	99.110609 
2031.000000	99.104843 
2030.000000	99.121332 
2029.000000	99.150743 
2028.000000	99.172533 
2027.000000	99.174068 
2026.000000	99.159098 
2025.000000	99.139419 
2024.000000	99.124622 
2023.000000	99.119479 
2022.000000	99.123716 
2021.000000	99.130869 
2020.000000	99.132565 
2019.000000	99.127412 
2018.000000	99.122276 
2017.000000	99.122964 
2016.000000	99.127783 
2015.000000	99.132445 
2014.000000	99.135600 
2013.000000	99.136272 
2012.000000	99.132021 
2011.000000	99.124007 
2010.000000	99.119411 
2009.000000	99.123865 
2008.000000	99.133942 
2007.000000	99.141688 
2006.000000	99.144473 
2005.000000	99.146389 
2004.000000	99.151655 
2003.000000	99.159772 
2002.000000	99.165617 
2001.000000	99.162322 
2000.000000	99.146667 
1999.000000	99.123234 
1998.000000	99.100998 
1997.000000	99.085451 
1996.000000	99.076896 
1995.000000	99.075932 
1994.000000	99.085282 
1993.000000	99.103983 
1992.000000	99.124110 
1991.000000	99.137247 
1990.000000	99.141212 
1989.000000	99.137838 
1988.000000	99.129719 
1987.000000	99.122719 
1986.000000	99.126079 
1985.000000	99.144302 
1984.000000	99.170850 
1983.000000	99.193475 
1982.000000	99.203635 
1981.000000	99.199002 
1980.000000	99.181778 
1979.000000	99.159062 
1978.000000	99.141128 
1977.000000	99.132916 
1976.000000	99.128677 
1975.000000	99.120318 
1974.000000	99.108846 
1973.000000	99.102401 
1972.000000	99.105005 
1971.000000	99.112717 
1970.000000	99.120625 
1969.000000	99.128800 
1968.000000	99.139488 
1967.000000	99.151041 
1966.000000	99.157768 
1965.000000	99.156033 
1964.000000	99.148531 
1963.000000	99.141666 
1962.000000	99.139593 
1961.000000	99.141323 
1960.000000	99.142913 
1959.000000	99.140973 
1958.000000	99.133988 
1957.000000	99.122940 
1956.000000	99.111987 
1955.000000	99.105891 
1954.000000	99.104557 
1953.000000	99.102312 
1952.000000	99.095284 
1951.000000	99.087493 
1950.000000	99.086255 
1949.000000	99.092821 
1948.000000	99.101428 
1947.000000	99.106784 
1946.000000	99.107625 
1945.000000	99.103394 
1944.000000	99.093299 
1943.000000	99.080585 
1942.000000	99.072363 
1941.000000	99.071357 
1940.000000	99.072847 
1939.000000	99.072294 
1938.000000	99.071189 
1937.000000	99.073841 
1936.000000	99.081197 
1935.000000	99.089609 
1934.000000	99.094474 
1933.000000	99.094013 
1932.000000	99.090733 
1931.000000	99.090297 
1930.000000	99.097382 
1929.000000	99.110672 
1928.000000	99.122977 
1927.000000	99.127434 
1926.000000	99.122040 
1925.000000	99.108553 
1924.000000	99.091135 
1923.000000	99.077329 
1922.000000	99.075115 
1921.000000	99.085236 
1920.000000	99.099817 
1919.000000	99.110097 
1918.000000	99.113615 
1917.000000	99.113337 
1916.000000	99.112293 
1915.000000	99.112290 
1914.000000	99.114905 
1913.000000	99.119796 
1912.000000	99.123565 
1911.000000	99.123150 
1910.000000	99.119702 
1909.000000	99.116877 
1908.000000	99.116701 
1907.000000	99.119551 
1906.000000	99.125841 
1905.000000	99.133881 
1904.000000	99.137868 
1903.000000	99.132118 
1902.000000	99.117129 
1901.000000	99.099717 
1900.000000	99.087949 
1899.000000	99.086202 
1898.000000	99.092942 
1897.000000	99.101555 
1896.000000	99.105151 
1895.000000	99.103063 
1894.000000	99.101179 
1893.000000	99.104115 
1892.000000	99.109896 
1891.000000	99.113684 
1890.000000	99.113862 
1889.000000	99.112654 
1888.000000	99.112500 
1887.000000	99.114641 
1886.000000	99.119272 
1885.000000	99.124475 
1884.000000	99.126892 
1883.000000	99.125175 
1882.000000	99.121129 
1881.000000	99.116731 
1880.000000	99.112579 
1879.000000	99.109382 
1878.000000	99.107837 
1877.000000	99.106333 
1876.000000	99.102174 
1875.000000	99.096842 
1874.000000	99.096687 
1873.000000	99.105430 
1872.000000	99.118448 
1871.000000	99.126765 
1870.000000	99.125016 
1869.000000	99.114780 
1868.000000	99.101021 
1867.000000	99.087658 
1866.000000	99.076425 
1865.000000	99.067231 
1864.000000	99.061002 
1863.000000	99.062490 
1862.000000	99.076229 
1861.000000	99.098137 
1860.000000	99.115890 
1859.000000	99.121709 
1858.000000	99.120513 
1857.000000	99.121458 
1856.000000	99.126316 
1855.000000	99.130989 
1854.000000	99.133312 
1853.000000	99.133919 
1852.000000	99.132501 
1851.000000	99.127691 
1850.000000	99.120185 
1849.000000	99.112918 
1848.000000	99.108005 
1847.000000	99.105878 
1846.000000	99.106617 
1845.000000	99.108731 
1844.000000	99.107341 
1843.000000	99.099846 
1842.000000	99.091430 
1841.000000	99.089108 
1840.000000	99.094523 
1839.000000	99.104019 
1838.000000	99.112906 
1837.000000	99.118943 
1836.000000	99.122459 
1835.000000	99.125000 
1834.000000	99.127495 
1833.000000	99.129459 
1832.000000	99.129764 
1831.000000	99.127441 
1830.000000	99.123058 
1829.000000	99.119231 
1828.000000	99.118481 
1827.000000	99.120642 
1826.000000	99.123219 
1825.000000	99.124296 
1824.000000	99.124046 
1823.000000	99.123815 
1822.000000	99.124187 
1821.000000	99.123433 
1820.000000	99.118944 
1819.000000	99.110852 
1818.000000	99.103326 
1817.000000	99.100238 
1816.000000	99.100276 
1815.000000	99.099789 
1814.000000	99.098716 
1813.000000	99.100902 
1812.000000	99.109158 
1811.000000	99.121525 
1810.000000	99.134024 
1809.000000	99.144172 
1808.000000	99.149678 
1807.000000	99.148351 
1806.000000	99.141556 
1805.000000	99.134324 
1804.000000	99.130422 
1803.000000	99.128881 
1802.000000	99.126721 
1801.000000	99.123721 
1800.000000	99.121069 
1799.000000	99.118788 
1798.000000	99.117430 
1797.000000	99.118071 
1796.000000	99.120522 
1795.000000	99.123855 
1794.000000	99.127079 
1793.000000	99.128858 
1792.000000	99.128217 
1791.000000	99.125820 
1790.000000	99.123812 
1789.000000	99.123977 
1788.000000	99.126774 
1787.000000	99.131795 
1786.000000	99.138109 
1785.000000	99.142967 
1784.000000	99.142554 
1783.000000	99.136933 
1782.000000	99.130939 
1781.000000	99.128649 
1780.000000	99.128141 
1779.000000	99.124819 
1778.000000	99.119312 
1777.000000	99.116444 
1776.000000	99.118626 
1775.000000	99.124521 
1774.000000	99.131716 
1773.000000	99.138377 
1772.000000	99.142001 
1771.000000	99.140805 
1770.000000	99.136656 
1769.000000	99.132492 
1768.000000	99.130018 
1767.000000	99.129192 
1766.000000	99.129200 
1765.000000	99.130144 
1764.000000	99.132111 
1763.000000	99.134664 
1762.000000	99.137712 
1761.000000	99.141263 
1760.000000	99.144260 
1759.000000	99.145242 
1758.000000	99.143796 
1757.000000	99.140874 
1756.000000	99.138008 
1755.000000	99.135867 
1754.000000	99.134190 
1753.000000	99.132684 
1752.000000	99.132669 
1751.000000	99.137451 
1750.000000	99.147281 
1749.000000	99.156818 
1748.000000	99.160781 
1747.000000	99.158320 
1746.000000	99.152519 
1745.000000	99.147989 
1744.000000	99.147970 
1743.000000	99.151935 
1742.000000	99.156237 
1741.000000	99.157984 
1740.000000	99.156803 
1739.000000	99.154410 
1738.000000	99.152884 
1737.000000	99.152424 
1736.000000	99.150042 
1735.000000	99.142362 
1734.000000	99.131691 
1733.000000	99.124762 
1732.000000	99.124616 
1731.000000	99.129114 
1730.000000	99.135020 
1729.000000	99.139855 
1728.000000	99.143174 
1727.000000	99.145606 
1726.000000	99.147072 
1725.000000	99.146440 
1724.000000	99.143528 
1723.000000	99.141391 
1722.000000	99.144798 
1721.000000	99.155459 
1720.000000	99.169654 
1719.000000	99.179787 
1718.000000	99.179461 
1717.000000	99.170284 
1716.000000	99.159181 
1715.000000	99.150965 
1714.000000	99.147966 
1713.000000	99.149305 
1712.000000	99.150759 
1711.000000	99.149868 
1710.000000	99.148423 
1709.000000	99.149346 
1708.000000	99.152779 
1707.000000	99.156941 
1706.000000	99.162279 
1705.000000	99.169754 
1704.000000	99.174633 
1703.000000	99.170323 
1702.000000	99.155145 
1701.000000	99.139998 
1700.000000	99.138965 
1699.000000	99.147144 
1698.000000	99.154801 
1697.000000	99.161627 
1696.000000	99.168271 
1695.000000	99.172051 
1694.000000	99.172391 
1693.000000	99.171655 
1692.000000	99.169344 
1691.000000	99.164563 
1690.000000	99.159204 
1689.000000	99.156340 
1688.000000	99.156021 
1687.000000	99.155520 
1686.000000	99.153803 
1685.000000	99.154634 
1684.000000	99.158974 
1683.000000	99.161071 
1682.000000	99.159685 
1681.000000	99.157426 
1680.000000	99.157073 
1679.000000	99.159573 
1678.000000	99.163343 
1677.000000	99.166361 
1676.000000	99.168431 
1675.000000	99.170470 
1674.000000	99.171933 
1673.000000	99.172673 
1672.000000	99.173259 
1671.000000	99.173967 
1670.000000	99.174327 
1669.000000	99.173346 
1668.000000	99.172759 
1667.000000	99.174624 
1666.000000	99.176722 
1665.000000	99.175756 
1664.000000	99.172431 
1663.000000	99.171605 
1662.000000	99.175686 
1661.000000	99.181398 
1660.000000	99.185789 
1659.000000	99.189864 
1658.000000	99.196356 
1657.000000	99.203844 
1656.000000	99.207462 
1655.000000	99.202277 
1654.000000	99.194116 
1653.000000	99.189756 
1652.000000	99.184995 
1651.000000	99.182195 
1650.000000	99.180836 
1649.000000	99.176419 
1648.000000	99.169152 
1647.000000	99.161902 
1646.000000	99.157818 
1645.000000	99.158938 
1644.000000	99.165168 
1643.000000	99.173372 
1642.000000	99.179819 
1641.000000	99.183156 
1640.000000	99.184093 
1639.000000	99.183768 
1638.000000	99.182584 
1637.000000	99.181108 
1636.000000	99.179527 
1635.000000	99.177434 
1634.000000	99.177486 
1633.000000	99.181201 
1632.000000	99.185639 
1631.000000	99.188089 
1630.000000	99.188071 
1629.000000	99.186408 
1628.000000	99.184513 
1627.000000	99.183668 
1626.000000	99.184220 
1625.000000	99.185750 
1624.000000	99.188163 
1623.000000	99.191458 
1622.000000	99.194715 
1621.000000	99.196632 
1620.000000	99.196244 
1619.000000	99.193412 
1618.000000	99.190197 
1617.000000	99.189418 
1616.000000	99.190988 
1615.000000	99.192772 
1614.000000	99.192342 
1613.000000	99.188053 
1612.000000	99.181305 
1611.000000	99.175128 
1610.000000	99.170703 
1609.000000	99.167316 
1608.000000	99.165275 
1607.000000	99.165741 
1606.000000	99.167511 
1605.000000	99.168178 
1604.000000	99.167726 
1603.000000	99.168187 
1602.000000	99.170132 
1601.000000	99.171471 
1600.000000	99.170717 
1599.000000	99.169269 
1598.000000	99.169412 
1597.000000	99.171859 
1596.000000	99.175792 
1595.000000	99.180121 
1594.000000	99.183753 
1593.000000	99.185488 
1592.000000	99.185123 
1591.000000	99.184114 
1590.000000	99.184019 
1589.000000	99.184815 
1588.000000	99.185879 
1587.000000	99.187482 
1586.000000	99.189121 
1585.000000	99.188335 
1584.000000	99.183586 
1583.000000	99.176621 
1582.000000	99.171185 
1581.000000	99.169708 
1580.000000	99.171684 
1579.000000	99.174873 
1578.000000	99.177429 
1577.000000	99.178724 
1576.000000	99.178436 
1575.000000	99.178054 
1574.000000	99.179443 
1573.000000	99.180380 
1572.000000	99.177863 
1571.000000	99.173395 
1570.000000	99.171708 
1569.000000	99.173990 
1568.000000	99.177203 
1567.000000	99.178624 
1566.000000	99.177439 
1565.000000	99.174671 
1564.000000	99.173610 
1563.000000	99.175094 
1562.000000	99.177511 
1561.000000	99.176181 
1560.000000	99.171853 
1559.000000	99.170346 
1558.000000	99.168197 
1557.000000	99.166839 
1556.000000	99.169818 
1555.000000	99.174049 
1554.000000	99.175226 
1553.000000	99.173115 
1552.000000	99.170601 
1551.000000	99.170804 
1550.000000	99.174572 
1549.000000	99.179466 
1548.000000	99.181377 
1547.000000	99.178360 
1546.000000	99.170671 
1545.000000	99.161259 
1544.000000	99.154111 
1543.000000	99.150481 
1542.000000	99.150565 
1541.000000	99.155970 
1540.000000	99.161328 
1539.000000	99.159703 
1538.000000	99.156476 
1537.000000	99.156270 
1536.000000	99.155968 
1535.000000	99.153660 
1534.000000	99.152827 
1533.000000	99.156410 
1532.000000	99.160130 
1531.000000	99.159307 
1530.000000	99.156000 
1529.000000	99.154289 
1528.000000	99.154527 
1527.000000	99.154368 
1526.000000	99.152986 
1525.000000	99.151722 
1524.000000	99.151292 
1523.000000	99.151644 
1522.000000	99.155137 
1521.000000	99.161895 
1520.000000	99.164932 
1519.000000	99.159690 
1518.000000	99.149447 
1517.000000	99.140697 
1516.000000	99.136421 
1515.000000	99.134636 
1514.000000	99.133774 
1513.000000	99.133771 
1512.000000	99.133941 
1511.000000	99.132420 
1510.000000	99.128470 
1509.000000	99.123422 
1508.000000	99.123731 
1507.000000	99.135544 
1506.000000	99.146174 
1505.000000	99.143987 
1504.000000	99.136719 
1503.000000	99.131252 
1502.000000	99.129374 
1501.000000	99.132544 
1500.000000	99.139689 
1499.000000	99.147650 
1498.000000	99.153108 
1497.000000	99.156769 
1496.000000	99.159323 
1495.000000	99.158189 
1494.000000	99.152216 
1493.000000	99.143349 
1492.000000	99.133495 
1491.000000	99.124268 
1490.000000	99.117786 
1489.000000	99.114725 
1488.000000	99.111842 
1487.000000	99.107234 
1486.000000	99.103998 
1485.000000	99.103644 
1484.000000	99.104267 
1483.000000	99.103866 
1482.000000	99.101618 
1481.000000	99.097711 
1480.000000	99.092490 
1479.000000	99.086760 
1478.000000	99.081998 
1477.000000	99.079353 
1476.000000	99.077978 
1475.000000	99.075336 
1474.000000	99.071890 
1473.000000	99.073032 
1472.000000	99.079758 
1471.000000	99.084803 
1470.000000	99.084967 
1469.000000	99.084270 
1468.000000	99.086292 
1467.000000	99.090951 
1466.000000	99.096334 
1465.000000	99.100665 
1464.000000	99.102202 
1463.000000	99.100251 
1462.000000	99.096777 
1461.000000	99.094405 
1460.000000	99.093548 
1459.000000	99.091812 
1458.000000	99.086015 
1457.000000	99.076849 
1456.000000	99.067689 
1455.000000	99.059913 
1454.000000	99.053879 
1453.000000	99.050076 
1452.000000	99.047415 
1451.000000	99.044765 
1450.000000	99.043810 
1449.000000	99.048708 
1448.000000	99.059605 
1447.000000	99.070133 
1446.000000	99.074952 
1445.000000	99.075659 
1444.000000	99.075678 
1443.000000	99.074866 
1442.000000	99.072269 
1441.000000	99.069833 
1440.000000	99.071024 
1439.000000	99.076770 
1438.000000	99.083812 
1437.000000	99.087534 
1436.000000	99.085188 
1435.000000	99.076944 
1434.000000	99.066788 
1433.000000	99.059796 
1432.000000	99.057752 
1431.000000	99.059289 
1430.000000	99.061761 
1429.000000	99.063614 
1428.000000	99.064182 
1427.000000	99.062248 
1426.000000	99.056453 
1425.000000	99.047173 
1424.000000	99.038500 
1423.000000	99.033632 
1422.000000	99.030194 
1421.000000	99.023698 
1420.000000	99.012450 
1419.000000	98.998364 
1418.000000	98.982454 
1417.000000	98.964775 
1416.000000	98.947383 
1415.000000	98.931191 
1414.000000	98.913858 
1413.000000	98.893339 
1412.000000	98.871776 
1411.000000	98.853463 
1410.000000	98.839367 
1409.000000	98.828329 
1408.000000	98.820843 
1407.000000	98.817795 
1406.000000	98.818100 
1405.000000	98.821484 
1404.000000	98.830776 
1403.000000	98.845693 
1402.000000	98.860294 
1401.000000	98.870106 
1400.000000	98.876750 
1399.000000	98.883085 
1398.000000	98.883285 
1397.000000	98.865571 
1396.000000	98.827286 
1395.000000	98.785344 
1394.000000	98.765928 
1393.000000	98.779881 
1392.000000	98.817377 
1391.000000	98.860813 
1390.000000	98.895197 
1389.000000	98.912530 
1388.000000	98.912966 
1387.000000	98.903188 
1386.000000	98.890723 
1385.000000	98.879899 
1384.000000	98.872367 
1383.000000	98.868109 
1382.000000	98.866638 
1381.000000	98.868705 
1380.000000	98.875235 
1379.000000	98.885143 
1378.000000	98.895236 
1377.000000	98.902901 
1376.000000	98.908838 
1375.000000	98.916732 
1374.000000	98.929184 
1373.000000	98.944082 
1372.000000	98.957409 
1371.000000	98.969048 
1370.000000	98.982286 
1369.000000	98.998236 
1368.000000	99.014710 
1367.000000	99.028647 
1366.000000	99.038543 
1365.000000	99.044717 
1364.000000	99.047784 
1363.000000	99.049109 
1362.000000	99.051356 
1361.000000	99.056010 
1360.000000	99.062134 
1359.000000	99.068668 
1358.000000	99.075907 
1357.000000	99.084213 
1356.000000	99.092482 
1355.000000	99.098823 
1354.000000	99.102619 
1353.000000	99.104863 
1352.000000	99.105442 
1351.000000	99.103429 
1350.000000	99.100368 
1349.000000	99.099027 
1348.000000	99.100793 
1347.000000	99.105008 
1346.000000	99.110493 
1345.000000	99.116026 
1344.000000	99.119991 
1343.000000	99.121428 
1342.000000	99.121271 
1341.000000	99.121053 
1340.000000	99.120791 
1339.000000	99.119561 
1338.000000	99.117645 
1337.000000	99.116829 
1336.000000	99.118159 
1335.000000	99.120625 
1334.000000	99.122981 
1333.000000	99.125388 
1332.000000	99.128091 
1331.000000	99.130193 
1330.000000	99.130647 
1329.000000	99.129392 
1328.000000	99.126940 
1327.000000	99.123933 
1326.000000	99.121323 
1325.000000	99.119753 
1324.000000	99.119690 
1323.000000	99.121119 
1322.000000	99.122991 
1321.000000	99.123710 
1320.000000	99.122712 
1319.000000	99.121180 
1318.000000	99.120535 
1317.000000	99.120611 
1316.000000	99.119850 
1315.000000	99.117300 
1314.000000	99.113935 
1313.000000	99.111944 
1312.000000	99.112598 
1311.000000	99.115243 
1310.000000	99.118498 
1309.000000	99.121779 
1308.000000	99.124901 
1307.000000	99.126872 
1306.000000	99.126370 
1305.000000	99.123405 
1304.000000	99.120369 
1303.000000	99.120011 
1302.000000	99.122768 
1301.000000	99.126519 
1300.000000	99.128636 
1299.000000	99.127704 
1298.000000	99.123882 
1297.000000	99.118704 
1296.000000	99.114452 
1295.000000	99.113060 
1294.000000	99.114782 
1293.000000	99.118083 
1292.000000	99.120816 
1291.000000	99.121424 
1290.000000	99.119675 
1289.000000	99.116743 
1288.000000	99.114210 
1287.000000	99.112479 
1286.000000	99.110454 
1285.000000	99.107406 
1284.000000	99.104552 
1283.000000	99.103546 
1282.000000	99.103811 
1281.000000	99.102720 
1280.000000	99.098582 
1279.000000	99.092336 
1278.000000	99.085900 
1277.000000	99.080057 
1276.000000	99.074440 
1275.000000	99.068907 
1274.000000	99.063890 
1273.000000	99.059731 
1272.000000	99.056287 
1271.000000	99.052809 
1270.000000	99.047945 
1269.000000	99.040586 
1268.000000	99.031287 
1267.000000	99.021953 
1266.000000	99.013448 
1265.000000	99.004625 
1264.000000	98.994301 
1263.000000	98.982841 
1262.000000	98.971122 
1261.000000	98.959379 
1260.000000	98.948333 
1259.000000	98.939928 
1258.000000	98.934979 
1257.000000	98.931516 
1256.000000	98.927294 
1255.000000	98.922949 
1254.000000	98.920583 
1253.000000	98.919896 
1252.000000	98.918239 
1251.000000	98.914770 
1250.000000	98.912296 
1249.000000	98.914428 
1248.000000	98.922649 
1247.000000	98.935877 
1246.000000	98.949874 
1245.000000	98.956883 
1244.000000	98.950098 
1243.000000	98.932079 
1242.000000	98.916695 
1241.000000	98.918247 
1240.000000	98.937899 
1239.000000	98.962721 
1238.000000	98.978173 
1237.000000	98.979636 
1236.000000	98.971844 
1235.000000	98.960834 
1234.000000	98.949273 
1233.000000	98.937946 
1232.000000	98.928241 
1231.000000	98.921721 
1230.000000	98.918471 
1229.000000	98.917309 
1228.000000	98.917640 
1227.000000	98.920421 
1226.000000	98.926932 
1225.000000	98.936639 
1224.000000	98.946681 
1223.000000	98.953961 
1222.000000	98.957894 
1221.000000	98.960827 
1220.000000	98.965707 
1219.000000	98.973690 
1218.000000	98.983779 
1217.000000	98.994140 
1216.000000	99.003403 
1215.000000	99.011312 
1214.000000	99.018781 
1213.000000	99.027105 
1212.000000	99.036480 
1211.000000	99.045304 
1210.000000	99.051499 
1209.000000	99.054440 
1208.000000	99.055078 
1207.000000	99.054514 
1206.000000	99.053388 
1205.000000	99.052710 
1204.000000	99.054120 
1203.000000	99.058296 
1202.000000	99.063302 
1201.000000	99.065536 
1200.000000	99.063024 
1199.000000	99.057573 
1198.000000	99.053120 
1197.000000	99.052067 
1196.000000	99.053671 
1195.000000	99.055677 
1194.000000	99.056578 
1193.000000	99.055913 
1192.000000	99.053511 
1191.000000	99.049687 
1190.000000	99.045988 
1189.000000	99.044693 
1188.000000	99.047186 
1187.000000	99.052952 
1186.000000	99.059887 
1185.000000	99.065181 
1184.000000	99.066317 
1183.000000	99.062402 
1182.000000	99.055172 
1181.000000	99.048234 
1180.000000	99.044737 
1179.000000	99.045494 
1178.000000	99.048729 
1177.000000	99.051366 
1176.000000	99.051200 
1175.000000	99.048683 
1174.000000	99.046437 
1173.000000	99.046401 
1172.000000	99.048050 
1171.000000	99.049993 
1170.000000	99.052178 
1169.000000	99.054993 
1168.000000	99.056930 
1167.000000	99.055277 
1166.000000	99.049471 
1165.000000	99.042214 
1164.000000	99.036775 
1163.000000	99.034308 
1162.000000	99.033925 
1161.000000	99.033997 
1160.000000	99.033105 
1159.000000	99.031260 
1158.000000	99.030536 
1157.000000	99.032983 
1156.000000	99.037459 
1155.000000	99.040165 
1154.000000	99.038973 
1153.000000	99.035624 
1152.000000	99.032846 
1151.000000	99.031156 
1150.000000	99.029775 
1149.000000	99.028831 
1148.000000	99.028553 
1147.000000	99.027239 
1146.000000	99.022309 
1145.000000	99.013534 
1144.000000	99.003894 
1143.000000	98.997014 
1142.000000	98.994336 
1141.000000	98.994592 
1140.000000	98.995341 
1139.000000	98.995024 
1138.000000	98.993895 
1137.000000	98.992864 
1136.000000	98.991624 
1135.000000	98.988853 
1134.000000	98.984456 
1133.000000	98.980241 
1132.000000	98.977593 
1131.000000	98.975675 
1130.000000	98.972938 
1129.000000	98.969330 
1128.000000	98.965642 
1127.000000	98.961588 
1126.000000	98.956262 
1125.000000	98.950176 
1124.000000	98.945185 
1123.000000	98.942106 
1122.000000	98.939507 
1121.000000	98.935211 
1120.000000	98.928321 
1119.000000	98.919493 
1118.000000	98.909744 
1117.000000	98.899244 
1116.000000	98.887251 
1115.000000	98.873166 
1114.000000	98.857340 
1113.000000	98.840355 
1112.000000	98.822141 
1111.000000	98.803149 
1110.000000	98.785958 
1109.000000	98.773508 
1108.000000	98.765034 
1107.000000	98.755569 
1106.000000	98.741222 
1105.000000	98.723409 
1104.000000	98.705870 
1103.000000	98.689531 
1102.000000	98.672978 
1101.000000	98.657377 
1100.000000	98.646886 
1099.000000	98.642868 
1098.000000	98.642245 
1097.000000	98.641561 
1096.000000	98.640539 
1095.000000	98.639062 
1094.000000	98.633235 
1093.000000	98.617498 
1092.000000	98.590050 
1091.000000	98.554000 
1090.000000	98.513467 
1089.000000	98.470549 
1088.000000	98.426298 
1087.000000	98.382654 
1086.000000	98.342077 
1085.000000	98.305809 
1084.000000	98.273143 
1083.000000	98.242102 
1082.000000	98.210826 
1081.000000	98.178882 
1080.000000	98.147360 
1079.000000	98.117662 
1078.000000	98.090921 
1077.000000	98.069086 
1076.000000	98.055254 
1075.000000	98.051468 
1074.000000	98.056968 
1073.000000	98.069526 
1072.000000	98.085857 
1071.000000	98.097564 
1070.000000	98.089791 
1069.000000	98.051950 
1068.000000	97.993496 
1067.000000	97.944671 
1066.000000	97.934923 
1065.000000	97.968913 
1064.000000	98.024959 
1063.000000	98.074326 
1062.000000	98.098878 
1061.000000	98.094028 
1060.000000	98.064622 
1059.000000	98.023952 
1058.000000	97.991519 
1057.000000	97.982027 
1056.000000	97.993409 
1055.000000	98.008842 
1054.000000	98.012933 
1053.000000	98.005058 
1052.000000	97.996118 
1051.000000	97.994889 
1050.000000	98.000777 
1049.000000	98.008981 
1048.000000	98.018032 
1047.000000	98.029975 
1046.000000	98.045604 
1045.000000	98.062397 
1044.000000	98.077525 
1043.000000	98.091890 
1042.000000	98.109694 
1041.000000	98.132865 
1040.000000	98.157359 
1039.000000	98.178023 
1038.000000	98.197070 
1037.000000	98.223512 
1036.000000	98.262380 
1035.000000	98.308498 
1034.000000	98.353503 
1033.000000	98.393915 
1032.000000	98.426816 
1031.000000	98.442652 
1030.000000	98.433066 
1029.000000	98.407342 
1028.000000	98.392142 
1027.000000	98.409059 
1026.000000	98.455198 
1025.000000	98.508826 
1024.000000	98.550242 
1023.000000	98.573501 
1022.000000	98.582812 
1021.000000	98.584961 
1020.000000	98.585792 
1019.000000	98.589027 
1018.000000	98.595295 
1017.000000	98.603013 
1016.000000	98.611104 
1015.000000	98.620554 
1014.000000	98.633424 
1013.000000	98.650605 
1012.000000	98.670082 
1011.000000	98.687357 
1010.000000	98.699033 
1009.000000	98.706626 
1008.000000	98.715390 
1007.000000	98.728515 
1006.000000	98.743976 
1005.000000	98.758144 
1004.000000	98.770608 
1003.000000	98.783453 
1002.000000	98.797202 
1001.000000	98.810074 
1000.000000	98.820941 
999.000000	 98.830614 
998.000000	 98.839681 
997.000000	 98.847032 
996.000000	 98.851874 
995.000000	 98.856366 
994.000000	 98.864693 
993.000000	 98.878776 
992.000000	 98.895211 
991.000000	 98.907365 
990.000000	 98.911275 
989.000000	 98.909198 
988.000000	 98.906628 
987.000000	 98.906484 
986.000000	 98.907720 
985.000000	 98.909328 
984.000000	 98.913130 
983.000000	 98.921132 
982.000000	 98.931856 
981.000000	 98.941435 
980.000000	 98.947608 
979.000000	 98.950825 
978.000000	 98.952113 
977.000000	 98.952146 
976.000000	 98.952582 
975.000000	 98.956025 
974.000000	 98.963353 
973.000000	 98.972299 
972.000000	 98.979829 
971.000000	 98.985150 
970.000000	 98.989519 
969.000000	 98.993970 
968.000000	 98.998503 
967.000000	 99.003016 
966.000000	 99.007528 
965.000000	 99.011385 
964.000000	 99.013596 
963.000000	 99.014444 
962.000000	 99.015545 
961.000000	 99.017596 
960.000000	 99.019200 
959.000000	 99.019029 
958.000000	 99.018145 
957.000000	 99.018603 
956.000000	 99.020356 
955.000000	 99.021520 
954.000000	 99.021732 
953.000000	 99.023172 
952.000000	 99.027407 
951.000000	 99.032848 
950.000000	 99.036508 
949.000000	 99.037224 
948.000000	 99.036200 
947.000000	 99.035541 
946.000000	 99.037312 
945.000000	 99.042713 
944.000000	 99.050694 
943.000000	 99.058127 
942.000000	 99.062695 
941.000000	 99.064850 
940.000000	 99.065748 
939.000000	 99.064651 
938.000000	 99.060422 
937.000000	 99.054482 
936.000000	 99.049637 
935.000000	 99.046219 
934.000000	 99.042046 
933.000000	 99.036499 
932.000000	 99.032130 
931.000000	 99.031318 
930.000000	 99.033503 
929.000000	 99.036873 
928.000000	 99.040842 
927.000000	 99.045284 
926.000000	 99.048872 
925.000000	 99.049978 
924.000000	 99.048441 
923.000000	 99.045011 
922.000000	 99.039769 
921.000000	 99.032512 
920.000000	 99.024336 
919.000000	 99.017494 
918.000000	 99.013452 
917.000000	 99.011618 
916.000000	 99.009885 
915.000000	 99.006155 
914.000000	 98.999993 
913.000000	 98.993479 
912.000000	 98.989782 
911.000000	 98.989935 
910.000000	 98.991183 
909.000000	 98.989216 
908.000000	 98.981901 
907.000000	 98.970403 
906.000000	 98.957134 
905.000000	 98.943369 
904.000000	 98.929137 
903.000000	 98.915366 
902.000000	 98.905756 
901.000000	 98.905304 
900.000000	 98.915481 
899.000000	 98.930978 
898.000000	 98.943021 
897.000000	 98.946724 
896.000000	 98.943764 
895.000000	 98.938060 
894.000000	 98.931773 
893.000000	 98.926773 
892.000000	 98.926660 
891.000000	 98.933652 
890.000000	 98.944747 
889.000000	 98.954572 
888.000000	 98.961585 
887.000000	 98.967933 
886.000000	 98.973274 
885.000000	 98.973134 
884.000000	 98.965443 
883.000000	 98.955371 
882.000000	 98.950379 
881.000000	 98.952151 
880.000000	 98.956746 
879.000000	 98.961756 
878.000000	 98.969231 
877.000000	 98.980393 
876.000000	 98.990637 
875.000000	 98.992711 
874.000000	 98.984423 
873.000000	 98.971449 
872.000000	 98.962405 
871.000000	 98.961908 
870.000000	 98.967794 
869.000000	 98.973784 
868.000000	 98.974918 
867.000000	 98.971873 
866.000000	 98.970835 
865.000000	 98.978328 
864.000000	 98.995143 
863.000000	 99.015233 
862.000000	 99.030740 
861.000000	 99.037712 
860.000000	 99.037215 
859.000000	 99.033193 
858.000000	 99.031183 
857.000000	 99.037234 
856.000000	 99.054001 
855.000000	 99.076576 
854.000000	 99.094944 
853.000000	 99.102879 
852.000000	 99.103030 
851.000000	 99.101762 
850.000000	 99.101089 
849.000000	 99.098573 
848.000000	 99.093867 
847.000000	 99.091062 
846.000000	 99.093374 
845.000000	 99.098920 
844.000000	 99.104229 
843.000000	 99.109463 
842.000000	 99.116641 
841.000000	 99.123900 
840.000000	 99.126189 
839.000000	 99.122951 
838.000000	 99.120975 
837.000000	 99.125968 
836.000000	 99.133651 
835.000000	 99.134167 
834.000000	 99.125378 
833.000000	 99.116534 
832.000000	 99.116078 
831.000000	 99.120167 
830.000000	 99.118601 
829.000000	 99.110373 
828.000000	 99.106271 
827.000000	 99.113692 
826.000000	 99.124930 
825.000000	 99.126498 
824.000000	 99.117060 
823.000000	 99.108749 
822.000000	 99.110872 
821.000000	 99.119310 
820.000000	 99.123889 
819.000000	 99.120511 
818.000000	 99.113192 
817.000000	 99.107360 
816.000000	 99.104203 
815.000000	 99.100811 
814.000000	 99.093807 
813.000000	 99.082914 
812.000000	 99.072199 
811.000000	 99.067744 
810.000000	 99.072522 
809.000000	 99.082795 
808.000000	 99.090438 
807.000000	 99.089645 
806.000000	 99.081242 
805.000000	 99.069920 
804.000000	 99.058405 
803.000000	 99.046327 
802.000000	 99.034353 
801.000000	 99.026454 
800.000000	 99.026045 
799.000000	 99.031415 
798.000000	 99.037423 
797.000000	 99.041167 
796.000000	 99.043751 
795.000000	 99.047108 
794.000000	 99.052238 
793.000000	 99.060444 
792.000000	 99.072009 
791.000000	 99.081830 
790.000000	 99.080508 
789.000000	 99.063873 
788.000000	 99.039724 
787.000000	 99.021595 
786.000000	 99.016649 
785.000000	 99.022184 
784.000000	 99.032223 
783.000000	 99.042874 
782.000000	 99.051307 
781.000000	 99.054637 
780.000000	 99.052071 
779.000000	 99.045493 
778.000000	 99.036775 
777.000000	 99.027283 
776.000000	 99.020829 
775.000000	 99.022948 
774.000000	 99.034388 
773.000000	 99.048308 
772.000000	 99.057120 
771.000000	 99.059869 
770.000000	 99.060129 
769.000000	 99.059390 
768.000000	 99.056980 
767.000000	 99.055152 
766.000000	 99.058762 
765.000000	 99.068572 
764.000000	 99.078517 
763.000000	 99.081448 
762.000000	 99.075813 
761.000000	 99.065971 
760.000000	 99.058057 
759.000000	 99.056159 
758.000000	 99.059832 
757.000000	 99.064044 
756.000000	 99.063788 
755.000000	 99.060254 
754.000000	 99.060515 
753.000000	 99.069548 
752.000000	 99.084545 
751.000000	 99.098411 
750.000000	 99.106502 
749.000000	 99.107687 
748.000000	 99.101689 
747.000000	 99.090297 
746.000000	 99.080463 
745.000000	 99.080206 
744.000000	 99.088593 
743.000000	 99.093681 
742.000000	 99.084873 
741.000000	 99.065781 
740.000000	 99.050690 
739.000000	 99.048718 
738.000000	 99.055301 
737.000000	 99.059707 
736.000000	 99.056835 
735.000000	 99.049789 
734.000000	 99.044903 
733.000000	 99.047706 
732.000000	 99.060739 
731.000000	 99.079822 
730.000000	 99.093483 
729.000000	 99.091938 
728.000000	 99.077287 
727.000000	 99.061828 
726.000000	 99.056310 
725.000000	 99.061851 
724.000000	 99.073140 
723.000000	 99.085447 
722.000000	 99.096237 
721.000000	 99.102747 
720.000000	 99.101435 
719.000000	 99.090538 
718.000000	 99.072459 
717.000000	 99.053195 
716.000000	 99.039087 
715.000000	 99.032215 
714.000000	 99.028272 
713.000000	 99.021241 
712.000000	 99.010689 
711.000000	 99.002311 
710.000000	 99.000675 
709.000000	 99.004555 
708.000000	 99.010396 
707.000000	 99.016660 
706.000000	 99.023269 
705.000000	 99.028617 
704.000000	 99.029667 
703.000000	 99.025390 
702.000000	 99.017390 
701.000000	 99.008322 
700.000000	 99.002212 
699.000000	 99.003290 
698.000000	 99.011762 
697.000000	 99.019737 
696.000000	 99.014263 
695.000000	 98.988761 
694.000000	 98.951093 
693.000000	 98.920813 
692.000000	 98.916364 
691.000000	 98.938929 
690.000000	 98.969984 
689.000000	 98.987693 
688.000000	 98.987467 
687.000000	 98.984009 
686.000000	 98.990029 
685.000000	 99.000991 
684.000000	 99.004637 
683.000000	 98.996609 
682.000000	 98.983245 
681.000000	 98.975790 
680.000000	 98.985061 
679.000000	 99.012599 
678.000000	 99.041208 
677.000000	 99.046219 
676.000000	 99.022007 
675.000000	 98.986763 
674.000000	 98.961691 
673.000000	 98.950052 
672.000000	 98.936375 
671.000000	 98.903355 
670.000000	 98.845338 
669.000000	 98.776121 
668.000000	 98.731692 
667.000000	 98.735291 
666.000000	 98.777410 
665.000000	 98.843164 
664.000000	 98.904842 
663.000000	 98.935617 
662.000000	 98.930649 
661.000000	 98.915859 
660.000000	 98.918510 
659.000000	 98.935408 
658.000000	 98.941069 
657.000000	 98.922924 
656.000000	 98.893112 
655.000000	 98.868160 
654.000000	 98.855774 
653.000000	 98.853479 
652.000000	 98.848540 
651.000000	 98.829401 
650.000000	 98.803780 

