4000.000000	99.080597 
3999.000000	99.080680 
3998.000000	99.080479 
3997.000000	99.079922 
3996.000000	99.079114 
3995.000000	99.078289 
3994.000000	99.077665 
3993.000000	99.077360 
3992.000000	99.077337 
3991.000000	99.077398 
3990.000000	99.077316 
3989.000000	99.077017 
3988.000000	99.076640 
3987.000000	99.076409 
3986.000000	99.076437 
3985.000000	99.076625 
3984.000000	99.076707 
3983.000000	99.076420 
3982.000000	99.075693 
3981.000000	99.074698 
3980.000000	99.073710 
3979.000000	99.072882 
3978.000000	99.072228 
3977.000000	99.071778 
3976.000000	99.071666 
3975.000000	99.071995 
3974.000000	99.072676 
3973.000000	99.073399 
3972.000000	99.073795 
3971.000000	99.073677 
3970.000000	99.073100 
3969.000000	99.072262 
3968.000000	99.071370 
3967.000000	99.070546 
3966.000000	99.069870 
3965.000000	99.069439 
3964.000000	99.069295 
3963.000000	99.069315 
3962.000000	99.069235 
3961.000000	99.068848 
3960.000000	99.068165 
3959.000000	99.067417 
3958.000000	99.066894 
3957.000000	99.066749 
3956.000000	99.066940 
3955.000000	99.067277 
3954.000000	99.067557 
3953.000000	99.067652 
3952.000000	99.067505 
3951.000000	99.067139 
3950.000000	99.066684 
3949.000000	99.066380 
3948.000000	99.066422 
3947.000000	99.066770 
3946.000000	99.067206 
3945.000000	99.067562 
3944.000000	99.067815 
3943.000000	99.067900 
3942.000000	99.067685 
3941.000000	99.067155 
3940.000000	99.066466 
3939.000000	99.065742 
3938.000000	99.064936 
3937.000000	99.063983 
3936.000000	99.063116 
3935.000000	99.062827 
3934.000000	99.063589 
3933.000000	99.065486 
3932.000000	99.067955 
3931.000000	99.069898 
3930.000000	99.070357 
3929.000000	99.069248 
3928.000000	99.067419 
3927.000000	99.065999 
3926.000000	99.065613 
3925.000000	99.066021 
3924.000000	99.066468 
3923.000000	99.066439 
3922.000000	99.065945 
3921.000000	99.065389 
3920.000000	99.065208 
3919.000000	99.065656 
3918.000000	99.066726 
3917.000000	99.068136 
3916.000000	99.069500 
3915.000000	99.070573 
3914.000000	99.071459 
3913.000000	99.072424 
3912.000000	99.073519 
3911.000000	99.074537 
3910.000000	99.075172 
3909.000000	99.075269 
3908.000000	99.074888 
3907.000000	99.073954 
3906.000000	99.072206 
3905.000000	99.069382 
3904.000000	99.065590 
3903.000000	99.061633 
3902.000000	99.058639 
3901.000000	99.057349 
3900.000000	99.057812 
3899.000000	99.059439 
3898.000000	99.061479 
3897.000000	99.063363 
3896.000000	99.064620 
3895.000000	99.064908 
3894.000000	99.064179 
3893.000000	99.062763 
3892.000000	99.061249 
3891.000000	99.060130 
3890.000000	99.059614 
3889.000000	99.059638 
3888.000000	99.060093 
3887.000000	99.060866 
3886.000000	99.061656 
3885.000000	99.061955 
3884.000000	99.061425 
3883.000000	99.060207 
3882.000000	99.058912 
3881.000000	99.058227 
3880.000000	99.058369 
3879.000000	99.058932 
3878.000000	99.059446 
3877.000000	99.059860 
3876.000000	99.060386 
3875.000000	99.061013 
3874.000000	99.061393 
3873.000000	99.061278 
3872.000000	99.060852 
3871.000000	99.060533 
3870.000000	99.060560 
3869.000000	99.060850 
3868.000000	99.061187 
3867.000000	99.061452 
3866.000000	99.061699 
3865.000000	99.062012 
3864.000000	99.062372 
3863.000000	99.062672 
3862.000000	99.062852 
3861.000000	99.063012 
3860.000000	99.063317 
3859.000000	99.063796 
3858.000000	99.064284 
3857.000000	99.064533 
3856.000000	99.064400 
3855.000000	99.064056 
3854.000000	99.063977 
3853.000000	99.064447 
3852.000000	99.065320 
3851.000000	99.066267 
3850.000000	99.067093 
3849.000000	99.067814 
3848.000000	99.068500 
3847.000000	99.069142 
3846.000000	99.069645 
3845.000000	99.069971 
3844.000000	99.070273 
3843.000000	99.070742 
3842.000000	99.071309 
3841.000000	99.071685 
3840.000000	99.071649 
3839.000000	99.071266 
3838.000000	99.070838 
3837.000000	99.070609 
3836.000000	99.070659 
3835.000000	99.071070 
3834.000000	99.072040 
3833.000000	99.073735 
3832.000000	99.075959 
3831.000000	99.078030 
3830.000000	99.079186 
3829.000000	99.079134 
3828.000000	99.078307 
3827.000000	99.077585 
3826.000000	99.077509 
3825.000000	99.077881 
3824.000000	99.078169 
3823.000000	99.078245 
3822.000000	99.078489 
3821.000000	99.079011 
3820.000000	99.079453 
3819.000000	99.079534 
3818.000000	99.079317 
3817.000000	99.079168 
3816.000000	99.079130 
3815.000000	99.078528 
3814.000000	99.076889 
3813.000000	99.074851 
3812.000000	99.073656 
3811.000000	99.073968 
3810.000000	99.075231 
3809.000000	99.076389 
3808.000000	99.077247 
3807.000000	99.078449 
3806.000000	99.080120 
3805.000000	99.081358 
3804.000000	99.081423 
3803.000000	99.080906 
3802.000000	99.080958 
3801.000000	99.081488 
3800.000000	99.081297 
3799.000000	99.079634 
3798.000000	99.076972 
3797.000000	99.074568 
3796.000000	99.073112 
3795.000000	99.072072 
3794.000000	99.070531 
3793.000000	99.068349 
3792.000000	99.066345 
3791.000000	99.065458 
3790.000000	99.065748 
3789.000000	99.066357 
3788.000000	99.066348 
3787.000000	99.065487 
3786.000000	99.064379 
3785.000000	99.063886 
3784.000000	99.064313 
3783.000000	99.065103 
3782.000000	99.065414 
3781.000000	99.065084 
3780.000000	99.064790 
3779.000000	99.065143 
3778.000000	99.065896 
3777.000000	99.066279 
3776.000000	99.065898 
3775.000000	99.065105 
3774.000000	99.064547 
3773.000000	99.064633 
3772.000000	99.065549 
3771.000000	99.067082 
3770.000000	99.068261 
3769.000000	99.067910 
3768.000000	99.065875 
3767.000000	99.063383 
3766.000000	99.062065 
3765.000000	99.062433 
3764.000000	99.063451 
3763.000000	99.063749 
3762.000000	99.063187 
3761.000000	99.062932 
3760.000000	99.063973 
3759.000000	99.066160 
3758.000000	99.068725 
3757.000000	99.071438 
3756.000000	99.074648 
3755.000000	99.078279 
3754.000000	99.081551 
3753.000000	99.083634 
3752.000000	99.084154 
3751.000000	99.083088 
3750.000000	99.081019 
3749.000000	99.079072 
3748.000000	99.077627 
3747.000000	99.076168 
3746.000000	99.074498 
3745.000000	99.072819 
3744.000000	99.071533 
3743.000000	99.070567 
3742.000000	99.069001 
3741.000000	99.066108 
3740.000000	99.062087 
3739.000000	99.057940 
3738.000000	99.054817 
3737.000000	99.052843 
3736.000000	99.050731 
3735.000000	99.046840 
3734.000000	99.041440 
3733.000000	99.037258 
3732.000000	99.037108 
3731.000000	99.041092 
3730.000000	99.046526 
3729.000000	99.050684 
3728.000000	99.052913 
3727.000000	99.053742 
3726.000000	99.053172 
3725.000000	99.050841 
3724.000000	99.047576 
3723.000000	99.045278 
3722.000000	99.044886 
3721.000000	99.045233 
3720.000000	99.043973 
3719.000000	99.040063 
3718.000000	99.034672 
3717.000000	99.029436 
3716.000000	99.024615 
3715.000000	99.019366 
3714.000000	99.013755 
3713.000000	99.009514 
3712.000000	99.007717 
3711.000000	99.006642 
3710.000000	99.003313 
3709.000000	98.996259 
3708.000000	98.986169 
3707.000000	98.974847 
3706.000000	98.964204 
3705.000000	98.955571 
3704.000000	98.949130 
3703.000000	98.943662 
3702.000000	98.937003 
3701.000000	98.927640 
3700.000000	98.915889 
3699.000000	98.903443 
3698.000000	98.892232 
3697.000000	98.883435 
3696.000000	98.877004 
3695.000000	98.872081 
3694.000000	98.867846 
3693.000000	98.863926 
3692.000000	98.859928 
3691.000000	98.854968 
3690.000000	98.848311 
3689.000000	98.840788 
3688.000000	98.834344 
3687.000000	98.829528 
3686.000000	98.825376 
3685.000000	98.821500 
3684.000000	98.818630 
3683.000000	98.817475 
3682.000000	98.817372 
3681.000000	98.816157 
3680.000000	98.811453 
3679.000000	98.802160 
3678.000000	98.789683 
3677.000000	98.778429 
3676.000000	98.773101 
3675.000000	98.773840 
3674.000000	98.775748 
3673.000000	98.774218 
3672.000000	98.768780 
3671.000000	98.762552 
3670.000000	98.758482 
3669.000000	98.756372 
3668.000000	98.754450 
3667.000000	98.752090 
3666.000000	98.749903 
3665.000000	98.748190 
3664.000000	98.746225 
3663.000000	98.743238 
3662.000000	98.739345 
3661.000000	98.735140 
3660.000000	98.730981 
3659.000000	98.727179 
3658.000000	98.724807 
3657.000000	98.725047 
3656.000000	98.727331 
3655.000000	98.729295 
3654.000000	98.729007 
3653.000000	98.726639 
3652.000000	98.723838 
3651.000000	98.721915 
3650.000000	98.720427 
3649.000000	98.718464 
3648.000000	98.716956 
3647.000000	98.717255 
3646.000000	98.719008 
3645.000000	98.721088 
3644.000000	98.723194 
3643.000000	98.725973 
3642.000000	98.729982 
3641.000000	98.734751 
3640.000000	98.739063 
3639.000000	98.741746 
3638.000000	98.742296 
3637.000000	98.741100 
3636.000000	98.739142 
3635.000000	98.737051 
3634.000000	98.734190 
3633.000000	98.729404 
3632.000000	98.723057 
3631.000000	98.718126 
3630.000000	98.718388 
3629.000000	98.723306 
3628.000000	98.727203 
3627.000000	98.726618 
3626.000000	98.723464 
3625.000000	98.721117 
3624.000000	98.720856 
3623.000000	98.721606 
3622.000000	98.722277 
3621.000000	98.723937 
3620.000000	98.728588 
3619.000000	98.735803 
3618.000000	98.742459 
3617.000000	98.746485 
3616.000000	98.749184 
3615.000000	98.753376 
3614.000000	98.759793 
3613.000000	98.765948 
3612.000000	98.769025 
3611.000000	98.769254 
3610.000000	98.769715 
3609.000000	98.772861 
3608.000000	98.777985 
3607.000000	98.782913 
3606.000000	98.787142 
3605.000000	98.791980 
3604.000000	98.798346 
3603.000000	98.805584 
3602.000000	98.812305 
3601.000000	98.817754 
3600.000000	98.821772 
3599.000000	98.824050 
3598.000000	98.824397 
3597.000000	98.823489 
3596.000000	98.823153 
3595.000000	98.825297 
3594.000000	98.830111 
3593.000000	98.835854 
3592.000000	98.840258 
3591.000000	98.842061 
3590.000000	98.841950 
3589.000000	98.842002 
3588.000000	98.843535 
3587.000000	98.845303 
3586.000000	98.845378 
3585.000000	98.844036 
3584.000000	98.843580 
3583.000000	98.845596 
3582.000000	98.849347 
3581.000000	98.852636 
3580.000000	98.853976 
3579.000000	98.853519 
3578.000000	98.852138 
3577.000000	98.850513 
3576.000000	98.849180 
3575.000000	98.848871 
3574.000000	98.849973 
3573.000000	98.851850 
3572.000000	98.853266 
3571.000000	98.853435 
3570.000000	98.852434 
3569.000000	98.850990 
3568.000000	98.849993 
3567.000000	98.849863 
3566.000000	98.850352 
3565.000000	98.851072 
3564.000000	98.852142 
3563.000000	98.854113 
3562.000000	98.857039 
3561.000000	98.859824 
3560.000000	98.860971 
3559.000000	98.860042 
3558.000000	98.858116 
3557.000000	98.856749 
3556.000000	98.856572 
3555.000000	98.857048 
3554.000000	98.857368 
3553.000000	98.857175 
3552.000000	98.856555 
3551.000000	98.855647 
3550.000000	98.854412 
3549.000000	98.852860 
3548.000000	98.851393 
3547.000000	98.850630 
3546.000000	98.850812 
3545.000000	98.851388 
3544.000000	98.851541 
3543.000000	98.851151 
3542.000000	98.850933 
3541.000000	98.851596 
3540.000000	98.853145 
3539.000000	98.854881 
3538.000000	98.856097 
3537.000000	98.856589 
3536.000000	98.856603 
3535.000000	98.856446 
3534.000000	98.856226 
3533.000000	98.855965 
3532.000000	98.855801 
3531.000000	98.855965 
3530.000000	98.856482 
3529.000000	98.857016 
3528.000000	98.857171 
3527.000000	98.856925 
3526.000000	98.856628 
3525.000000	98.856570 
3524.000000	98.856661 
3523.000000	98.856599 
3522.000000	98.856263 
3521.000000	98.855818 
3520.000000	98.855539 
3519.000000	98.855571 
3518.000000	98.855858 
3517.000000	98.856197 
3516.000000	98.856351 
3515.000000	98.856199 
3514.000000	98.855792 
3513.000000	98.855308 
3512.000000	98.854912 
3511.000000	98.854669 
3510.000000	98.854570 
3509.000000	98.854591 
3508.000000	98.854741 
3507.000000	98.855031 
3506.000000	98.855429 
3505.000000	98.855814 
3504.000000	98.856014 
3503.000000	98.855950 
3502.000000	98.855738 
3501.000000	98.855629 
3500.000000	98.855792 
3499.000000	98.856164 
3498.000000	98.856451 
3497.000000	98.856383 
3496.000000	98.855931 
3495.000000	98.855346 
3494.000000	98.854920 
3493.000000	98.854741 
3492.000000	98.854708 
3491.000000	98.854701 
3490.000000	98.854717 
3489.000000	98.854870 
3488.000000	98.855243 
3487.000000	98.855739 
3486.000000	98.856101 
3485.000000	98.856124 
3484.000000	98.855807 
3483.000000	98.855301 
3482.000000	98.854715 
3481.000000	98.854069 
3480.000000	98.853420 
3479.000000	98.852889 
3478.000000	98.852488 
3477.000000	98.852065 
3476.000000	98.851577 
3475.000000	98.851345 
3474.000000	98.851780 
3473.000000	98.852790 
3472.000000	98.853641 
3471.000000	98.853675 
3470.000000	98.853054 
3469.000000	98.852603 
3468.000000	98.852901 
3467.000000	98.853671 
3466.000000	98.854176 
3465.000000	98.854062 
3464.000000	98.853603 
3463.000000	98.853256 
3462.000000	98.853199 
3461.000000	98.853375 
3460.000000	98.853753 
3459.000000	98.854300 
3458.000000	98.854743 
3457.000000	98.854577 
3456.000000	98.853479 
3455.000000	98.851648 
3454.000000	98.849774 
3453.000000	98.848563 
3452.000000	98.848216 
3451.000000	98.848409 
3450.000000	98.848643 
3449.000000	98.848605 
3448.000000	98.848194 
3447.000000	98.847372 
3446.000000	98.846133 
3445.000000	98.844638 
3444.000000	98.843248 
3443.000000	98.842304 
3442.000000	98.841882 
3441.000000	98.841750 
3440.000000	98.841571 
3439.000000	98.841064 
3438.000000	98.840022 
3437.000000	98.838349 
3436.000000	98.836268 
3435.000000	98.834389 
3434.000000	98.833372 
3433.000000	98.833456 
3432.000000	98.834301 
3431.000000	98.835268 
3430.000000	98.835897 
3429.000000	98.836143 
3428.000000	98.836196 
3427.000000	98.836127 
3426.000000	98.835679 
3425.000000	98.834496 
3424.000000	98.832613 
3423.000000	98.830639 
3422.000000	98.829314 
3421.000000	98.828873 
3420.000000	98.828983 
3419.000000	98.829192 
3418.000000	98.829301 
3417.000000	98.829260 
3416.000000	98.828969 
3415.000000	98.828394 
3414.000000	98.827753 
3413.000000	98.827390 
3412.000000	98.827450 
3411.000000	98.827749 
3410.000000	98.827952 
3409.000000	98.827782 
3408.000000	98.827065 
3407.000000	98.825752 
3406.000000	98.824026 
3405.000000	98.822380 
3404.000000	98.821396 
3403.000000	98.821332 
3402.000000	98.821910 
3401.000000	98.822579 
3400.000000	98.823050 
3399.000000	98.823512 
3398.000000	98.824283 
3397.000000	98.825342 
3396.000000	98.826241 
3395.000000	98.826451 
3394.000000	98.825719 
3393.000000	98.824174 
3392.000000	98.822318 
3391.000000	98.820928 
3390.000000	98.820684 
3389.000000	98.821768 
3388.000000	98.823720 
3387.000000	98.825682 
3386.000000	98.827026 
3385.000000	98.827727 
3384.000000	98.828166 
3383.000000	98.828639 
3382.000000	98.829050 
3381.000000	98.829087 
3380.000000	98.828662 
3379.000000	98.828094 
3378.000000	98.827817 
3377.000000	98.827938 
3376.000000	98.828194 
3375.000000	98.828338 
3374.000000	98.828436 
3373.000000	98.828739 
3372.000000	98.829330 
3371.000000	98.829995 
3370.000000	98.830417 
3369.000000	98.830434 
3368.000000	98.830120 
3367.000000	98.829736 
3366.000000	98.829576 
3365.000000	98.829756 
3364.000000	98.830112 
3363.000000	98.830350 
3362.000000	98.830332 
3361.000000	98.830166 
3360.000000	98.830020 
3359.000000	98.829945 
3358.000000	98.829907 
3357.000000	98.829931 
3356.000000	98.830106 
3355.000000	98.830438 
3354.000000	98.830768 
3353.000000	98.830918 
3352.000000	98.830877 
3351.000000	98.830798 
3350.000000	98.830857 
3349.000000	98.831102 
3348.000000	98.831466 
3347.000000	98.831832 
3346.000000	98.832089 
3345.000000	98.832185 
3344.000000	98.832140 
3343.000000	98.832067 
3342.000000	98.832081 
3341.000000	98.832181 
3340.000000	98.832251 
3339.000000	98.832197 
3338.000000	98.832087 
3337.000000	98.832115 
3336.000000	98.832407 
3335.000000	98.832896 
3334.000000	98.833413 
3333.000000	98.833881 
3332.000000	98.834340 
3331.000000	98.834804 
3330.000000	98.835176 
3329.000000	98.835351 
3328.000000	98.835374 
3327.000000	98.835403 
3326.000000	98.835537 
3325.000000	98.835698 
3324.000000	98.835732 
3323.000000	98.835592 
3322.000000	98.835432 
3321.000000	98.835491 
3320.000000	98.835917 
3319.000000	98.836653 
3318.000000	98.837446 
3317.000000	98.838009 
3316.000000	98.838203 
3315.000000	98.838121 
3314.000000	98.838036 
3313.000000	98.838255 
3312.000000	98.838933 
3311.000000	98.839977 
3310.000000	98.841042 
3309.000000	98.841767 
3308.000000	98.842052 
3307.000000	98.842085 
3306.000000	98.842124 
3305.000000	98.842286 
3304.000000	98.842573 
3303.000000	98.842976 
3302.000000	98.843406 
3301.000000	98.843614 
3300.000000	98.843338 
3299.000000	98.842597 
3298.000000	98.841783 
3297.000000	98.841391 
3296.000000	98.841604 
3295.000000	98.842176 
3294.000000	98.842643 
3293.000000	98.842728 
3292.000000	98.842569 
3291.000000	98.842510 
3290.000000	98.842692 
3289.000000	98.842893 
3288.000000	98.842826 
3287.000000	98.842490 
3286.000000	98.842140 
3285.000000	98.841976 
3284.000000	98.841967 
3283.000000	98.841973 
3282.000000	98.841950 
3281.000000	98.842012 
3280.000000	98.842346 
3279.000000	98.843082 
3278.000000	98.844136 
3277.000000	98.845149 
3276.000000	98.845658 
3275.000000	98.845422 
3274.000000	98.844576 
3273.000000	98.843545 
3272.000000	98.842766 
3271.000000	98.842404 
3270.000000	98.842324 
3269.000000	98.842276 
3268.000000	98.842170 
3267.000000	98.842124 
3266.000000	98.842227 
3265.000000	98.842370 
3264.000000	98.842477 
3263.000000	98.842802 
3262.000000	98.843757 
3261.000000	98.845379 
3260.000000	98.847101 
3259.000000	98.848180 
3258.000000	98.848284 
3257.000000	98.847600 
3256.000000	98.846495 
3255.000000	98.845184 
3254.000000	98.843763 
3253.000000	98.842501 
3252.000000	98.841912 
3251.000000	98.842437 
3250.000000	98.843994 
3249.000000	98.845897 
3248.000000	98.847347 
3247.000000	98.848021 
3246.000000	98.848120 
3245.000000	98.847976 
3244.000000	98.847763 
3243.000000	98.847506 
3242.000000	98.847194 
3241.000000	98.846832 
3240.000000	98.846571 
3239.000000	98.846842 
3238.000000	98.848187 
3237.000000	98.850787 
3236.000000	98.854089 
3235.000000	98.857009 
3234.000000	98.858642 
3233.000000	98.858846 
3232.000000	98.858252 
3231.000000	98.857701 
3230.000000	98.857539 
3229.000000	98.857455 
3228.000000	98.856958 
3227.000000	98.855898 
3226.000000	98.854537 
3225.000000	98.853302 
3224.000000	98.852552 
3223.000000	98.852469 
3222.000000	98.852979 
3221.000000	98.853769 
3220.000000	98.854496 
3219.000000	98.854998 
3218.000000	98.855270 
3217.000000	98.855383 
3216.000000	98.855537 
3215.000000	98.856057 
3214.000000	98.857120 
3213.000000	98.858456 
3212.000000	98.859466 
3211.000000	98.859717 
3210.000000	98.859247 
3209.000000	98.858482 
3208.000000	98.857932 
3207.000000	98.857889 
3206.000000	98.858288 
3205.000000	98.858807 
3204.000000	98.859171 
3203.000000	98.859388 
3202.000000	98.859630 
3201.000000	98.859964 
3200.000000	98.860318 
3199.000000	98.860641 
3198.000000	98.860960 
3197.000000	98.861291 
3196.000000	98.861636 
3195.000000	98.862039 
3194.000000	98.862536 
3193.000000	98.863045 
3192.000000	98.863393 
3191.000000	98.863493 
3190.000000	98.863394 
3189.000000	98.863237 
3188.000000	98.863181 
3187.000000	98.863325 
3186.000000	98.863690 
3185.000000	98.864211 
3184.000000	98.864741 
3183.000000	98.865121 
3182.000000	98.865323 
3181.000000	98.865507 
3180.000000	98.865913 
3179.000000	98.866658 
3178.000000	98.867609 
3177.000000	98.868416 
3176.000000	98.868803 
3175.000000	98.868861 
3174.000000	98.869010 
3173.000000	98.869545 
3172.000000	98.870232 
3171.000000	98.870525 
3170.000000	98.870200 
3169.000000	98.869632 
3168.000000	98.869437 
3167.000000	98.869873 
3166.000000	98.870653 
3165.000000	98.871260 
3164.000000	98.871436 
3163.000000	98.871358 
3162.000000	98.871419 
3161.000000	98.871862 
3160.000000	98.872653 
3159.000000	98.873610 
3158.000000	98.874539 
3157.000000	98.875228 
3156.000000	98.875457 
3155.000000	98.875123 
3154.000000	98.874289 
3153.000000	98.873041 
3152.000000	98.871429 
3151.000000	98.869741 
3150.000000	98.868680 
3149.000000	98.868968 
3148.000000	98.870691 
3147.000000	98.873127 
3146.000000	98.875337 
3145.000000	98.876855 
3144.000000	98.877778 
3143.000000	98.878407 
3142.000000	98.878947 
3141.000000	98.879447 
3140.000000	98.879857 
3139.000000	98.880075 
3138.000000	98.880016 
3137.000000	98.879741 
3136.000000	98.879591 
3135.000000	98.880088 
3134.000000	98.881539 
3133.000000	98.883625 
3132.000000	98.885521 
3131.000000	98.886641 
3130.000000	98.887226 
3129.000000	98.888103 
3128.000000	98.889833 
3127.000000	98.892143 
3126.000000	98.894151 
3125.000000	98.895038 
3124.000000	98.894540 
3123.000000	98.893009 
3122.000000	98.891171 
3121.000000	98.889742 
3120.000000	98.889080 
3119.000000	98.889109 
3118.000000	98.889528 
3117.000000	98.890099 
3116.000000	98.890781 
3115.000000	98.891632 
3114.000000	98.892560 
3113.000000	98.893206 
3112.000000	98.893195 
3111.000000	98.892587 
3110.000000	98.891979 
3109.000000	98.892018 
3108.000000	98.892778 
3107.000000	98.893726 
3106.000000	98.894296 
3105.000000	98.894384 
3104.000000	98.894305 
3103.000000	98.894445 
3102.000000	98.894993 
3101.000000	98.895881 
3100.000000	98.896863 
3099.000000	98.897715 
3098.000000	98.898394 
3097.000000	98.898964 
3096.000000	98.899379 
3095.000000	98.899421 
3094.000000	98.898918 
3093.000000	98.898012 
3092.000000	98.897120 
3091.000000	98.896575 
3090.000000	98.896390 
3089.000000	98.896451 
3088.000000	98.896733 
3087.000000	98.897225 
3086.000000	98.897808 
3085.000000	98.898401 
3084.000000	98.899049 
3083.000000	98.899600 
3082.000000	98.899506 
3081.000000	98.898393 
3080.000000	98.896905 
3079.000000	98.896498 
3078.000000	98.898153 
3077.000000	98.901407 
3076.000000	98.904776 
3075.000000	98.906975 
3074.000000	98.907678 
3073.000000	98.907410 
3072.000000	98.906915 
3071.000000	98.906376 
3070.000000	98.905073 
3069.000000	98.902072 
3068.000000	98.897573 
3067.000000	98.893500 
3066.000000	98.892379 
3065.000000	98.895347 
3064.000000	98.901023 
3063.000000	98.906147 
3062.000000	98.907573 
3061.000000	98.904264 
3060.000000	98.897972 
3059.000000	98.892043 
3058.000000	98.889233 
3057.000000	98.890318 
3056.000000	98.894227 
3055.000000	98.898943 
3054.000000	98.902368 
3053.000000	98.903051 
3052.000000	98.900708 
3051.000000	98.896099 
3050.000000	98.890503 
3049.000000	98.885454 
3048.000000	98.882452 
3047.000000	98.881859 
3046.000000	98.881825 
3045.000000	98.879401 
3044.000000	98.873612 
3043.000000	98.866922 
3042.000000	98.862831 
3041.000000	98.862187 
3040.000000	98.862486 
3039.000000	98.860488 
3038.000000	98.854688 
3037.000000	98.845540 
3036.000000	98.834529 
3035.000000	98.823432 
3034.000000	98.813649 
3033.000000	98.805280 
3032.000000	98.796930 
3031.000000	98.786906 
3030.000000	98.774691 
3029.000000	98.761281 
3028.000000	98.748434 
3027.000000	98.737525 
3026.000000	98.728519 
3025.000000	98.719701 
3024.000000	98.708722 
3023.000000	98.694351 
3022.000000	98.677318 
3021.000000	98.659375 
3020.000000	98.641548 
3019.000000	98.623409 
3018.000000	98.604084 
3017.000000	98.583726 
3016.000000	98.563615 
3015.000000	98.544750 
3014.000000	98.526820 
3013.000000	98.509027 
3012.000000	98.491516 
3011.000000	98.475237 
3010.000000	98.460340 
3009.000000	98.445545 
3008.000000	98.429406 
3007.000000	98.411684 
3006.000000	98.393167 
3005.000000	98.374586 
3004.000000	98.356004 
3003.000000	98.336845 
3002.000000	98.316282 
3001.000000	98.294125 
3000.000000	98.271620 
2999.000000	98.250844 
2998.000000	98.233072 
2997.000000	98.218287 
2996.000000	98.206173 
2995.000000	98.195925 
2994.000000	98.184144 
2993.000000	98.164703 
2992.000000	98.133530 
2991.000000	98.094170 
2990.000000	98.057144 
2989.000000	98.032763 
2988.000000	98.024842 
2987.000000	98.030515 
2986.000000	98.043834 
2985.000000	98.058927 
2984.000000	98.071240 
2983.000000	98.078033 
2982.000000	98.078842 
2981.000000	98.075452 
2980.000000	98.071058 
2979.000000	98.068664 
2978.000000	98.069246 
2977.000000	98.070951 
2976.000000	98.070470 
2975.000000	98.065861 
2974.000000	98.058325 
2973.000000	98.051420 
2972.000000	98.048707 
2971.000000	98.051833 
2970.000000	98.060151 
2969.000000	98.071739 
2968.000000	98.084926 
2967.000000	98.099047 
2966.000000	98.113939 
2965.000000	98.129182 
2964.000000	98.144231 
2963.000000	98.158893 
2962.000000	98.173009 
2961.000000	98.185839 
2960.000000	98.196472 
2959.000000	98.204966 
2958.000000	98.212508 
2957.000000	98.220266 
2956.000000	98.228503 
2955.000000	98.236915 
2954.000000	98.245458 
2953.000000	98.254668 
2952.000000	98.265391 
2951.000000	98.278068 
2950.000000	98.291893 
2949.000000	98.304707 
2948.000000	98.314192 
2947.000000	98.319290 
2946.000000	98.320704 
2945.000000	98.320560 
2944.000000	98.321600 
2943.000000	98.325735 
2942.000000	98.332392 
2941.000000	98.338558 
2940.000000	98.341560 
2939.000000	98.342004 
2938.000000	98.343123 
2937.000000	98.347201 
2936.000000	98.353552 
2935.000000	98.359935 
2934.000000	98.364659 
2933.000000	98.366926 
2932.000000	98.366445 
2931.000000	98.363697 
2930.000000	98.360149 
2929.000000	98.357407 
2928.000000	98.356003 
2927.000000	98.355000 
2926.000000	98.352590 
2925.000000	98.347349 
2924.000000	98.339643 
2923.000000	98.331852 
2922.000000	98.326523 
2921.000000	98.323992 
2920.000000	98.322314 
2919.000000	98.319456 
2918.000000	98.314899 
2917.000000	98.309078 
2916.000000	98.302254 
2915.000000	98.294433 
2914.000000	98.285827 
2913.000000	98.276955 
2912.000000	98.268687 
2911.000000	98.262316 
2910.000000	98.258894 
2909.000000	98.258079 
2908.000000	98.258077 
2907.000000	98.256984 
2906.000000	98.253538 
2905.000000	98.246456 
2904.000000	98.234571 
2903.000000	98.219080 
2902.000000	98.205790 
2901.000000	98.202427 
2900.000000	98.213011 
2899.000000	98.234327 
2898.000000	98.257508 
2897.000000	98.274096 
2896.000000	98.281344 
2895.000000	98.282621 
2894.000000	98.283597 
2893.000000	98.287953 
2892.000000	98.295846 
2891.000000	98.305106 
2890.000000	98.313177 
2889.000000	98.318428 
2888.000000	98.320810 
2887.000000	98.321957 
2886.000000	98.324309 
2885.000000	98.329577 
2884.000000	98.337956 
2883.000000	98.348774 
2882.000000	98.361540 
2881.000000	98.376097 
2880.000000	98.391954 
2879.000000	98.407882 
2878.000000	98.422345 
2877.000000	98.434449 
2876.000000	98.444580 
2875.000000	98.454045 
2874.000000	98.463838 
2873.000000	98.473699 
2872.000000	98.482512 
2871.000000	98.489583 
2870.000000	98.495426 
2869.000000	98.501569 
2868.000000	98.509895 
2867.000000	98.521748 
2866.000000	98.536871 
2865.000000	98.553125 
2864.000000	98.567956 
2863.000000	98.580483 
2862.000000	98.591826 
2861.000000	98.603467 
2860.000000	98.616013 
2859.000000	98.629555 
2858.000000	98.644082 
2857.000000	98.658882 
2856.000000	98.672395 
2855.000000	98.683432 
2854.000000	98.692337 
2853.000000	98.700553 
2852.000000	98.709231 
2851.000000	98.718705 
2850.000000	98.728916 
2849.000000	98.739436 
2848.000000	98.749220 
2847.000000	98.757166 
2846.000000	98.763111 
2845.000000	98.767806 
2844.000000	98.771848 
2843.000000	98.775209 
2842.000000	98.778046 
2841.000000	98.781487 
2840.000000	98.787044 
2839.000000	98.795172 
2838.000000	98.804558 
2837.000000	98.812914 
2836.000000	98.818596 
2835.000000	98.821684 
2834.000000	98.823682 
2833.000000	98.826185 
2832.000000	98.829641 
2831.000000	98.833203 
2830.000000	98.835645 
2829.000000	98.836489 
2828.000000	98.836483 
2827.000000	98.837048 
2826.000000	98.839210 
2825.000000	98.842940 
2824.000000	98.847433 
2823.000000	98.851741 
2822.000000	98.855069 
2821.000000	98.856915 
2820.000000	98.857462 
2819.000000	98.857756 
2818.000000	98.858988 
2817.000000	98.861493 
2816.000000	98.864700 
2815.000000	98.867936 
2814.000000	98.870763 
2813.000000	98.872611 
2812.000000	98.872971 
2811.000000	98.872413 
2810.000000	98.872742 
2809.000000	98.875314 
2808.000000	98.879344 
2807.000000	98.882513 
2806.000000	98.883268 
2805.000000	98.882073 
2804.000000	98.880529 
2803.000000	98.879880 
2802.000000	98.880488 
2801.000000	98.882160 
2800.000000	98.884374 
2799.000000	98.886361 
2798.000000	98.887461 
2797.000000	98.887524 
2796.000000	98.886918 
2795.000000	98.886222 
2794.000000	98.886006 
2793.000000	98.886675 
2792.000000	98.888146 
2791.000000	98.889804 
2790.000000	98.891106 
2789.000000	98.892215 
2788.000000	98.893739 
2787.000000	98.895842 
2786.000000	98.897913 
2785.000000	98.899193 
2784.000000	98.899542 
2783.000000	98.899434 
2782.000000	98.899452 
2781.000000	98.899897 
2780.000000	98.900787 
2779.000000	98.901985 
2778.000000	98.903270 
2777.000000	98.904451 
2776.000000	98.905487 
2775.000000	98.906432 
2774.000000	98.907286 
2773.000000	98.907992 
2772.000000	98.908567 
2771.000000	98.909148 
2770.000000	98.909855 
2769.000000	98.910685 
2768.000000	98.911545 
2767.000000	98.912361 
2766.000000	98.913101 
2765.000000	98.913761 
2764.000000	98.914332 
2763.000000	98.914815 
2762.000000	98.915233 
2761.000000	98.915635 
2760.000000	98.916093 
2759.000000	98.916661 
2758.000000	98.917335 
2757.000000	98.918073 
2756.000000	98.918817 
2755.000000	98.919520 
2754.000000	98.920146 
2753.000000	98.920695 
2752.000000	98.921207 
2751.000000	98.921755 
2750.000000	98.922380 
2749.000000	98.923072 
2748.000000	98.923782 
2747.000000	98.924457 
2746.000000	98.925081 
2745.000000	98.925668 
2744.000000	98.926241 
2743.000000	98.926812 
2742.000000	98.927389 
2741.000000	98.927987 
2740.000000	98.928628 
2739.000000	98.929311 
2738.000000	98.930005 
2737.000000	98.930671 
2736.000000	98.931312 
2735.000000	98.931953 
2734.000000	98.932601 
2733.000000	98.933233 
2732.000000	98.933835 
2731.000000	98.934429 
2730.000000	98.935043 
2729.000000	98.935680 
2728.000000	98.936327 
2727.000000	98.936989 
2726.000000	98.937677 
2725.000000	98.938376 
2724.000000	98.939053 
2723.000000	98.939710 
2722.000000	98.940387 
2721.000000	98.941115 
2720.000000	98.941889 
2719.000000	98.942663 
2718.000000	98.943378 
2717.000000	98.944007 
2716.000000	98.944577 
2715.000000	98.945157 
2714.000000	98.945800 
2713.000000	98.946503 
2712.000000	98.947228 
2711.000000	98.947924 
2710.000000	98.948549 
2709.000000	98.949098 
2708.000000	98.949605 
2707.000000	98.950099 
2706.000000	98.950542 
2705.000000	98.950880 
2704.000000	98.951166 
2703.000000	98.951570 
2702.000000	98.952179 
2701.000000	98.952888 
2700.000000	98.953491 
2699.000000	98.953914 
2698.000000	98.954262 
2697.000000	98.954673 
2696.000000	98.955162 
2695.000000	98.955649 
2694.000000	98.956074 
2693.000000	98.956440 
2692.000000	98.956791 
2691.000000	98.957156 
2690.000000	98.957507 
2689.000000	98.957789 
2688.000000	98.958013 
2687.000000	98.958284 
2686.000000	98.958677 
2685.000000	98.959144 
2684.000000	98.959598 
2683.000000	98.960017 
2682.000000	98.960419 
2681.000000	98.960764 
2680.000000	98.960987 
2679.000000	98.961104 
2678.000000	98.961235 
2677.000000	98.961483 
2676.000000	98.961869 
2675.000000	98.962377 
2674.000000	98.962964 
2673.000000	98.963536 
2672.000000	98.963994 
2671.000000	98.964323 
2670.000000	98.964592 
2669.000000	98.964864 
2668.000000	98.965133 
2667.000000	98.965394 
2666.000000	98.965689 
2665.000000	98.966058 
2664.000000	98.966490 
2663.000000	98.966939 
2662.000000	98.967368 
2661.000000	98.967773 
2660.000000	98.968169 
2659.000000	98.968568 
2658.000000	98.968960 
2657.000000	98.969323 
2656.000000	98.969660 
2655.000000	98.970004 
2654.000000	98.970377 
2653.000000	98.970748 
2652.000000	98.971080 
2651.000000	98.971405 
2650.000000	98.971789 
2649.000000	98.972232 
2648.000000	98.972638 
2647.000000	98.972929 
2646.000000	98.973143 
2645.000000	98.973409 
2644.000000	98.973797 
2643.000000	98.974247 
2642.000000	98.974611 
2641.000000	98.974804 
2640.000000	98.974863 
2639.000000	98.974913 
2638.000000	98.975050 
2637.000000	98.975260 
2636.000000	98.975464 
2635.000000	98.975617 
2634.000000	98.975747 
2633.000000	98.975916 
2632.000000	98.976167 
2631.000000	98.976516 
2630.000000	98.976942 
2629.000000	98.977350 
2628.000000	98.977629 
2627.000000	98.977751 
2626.000000	98.977812 
2625.000000	98.977943 
2624.000000	98.978167 
2623.000000	98.978401 
2622.000000	98.978579 
2621.000000	98.978694 
2620.000000	98.978753 
2619.000000	98.978756 
2618.000000	98.978762 
2617.000000	98.978880 
2616.000000	98.979163 
2615.000000	98.979548 
2614.000000	98.979930 
2613.000000	98.980252 
2612.000000	98.980512 
2611.000000	98.980733 
2610.000000	98.980930 
2609.000000	98.981099 
2608.000000	98.981224 
2607.000000	98.981311 
2606.000000	98.981408 
2605.000000	98.981559 
2604.000000	98.981779 
2603.000000	98.982069 
2602.000000	98.982396 
2601.000000	98.982667 
2600.000000	98.982849 
2599.000000	98.983044 
2598.000000	98.983318 
2597.000000	98.983464 
2596.000000	98.983198 
2595.000000	98.982640 
2594.000000	98.982327 
2593.000000	98.982566 
2592.000000	98.983099 
2591.000000	98.983469 
2590.000000	98.983617 
2589.000000	98.983832 
2588.000000	98.984193 
2587.000000	98.984411 
2586.000000	98.984312 
2585.000000	98.984137 
2584.000000	98.984189 
2583.000000	98.984425 
2582.000000	98.984514 
2581.000000	98.984186 
2580.000000	98.983463 
2579.000000	98.982673 
2578.000000	98.982174 
2577.000000	98.982021 
2576.000000	98.981978 
2575.000000	98.981846 
2574.000000	98.981673 
2573.000000	98.981600 
2572.000000	98.981628 
2571.000000	98.981640 
2570.000000	98.981557 
2569.000000	98.981393 
2568.000000	98.981205 
2567.000000	98.981042 
2566.000000	98.980920 
2565.000000	98.980806 
2564.000000	98.980655 
2563.000000	98.980476 
2562.000000	98.980317 
2561.000000	98.980172 
2560.000000	98.979954 
2559.000000	98.979593 
2558.000000	98.979108 
2557.000000	98.978575 
2556.000000	98.978088 
2555.000000	98.977731 
2554.000000	98.977555 
2553.000000	98.977496 
2552.000000	98.977380 
2551.000000	98.977100 
2550.000000	98.976726 
2549.000000	98.976349 
2548.000000	98.975876 
2547.000000	98.975142 
2546.000000	98.974169 
2545.000000	98.973267 
2544.000000	98.972771 
2543.000000	98.972776 
2542.000000	98.973014 
2541.000000	98.972982 
2540.000000	98.972387 
2539.000000	98.971405 
2538.000000	98.970516 
2537.000000	98.969946 
2536.000000	98.969500 
2535.000000	98.968996 
2534.000000	98.968573 
2533.000000	98.968356 
2532.000000	98.968104 
2531.000000	98.967478 
2530.000000	98.966594 
2529.000000	98.965955 
2528.000000	98.965829 
2527.000000	98.965957 
2526.000000	98.965948 
2525.000000	98.965798 
2524.000000	98.965871 
2523.000000	98.966435 
2522.000000	98.967304 
2521.000000	98.967920 
2520.000000	98.967773 
2519.000000	98.966730 
2518.000000	98.965043 
2517.000000	98.963165 
2516.000000	98.961575 
2515.000000	98.960630 
2514.000000	98.960411 
2513.000000	98.960704 
2512.000000	98.961262 
2511.000000	98.962046 
2510.000000	98.963069 
2509.000000	98.964147 
2508.000000	98.965050 
2507.000000	98.965816 
2506.000000	98.966585 
2505.000000	98.967143 
2504.000000	98.966979 
2503.000000	98.965885 
2502.000000	98.964262 
2501.000000	98.962855 
2500.000000	98.962281 
2499.000000	98.962822 
2498.000000	98.964356 
2497.000000	98.966208 
2496.000000	98.967447 
2495.000000	98.967659 
2494.000000	98.967190 
2493.000000	98.966694 
2492.000000	98.966506 
2491.000000	98.966604 
2490.000000	98.966956 
2489.000000	98.967596 
2488.000000	98.968478 
2487.000000	98.969470 
2486.000000	98.970412 
2485.000000	98.971005 
2484.000000	98.970854 
2483.000000	98.969864 
2482.000000	98.968496 
2481.000000	98.967420 
2480.000000	98.966937 
2479.000000	98.966888 
2478.000000	98.966984 
2477.000000	98.967034 
2476.000000	98.966998 
2475.000000	98.967062 
2474.000000	98.967543 
2473.000000	98.968497 
2472.000000	98.969507 
2471.000000	98.970072 
2470.000000	98.970132 
2469.000000	98.970004 
2468.000000	98.969891 
2467.000000	98.969713 
2466.000000	98.969401 
2465.000000	98.969036 
2464.000000	98.968678 
2463.000000	98.968353 
2462.000000	98.968198 
2461.000000	98.968355 
2460.000000	98.968622 
2459.000000	98.968482 
2458.000000	98.967622 
2457.000000	98.966281 
2456.000000	98.965026 
2455.000000	98.964244 
2454.000000	98.963974 
2453.000000	98.964073 
2452.000000	98.964354 
2451.000000	98.964634 
2450.000000	98.964687 
2449.000000	98.964252 
2448.000000	98.963242 
2447.000000	98.961977 
2446.000000	98.961073 
2445.000000	98.960914 
2444.000000	98.961311 
2443.000000	98.961712 
2442.000000	98.961694 
2441.000000	98.961222 
2440.000000	98.960556 
2439.000000	98.960073 
2438.000000	98.960051 
2437.000000	98.960458 
2436.000000	98.960932 
2435.000000	98.961112 
2434.000000	98.960989 
2433.000000	98.960882 
2432.000000	98.961103 
2431.000000	98.961679 
2430.000000	98.962285 
2429.000000	98.962432 
2428.000000	98.961822 
2427.000000	98.960617 
2426.000000	98.959405 
2425.000000	98.958730 
2424.000000	98.958688 
2423.000000	98.959036 
2422.000000	98.959555 
2421.000000	98.960165 
2420.000000	98.960661 
2419.000000	98.960594 
2418.000000	98.959674 
2417.000000	98.958149 
2416.000000	98.956687 
2415.000000	98.955780 
2414.000000	98.955393 
2413.000000	98.955211 
2412.000000	98.955068 
2411.000000	98.955037 
2410.000000	98.955164 
2409.000000	98.955311 
2408.000000	98.955289 
2407.000000	98.955045 
2406.000000	98.954693 
2405.000000	98.954437 
2404.000000	98.954462 
2403.000000	98.954791 
2402.000000	98.955215 
2401.000000	98.955426 
2400.000000	98.955289 
2399.000000	98.954913 
2398.000000	98.954480 
2397.000000	98.954092 
2396.000000	98.953816 
2395.000000	98.953732 
2394.000000	98.953824 
2393.000000	98.953922 
2392.000000	98.953883 
2391.000000	98.953777 
2390.000000	98.953772 
2389.000000	98.953911 
2388.000000	98.954119 
2387.000000	98.954357 
2386.000000	98.954630 
2385.000000	98.954884 
2384.000000	98.955038 
2383.000000	98.955115 
2382.000000	98.955230 
2381.000000	98.955445 
2380.000000	98.955700 
2379.000000	98.955942 
2378.000000	98.956201 
2377.000000	98.956527 
2376.000000	98.956926 
2375.000000	98.957375 
2374.000000	98.957839 
2373.000000	98.958293 
2372.000000	98.958727 
2371.000000	98.959151 
2370.000000	98.959586 
2369.000000	98.960051 
2368.000000	98.960550 
2367.000000	98.961080 
2366.000000	98.961639 
2365.000000	98.962224 
2364.000000	98.962826 
2363.000000	98.963437 
2362.000000	98.964049 
2361.000000	98.964657 
2360.000000	98.965258 
2359.000000	98.965868 
2358.000000	98.966504 
2357.000000	98.967172 
2356.000000	98.967865 
2355.000000	98.968579 
2354.000000	98.969303 
2353.000000	98.970020 
2352.000000	98.970721 
2351.000000	98.971413 
2350.000000	98.972099 
2349.000000	98.972769 
2348.000000	98.973414 
2347.000000	98.974030 
2346.000000	98.974630 
2345.000000	98.975234 
2344.000000	98.975854 
2343.000000	98.976485 
2342.000000	98.977111 
2341.000000	98.977712 
2340.000000	98.978288 
2339.000000	98.978877 
2338.000000	98.979520 
2337.000000	98.980206 
2336.000000	98.980841 
2335.000000	98.981352 
2334.000000	98.981762 
2333.000000	98.982167 
2332.000000	98.982634 
2331.000000	98.983137 
2330.000000	98.983610 
2329.000000	98.984039 
2328.000000	98.984515 
2327.000000	98.985123 
2326.000000	98.985850 
2325.000000	98.986551 
2324.000000	98.987055 
2323.000000	98.987350 
2322.000000	98.987624 
2321.000000	98.988045 
2320.000000	98.988455 
2319.000000	98.988554 
2318.000000	98.988299 
2317.000000	98.987953 
2316.000000	98.987787 
2315.000000	98.987817 
2314.000000	98.987937 
2313.000000	98.988107 
2312.000000	98.988363 
2311.000000	98.988649 
2310.000000	98.988792 
2309.000000	98.988679 
2308.000000	98.988389 
2307.000000	98.988133 
2306.000000	98.988076 
2305.000000	98.988223 
2304.000000	98.988464 
2303.000000	98.988700 
2302.000000	98.988898 
2301.000000	98.989053 
2300.000000	98.989170 
2299.000000	98.989281 
2298.000000	98.989409 
2297.000000	98.989434 
2296.000000	98.989129 
2295.000000	98.988455 
2294.000000	98.987806 
2293.000000	98.987707 
2292.000000	98.988310 
2291.000000	98.989201 
2290.000000	98.989758 
2289.000000	98.989726 
2288.000000	98.989290 
2287.000000	98.988759 
2286.000000	98.988227 
2285.000000	98.987563 
2284.000000	98.986633 
2283.000000	98.985546 
2282.000000	98.984714 
2281.000000	98.984541 
2280.000000	98.984985 
2279.000000	98.985591 
2278.000000	98.985938 
2277.000000	98.986008 
2276.000000	98.986074 
2275.000000	98.986339 
2274.000000	98.986760 
2273.000000	98.987147 
2272.000000	98.987309 
2271.000000	98.987231 
2270.000000	98.987143 
2269.000000	98.987287 
2268.000000	98.987656 
2267.000000	98.988082 
2266.000000	98.988520 
2265.000000	98.989018 
2264.000000	98.989404 
2263.000000	98.989290 
2262.000000	98.988531 
2261.000000	98.987539 
2260.000000	98.987016 
2259.000000	98.987351 
2258.000000	98.988311 
2257.000000	98.989365 
2256.000000	98.990135 
2255.000000	98.990637 
2254.000000	98.991126 
2253.000000	98.991799 
2252.000000	98.992645 
2251.000000	98.993496 
2250.000000	98.994168 
2249.000000	98.994583 
2248.000000	98.994804 
2247.000000	98.994965 
2246.000000	98.995120 
2245.000000	98.995265 
2244.000000	98.995450 
2243.000000	98.995767 
2242.000000	98.996233 
2241.000000	98.996761 
2240.000000	98.997257 
2239.000000	98.997702 
2238.000000	98.998098 
2237.000000	98.998425 
2236.000000	98.998687 
2235.000000	98.998933 
2234.000000	98.999181 
2233.000000	98.999435 
2232.000000	98.999706 
2231.000000	98.999991 
2230.000000	99.000284 
2229.000000	99.000580 
2228.000000	99.000882 
2227.000000	99.001195 
2226.000000	99.001522 
2225.000000	99.001866 
2224.000000	99.002223 
2223.000000	99.002589 
2222.000000	99.002957 
2221.000000	99.003320 
2220.000000	99.003677 
2219.000000	99.004036 
2218.000000	99.004416 
2217.000000	99.004832 
2216.000000	99.005288 
2215.000000	99.005768 
2214.000000	99.006254 
2213.000000	99.006737 
2212.000000	99.007229 
2211.000000	99.007749 
2210.000000	99.008319 
2209.000000	99.008945 
2208.000000	99.009621 
2207.000000	99.010327 
2206.000000	99.011046 
2205.000000	99.011776 
2204.000000	99.012533 
2203.000000	99.013343 
2202.000000	99.014211 
2201.000000	99.015117 
2200.000000	99.016021 
2199.000000	99.016887 
2198.000000	99.017703 
2197.000000	99.018481 
2196.000000	99.019214 
2195.000000	99.019943 
2194.000000	99.020754 
2193.000000	99.021666 
2192.000000	99.022581 
2191.000000	99.023366 
2190.000000	99.024015 
2189.000000	99.024777 
2188.000000	99.025970 
2187.000000	99.027482 
2186.000000	99.028575 
2185.000000	99.028570 
2184.000000	99.027648 
2183.000000	99.026786 
2182.000000	99.026644 
2181.000000	99.026961 
2180.000000	99.027186 
2179.000000	99.027325 
2178.000000	99.027784 
2177.000000	99.028724 
2176.000000	99.029972 
2175.000000	99.031212 
2174.000000	99.031883 
2173.000000	99.031494 
2172.000000	99.030750 
2171.000000	99.031746 
2170.000000	99.035974 
2169.000000	99.042088 
2168.000000	99.046507 
2167.000000	99.046915 
2166.000000	99.043978 
2165.000000	99.040109 
2164.000000	99.037335 
2163.000000	99.036597 
2162.000000	99.037815 
2161.000000	99.039383 
2160.000000	99.038652 
2159.000000	99.034277 
2158.000000	99.027584 
2157.000000	99.021002 
2156.000000	99.015869 
2155.000000	99.012481 
2154.000000	99.011149 
2153.000000	99.011991 
2152.000000	99.014039 
2151.000000	99.015503 
2150.000000	99.015194 
2149.000000	99.013535 
2148.000000	99.012246 
2147.000000	99.012752 
2146.000000	99.014587 
2145.000000	99.015532 
2144.000000	99.013900 
2143.000000	99.010303 
2142.000000	99.006755 
2141.000000	99.004253 
2140.000000	99.002190 
2139.000000	99.000099 
2138.000000	98.998679 
2137.000000	98.998587 
2136.000000	98.999114 
2135.000000	98.998890 
2134.000000	98.997642 
2133.000000	98.996503 
2132.000000	98.996557 
2131.000000	98.997506 
2130.000000	98.997901 
2129.000000	98.996600 
2128.000000	98.993968 
2127.000000	98.991616 
2126.000000	98.990790 
2125.000000	98.991404 
2124.000000	98.992600 
2123.000000	98.993751 
2122.000000	98.994705 
2121.000000	98.995319 
2120.000000	98.995416 
2119.000000	98.995134 
2118.000000	98.994902 
2117.000000	98.995030 
2116.000000	98.995509 
2115.000000	98.996139 
2114.000000	98.996735 
2113.000000	98.997198 
2112.000000	98.997500 
2111.000000	98.997695 
2110.000000	98.997910 
2109.000000	98.998267 
2108.000000	98.998761 
2107.000000	98.999225 
2106.000000	98.999466 
2105.000000	98.999447 
2104.000000	98.999399 
2103.000000	98.999667 
2102.000000	99.000357 
2101.000000	99.001184 
2100.000000	99.001742 
2099.000000	99.001942 
2098.000000	99.002098 
2097.000000	99.002574 
2096.000000	99.003422 
2095.000000	99.004443 
2094.000000	99.005445 
2093.000000	99.006359 
2092.000000	99.007191 
2091.000000	99.008034 
2090.000000	99.009102 
2089.000000	99.010550 
2088.000000	99.012155 
2087.000000	99.013301 
2086.000000	99.013447 
2085.000000	99.012713 
2084.000000	99.012059 
2083.000000	99.012681 
2082.000000	99.015078 
2081.000000	99.018517 
2080.000000	99.021556 
2079.000000	99.023482 
2078.000000	99.025041 
2077.000000	99.027542 
2076.000000	99.031182 
2075.000000	99.034473 
2074.000000	99.035483 
2073.000000	99.033585 
2072.000000	99.030124 
2071.000000	99.027323 
2070.000000	99.026444 
2069.000000	99.027058 
2068.000000	99.028025 
2067.000000	99.028882 
2066.000000	99.029916 
2065.000000	99.031407 
2064.000000	99.033617 
2063.000000	99.037045 
2062.000000	99.041472 
2061.000000	99.044962 
2060.000000	99.045410 
2059.000000	99.043464 
2058.000000	99.042606 
2057.000000	99.045362 
2056.000000	99.050605 
2055.000000	99.055303 
2054.000000	99.058256 
2053.000000	99.060824 
2052.000000	99.064510 
2051.000000	99.069196 
2050.000000	99.073708 
2049.000000	99.077026 
2048.000000	99.078688 
2047.000000	99.078781 
2046.000000	99.077986 
2045.000000	99.077181 
2044.000000	99.076607 
2043.000000	99.075808 
2042.000000	99.074723 
2041.000000	99.074387 
2040.000000	99.075965 
2039.000000	99.079221 
2038.000000	99.082369 
2037.000000	99.083674 
2036.000000	99.083024 
2035.000000	99.081470 
2034.000000	99.079523 
2033.000000	99.077039 
2032.000000	99.074897 
2031.000000	99.075241 
2030.000000	99.079017 
2029.000000	99.083937 
2028.000000	99.086275 
2027.000000	99.084768 
2026.000000	99.081183 
2025.000000	99.077849 
2024.000000	99.075576 
2023.000000	99.074292 
2022.000000	99.074137 
2021.000000	99.074987 
2020.000000	99.075889 
2019.000000	99.075866 
2018.000000	99.074790 
2017.000000	99.073047 
2016.000000	99.071020 
2015.000000	99.069343 
2014.000000	99.068752 
2013.000000	99.069027 
2012.000000	99.069038 
2011.000000	99.068474 
2010.000000	99.068625 
2009.000000	99.070661 
2008.000000	99.073938 
2007.000000	99.076945 
2006.000000	99.079197 
2005.000000	99.080946 
2004.000000	99.081485 
2003.000000	99.079190 
2002.000000	99.073435 
2001.000000	99.065842 
2000.000000	99.059337 
1999.000000	99.055723 
1998.000000	99.054416 
1997.000000	99.053436 
1996.000000	99.051993 
1995.000000	99.051739 
1994.000000	99.054624 
1993.000000	99.059991 
1992.000000	99.064554 
1991.000000	99.065708 
1990.000000	99.063723 
1989.000000	99.060461 
1988.000000	99.057662 
1987.000000	99.056832 
1986.000000	99.059105 
1985.000000	99.063927 
1984.000000	99.068541 
1983.000000	99.070331 
1982.000000	99.069092 
1981.000000	99.066417 
1980.000000	99.063796 
1979.000000	99.062001 
1978.000000	99.061473 
1977.000000	99.061832 
1976.000000	99.061470 
1975.000000	99.059096 
1974.000000	99.055499 
1973.000000	99.052866 
1972.000000	99.052522 
1971.000000	99.054092 
1970.000000	99.056539 
1969.000000	99.059197 
1968.000000	99.061826 
1967.000000	99.064225 
1966.000000	99.065982 
1965.000000	99.066556 
1964.000000	99.065691 
1963.000000	99.063625 
1962.000000	99.060527 
1961.000000	99.056147 
1960.000000	99.050591 
1959.000000	99.044976 
1958.000000	99.040524 
1957.000000	99.037408 
1956.000000	99.035222 
1955.000000	99.033905 
1954.000000	99.033170 
1953.000000	99.031618 
1952.000000	99.027999 
1951.000000	99.023342 
1950.000000	99.020385 
1949.000000	99.020428 
1948.000000	99.021925 
1947.000000	99.022522 
1946.000000	99.021275 
1945.000000	99.018248 
1944.000000	99.013609 
1943.000000	99.008214 
1942.000000	99.003872 
1941.000000	99.001605 
1940.000000	99.000609 
1939.000000	98.999677 
1938.000000	98.998651 
1937.000000	98.998035 
1936.000000	98.997971 
1935.000000	98.998070 
1934.000000	98.997844 
1933.000000	98.996949 
1932.000000	98.995413 
1931.000000	98.993932 
1930.000000	98.993438 
1929.000000	98.994021 
1928.000000	98.994693 
1927.000000	98.994425 
1926.000000	98.993057 
1925.000000	98.991058 
1924.000000	98.989022 
1923.000000	98.987496 
1922.000000	98.986774 
1921.000000	98.986683 
1920.000000	98.986743 
1919.000000	98.986519 
1918.000000	98.985919 
1917.000000	98.985124 
1916.000000	98.984368 
1915.000000	98.983780 
1914.000000	98.983386 
1913.000000	98.983130 
1912.000000	98.982884 
1911.000000	98.982537 
1910.000000	98.982077 
1909.000000	98.981566 
1908.000000	98.981058 
1907.000000	98.980573 
1906.000000	98.980127 
1905.000000	98.979715 
1904.000000	98.979273 
1903.000000	98.978699 
1902.000000	98.977951 
1901.000000	98.977103 
1900.000000	98.976314 
1899.000000	98.975704 
1898.000000	98.975298 
1897.000000	98.975005 
1896.000000	98.974689 
1895.000000	98.974324 
1894.000000	98.974039 
1893.000000	98.973949 
1892.000000	98.973937 
1891.000000	98.973701 
1890.000000	98.973071 
1889.000000	98.972285 
1888.000000	98.971800 
1887.000000	98.971853 
1886.000000	98.972294 
1885.000000	98.972685 
1884.000000	98.972601 
1883.000000	98.971955 
1882.000000	98.971039 
1881.000000	98.970223 
1880.000000	98.969760 
1879.000000	98.969784 
1878.000000	98.970126 
1877.000000	98.970166 
1876.000000	98.969408 
1875.000000	98.968446 
1874.000000	98.968704 
1873.000000	98.970698 
1872.000000	98.973000 
1871.000000	98.973508 
1870.000000	98.971556 
1869.000000	98.968436 
1868.000000	98.965629 
1867.000000	98.963199 
1866.000000	98.960697 
1865.000000	98.958300 
1864.000000	98.956828 
1863.000000	98.957431 
1862.000000	98.960867 
1861.000000	98.966400 
1860.000000	98.971642 
1859.000000	98.974708 
1858.000000	98.976181 
1857.000000	98.977879 
1856.000000	98.980363 
1855.000000	98.982704 
1854.000000	98.984052 
1853.000000	98.984338 
1852.000000	98.983765 
1851.000000	98.982453 
1850.000000	98.980873 
1849.000000	98.979909 
1848.000000	98.979990 
1847.000000	98.980707 
1846.000000	98.981409 
1845.000000	98.981517 
1844.000000	98.980417 
1843.000000	98.978303 
1842.000000	98.976574 
1841.000000	98.976487 
1840.000000	98.978134 
1839.000000	98.980668 
1838.000000	98.983119 
1837.000000	98.985110 
1836.000000	98.986908 
1835.000000	98.988968 
1834.000000	98.991268 
1833.000000	98.993296 
1832.000000	98.994609 
1831.000000	98.995033 
1830.000000	98.994835 
1829.000000	98.994697 
1828.000000	98.995105 
1827.000000	98.995745 
1826.000000	98.995917 
1825.000000	98.995617 
1824.000000	98.995579 
1823.000000	98.996179 
1822.000000	98.996857 
1821.000000	98.996584 
1820.000000	98.994850 
1819.000000	98.992371 
1818.000000	98.990741 
1817.000000	98.990947 
1816.000000	98.992412 
1815.000000	98.993879 
1814.000000	98.994943 
1813.000000	98.996187 
1812.000000	98.998199 
1811.000000	99.000869 
1810.000000	99.003670 
1809.000000	99.006084 
1808.000000	99.007539 
1807.000000	99.007594 
1806.000000	99.006502 
1805.000000	99.005227 
1804.000000	99.004660 
1803.000000	99.004936 
1802.000000	99.005755 
1801.000000	99.006943 
1800.000000	99.008267 
1799.000000	99.009306 
1798.000000	99.009892 
1797.000000	99.010229 
1796.000000	99.010638 
1795.000000	99.011311 
1794.000000	99.012161 
1793.000000	99.012866 
1792.000000	99.013261 
1791.000000	99.013588 
1790.000000	99.014143 
1789.000000	99.014965 
1788.000000	99.015951 
1787.000000	99.017000 
1786.000000	99.018016 
1785.000000	99.018866 
1784.000000	99.019466 
1783.000000	99.019949 
1782.000000	99.020604 
1781.000000	99.021575 
1780.000000	99.022678 
1779.000000	99.023604 
1778.000000	99.024334 
1777.000000	99.025100 
1776.000000	99.026070 
1775.000000	99.027253 
1774.000000	99.028599 
1773.000000	99.029995 
1772.000000	99.031204 
1771.000000	99.032062 
1770.000000	99.032664 
1769.000000	99.033194 
1768.000000	99.033748 
1767.000000	99.034325 
1766.000000	99.034919 
1765.000000	99.035579 
1764.000000	99.036339 
1763.000000	99.037170 
1762.000000	99.038049 
1761.000000	99.039004 
1760.000000	99.040018 
1759.000000	99.040987 
1758.000000	99.041826 
1757.000000	99.042582 
1756.000000	99.043359 
1755.000000	99.044127 
1754.000000	99.044734 
1753.000000	99.045099 
1752.000000	99.045421 
1751.000000	99.046162 
1750.000000	99.047508 
1749.000000	99.049033 
1748.000000	99.050185 
1747.000000	99.050754 
1746.000000	99.050828 
1745.000000	99.050691 
1744.000000	99.050709 
1743.000000	99.051053 
1742.000000	99.051589 
1741.000000	99.052078 
1740.000000	99.052402 
1739.000000	99.052616 
1738.000000	99.052832 
1737.000000	99.053041 
1736.000000	99.053100 
1735.000000	99.052862 
1734.000000	99.052312 
1733.000000	99.051761 
1732.000000	99.051581 
1731.000000	99.051769 
1730.000000	99.052104 
1729.000000	99.052358 
1728.000000	99.052442 
1727.000000	99.052408 
1726.000000	99.052318 
1725.000000	99.052180 
1724.000000	99.052001 
1723.000000	99.051860 
1722.000000	99.051837 
1721.000000	99.051906 
1720.000000	99.051936 
1719.000000	99.051763 
1718.000000	99.051306 
1717.000000	99.050642 
1716.000000	99.049938 
1715.000000	99.049303 
1714.000000	99.048752 
1713.000000	99.048247 
1712.000000	99.047744 
1711.000000	99.047223 
1710.000000	99.046683 
1709.000000	99.046121 
1708.000000	99.045535 
1707.000000	99.044934 
1706.000000	99.044322 
1705.000000	99.043699 
1704.000000	99.043061 
1703.000000	99.042400 
1702.000000	99.041717 
1701.000000	99.041023 
1700.000000	99.040335 
1699.000000	99.039657 
1698.000000	99.038984 
1697.000000	99.038310 
1696.000000	99.037624 
1695.000000	99.036922 
1694.000000	99.036204 
1693.000000	99.035467 
1692.000000	99.034710 
1691.000000	99.033931 
1690.000000	99.033128 
1689.000000	99.032298 
1688.000000	99.031439 
1687.000000	99.030551 
1686.000000	99.029621 
1685.000000	99.028650 
1684.000000	99.027691 
1683.000000	99.026781 
1682.000000	99.025887 
1681.000000	99.024954 
1680.000000	99.024004 
1679.000000	99.023118 
1678.000000	99.022283 
1677.000000	99.021378 
1676.000000	99.020356 
1675.000000	99.019364 
1674.000000	99.018513 
1673.000000	99.017749 
1672.000000	99.016973 
1671.000000	99.016319 
1670.000000	99.015946 
1669.000000	99.015544 
1668.000000	99.014952 
1667.000000	99.014393 
1666.000000	99.013615 
1665.000000	99.012028 
1664.000000	99.009769 
1663.000000	99.008119 
1662.000000	99.008081 
1661.000000	99.009057 
1660.000000	99.009849 
1659.000000	99.010294 
1658.000000	99.011203 
1657.000000	99.012255 
1656.000000	99.011712 
1655.000000	99.008132 
1654.000000	99.003822 
1653.000000	99.000979 
1652.000000	98.998684 
1651.000000	98.997965 
1650.000000	98.997565 
1649.000000	98.995335 
1648.000000	98.991933 
1647.000000	98.988576 
1646.000000	98.985987 
1645.000000	98.985098 
1644.000000	98.986596 
1643.000000	98.989317 
1642.000000	98.991353 
1641.000000	98.991965 
1640.000000	98.991603 
1639.000000	98.990942 
1638.000000	98.990257 
1637.000000	98.989986 
1636.000000	98.990061 
1635.000000	98.989685 
1634.000000	98.989868 
1633.000000	98.991349 
1632.000000	98.992922 
1631.000000	98.993823 
1630.000000	98.994248 
1629.000000	98.994503 
1628.000000	98.994755 
1627.000000	98.995212 
1626.000000	98.996058 
1625.000000	98.997427 
1624.000000	98.999510 
1623.000000	99.002179 
1622.000000	99.004845 
1621.000000	99.006971 
1620.000000	99.008004 
1619.000000	99.007715 
1618.000000	99.007161 
1617.000000	99.007732 
1616.000000	99.009518 
1615.000000	99.011685 
1614.000000	99.012918 
1613.000000	99.012286 
1612.000000	99.010703 
1611.000000	99.009662 
1610.000000	99.009179 
1609.000000	99.008316 
1608.000000	99.007118 
1607.000000	99.006552 
1606.000000	99.007022 
1605.000000	99.008553 
1604.000000	99.011457 
1603.000000	99.015617 
1602.000000	99.019709 
1601.000000	99.022183 
1600.000000	99.023114 
1599.000000	99.024066 
1598.000000	99.026152 
1597.000000	99.029169 
1596.000000	99.032482 
1595.000000	99.035861 
1594.000000	99.039070 
1593.000000	99.041431 
1592.000000	99.042560 
1591.000000	99.043070 
1590.000000	99.043994 
1589.000000	99.045787 
1588.000000	99.048347 
1587.000000	99.051532 
1586.000000	99.054717 
1585.000000	99.056686 
1584.000000	99.056838 
1583.000000	99.055902 
1582.000000	99.055436 
1581.000000	99.056384 
1580.000000	99.058309 
1579.000000	99.060162 
1578.000000	99.061590 
1577.000000	99.062933 
1576.000000	99.063998 
1575.000000	99.064972 
1574.000000	99.066694 
1573.000000	99.068504 
1572.000000	99.069274 
1571.000000	99.069560 
1570.000000	99.070858 
1569.000000	99.073456 
1568.000000	99.076283 
1567.000000	99.078167 
1566.000000	99.078669 
1565.000000	99.078398 
1564.000000	99.078656 
1563.000000	99.079537 
1562.000000	99.080352 
1561.000000	99.080267 
1560.000000	99.080386 
1559.000000	99.080801 
1558.000000	99.079387 
1557.000000	99.078490 
1556.000000	99.079283 
1555.000000	99.079884 
1554.000000	99.079370 
1553.000000	99.078263 
1552.000000	99.077415 
1551.000000	99.077211 
1550.000000	99.077828 
1549.000000	99.078969 
1548.000000	99.079728 
1547.000000	99.079361 
1546.000000	99.077655 
1545.000000	99.075208 
1544.000000	99.073023 
1543.000000	99.071530 
1542.000000	99.070783 
1541.000000	99.070714 
1540.000000	99.069919 
1539.000000	99.067708 
1538.000000	99.065802 
1537.000000	99.064958 
1536.000000	99.064344 
1535.000000	99.063505 
1534.000000	99.062746 
1533.000000	99.062206 
1532.000000	99.061281 
1531.000000	99.059554 
1530.000000	99.057422 
1529.000000	99.055514 
1528.000000	99.054028 
1527.000000	99.052836 
1526.000000	99.051888 
1525.000000	99.051161 
1524.000000	99.050400 
1523.000000	99.049403 
1522.000000	99.048565 
1521.000000	99.048081 
1520.000000	99.047095 
1519.000000	99.044836 
1518.000000	99.041540 
1517.000000	99.038293 
1516.000000	99.035964 
1515.000000	99.034410 
1514.000000	99.033116 
1513.000000	99.031724 
1512.000000	99.030068 
1511.000000	99.028049 
1510.000000	99.025736 
1509.000000	99.023361 
1508.000000	99.022210 
1507.000000	99.023292 
1506.000000	99.023432 
1505.000000	99.020741 
1504.000000	99.017728 
1503.000000	99.015624 
1502.000000	99.014244 
1501.000000	99.013728 
1500.000000	99.013992 
1499.000000	99.014734 
1498.000000	99.015479 
1497.000000	99.016175 
1496.000000	99.016304 
1495.000000	99.014844 
1494.000000	99.011454 
1493.000000	99.006626 
1492.000000	99.001099 
1491.000000	98.995857 
1490.000000	98.991609 
1489.000000	98.987866 
1488.000000	98.983279 
1487.000000	98.978085 
1486.000000	98.974248 
1485.000000	98.972391 
1484.000000	98.971499 
1483.000000	98.970540 
1482.000000	98.968974 
1481.000000	98.966496 
1480.000000	98.963022 
1479.000000	98.959170 
1478.000000	98.956072 
1477.000000	98.954386 
1476.000000	98.953432 
1475.000000	98.951463 
1474.000000	98.947809 
1473.000000	98.944254 
1472.000000	98.942351 
1471.000000	98.941269 
1470.000000	98.940199 
1469.000000	98.939496 
1468.000000	98.939309 
1467.000000	98.939147 
1466.000000	98.938661 
1465.000000	98.937897 
1464.000000	98.936645 
1463.000000	98.934875 
1462.000000	98.933457 
1461.000000	98.933076 
1460.000000	98.932903 
1459.000000	98.930709 
1458.000000	98.924121 
1457.000000	98.913339 
1456.000000	98.902010 
1455.000000	98.893261 
1454.000000	98.887565 
1453.000000	98.884518 
1452.000000	98.882783 
1451.000000	98.880641 
1450.000000	98.878269 
1449.000000	98.878393 
1448.000000	98.882469 
1447.000000	98.888025 
1446.000000	98.892054 
1445.000000	98.894671 
1444.000000	98.896521 
1443.000000	98.896282 
1442.000000	98.893138 
1441.000000	98.888911 
1440.000000	98.886244 
1439.000000	98.885852 
1438.000000	98.886120 
1437.000000	98.884905 
1436.000000	98.881129 
1435.000000	98.874943 
1434.000000	98.868062 
1433.000000	98.862890 
1432.000000	98.860490 
1431.000000	98.860256 
1430.000000	98.860384 
1429.000000	98.859327 
1428.000000	98.856411 
1427.000000	98.851349 
1426.000000	98.844154 
1425.000000	98.835765 
1424.000000	98.828513 
1423.000000	98.823357 
1422.000000	98.818070 
1421.000000	98.810161 
1420.000000	98.799557 
1419.000000	98.788216 
1418.000000	98.776903 
1417.000000	98.764929 
1416.000000	98.752695 
1415.000000	98.740734 
1414.000000	98.728022 
1413.000000	98.713398 
1412.000000	98.698069 
1411.000000	98.685009 
1410.000000	98.675498 
1409.000000	98.668922 
1408.000000	98.665014 
1407.000000	98.663889 
1406.000000	98.664997 
1405.000000	98.668439 
1404.000000	98.675751 
1403.000000	98.686483 
1402.000000	98.697162 
1401.000000	98.705326 
1400.000000	98.711780 
1399.000000	98.717540 
1398.000000	98.718773 
1397.000000	98.708933 
1396.000000	98.687292 
1395.000000	98.664806 
1394.000000	98.657216 
1393.000000	98.670007 
1392.000000	98.696160 
1391.000000	98.724443 
1390.000000	98.746342 
1389.000000	98.758321 
1388.000000	98.761217 
1387.000000	98.758729 
1386.000000	98.754877 
1385.000000	98.752203 
1384.000000	98.751762 
1383.000000	98.753401 
1382.000000	98.756367 
1381.000000	98.760568 
1380.000000	98.766659 
1379.000000	98.774953 
1378.000000	98.784634 
1377.000000	98.794459 
1376.000000	98.804226 
1375.000000	98.815041 
1374.000000	98.827594 
1373.000000	98.840548 
1372.000000	98.851952 
1371.000000	98.862014 
1370.000000	98.872765 
1369.000000	98.885152 
1368.000000	98.898247 
1367.000000	98.910432 
1366.000000	98.920806 
1365.000000	98.929473 
1364.000000	98.936802 
1363.000000	98.943585 
1362.000000	98.951049 
1361.000000	98.959385 
1360.000000	98.967502 
1359.000000	98.974937 
1358.000000	98.982678 
1357.000000	98.991625 
1356.000000	99.000951 
1355.000000	99.008889 
1354.000000	99.015007 
1353.000000	99.020614 
1352.000000	99.025849 
1351.000000	99.029012 
1350.000000	99.030112 
1349.000000	99.031230 
1348.000000	99.033934 
1347.000000	99.038372 
1346.000000	99.044386 
1345.000000	99.051332 
1344.000000	99.057223 
1343.000000	99.060095 
1342.000000	99.060245 
1341.000000	99.059689 
1340.000000	99.059634 
1339.000000	99.059860 
1338.000000	99.060300 
1337.000000	99.061785 
1336.000000	99.064600 
1335.000000	99.067677 
1334.000000	99.070298 
1333.000000	99.073211 
1332.000000	99.076927 
1331.000000	99.080369 
1330.000000	99.082066 
1329.000000	99.081739 
1328.000000	99.080168 
1327.000000	99.078425 
1326.000000	99.077419 
1325.000000	99.077252 
1324.000000	99.077776 
1323.000000	99.079087 
1322.000000	99.081085 
1321.000000	99.082809 
1320.000000	99.082989 
1319.000000	99.081499 
1318.000000	99.079663 
1317.000000	99.078702 
1316.000000	99.078269 
1315.000000	99.077237 
1314.000000	99.075522 
1313.000000	99.074411 
1312.000000	99.074834 
1311.000000	99.076265 
1310.000000	99.077776 
1309.000000	99.079320 
1308.000000	99.081098 
1307.000000	99.082331 
1306.000000	99.081851 
1305.000000	99.079701 
1304.000000	99.077823 
1303.000000	99.078300 
1302.000000	99.081357 
1301.000000	99.085235 
1300.000000	99.087674 
1299.000000	99.087303 
1298.000000	99.084196 
1297.000000	99.079840 
1296.000000	99.076381 
1295.000000	99.075522 
1294.000000	99.077569 
1293.000000	99.081361 
1292.000000	99.084943 
1291.000000	99.086520 
1290.000000	99.085621 
1289.000000	99.083684 
1288.000000	99.082877 
1287.000000	99.083758 
1286.000000	99.084546 
1285.000000	99.083329 
1284.000000	99.080369 
1283.000000	99.077583 
1282.000000	99.075981 
1281.000000	99.074813 
1280.000000	99.073516 
1279.000000	99.072783 
1278.000000	99.072941 
1277.000000	99.072714 
1276.000000	99.070616 
1275.000000	99.067047 
1274.000000	99.063936 
1273.000000	99.062512 
1272.000000	99.062218 
1271.000000	99.061609 
1270.000000	99.059576 
1269.000000	99.055891 
1268.000000	99.051335 
1267.000000	99.047139 
1266.000000	99.043582 
1265.000000	99.039489 
1264.000000	99.033686 
1263.000000	99.026524 
1262.000000	99.019348 
1261.000000	99.012935 
1260.000000	99.007408 
1259.000000	99.003171 
1258.000000	99.000574 
1257.000000	98.998977 
1256.000000	98.997346 
1255.000000	98.995697 
1254.000000	98.994724 
1253.000000	98.994037 
1252.000000	98.992338 
1251.000000	98.989835 
1250.000000	98.988940 
1249.000000	98.991776 
1248.000000	98.998205 
1247.000000	99.006595 
1246.000000	99.014517 
1245.000000	99.018019 
1244.000000	99.013084 
1243.000000	99.000844 
1242.000000	98.990136 
1241.000000	98.990959 
1240.000000	99.004611 
1239.000000	99.022074 
1238.000000	99.032789 
1237.000000	99.033379 
1236.000000	99.027216 
1235.000000	99.018606 
1234.000000	99.009530 
1233.000000	99.000548 
1232.000000	98.992100 
1231.000000	98.984349 
1230.000000	98.977062 
1229.000000	98.970308 
1228.000000	98.964850 
1227.000000	98.961752 
1226.000000	98.961670 
1225.000000	98.963974 
1224.000000	98.966120 
1223.000000	98.964656 
1222.000000	98.957998 
1221.000000	98.948123 
1220.000000	98.938862 
1219.000000	98.932492 
1218.000000	98.928193 
1217.000000	98.923372 
1216.000000	98.915729 
1215.000000	98.904449 
1214.000000	98.890585 
1213.000000	98.876422 
1212.000000	98.863360 
1211.000000	98.849988 
1210.000000	98.833286 
1209.000000	98.812225 
1208.000000	98.789222 
1207.000000	98.767388 
1206.000000	98.747315 
1205.000000	98.727615 
1204.000000	98.707625 
1203.000000	98.687732 
1202.000000	98.667276 
1201.000000	98.644219 
1200.000000	98.617780 
1199.000000	98.590100 
1198.000000	98.564168 
1197.000000	98.540725 
1196.000000	98.517936 
1195.000000	98.493644 
1194.000000	98.467276 
1193.000000	98.439652 
1192.000000	98.411691 
1191.000000	98.383535 
1190.000000	98.354757 
1189.000000	98.325399 
1188.000000	98.296437 
1187.000000	98.268558 
1186.000000	98.240552 
1185.000000	98.209870 
1184.000000	98.175041 
1183.000000	98.136916 
1182.000000	98.097522 
1181.000000	98.058505 
1180.000000	98.020716 
1179.000000	97.984092 
1178.000000	97.947237 
1177.000000	97.908086 
1176.000000	97.865857 
1175.000000	97.821861 
1174.000000	97.778051 
1173.000000	97.735411 
1172.000000	97.694076 
1171.000000	97.653904 
1170.000000	97.614229 
1169.000000	97.574124 
1168.000000	97.533760 
1167.000000	97.494917 
1166.000000	97.459903 
1165.000000	97.431202 
1164.000000	97.412455 
1163.000000	97.407697 
1162.000000	97.417883 
1161.000000	97.438602 
1160.000000	97.462065 
1159.000000	97.481146 
1158.000000	97.491474 
1157.000000	97.490971 
1156.000000	97.478799 
1155.000000	97.455147 
1154.000000	97.421767 
1153.000000	97.382314 
1152.000000	97.341393 
1151.000000	97.302345 
1150.000000	97.265821 
1149.000000	97.230986 
1148.000000	97.197494 
1147.000000	97.165083 
1146.000000	97.131924 
1145.000000	97.095660 
1144.000000	97.056553 
1143.000000	97.017912 
1142.000000	96.982518 
1141.000000	96.949746 
1140.000000	96.916692 
1139.000000	96.880925 
1138.000000	96.841962 
1137.000000	96.801494 
1136.000000	96.762360 
1135.000000	96.725839 
1134.000000	96.689795 
1133.000000	96.651045 
1132.000000	96.609366 
1131.000000	96.567161 
1130.000000	96.525317 
1129.000000	96.481916 
1128.000000	96.435514 
1127.000000	96.387230 
1126.000000	96.338947 
1125.000000	96.291698 
1124.000000	96.246280 
1123.000000	96.202928 
1122.000000	96.159642 
1121.000000	96.113517 
1120.000000	96.064528 
1119.000000	96.015340 
1118.000000	95.966729 
1117.000000	95.916469 
1116.000000	95.863832 
1115.000000	95.811675 
1114.000000	95.762317 
1113.000000	95.714434 
1112.000000	95.666089 
1111.000000	95.617981 
1110.000000	95.571365 
1109.000000	95.525292 
1108.000000	95.478049 
1107.000000	95.429345 
1106.000000	95.379696 
1105.000000	95.329572 
1104.000000	95.280031 
1103.000000	95.232449 
1102.000000	95.186767 
1101.000000	95.142021 
1100.000000	95.098515 
1099.000000	95.056909 
1098.000000	95.016239 
1097.000000	94.974660 
1096.000000	94.932366 
1095.000000	94.890229 
1094.000000	94.845693 
1093.000000	94.793944 
1092.000000	94.734055 
1091.000000	94.670373 
1090.000000	94.606665 
1089.000000	94.542273 
1088.000000	94.475659 
1087.000000	94.408435 
1086.000000	94.343776 
1085.000000	94.283261 
1084.000000	94.226696 
1083.000000	94.172560 
1082.000000	94.117643 
1081.000000	94.059263 
1080.000000	93.999040 
1079.000000	93.941653 
1078.000000	93.889062 
1077.000000	93.839277 
1076.000000	93.791515 
1075.000000	93.748146 
1074.000000	93.710032 
1073.000000	93.673837 
1072.000000	93.634601 
1071.000000	93.585820 
1070.000000	93.516733 
1069.000000	93.418100 
1068.000000	93.295950 
1067.000000	93.174950 
1066.000000	93.080817 
1065.000000	93.019759 
1064.000000	92.977849 
1063.000000	92.935223 
1062.000000	92.876571 
1061.000000	92.793605 
1060.000000	92.687307 
1059.000000	92.570119 
1058.000000	92.460264 
1057.000000	92.369305 
1056.000000	92.294720 
1055.000000	92.223657 
1054.000000	92.143569 
1053.000000	92.051738 
1052.000000	91.956242 
1051.000000	91.866534 
1050.000000	91.783224 
1049.000000	91.699732 
1048.000000	91.612531 
1047.000000	91.524305 
1046.000000	91.437476 
1045.000000	91.350926 
1044.000000	91.264308 
1043.000000	91.180395 
1042.000000	91.101049 
1041.000000	91.024506 
1040.000000	90.948654 
1039.000000	90.874697 
1038.000000	90.806937 
1037.000000	90.751077 
1036.000000	90.711825 
1035.000000	90.688558 
1034.000000	90.673655 
1033.000000	90.657731 
1032.000000	90.634603 
1031.000000	90.599254 
1030.000000	90.547782 
1029.000000	90.486984 
1028.000000	90.438858 
1027.000000	90.424230 
1026.000000	90.441394 
1025.000000	90.468217 
1024.000000	90.484892 
1023.000000	90.486805 
1022.000000	90.477138 
1021.000000	90.459087 
1020.000000	90.437646 
1019.000000	90.418798 
1018.000000	90.402535 
1017.000000	90.383454 
1016.000000	90.360787 
1015.000000	90.341044 
1014.000000	90.328550 
1013.000000	90.320163 
1012.000000	90.311456 
1011.000000	90.301697 
1010.000000	90.291207 
1009.000000	90.280647 
1008.000000	90.274488 
1007.000000	90.278432 
1006.000000	90.291541 
1005.000000	90.306933 
1004.000000	90.321187 
1003.000000	90.336625 
1002.000000	90.353995 
1001.000000	90.370647 
1000.000000	90.387148 
999.000000	 90.407857 
998.000000	 90.432972 
997.000000	 90.457386 
996.000000	 90.479613 
995.000000	 90.504796 
994.000000	 90.536338 
993.000000	 90.570985 
992.000000	 90.604487 
991.000000	 90.636327 
990.000000	 90.667159 
989.000000	 90.697593 
988.000000	 90.730919 
987.000000	 90.770798 
986.000000	 90.815075 
985.000000	 90.858480 
984.000000	 90.902365 
983.000000	 90.954523 
982.000000	 91.018242 
981.000000	 91.088395 
980.000000	 91.159702 
979.000000	 91.232422 
978.000000	 91.307948 
977.000000	 91.385811 
976.000000	 91.467576 
975.000000	 91.557093 
974.000000	 91.653989 
973.000000	 91.752360 
972.000000	 91.848291 
971.000000	 91.943578 
970.000000	 92.040375 
969.000000	 92.137762 
968.000000	 92.235556 
967.000000	 92.336016 
966.000000	 92.439193 
965.000000	 92.541077 
964.000000	 92.638504 
963.000000	 92.732080 
962.000000	 92.822961 
961.000000	 92.910870 
960.000000	 92.996515 
959.000000	 93.081774 
958.000000	 93.166108 
957.000000	 93.246655 
956.000000	 93.323086 
955.000000	 93.398669 
954.000000	 93.475319 
953.000000	 93.550783 
952.000000	 93.621487 
951.000000	 93.685192 
950.000000	 93.741010 
949.000000	 93.790414 
948.000000	 93.838223 
947.000000	 93.888726 
946.000000	 93.940498 
945.000000	 93.988546 
944.000000	 94.031105 
943.000000	 94.070278 
942.000000	 94.106663 
941.000000	 94.138387 
940.000000	 94.165879 
939.000000	 94.192868 
938.000000	 94.221529 
937.000000	 94.250588 
936.000000	 94.278959 
935.000000	 94.307155 
934.000000	 94.334604 
933.000000	 94.359911 
932.000000	 94.384728 
931.000000	 94.413326 
930.000000	 94.447230 
929.000000	 94.483731 
928.000000	 94.520136 
927.000000	 94.555772 
926.000000	 94.589615 
925.000000	 94.619922 
924.000000	 94.646619 
923.000000	 94.670317 
922.000000	 94.689067 
921.000000	 94.700376 
920.000000	 94.706622 
919.000000	 94.713977 
918.000000	 94.725229 
917.000000	 94.737862 
916.000000	 94.749749 
915.000000	 94.762299 
914.000000	 94.777258 
913.000000	 94.795107 
912.000000	 94.817999 
911.000000	 94.849714 
910.000000	 94.890727 
909.000000	 94.937153 
908.000000	 94.986136 
907.000000	 95.038844 
906.000000	 95.097052 
905.000000	 95.160284 
904.000000	 95.227463 
903.000000	 95.298696 
902.000000	 95.374880 
901.000000	 95.457692 
900.000000	 95.549268 
899.000000	 95.648718 
898.000000	 95.749499 
897.000000	 95.843649 
896.000000	 95.928136 
895.000000	 96.004866 
894.000000	 96.076787 
893.000000	 96.147587 
892.000000	 96.222689 
891.000000	 96.305133 
890.000000	 96.391030 
889.000000	 96.473575 
888.000000	 96.550523 
887.000000	 96.623007 
886.000000	 96.688529 
885.000000	 96.741878 
884.000000	 96.784047 
883.000000	 96.824421 
882.000000	 96.871413 
881.000000	 96.925012 
880.000000	 96.981122 
879.000000	 97.039051 
878.000000	 97.100936 
877.000000	 97.165849 
876.000000	 97.227764 
875.000000	 97.279605 
874.000000	 97.319325 
873.000000	 97.353412 
872.000000	 97.393956 
871.000000	 97.449364 
870.000000	 97.516623 
869.000000	 97.584131 
868.000000	 97.642994 
867.000000	 97.694917 
866.000000	 97.749583 
865.000000	 97.815292 
864.000000	 97.891583 
863.000000	 97.969804 
862.000000	 98.041263 
861.000000	 98.105136 
860.000000	 98.167228 
859.000000	 98.231546 
858.000000	 98.296238 
857.000000	 98.358461 
856.000000	 98.418748 
855.000000	 98.477664 
854.000000	 98.531896 
853.000000	 98.577910 
852.000000	 98.617314 
851.000000	 98.654563 
850.000000	 98.690802 
849.000000	 98.723986 
848.000000	 98.754118 
847.000000	 98.784232 
846.000000	 98.816137 
845.000000	 98.848483 
844.000000	 98.879037 
843.000000	 98.905722 
842.000000	 98.925306 
841.000000	 98.934500 
840.000000	 98.933780 
839.000000	 98.928192 
838.000000	 98.922815 
837.000000	 98.917852 
836.000000	 98.909006 
835.000000	 98.892892 
834.000000	 98.872224 
833.000000	 98.854741 
832.000000	 98.845143 
831.000000	 98.838754 
830.000000	 98.827463 
829.000000	 98.813766 
828.000000	 98.813290 
827.000000	 98.837237 
826.000000	 98.875542 
825.000000	 98.906047 
824.000000	 98.920047 
823.000000	 98.929828 
822.000000	 98.949643 
821.000000	 98.978132 
820.000000	 99.003208 
819.000000	 99.016901 
818.000000	 99.020698 
817.000000	 99.019984 
816.000000	 99.016814 
815.000000	 99.007397 
814.000000	 98.985147 
813.000000	 98.946221 
812.000000	 98.891793 
811.000000	 98.824347 
810.000000	 98.742711 
809.000000	 98.642325 
808.000000	 98.519478 
807.000000	 98.372963 
806.000000	 98.202506 
805.000000	 98.009590 
804.000000	 97.801886 
803.000000	 97.594460 
802.000000	 97.403831 
801.000000	 97.241328 
800.000000	 97.112097 
799.000000	 97.017020 
798.000000	 96.954039 
797.000000	 96.920415 
796.000000	 96.914553 
795.000000	 96.933515 
794.000000	 96.970004 
793.000000	 97.015084 
792.000000	 97.061946 
791.000000	 97.103239 
790.000000	 97.128309 
789.000000	 97.130044 
788.000000	 97.113408 
787.000000	 97.090524 
786.000000	 97.066580 
785.000000	 97.035700 
784.000000	 96.991253 
783.000000	 96.934654 
782.000000	 96.872671 
781.000000	 96.811601 
780.000000	 96.756892 
779.000000	 96.714538 
778.000000	 96.690097 
777.000000	 96.688435 
776.000000	 96.713893 
775.000000	 96.766069 
774.000000	 96.835169 
773.000000	 96.906693 
772.000000	 96.972085 
771.000000	 97.031198 
770.000000	 97.084741 
769.000000	 97.129570 
768.000000	 97.162742 
767.000000	 97.186192 
766.000000	 97.205402 
765.000000	 97.225128 
764.000000	 97.246459 
763.000000	 97.265858 
762.000000	 97.277942 
761.000000	 97.282219 
760.000000	 97.286326 
759.000000	 97.299519 
758.000000	 97.323574 
757.000000	 97.352929 
756.000000	 97.382247 
755.000000	 97.410466 
754.000000	 97.439202 
753.000000	 97.471179 
752.000000	 97.508828 
751.000000	 97.550297 
750.000000	 97.588252 
749.000000	 97.616621 
748.000000	 97.637394 
747.000000	 97.657843 
746.000000	 97.683471 
745.000000	 97.716758 
744.000000	 97.758387 
743.000000	 97.804227 
742.000000	 97.845420 
741.000000	 97.878606 
740.000000	 97.912831 
739.000000	 97.959180 
738.000000	 98.016429 
737.000000	 98.074274 
736.000000	 98.128081 
735.000000	 98.181911 
734.000000	 98.238479 
733.000000	 98.295006 
732.000000	 98.348466 
731.000000	 98.396132 
730.000000	 98.431261 
729.000000	 98.447522 
728.000000	 98.448540 
727.000000	 98.445932 
726.000000	 98.447513 
725.000000	 98.454070 
724.000000	 98.467488 
723.000000	 98.492741 
722.000000	 98.529279 
721.000000	 98.568240 
720.000000	 98.601562 
719.000000	 98.628420 
718.000000	 98.651000 
717.000000	 98.670332 
716.000000	 98.688799 
715.000000	 98.709863 
714.000000	 98.732340 
713.000000	 98.751290 
712.000000	 98.766877 
711.000000	 98.785660 
710.000000	 98.809931 
709.000000	 98.831914 
708.000000	 98.842162 
707.000000	 98.839004 
706.000000	 98.827505 
705.000000	 98.813128 
704.000000	 98.798681 
703.000000	 98.783478 
702.000000	 98.761401 
701.000000	 98.723146 
700.000000	 98.663138 
699.000000	 98.581315 
698.000000	 98.479879 
697.000000	 98.364315 
696.000000	 98.249232 
695.000000	 98.157352 
694.000000	 98.107433 
693.000000	 98.106128 
692.000000	 98.149580 
691.000000	 98.223733 
690.000000	 98.305151 
689.000000	 98.372138 
688.000000	 98.420105 
687.000000	 98.460376 
686.000000	 98.500921 
685.000000	 98.538224 
684.000000	 98.569372 
683.000000	 98.598790 
682.000000	 98.629980 
681.000000	 98.661493 
680.000000	 98.694522 
679.000000	 98.732787 
678.000000	 98.769779 
677.000000	 98.790799 
676.000000	 98.794066 
675.000000	 98.795833 
674.000000	 98.811048 
673.000000	 98.836060 
672.000000	 98.853749 
671.000000	 98.851641 
670.000000	 98.831026 
669.000000	 98.811054 
668.000000	 98.825182 
667.000000	 98.879037 
666.000000	 98.943990 
665.000000	 99.004103 
664.000000	 99.049539 
663.000000	 99.073320 
662.000000	 99.077351 
661.000000	 99.076498 
660.000000	 99.087263 
659.000000	 99.110223 
658.000000	 99.127439 
657.000000	 99.122383 
656.000000	 99.098155 
655.000000	 99.072982 
654.000000	 99.063418 
653.000000	 99.069301 
652.000000	 99.074729 
651.000000	 99.067115 
650.000000	 99.054646 

