4000.000000	99.349618 
3999.000000	99.349506 
3998.000000	99.349406 
3997.000000	99.349207 
3996.000000	99.348796 
3995.000000	99.348166 
3994.000000	99.347513 
3993.000000	99.347149 
3992.000000	99.347225 
3991.000000	99.347548 
3990.000000	99.347714 
3989.000000	99.347518 
3988.000000	99.347156 
3987.000000	99.347024 
3986.000000	99.347341 
3985.000000	99.347949 
3984.000000	99.348395 
3983.000000	99.348242 
3982.000000	99.347362 
3981.000000	99.345988 
3980.000000	99.344486 
3979.000000	99.343081 
3978.000000	99.341881 
3977.000000	99.341069 
3976.000000	99.340867 
3975.000000	99.341284 
3974.000000	99.342031 
3973.000000	99.342687 
3972.000000	99.342946 
3971.000000	99.342744 
3970.000000	99.342176 
3969.000000	99.341403 
3968.000000	99.340614 
3967.000000	99.339930 
3966.000000	99.339389 
3965.000000	99.338995 
3964.000000	99.338715 
3963.000000	99.338421 
3962.000000	99.337933 
3961.000000	99.337184 
3960.000000	99.336313 
3959.000000	99.335585 
3958.000000	99.335184 
3957.000000	99.335081 
3956.000000	99.335097 
3955.000000	99.335038 
3954.000000	99.334828 
3953.000000	99.334498 
3952.000000	99.334108 
3951.000000	99.333718 
3950.000000	99.333412 
3949.000000	99.333309 
3948.000000	99.333424 
3947.000000	99.333550 
3946.000000	99.333435 
3945.000000	99.333050 
3944.000000	99.332608 
3943.000000	99.332276 
3942.000000	99.332021 
3941.000000	99.331730 
3940.000000	99.331302 
3939.000000	99.330595 
3938.000000	99.329467 
3937.000000	99.327982 
3936.000000	99.326575 
3935.000000	99.325836 
3934.000000	99.326161 
3933.000000	99.327521 
3932.000000	99.329363 
3931.000000	99.330752 
3930.000000	99.330919 
3929.000000	99.329865 
3928.000000	99.328398 
3927.000000	99.327495 
3926.000000	99.327547 
3925.000000	99.328118 
3924.000000	99.328476 
3923.000000	99.328338 
3922.000000	99.327928 
3921.000000	99.327595 
3920.000000	99.327508 
3919.000000	99.327679 
3918.000000	99.328114 
3917.000000	99.328840 
3916.000000	99.329834 
3915.000000	99.330928 
3914.000000	99.331863 
3913.000000	99.332404 
3912.000000	99.332450 
3911.000000	99.332153 
3910.000000	99.331800 
3909.000000	99.331606 
3908.000000	99.331598 
3907.000000	99.331397 
3906.000000	99.330346 
3905.000000	99.327889 
3904.000000	99.324139 
3903.000000	99.320276 
3902.000000	99.317862 
3901.000000	99.317651 
3900.000000	99.319268 
3899.000000	99.321555 
3898.000000	99.323479 
3897.000000	99.324638 
3896.000000	99.324970 
3895.000000	99.324560 
3894.000000	99.323669 
3893.000000	99.322688 
3892.000000	99.321870 
3891.000000	99.321160 
3890.000000	99.320516 
3889.000000	99.320036 
3888.000000	99.319837 
3887.000000	99.319902 
3886.000000	99.320043 
3885.000000	99.320076 
3884.000000	99.320018 
3883.000000	99.320009 
3882.000000	99.320166 
3881.000000	99.320477 
3880.000000	99.320757 
3879.000000	99.320794 
3878.000000	99.320664 
3877.000000	99.320689 
3876.000000	99.321098 
3875.000000	99.321667 
3874.000000	99.321833 
3873.000000	99.321314 
3872.000000	99.320403 
3871.000000	99.319684 
3870.000000	99.319498 
3869.000000	99.319822 
3868.000000	99.320429 
3867.000000	99.321065 
3866.000000	99.321596 
3865.000000	99.322020 
3864.000000	99.322362 
3863.000000	99.322603 
3862.000000	99.322716 
3861.000000	99.322817 
3860.000000	99.323092 
3859.000000	99.323531 
3858.000000	99.323883 
3857.000000	99.323884 
3856.000000	99.323515 
3855.000000	99.323066 
3854.000000	99.322818 
3853.000000	99.322876 
3852.000000	99.323415 
3851.000000	99.324489 
3850.000000	99.325793 
3849.000000	99.326981 
3848.000000	99.327860 
3847.000000	99.328359 
3846.000000	99.328460 
3845.000000	99.328274 
3844.000000	99.328105 
3843.000000	99.328247 
3842.000000	99.328709 
3841.000000	99.329275 
3840.000000	99.329719 
3839.000000	99.329985 
3838.000000	99.330183 
3837.000000	99.330381 
3836.000000	99.330560 
3835.000000	99.330737 
3834.000000	99.331054 
3833.000000	99.331693 
3832.000000	99.332630 
3831.000000	99.333545 
3830.000000	99.334063 
3829.000000	99.334059 
3828.000000	99.333707 
3827.000000	99.333289 
3826.000000	99.332930 
3825.000000	99.332615 
3824.000000	99.332393 
3823.000000	99.332488 
3822.000000	99.333049 
3821.000000	99.333786 
3820.000000	99.334308 
3819.000000	99.334563 
3818.000000	99.334659 
3817.000000	99.334686 
3816.000000	99.334611 
3815.000000	99.334335 
3814.000000	99.333889 
3813.000000	99.333440 
3812.000000	99.333196 
3811.000000	99.333328 
3810.000000	99.333831 
3809.000000	99.334505 
3808.000000	99.335074 
3807.000000	99.335345 
3806.000000	99.335292 
3805.000000	99.335007 
3804.000000	99.334594 
3803.000000	99.334279 
3802.000000	99.334189 
3801.000000	99.334094 
3800.000000	99.333802 
3799.000000	99.333327 
3798.000000	99.332748 
3797.000000	99.332220 
3796.000000	99.331852 
3795.000000	99.331594 
3794.000000	99.331293 
3793.000000	99.330849 
3792.000000	99.330294 
3791.000000	99.329787 
3790.000000	99.329468 
3789.000000	99.329376 
3788.000000	99.329478 
3787.000000	99.329631 
3786.000000	99.329568 
3785.000000	99.329061 
3784.000000	99.328176 
3783.000000	99.327308 
3782.000000	99.326887 
3781.000000	99.327127 
3780.000000	99.327921 
3779.000000	99.328829 
3778.000000	99.329301 
3777.000000	99.328951 
3776.000000	99.327712 
3775.000000	99.325887 
3774.000000	99.324087 
3773.000000	99.322917 
3772.000000	99.322653 
3771.000000	99.322977 
3770.000000	99.323069 
3769.000000	99.322424 
3768.000000	99.321377 
3767.000000	99.320533 
3766.000000	99.320080 
3765.000000	99.319680 
3764.000000	99.318973 
3763.000000	99.318006 
3762.000000	99.317179 
3761.000000	99.316937 
3760.000000	99.317339 
3759.000000	99.318103 
3758.000000	99.318873 
3757.000000	99.319564 
3756.000000	99.320458 
3755.000000	99.321661 
3754.000000	99.322908 
3753.000000	99.323945 
3752.000000	99.324815 
3751.000000	99.325366 
3750.000000	99.325141 
3749.000000	99.324277 
3748.000000	99.323298 
3747.000000	99.322287 
3746.000000	99.320992 
3745.000000	99.318359 
3744.000000	99.314284 
3743.000000	99.310979 
3742.000000	99.309491 
3741.000000	99.308085 
3740.000000	99.305087 
3739.000000	99.301014 
3738.000000	99.298012 
3737.000000	99.297367 
3736.000000	99.298184 
3735.000000	99.298083 
3734.000000	99.295646 
3733.000000	99.292070 
3732.000000	99.290146 
3731.000000	99.291646 
3730.000000	99.295612 
3729.000000	99.299418 
3728.000000	99.301265 
3727.000000	99.300979 
3726.000000	99.299344 
3725.000000	99.297394 
3724.000000	99.296183 
3723.000000	99.296564 
3722.000000	99.298625 
3721.000000	99.301485 
3720.000000	99.303261 
3719.000000	99.302410 
3718.000000	99.298996 
3717.000000	99.294182 
3716.000000	99.289142 
3715.000000	99.284332 
3714.000000	99.280058 
3713.000000	99.277150 
3712.000000	99.275929 
3711.000000	99.275443 
3710.000000	99.274281 
3709.000000	99.271524 
3708.000000	99.267032 
3707.000000	99.261242 
3706.000000	99.255161 
3705.000000	99.250042 
3704.000000	99.246550 
3703.000000	99.244024 
3702.000000	99.240513 
3701.000000	99.234479 
3700.000000	99.226268 
3699.000000	99.217460 
3698.000000	99.209404 
3697.000000	99.202545 
3696.000000	99.196881 
3695.000000	99.192643 
3694.000000	99.190003 
3693.000000	99.188413 
3692.000000	99.186298 
3691.000000	99.181677 
3690.000000	99.173539 
3689.000000	99.163317 
3688.000000	99.154372 
3687.000000	99.148802 
3686.000000	99.146291 
3685.000000	99.145956 
3684.000000	99.147491 
3683.000000	99.150657 
3682.000000	99.154098 
3681.000000	99.155060 
3680.000000	99.150916 
3679.000000	99.141124 
3678.000000	99.128610 
3677.000000	99.119197 
3676.000000	99.117010 
3675.000000	99.120112 
3674.000000	99.122911 
3673.000000	99.122219 
3672.000000	99.119324 
3671.000000	99.118722 
3670.000000	99.123010 
3669.000000	99.129845 
3668.000000	99.135651 
3667.000000	99.139358 
3666.000000	99.141943 
3665.000000	99.144152 
3664.000000	99.145386 
3663.000000	99.144872 
3662.000000	99.142891 
3661.000000	99.140529 
3660.000000	99.139103 
3659.000000	99.139875 
3658.000000	99.143923 
3657.000000	99.150755 
3656.000000	99.157605 
3655.000000	99.161976 
3654.000000	99.163704 
3653.000000	99.164216 
3652.000000	99.164724 
3651.000000	99.165336 
3650.000000	99.165509 
3649.000000	99.166004 
3648.000000	99.168970 
3647.000000	99.174792 
3646.000000	99.181575 
3645.000000	99.187853 
3644.000000	99.193946 
3643.000000	99.201079 
3642.000000	99.209950 
3641.000000	99.219942 
3640.000000	99.229648 
3639.000000	99.237571 
3638.000000	99.242867 
3637.000000	99.245840 
3636.000000	99.247545 
3635.000000	99.248523 
3634.000000	99.248109 
3633.000000	99.245818 
3632.000000	99.242943 
3631.000000	99.242251 
3630.000000	99.245510 
3629.000000	99.250389 
3628.000000	99.252817 
3627.000000	99.252690 
3626.000000	99.252704 
3625.000000	99.254535 
3624.000000	99.257987 
3623.000000	99.261839 
3622.000000	99.265119 
3621.000000	99.267823 
3620.000000	99.270113 
3619.000000	99.271380 
3618.000000	99.271134 
3617.000000	99.270305 
3616.000000	99.270743 
3615.000000	99.273474 
3614.000000	99.277357 
3613.000000	99.279952 
3612.000000	99.280104 
3611.000000	99.279038 
3610.000000	99.278764 
3609.000000	99.279791 
3608.000000	99.280891 
3607.000000	99.281160 
3606.000000	99.281291 
3605.000000	99.282454 
3604.000000	99.284880 
3603.000000	99.287803 
3602.000000	99.290379 
3601.000000	99.292332 
3600.000000	99.293635 
3599.000000	99.294069 
3598.000000	99.293528 
3597.000000	99.292423 
3596.000000	99.291616 
3595.000000	99.291763 
3594.000000	99.292754 
3593.000000	99.293979 
3592.000000	99.294838 
3591.000000	99.295024 
3590.000000	99.294662 
3589.000000	99.294263 
3588.000000	99.294328 
3587.000000	99.294783 
3586.000000	99.295197 
3585.000000	99.295529 
3584.000000	99.296263 
3583.000000	99.297738 
3582.000000	99.299646 
3581.000000	99.301161 
3580.000000	99.301685 
3579.000000	99.301321 
3578.000000	99.300652 
3577.000000	99.300255 
3576.000000	99.300401 
3575.000000	99.301127 
3574.000000	99.302247 
3573.000000	99.303333 
3572.000000	99.303942 
3571.000000	99.303906 
3570.000000	99.303349 
3569.000000	99.302556 
3568.000000	99.301913 
3567.000000	99.301801 
3566.000000	99.302408 
3565.000000	99.303684 
3564.000000	99.305535 
3563.000000	99.307998 
3562.000000	99.311012 
3561.000000	99.314032 
3560.000000	99.316143 
3559.000000	99.316740 
3558.000000	99.316060 
3557.000000	99.315022 
3556.000000	99.314498 
3555.000000	99.314681 
3554.000000	99.315093 
3553.000000	99.314996 
3552.000000	99.314031 
3551.000000	99.312578 
3550.000000	99.311343 
3549.000000	99.310705 
3548.000000	99.310640 
3547.000000	99.310997 
3546.000000	99.311626 
3545.000000	99.312129 
3544.000000	99.312070 
3543.000000	99.311670 
3542.000000	99.311904 
3541.000000	99.313492 
3540.000000	99.315986 
3539.000000	99.318034 
3538.000000	99.318790 
3537.000000	99.318794 
3536.000000	99.319346 
3535.000000	99.321055 
3534.000000	99.323295 
3533.000000	99.325075 
3532.000000	99.326071 
3531.000000	99.326623 
3530.000000	99.326839 
3529.000000	99.326201 
3528.000000	99.324314 
3527.000000	99.321771 
3526.000000	99.319815 
3525.000000	99.319180 
3524.000000	99.319591 
3523.000000	99.320327 
3522.000000	99.320984 
3521.000000	99.321551 
3520.000000	99.322111 
3519.000000	99.322719 
3518.000000	99.323509 
3517.000000	99.324550 
3516.000000	99.325565 
3515.000000	99.326027 
3514.000000	99.325586 
3513.000000	99.324396 
3512.000000	99.322985 
3511.000000	99.321839 
3510.000000	99.321113 
3509.000000	99.320720 
3508.000000	99.320617 
3507.000000	99.320938 
3506.000000	99.321775 
3505.000000	99.322811 
3504.000000	99.323384 
3503.000000	99.323107 
3502.000000	99.322416 
3501.000000	99.322253 
3500.000000	99.323131 
3499.000000	99.324738 
3498.000000	99.326279 
3497.000000	99.327157 
3496.000000	99.327297 
3495.000000	99.326972 
3494.000000	99.326555 
3493.000000	99.326374 
3492.000000	99.326620 
3491.000000	99.327293 
3490.000000	99.328292 
3489.000000	99.329555 
3488.000000	99.331019 
3487.000000	99.332467 
3486.000000	99.333553 
3485.000000	99.334072 
3484.000000	99.334140 
3483.000000	99.334085 
3482.000000	99.334173 
3481.000000	99.334481 
3480.000000	99.334988 
3479.000000	99.335606 
3478.000000	99.336122 
3477.000000	99.336300 
3476.000000	99.336189 
3475.000000	99.336275 
3474.000000	99.337097 
3473.000000	99.338666 
3472.000000	99.340342 
3471.000000	99.341428 
3470.000000	99.341885 
3469.000000	99.342288 
3468.000000	99.343077 
3467.000000	99.344010 
3466.000000	99.344553 
3465.000000	99.344619 
3464.000000	99.344673 
3463.000000	99.345135 
3462.000000	99.345914 
3461.000000	99.346669 
3460.000000	99.347335 
3459.000000	99.348181 
3458.000000	99.349347 
3457.000000	99.350471 
3456.000000	99.350930 
3455.000000	99.350406 
3454.000000	99.349181 
3453.000000	99.347955 
3452.000000	99.347266 
3451.000000	99.347190 
3450.000000	99.347525 
3449.000000	99.348091 
3448.000000	99.348759 
3447.000000	99.349333 
3446.000000	99.349621 
3445.000000	99.349684 
3444.000000	99.349828 
3443.000000	99.350185 
3442.000000	99.350401 
3441.000000	99.349965 
3440.000000	99.348826 
3439.000000	99.347536 
3438.000000	99.346684 
3437.000000	99.346285 
3436.000000	99.345920 
3435.000000	99.345381 
3434.000000	99.344992 
3433.000000	99.345227 
3432.000000	99.346152 
3431.000000	99.347340 
3430.000000	99.348286 
3429.000000	99.348872 
3428.000000	99.349338 
3427.000000	99.349820 
3426.000000	99.350022 
3425.000000	99.349456 
3424.000000	99.348039 
3423.000000	99.346350 
3422.000000	99.345185 
3421.000000	99.344840 
3420.000000	99.345020 
3419.000000	99.345384 
3418.000000	99.345945 
3417.000000	99.346824 
3416.000000	99.347833 
3415.000000	99.348506 
3414.000000	99.348501 
3413.000000	99.347896 
3412.000000	99.347137 
3411.000000	99.346720 
3410.000000	99.346815 
3409.000000	99.347134 
3408.000000	99.347153 
3407.000000	99.346543 
3406.000000	99.345426 
3405.000000	99.344271 
3404.000000	99.343539 
3403.000000	99.343406 
3402.000000	99.343740 
3401.000000	99.344297 
3400.000000	99.344932 
3399.000000	99.345632 
3398.000000	99.346362 
3397.000000	99.346946 
3396.000000	99.347151 
3395.000000	99.346864 
3394.000000	99.346147 
3393.000000	99.345155 
3392.000000	99.344089 
3391.000000	99.343249 
3390.000000	99.343045 
3389.000000	99.343814 
3388.000000	99.345559 
3387.000000	99.347834 
3386.000000	99.349948 
3385.000000	99.351374 
3384.000000	99.351940 
3383.000000	99.351684 
3382.000000	99.350653 
3381.000000	99.348999 
3380.000000	99.347201 
3379.000000	99.345974 
3378.000000	99.345746 
3377.000000	99.346293 
3376.000000	99.346921 
3375.000000	99.347076 
3374.000000	99.346757 
3373.000000	99.346360 
3372.000000	99.346226 
3371.000000	99.346370 
3370.000000	99.346568 
3369.000000	99.346599 
3368.000000	99.346427 
3367.000000	99.346225 
3366.000000	99.346205 
3365.000000	99.346370 
3364.000000	99.346437 
3363.000000	99.346119 
3362.000000	99.345450 
3361.000000	99.344765 
3360.000000	99.344304 
3359.000000	99.343976 
3358.000000	99.343570 
3357.000000	99.343121 
3356.000000	99.342913 
3355.000000	99.343081 
3354.000000	99.343381 
3353.000000	99.343421 
3352.000000	99.343071 
3351.000000	99.342569 
3350.000000	99.342266 
3349.000000	99.342316 
3348.000000	99.342620 
3347.000000	99.342918 
3346.000000	99.342955 
3345.000000	99.342639 
3344.000000	99.342086 
3343.000000	99.341542 
3342.000000	99.341188 
3341.000000	99.341004 
3340.000000	99.340832 
3339.000000	99.340554 
3338.000000	99.340242 
3337.000000	99.340087 
3336.000000	99.340187 
3335.000000	99.340435 
3334.000000	99.340649 
3333.000000	99.340764 
3332.000000	99.340843 
3331.000000	99.340932 
3330.000000	99.340977 
3329.000000	99.340876 
3328.000000	99.340606 
3327.000000	99.340244 
3326.000000	99.339888 
3325.000000	99.339560 
3324.000000	99.339210 
3323.000000	99.338812 
3322.000000	99.338431 
3321.000000	99.338172 
3320.000000	99.338071 
3319.000000	99.338058 
3318.000000	99.338018 
3317.000000	99.337889 
3316.000000	99.337684 
3315.000000	99.337439 
3314.000000	99.337173 
3313.000000	99.336905 
3312.000000	99.336654 
3311.000000	99.336428 
3310.000000	99.336204 
3309.000000	99.335940 
3308.000000	99.335618 
3307.000000	99.335253 
3306.000000	99.334871 
3305.000000	99.334494 
3304.000000	99.334136 
3303.000000	99.333799 
3302.000000	99.333467 
3301.000000	99.333108 
3300.000000	99.332701 
3299.000000	99.332253 
3298.000000	99.331788 
3297.000000	99.331326 
3296.000000	99.330867 
3295.000000	99.330403 
3294.000000	99.329926 
3293.000000	99.329433 
3292.000000	99.328931 
3291.000000	99.328431 
3290.000000	99.327934 
3289.000000	99.327434 
3288.000000	99.326924 
3287.000000	99.326404 
3286.000000	99.325887 
3285.000000	99.325389 
3284.000000	99.324913 
3283.000000	99.324452 
3282.000000	99.323990 
3281.000000	99.323530 
3280.000000	99.323093 
3279.000000	99.322696 
3278.000000	99.322328 
3277.000000	99.321948 
3276.000000	99.321512 
3275.000000	99.320997 
3274.000000	99.320397 
3273.000000	99.319739 
3272.000000	99.319097 
3271.000000	99.318575 
3270.000000	99.318225 
3269.000000	99.317995 
3268.000000	99.317763 
3267.000000	99.317450 
3266.000000	99.317041 
3265.000000	99.316543 
3264.000000	99.316005 
3263.000000	99.315550 
3262.000000	99.315322 
3261.000000	99.315353 
3260.000000	99.315495 
3259.000000	99.315510 
3258.000000	99.315230 
3257.000000	99.314639 
3256.000000	99.313891 
3255.000000	99.313208 
3254.000000	99.312727 
3253.000000	99.312459 
3252.000000	99.312390 
3251.000000	99.312527 
3250.000000	99.312768 
3249.000000	99.312852 
3248.000000	99.312624 
3247.000000	99.312254 
3246.000000	99.312061 
3245.000000	99.312116 
3244.000000	99.312160 
3243.000000	99.311934 
3242.000000	99.311427 
3241.000000	99.310815 
3240.000000	99.310334 
3239.000000	99.310257 
3238.000000	99.310804 
3237.000000	99.311950 
3236.000000	99.313330 
3235.000000	99.314404 
3234.000000	99.314757 
3233.000000	99.314276 
3232.000000	99.313231 
3231.000000	99.312164 
3230.000000	99.311511 
3229.000000	99.311286 
3228.000000	99.311174 
3227.000000	99.310881 
3226.000000	99.310312 
3225.000000	99.309494 
3224.000000	99.308540 
3223.000000	99.307718 
3222.000000	99.307306 
3221.000000	99.307300 
3220.000000	99.307363 
3219.000000	99.307161 
3218.000000	99.306712 
3217.000000	99.306372 
3216.000000	99.306550 
3215.000000	99.307412 
3214.000000	99.308685 
3213.000000	99.309710 
3212.000000	99.309889 
3211.000000	99.309129 
3210.000000	99.307857 
3209.000000	99.306629 
3208.000000	99.305731 
3207.000000	99.305197 
3206.000000	99.304953 
3205.000000	99.304822 
3204.000000	99.304571 
3203.000000	99.304092 
3202.000000	99.303482 
3201.000000	99.302899 
3200.000000	99.302435 
3199.000000	99.302152 
3198.000000	99.302111 
3197.000000	99.302282 
3196.000000	99.302543 
3195.000000	99.302851 
3194.000000	99.303283 
3193.000000	99.303813 
3192.000000	99.304163 
3191.000000	99.304024 
3190.000000	99.303355 
3189.000000	99.302396 
3188.000000	99.301456 
3187.000000	99.300757 
3186.000000	99.300391 
3185.000000	99.300295 
3184.000000	99.300258 
3183.000000	99.300075 
3182.000000	99.299748 
3181.000000	99.299480 
3180.000000	99.299494 
3179.000000	99.299863 
3178.000000	99.300433 
3177.000000	99.300818 
3176.000000	99.300619 
3175.000000	99.299809 
3174.000000	99.298817 
3173.000000	99.298087 
3172.000000	99.297526 
3171.000000	99.296637 
3170.000000	99.295270 
3169.000000	99.294032 
3168.000000	99.293695 
3167.000000	99.294385 
3166.000000	99.295469 
3165.000000	99.296145 
3164.000000	99.296182 
3163.000000	99.295929 
3162.000000	99.295780 
3161.000000	99.295764 
3160.000000	99.295653 
3159.000000	99.295282 
3158.000000	99.294639 
3157.000000	99.293756 
3156.000000	99.292692 
3155.000000	99.291606 
3154.000000	99.290706 
3153.000000	99.290048 
3152.000000	99.289511 
3151.000000	99.289006 
3150.000000	99.288650 
3149.000000	99.288606 
3148.000000	99.288844 
3147.000000	99.289156 
3146.000000	99.289369 
3145.000000	99.289452 
3144.000000	99.289443 
3143.000000	99.289380 
3142.000000	99.289303 
3141.000000	99.289261 
3140.000000	99.289253 
3139.000000	99.289200 
3138.000000	99.289009 
3137.000000	99.288678 
3136.000000	99.288315 
3135.000000	99.288065 
3134.000000	99.287994 
3133.000000	99.288049 
3132.000000	99.288101 
3131.000000	99.288040 
3130.000000	99.287856 
3129.000000	99.287624 
3128.000000	99.287442 
3127.000000	99.287347 
3126.000000	99.287310 
3125.000000	99.287275 
3124.000000	99.287189 
3123.000000	99.287041 
3122.000000	99.286848 
3121.000000	99.286644 
3120.000000	99.286469 
3119.000000	99.286344 
3118.000000	99.286264 
3117.000000	99.286212 
3116.000000	99.286172 
3115.000000	99.286141 
3114.000000	99.286119 
3113.000000	99.286102 
3112.000000	99.286072 
3111.000000	99.286012 
3110.000000	99.285926 
3109.000000	99.285833 
3108.000000	99.285751 
3107.000000	99.285668 
3106.000000	99.285541 
3105.000000	99.285331 
3104.000000	99.285042 
3103.000000	99.284758 
3102.000000	99.284606 
3101.000000	99.284653 
3100.000000	99.284836 
3099.000000	99.285052 
3098.000000	99.285265 
3097.000000	99.285473 
3096.000000	99.285611 
3095.000000	99.285562 
3094.000000	99.285252 
3093.000000	99.284706 
3092.000000	99.284037 
3091.000000	99.283472 
3090.000000	99.283318 
3089.000000	99.283741 
3088.000000	99.284494 
3087.000000	99.284973 
3086.000000	99.284752 
3085.000000	99.283991 
3084.000000	99.283148 
3083.000000	99.282285 
3082.000000	99.280971 
3081.000000	99.279069 
3080.000000	99.277414 
3079.000000	99.277318 
3078.000000	99.279361 
3077.000000	99.282853 
3076.000000	99.286498 
3075.000000	99.289288 
3074.000000	99.290645 
3073.000000	99.290172 
3072.000000	99.287782 
3071.000000	99.283959 
3070.000000	99.279474 
3069.000000	99.274879 
3068.000000	99.270607 
3067.000000	99.267533 
3066.000000	99.267009 
3065.000000	99.269950 
3064.000000	99.275713 
3063.000000	99.281812 
3062.000000	99.285049 
3061.000000	99.283508 
3060.000000	99.277930 
3059.000000	99.271195 
3058.000000	99.266266 
3057.000000	99.264569 
3056.000000	99.265943 
3055.000000	99.269272 
3054.000000	99.272792 
3053.000000	99.274556 
3052.000000	99.273506 
3051.000000	99.270214 
3050.000000	99.266353 
3049.000000	99.263530 
3048.000000	99.262462 
3047.000000	99.262471 
3046.000000	99.261387 
3045.000000	99.256871 
3044.000000	99.248880 
3043.000000	99.240434 
3042.000000	99.234945 
3041.000000	99.232853 
3040.000000	99.231751 
3039.000000	99.229474 
3038.000000	99.225853 
3037.000000	99.221365 
3036.000000	99.215463 
3035.000000	99.207120 
3034.000000	99.196397 
3033.000000	99.184628 
3032.000000	99.173289 
3031.000000	99.163156 
3030.000000	99.154204 
3029.000000	99.145992 
3028.000000	99.138206 
3027.000000	99.130850 
3026.000000	99.123582 
3025.000000	99.114997 
3024.000000	99.103265 
3023.000000	99.087948 
3022.000000	99.070776 
3021.000000	99.054025 
3020.000000	99.038171 
3019.000000	99.021682 
3018.000000	99.003361 
3017.000000	98.984391 
3016.000000	98.967394 
3015.000000	98.953429 
3014.000000	98.940674 
3013.000000	98.926578 
3012.000000	98.910713 
3011.000000	98.894564 
3010.000000	98.878894 
3009.000000	98.862764 
3008.000000	98.845407 
3007.000000	98.827564 
3006.000000	98.810063 
3005.000000	98.792238 
3004.000000	98.773129 
3003.000000	98.753560 
3002.000000	98.735505 
3001.000000	98.719575 
3000.000000	98.704535 
2999.000000	98.689491 
2998.000000	98.675451 
2997.000000	98.664264 
2996.000000	98.656518 
2995.000000	98.650193 
2994.000000	98.640582 
2993.000000	98.622117 
2992.000000	98.592418 
2991.000000	98.555733 
2990.000000	98.521558 
2989.000000	98.498639 
2988.000000	98.490163 
2987.000000	98.494011 
2986.000000	98.505725 
2985.000000	98.520476 
2984.000000	98.533479 
2983.000000	98.540886 
2982.000000	98.541463 
2981.000000	98.537255 
2980.000000	98.532175 
2979.000000	98.529370 
2978.000000	98.529224 
2977.000000	98.529406 
2976.000000	98.527125 
2975.000000	98.521797 
2974.000000	98.515663 
2973.000000	98.511920 
2972.000000	98.512542 
2971.000000	98.517706 
2970.000000	98.526455 
2969.000000	98.537386 
2968.000000	98.549214 
2967.000000	98.561357 
2966.000000	98.573949 
2965.000000	98.586956 
2964.000000	98.599457 
2963.000000	98.610209 
2962.000000	98.618928 
2961.000000	98.626672 
2960.000000	98.634832 
2959.000000	98.643873 
2958.000000	98.653111 
2957.000000	98.661652 
2956.000000	98.669413 
2955.000000	98.677189 
2954.000000	98.685853 
2953.000000	98.695680 
2952.000000	98.706381 
2951.000000	98.717362 
2950.000000	98.727718 
2949.000000	98.736353 
2948.000000	98.742501 
2947.000000	98.746085 
2946.000000	98.747691 
2945.000000	98.748619 
2944.000000	98.750800 
2943.000000	98.755668 
2942.000000	98.762358 
2941.000000	98.767608 
2940.000000	98.768551 
2939.000000	98.765834 
2938.000000	98.763333 
2937.000000	98.764622 
2936.000000	98.770151 
2935.000000	98.777517 
2934.000000	98.783591 
2933.000000	98.786261 
2932.000000	98.785065 
2931.000000	98.780817 
2930.000000	98.774832 
2929.000000	98.768629 
2928.000000	98.763983 
2927.000000	98.762090 
2926.000000	98.761993 
2925.000000	98.760799 
2924.000000	98.756657 
2923.000000	98.751020 
2922.000000	98.746730 
2921.000000	98.744291 
2920.000000	98.741553 
2919.000000	98.736955 
2918.000000	98.731401 
2917.000000	98.726461 
2916.000000	98.722119 
2915.000000	98.717092 
2914.000000	98.710597 
2913.000000	98.703129 
2912.000000	98.696154 
2911.000000	98.691385 
2910.000000	98.689625 
2909.000000	98.689744 
2908.000000	98.689270 
2907.000000	98.686373 
2906.000000	98.680722 
2905.000000	98.672323 
2904.000000	98.660941 
2903.000000	98.647683 
2902.000000	98.637063 
2901.000000	98.635027 
2900.000000	98.644665 
2899.000000	98.663433 
2898.000000	98.684077 
2897.000000	98.699302 
2896.000000	98.706453 
2895.000000	98.708422 
2894.000000	98.710257 
2893.000000	98.714864 
2892.000000	98.721789 
2891.000000	98.729179 
2890.000000	98.735679 
2889.000000	98.740445 
2888.000000	98.742860 
2887.000000	98.743397 
2886.000000	98.744205 
2885.000000	98.747778 
2884.000000	98.755045 
2883.000000	98.765152 
2882.000000	98.776798 
2881.000000	98.789159 
2880.000000	98.801688 
2879.000000	98.813790 
2878.000000	98.824989 
2877.000000	98.835197 
2876.000000	98.844694 
2875.000000	98.853869 
2874.000000	98.862878 
2873.000000	98.871456 
2872.000000	98.879180 
2871.000000	98.885981 
2870.000000	98.892315 
2869.000000	98.898930 
2868.000000	98.906697 
2867.000000	98.916401 
2866.000000	98.928057 
2865.000000	98.940429 
2864.000000	98.951927 
2863.000000	98.962188 
2862.000000	98.972132 
2861.000000	98.982315 
2860.000000	98.992149 
2859.000000	99.001230 
2858.000000	99.010484 
2857.000000	99.021071 
2856.000000	99.032655 
2855.000000	99.043735 
2854.000000	99.053398 
2853.000000	99.061963 
2852.000000	99.069951 
2851.000000	99.077315 
2850.000000	99.084047 
2849.000000	99.090870 
2848.000000	99.098803 
2847.000000	99.108111 
2846.000000	99.117817 
2845.000000	99.126186 
2844.000000	99.131811 
2843.000000	99.134576 
2842.000000	99.135926 
2841.000000	99.138201 
2840.000000	99.143276 
2839.000000	99.151250 
2838.000000	99.160103 
2837.000000	99.166958 
2836.000000	99.170332 
2835.000000	99.171380 
2834.000000	99.172710 
2833.000000	99.175848 
2832.000000	99.180051 
2831.000000	99.183470 
2830.000000	99.184898 
2829.000000	99.184443 
2828.000000	99.183291 
2827.000000	99.183135 
2826.000000	99.185247 
2825.000000	99.189513 
2824.000000	99.194507 
2823.000000	99.198756 
2822.000000	99.201793 
2821.000000	99.203938 
2820.000000	99.205543 
2819.000000	99.206739 
2818.000000	99.207549 
2817.000000	99.207912 
2816.000000	99.207838 
2815.000000	99.207693 
2814.000000	99.207998 
2813.000000	99.208716 
2812.000000	99.209171 
2811.000000	99.209093 
2810.000000	99.209372 
2809.000000	99.211285 
2808.000000	99.215071 
2807.000000	99.219604 
2806.000000	99.223334 
2805.000000	99.225289 
2804.000000	99.225407 
2803.000000	99.224407 
2802.000000	99.223403 
2801.000000	99.223283 
2800.000000	99.224183 
2799.000000	99.225541 
2798.000000	99.226607 
2797.000000	99.226890 
2796.000000	99.226384 
2795.000000	99.225614 
2794.000000	99.225413 
2793.000000	99.226351 
2792.000000	99.228221 
2791.000000	99.230177 
2790.000000	99.231470 
2789.000000	99.232086 
2788.000000	99.232643 
2787.000000	99.233702 
2786.000000	99.235206 
2785.000000	99.236563 
2784.000000	99.237208 
2783.000000	99.237065 
2782.000000	99.236546 
2781.000000	99.236227 
2780.000000	99.236485 
2779.000000	99.237334 
2778.000000	99.238476 
2777.000000	99.239557 
2776.000000	99.240466 
2775.000000	99.241347 
2774.000000	99.242288 
2773.000000	99.243133 
2772.000000	99.243744 
2771.000000	99.244320 
2770.000000	99.245215 
2769.000000	99.246446 
2768.000000	99.247613 
2767.000000	99.248372 
2766.000000	99.248739 
2765.000000	99.248875 
2764.000000	99.248780 
2763.000000	99.248365 
2762.000000	99.247668 
2761.000000	99.246889 
2760.000000	99.246287 
2759.000000	99.246124 
2758.000000	99.246605 
2757.000000	99.247710 
2756.000000	99.249093 
2755.000000	99.250256 
2754.000000	99.250824 
2753.000000	99.250731 
2752.000000	99.250293 
2751.000000	99.250114 
2750.000000	99.250671 
2749.000000	99.251916 
2748.000000	99.253306 
2747.000000	99.254327 
2746.000000	99.254940 
2745.000000	99.255420 
2744.000000	99.255911 
2743.000000	99.256280 
2742.000000	99.256419 
2741.000000	99.256510 
2740.000000	99.256911 
2739.000000	99.257795 
2738.000000	99.258972 
2737.000000	99.260075 
2736.000000	99.260889 
2735.000000	99.261444 
2734.000000	99.261800 
2733.000000	99.261907 
2732.000000	99.261727 
2731.000000	99.261412 
2730.000000	99.261221 
2729.000000	99.261296 
2728.000000	99.261591 
2727.000000	99.262004 
2726.000000	99.262464 
2725.000000	99.262941 
2724.000000	99.263464 
2723.000000	99.264160 
2722.000000	99.265169 
2721.000000	99.266462 
2720.000000	99.267772 
2719.000000	99.268745 
2718.000000	99.269201 
2717.000000	99.269227 
2716.000000	99.269130 
2715.000000	99.269223 
2714.000000	99.269609 
2713.000000	99.270161 
2712.000000	99.270692 
2711.000000	99.271146 
2710.000000	99.271613 
2709.000000	99.272180 
2708.000000	99.272814 
2707.000000	99.273387 
2706.000000	99.273780 
2705.000000	99.273986 
2704.000000	99.274150 
2703.000000	99.274470 
2702.000000	99.275012 
2701.000000	99.275644 
2700.000000	99.276166 
2699.000000	99.276540 
2698.000000	99.276913 
2697.000000	99.277422 
2696.000000	99.278024 
2695.000000	99.278559 
2694.000000	99.278925 
2693.000000	99.279166 
2692.000000	99.279411 
2691.000000	99.279734 
2690.000000	99.280074 
2689.000000	99.280319 
2688.000000	99.280459 
2687.000000	99.280651 
2686.000000	99.281069 
2685.000000	99.281719 
2684.000000	99.282439 
2683.000000	99.283029 
2682.000000	99.283365 
2681.000000	99.283424 
2680.000000	99.283298 
2679.000000	99.283174 
2678.000000	99.283226 
2677.000000	99.283510 
2676.000000	99.284002 
2675.000000	99.284689 
2674.000000	99.285532 
2673.000000	99.286386 
2672.000000	99.287055 
2671.000000	99.287454 
2670.000000	99.287641 
2669.000000	99.287741 
2668.000000	99.287850 
2667.000000	99.288047 
2666.000000	99.288383 
2665.000000	99.288842 
2664.000000	99.289362 
2663.000000	99.289892 
2662.000000	99.290413 
2661.000000	99.290918 
2660.000000	99.291406 
2659.000000	99.291890 
2658.000000	99.292376 
2657.000000	99.292854 
2656.000000	99.293321 
2655.000000	99.293787 
2654.000000	99.294253 
2653.000000	99.294702 
2652.000000	99.295138 
2651.000000	99.295587 
2650.000000	99.296062 
2649.000000	99.296535 
2648.000000	99.296969 
2647.000000	99.297368 
2646.000000	99.297760 
2645.000000	99.298171 
2644.000000	99.298597 
2643.000000	99.299031 
2642.000000	99.299462 
2641.000000	99.299883 
2640.000000	99.300293 
2639.000000	99.300700 
2638.000000	99.301118 
2637.000000	99.301552 
2636.000000	99.301984 
2635.000000	99.302378 
2634.000000	99.302711 
2633.000000	99.302989 
2632.000000	99.303261 
2631.000000	99.303596 
2630.000000	99.304043 
2629.000000	99.304570 
2628.000000	99.305037 
2627.000000	99.305307 
2626.000000	99.305393 
2625.000000	99.305493 
2624.000000	99.305794 
2623.000000	99.306296 
2622.000000	99.306816 
2621.000000	99.307187 
2620.000000	99.307375 
2619.000000	99.307454 
2618.000000	99.307541 
2617.000000	99.307774 
2616.000000	99.308280 
2615.000000	99.309087 
2614.000000	99.310023 
2613.000000	99.310738 
2612.000000	99.310947 
2611.000000	99.310677 
2610.000000	99.310274 
2609.000000	99.310084 
2608.000000	99.310199 
2607.000000	99.310524 
2606.000000	99.311022 
2605.000000	99.311816 
2604.000000	99.313054 
2603.000000	99.314635 
2602.000000	99.316021 
2601.000000	99.316552 
2600.000000	99.316159 
2599.000000	99.315511 
2598.000000	99.315206 
2597.000000	99.314912 
2596.000000	99.313882 
2595.000000	99.312122 
2594.000000	99.310487 
2593.000000	99.309597 
2592.000000	99.309217 
2591.000000	99.308944 
2590.000000	99.308905 
2589.000000	99.309390 
2588.000000	99.310109 
2587.000000	99.310325 
2586.000000	99.309684 
2585.000000	99.308615 
2584.000000	99.307929 
2583.000000	99.308065 
2582.000000	99.308663 
2581.000000	99.308848 
2580.000000	99.308062 
2579.000000	99.306608 
2578.000000	99.305311 
2577.000000	99.304657 
2576.000000	99.304505 
2575.000000	99.304562 
2574.000000	99.304827 
2573.000000	99.305391 
2572.000000	99.306124 
2571.000000	99.306720 
2570.000000	99.306916 
2569.000000	99.306618 
2568.000000	99.305936 
2567.000000	99.305156 
2566.000000	99.304526 
2565.000000	99.304060 
2564.000000	99.303631 
2563.000000	99.303237 
2562.000000	99.303004 
2561.000000	99.302973 
2560.000000	99.303015 
2559.000000	99.302958 
2558.000000	99.302687 
2557.000000	99.302171 
2556.000000	99.301592 
2555.000000	99.301357 
2554.000000	99.301774 
2553.000000	99.302611 
2552.000000	99.303133 
2551.000000	99.302815 
2550.000000	99.301758 
2549.000000	99.300415 
2548.000000	99.299129 
2547.000000	99.298045 
2546.000000	99.297245 
2545.000000	99.296780 
2544.000000	99.296627 
2543.000000	99.296702 
2542.000000	99.296784 
2541.000000	99.296496 
2540.000000	99.295607 
2539.000000	99.294353 
2538.000000	99.293280 
2537.000000	99.292631 
2536.000000	99.292180 
2535.000000	99.291756 
2534.000000	99.291538 
2533.000000	99.291616 
2532.000000	99.291616 
2531.000000	99.291136 
2530.000000	99.290370 
2529.000000	99.289924 
2528.000000	99.290035 
2527.000000	99.290343 
2526.000000	99.290374 
2525.000000	99.290099 
2524.000000	99.289845 
2523.000000	99.289860 
2522.000000	99.290101 
2521.000000	99.290374 
2520.000000	99.290499 
2519.000000	99.290343 
2518.000000	99.289828 
2517.000000	99.288998 
2516.000000	99.288081 
2515.000000	99.287424 
2514.000000	99.287260 
2513.000000	99.287552 
2512.000000	99.288065 
2511.000000	99.288560 
2510.000000	99.288925 
2509.000000	99.289139 
2508.000000	99.289239 
2507.000000	99.289336 
2506.000000	99.289537 
2505.000000	99.289817 
2504.000000	99.290016 
2503.000000	99.290024 
2502.000000	99.289905 
2501.000000	99.289834 
2500.000000	99.289932 
2499.000000	99.290203 
2498.000000	99.290579 
2497.000000	99.290950 
2496.000000	99.291208 
2495.000000	99.291303 
2494.000000	99.291283 
2493.000000	99.291243 
2492.000000	99.291238 
2491.000000	99.291269 
2490.000000	99.291341 
2489.000000	99.291498 
2488.000000	99.291792 
2487.000000	99.292217 
2486.000000	99.292658 
2485.000000	99.292897 
2484.000000	99.292800 
2483.000000	99.292425 
2482.000000	99.291986 
2481.000000	99.291669 
2480.000000	99.291500 
2479.000000	99.291420 
2478.000000	99.291358 
2477.000000	99.291270 
2476.000000	99.291149 
2475.000000	99.291016 
2474.000000	99.290901 
2473.000000	99.290811 
2472.000000	99.290716 
2471.000000	99.290582 
2470.000000	99.290401 
2469.000000	99.290182 
2468.000000	99.289945 
2467.000000	99.289705 
2466.000000	99.289465 
2465.000000	99.289226 
2464.000000	99.288985 
2463.000000	99.288746 
2462.000000	99.288511 
2461.000000	99.288280 
2460.000000	99.288048 
2459.000000	99.287807 
2458.000000	99.287551 
2457.000000	99.287282 
2456.000000	99.287004 
2455.000000	99.286720 
2454.000000	99.286426 
2453.000000	99.286122 
2452.000000	99.285805 
2451.000000	99.285477 
2450.000000	99.285138 
2449.000000	99.284789 
2448.000000	99.284435 
2447.000000	99.284078 
2446.000000	99.283723 
2445.000000	99.283371 
2444.000000	99.283022 
2443.000000	99.282679 
2442.000000	99.282349 
2441.000000	99.282038 
2440.000000	99.281747 
2439.000000	99.281478 
2438.000000	99.281225 
2437.000000	99.280979 
2436.000000	99.280732 
2435.000000	99.280474 
2434.000000	99.280200 
2433.000000	99.279912 
2432.000000	99.279611 
2431.000000	99.279303 
2430.000000	99.278988 
2429.000000	99.278663 
2428.000000	99.278327 
2427.000000	99.277979 
2426.000000	99.277623 
2425.000000	99.277269 
2424.000000	99.276927 
2423.000000	99.276602 
2422.000000	99.276298 
2421.000000	99.276018 
2420.000000	99.275745 
2419.000000	99.275428 
2418.000000	99.275025 
2417.000000	99.274544 
2416.000000	99.274068 
2415.000000	99.273684 
2414.000000	99.273413 
2413.000000	99.273187 
2412.000000	99.272914 
2411.000000	99.272577 
2410.000000	99.272217 
2409.000000	99.271875 
2408.000000	99.271555 
2407.000000	99.271276 
2406.000000	99.271086 
2405.000000	99.271029 
2404.000000	99.271114 
2403.000000	99.271303 
2402.000000	99.271477 
2401.000000	99.271444 
2400.000000	99.271081 
2399.000000	99.270485 
2398.000000	99.269908 
2397.000000	99.269511 
2396.000000	99.269335 
2395.000000	99.269379 
2394.000000	99.269515 
2393.000000	99.269484 
2392.000000	99.269192 
2391.000000	99.268976 
2390.000000	99.269211 
2389.000000	99.269798 
2388.000000	99.270356 
2387.000000	99.270867 
2386.000000	99.271650 
2385.000000	99.272704 
2384.000000	99.273586 
2383.000000	99.274038 
2382.000000	99.274306 
2381.000000	99.274690 
2380.000000	99.275117 
2379.000000	99.275394 
2378.000000	99.275642 
2377.000000	99.276161 
2376.000000	99.277021 
2375.000000	99.278030 
2374.000000	99.278960 
2373.000000	99.279710 
2372.000000	99.280265 
2371.000000	99.280698 
2370.000000	99.281163 
2369.000000	99.281791 
2368.000000	99.282576 
2367.000000	99.283450 
2366.000000	99.284364 
2365.000000	99.285305 
2364.000000	99.286260 
2363.000000	99.287204 
2362.000000	99.288117 
2361.000000	99.288989 
2360.000000	99.289830 
2359.000000	99.290665 
2358.000000	99.291523 
2357.000000	99.292425 
2356.000000	99.293377 
2355.000000	99.294367 
2354.000000	99.295350 
2353.000000	99.296291 
2352.000000	99.297190 
2351.000000	99.298076 
2350.000000	99.298974 
2349.000000	99.299880 
2348.000000	99.300775 
2347.000000	99.301634 
2346.000000	99.302455 
2345.000000	99.303260 
2344.000000	99.304066 
2343.000000	99.304878 
2342.000000	99.305678 
2341.000000	99.306455 
2340.000000	99.307220 
2339.000000	99.308007 
2338.000000	99.308828 
2337.000000	99.309618 
2336.000000	99.310264 
2335.000000	99.310712 
2334.000000	99.311031 
2333.000000	99.311424 
2332.000000	99.312050 
2331.000000	99.312875 
2330.000000	99.313692 
2329.000000	99.314369 
2328.000000	99.315069 
2327.000000	99.316007 
2326.000000	99.317175 
2325.000000	99.318253 
2324.000000	99.318910 
2323.000000	99.319172 
2322.000000	99.319382 
2321.000000	99.319802 
2320.000000	99.320251 
2319.000000	99.320427 
2318.000000	99.320326 
2317.000000	99.320247 
2316.000000	99.320414 
2315.000000	99.320738 
2314.000000	99.321010 
2313.000000	99.321158 
2312.000000	99.321285 
2311.000000	99.321456 
2310.000000	99.321609 
2309.000000	99.321647 
2308.000000	99.321531 
2307.000000	99.321306 
2306.000000	99.321086 
2305.000000	99.321025 
2304.000000	99.321186 
2303.000000	99.321457 
2302.000000	99.321604 
2301.000000	99.321485 
2300.000000	99.321197 
2299.000000	99.321000 
2298.000000	99.321047 
2297.000000	99.321187 
2296.000000	99.321102 
2295.000000	99.320655 
2294.000000	99.320047 
2293.000000	99.319656 
2292.000000	99.319709 
2291.000000	99.320120 
2290.000000	99.320531 
2289.000000	99.320555 
2288.000000	99.320074 
2287.000000	99.319308 
2286.000000	99.318566 
2285.000000	99.317863 
2284.000000	99.316926 
2283.000000	99.315693 
2282.000000	99.314529 
2281.000000	99.313844 
2280.000000	99.313635 
2279.000000	99.313597 
2278.000000	99.313506 
2277.000000	99.313386 
2276.000000	99.313281 
2275.000000	99.313080 
2274.000000	99.312693 
2273.000000	99.312147 
2272.000000	99.311428 
2271.000000	99.310452 
2270.000000	99.309325 
2269.000000	99.308455 
2268.000000	99.308212 
2267.000000	99.308481 
2266.000000	99.308669 
2265.000000	99.308195 
2264.000000	99.306923 
2263.000000	99.305186 
2262.000000	99.303562 
2261.000000	99.302463 
2260.000000	99.302053 
2259.000000	99.302290 
2258.000000	99.302831 
2257.000000	99.303343 
2256.000000	99.303684 
2255.000000	99.303808 
2254.000000	99.303670 
2253.000000	99.303277 
2252.000000	99.302820 
2251.000000	99.302561 
2250.000000	99.302542 
2249.000000	99.302515 
2248.000000	99.302252 
2247.000000	99.301828 
2246.000000	99.301465 
2245.000000	99.301247 
2244.000000	99.301085 
2243.000000	99.300913 
2242.000000	99.300786 
2241.000000	99.300758 
2240.000000	99.300798 
2239.000000	99.300835 
2238.000000	99.300792 
2237.000000	99.300595 
2236.000000	99.300231 
2235.000000	99.299778 
2234.000000	99.299345 
2233.000000	99.298979 
2232.000000	99.298662 
2231.000000	99.298375 
2230.000000	99.298108 
2229.000000	99.297863 
2228.000000	99.297643 
2227.000000	99.297456 
2226.000000	99.297307 
2225.000000	99.297191 
2224.000000	99.297103 
2223.000000	99.297033 
2222.000000	99.296965 
2221.000000	99.296873 
2220.000000	99.296741 
2219.000000	99.296566 
2218.000000	99.296376 
2217.000000	99.296204 
2216.000000	99.296066 
2215.000000	99.295957 
2214.000000	99.295861 
2213.000000	99.295775 
2212.000000	99.295711 
2211.000000	99.295688 
2210.000000	99.295715 
2209.000000	99.295784 
2208.000000	99.295885 
2207.000000	99.296018 
2206.000000	99.296163 
2205.000000	99.296249 
2204.000000	99.296203 
2203.000000	99.296131 
2202.000000	99.296354 
2201.000000	99.297070 
2200.000000	99.297906 
2199.000000	99.298215 
2198.000000	99.297756 
2197.000000	99.296937 
2196.000000	99.296345 
2195.000000	99.296252 
2194.000000	99.296749 
2193.000000	99.298082 
2192.000000	99.300303 
2191.000000	99.302702 
2190.000000	99.304251 
2189.000000	99.304872 
2188.000000	99.305660 
2187.000000	99.307188 
2186.000000	99.308137 
2185.000000	99.306642 
2184.000000	99.302830 
2183.000000	99.298985 
2182.000000	99.296819 
2181.000000	99.295672 
2180.000000	99.294155 
2179.000000	99.292514 
2178.000000	99.292172 
2177.000000	99.293530 
2176.000000	99.295444 
2175.000000	99.296648 
2174.000000	99.296804 
2173.000000	99.296659 
2172.000000	99.298180 
2171.000000	99.303610 
2170.000000	99.312699 
2169.000000	99.321162 
2168.000000	99.324066 
2167.000000	99.320707 
2166.000000	99.314804 
2165.000000	99.310315 
2164.000000	99.308629 
2163.000000	99.309878 
2162.000000	99.313653 
2161.000000	99.316936 
2160.000000	99.314432 
2159.000000	99.303630 
2158.000000	99.288120 
2157.000000	99.274018 
2156.000000	99.264115 
2155.000000	99.258093 
2154.000000	99.256167 
2153.000000	99.259330 
2152.000000	99.266655 
2151.000000	99.274496 
2150.000000	99.279043 
2149.000000	99.279343 
2148.000000	99.277876 
2147.000000	99.278168 
2146.000000	99.281125 
2145.000000	99.283795 
2144.000000	99.282700 
2143.000000	99.278237 
2142.000000	99.274366 
2141.000000	99.273617 
2140.000000	99.274093 
2139.000000	99.272564 
2138.000000	99.269052 
2137.000000	99.266546 
2136.000000	99.266757 
2135.000000	99.268176 
2134.000000	99.268609 
2133.000000	99.268137 
2132.000000	99.268502 
2131.000000	99.270327 
2130.000000	99.272103 
2129.000000	99.272011 
2128.000000	99.270123 
2127.000000	99.268280 
2126.000000	99.267961 
2125.000000	99.269025 
2124.000000	99.270610 
2123.000000	99.272620 
2122.000000	99.275474 
2121.000000	99.278765 
2120.000000	99.281279 
2119.000000	99.282464 
2118.000000	99.283016 
2117.000000	99.283842 
2116.000000	99.285146 
2115.000000	99.286701 
2114.000000	99.288271 
2113.000000	99.289450 
2112.000000	99.289748 
2111.000000	99.289169 
2110.000000	99.288408 
2109.000000	99.288224 
2108.000000	99.288600 
2107.000000	99.288737 
2106.000000	99.287911 
2105.000000	99.286267 
2104.000000	99.284871 
2103.000000	99.284919 
2102.000000	99.286604 
2101.000000	99.288792 
2100.000000	99.290010 
2099.000000	99.289903 
2098.000000	99.289305 
2097.000000	99.289134 
2096.000000	99.289559 
2095.000000	99.290283 
2094.000000	99.291125 
2093.000000	99.292059 
2092.000000	99.292951 
2091.000000	99.293599 
2090.000000	99.294008 
2089.000000	99.294406 
2088.000000	99.294927 
2087.000000	99.295379 
2086.000000	99.295413 
2085.000000	99.294934 
2084.000000	99.294362 
2083.000000	99.294414 
2082.000000	99.295466 
2081.000000	99.297175 
2080.000000	99.298769 
2079.000000	99.299879 
2078.000000	99.300898 
2077.000000	99.302418 
2076.000000	99.304397 
2075.000000	99.305973 
2074.000000	99.306133 
2073.000000	99.304532 
2072.000000	99.301949 
2071.000000	99.299863 
2070.000000	99.299301 
2069.000000	99.300070 
2068.000000	99.301053 
2067.000000	99.301310 
2066.000000	99.300719 
2065.000000	99.299753 
2064.000000	99.299114 
2063.000000	99.299469 
2062.000000	99.300891 
2061.000000	99.302397 
2060.000000	99.302694 
2059.000000	99.301724 
2058.000000	99.300924 
2057.000000	99.301568 
2056.000000	99.303370 
2055.000000	99.305174 
2054.000000	99.306497 
2053.000000	99.307593 
2052.000000	99.308282 
2051.000000	99.307738 
2050.000000	99.305605 
2049.000000	99.302682 
2048.000000	99.300255 
2047.000000	99.298969 
2046.000000	99.298655 
2045.000000	99.298790 
2044.000000	99.298819 
2043.000000	99.298384 
2042.000000	99.297566 
2041.000000	99.296807 
2040.000000	99.296395 
2039.000000	99.296048 
2038.000000	99.295140 
2037.000000	99.293339 
2036.000000	99.290903 
2035.000000	99.288274 
2034.000000	99.285479 
2033.000000	99.282372 
2032.000000	99.279484 
2031.000000	99.278037 
2030.000000	99.278649 
2029.000000	99.280427 
2028.000000	99.281458 
2027.000000	99.280665 
2026.000000	99.278417 
2025.000000	99.275726 
2024.000000	99.273458 
2023.000000	99.272086 
2022.000000	99.271658 
2021.000000	99.271605 
2020.000000	99.271047 
2019.000000	99.269760 
2018.000000	99.268469 
2017.000000	99.267871 
2016.000000	99.267809 
2015.000000	99.267773 
2014.000000	99.267580 
2013.000000	99.267095 
2012.000000	99.265987 
2011.000000	99.264385 
2010.000000	99.263252 
2009.000000	99.263419 
2008.000000	99.264505 
2007.000000	99.265391 
2006.000000	99.265624 
2005.000000	99.265773 
2004.000000	99.266515 
2003.000000	99.267807 
2002.000000	99.268776 
2001.000000	99.268149 
2000.000000	99.265200 
1999.000000	99.260592 
1998.000000	99.255976 
1997.000000	99.252523 
1996.000000	99.250453 
1995.000000	99.250040 
1994.000000	99.251962 
1993.000000	99.256082 
1992.000000	99.260673 
1991.000000	99.263800 
1990.000000	99.264891 
1989.000000	99.264266 
1988.000000	99.262448 
1987.000000	99.260829 
1986.000000	99.261702 
1985.000000	99.266326 
1984.000000	99.273213 
1983.000000	99.279196 
1982.000000	99.281974 
1981.000000	99.280809 
1980.000000	99.276159 
1979.000000	99.269885 
1978.000000	99.264794 
1977.000000	99.262254 
1976.000000	99.260749 
1975.000000	99.258085 
1974.000000	99.254518 
1973.000000	99.252302 
1972.000000	99.252601 
1971.000000	99.254371 
1970.000000	99.256251 
1969.000000	99.258253 
1968.000000	99.261010 
1967.000000	99.264034 
1966.000000	99.265641 
1965.000000	99.264738 
1964.000000	99.262082 
1963.000000	99.259572 
1962.000000	99.258446 
1961.000000	99.258410 
1960.000000	99.258314 
1959.000000	99.257187 
1958.000000	99.254614 
1957.000000	99.250913 
1956.000000	99.247299 
1955.000000	99.245090 
1954.000000	99.244213 
1953.000000	99.243086 
1952.000000	99.240661 
1951.000000	99.238046 
1950.000000	99.237207 
1949.000000	99.238470 
1948.000000	99.240300 
1947.000000	99.241275 
1946.000000	99.241069 
1945.000000	99.239554 
1944.000000	99.236548 
1943.000000	99.232951 
1942.000000	99.230661 
1941.000000	99.230297 
1940.000000	99.230607 
1939.000000	99.230500 
1938.000000	99.230359 
1937.000000	99.231106 
1936.000000	99.232834 
1935.000000	99.234702 
1934.000000	99.235787 
1933.000000	99.235844 
1932.000000	99.235447 
1931.000000	99.235594 
1930.000000	99.236929 
1929.000000	99.239077 
1928.000000	99.240885 
1927.000000	99.241476 
1926.000000	99.240777 
1925.000000	99.239185 
1924.000000	99.237318 
1923.000000	99.236076 
1922.000000	99.236220 
1921.000000	99.237674 
1920.000000	99.239557 
1919.000000	99.240966 
1918.000000	99.241697 
1917.000000	99.242070 
1916.000000	99.242380 
1915.000000	99.242796 
1914.000000	99.243453 
1913.000000	99.244298 
1912.000000	99.245014 
1911.000000	99.245362 
1910.000000	99.245466 
1909.000000	99.245619 
1908.000000	99.245948 
1907.000000	99.246448 
1906.000000	99.247132 
1905.000000	99.247881 
1904.000000	99.248309 
1903.000000	99.248074 
1902.000000	99.247238 
1901.000000	99.246279 
1900.000000	99.245705 
1899.000000	99.245736 
1898.000000	99.246275 
1897.000000	99.246940 
1896.000000	99.247307 
1895.000000	99.247300 
1894.000000	99.247285 
1893.000000	99.247620 
1892.000000	99.248222 
1891.000000	99.248706 
1890.000000	99.248879 
1889.000000	99.248897 
1888.000000	99.249001 
1887.000000	99.249353 
1886.000000	99.250020 
1885.000000	99.250801 
1884.000000	99.251254 
1883.000000	99.251140 
1882.000000	99.250659 
1881.000000	99.250073 
1880.000000	99.249470 
1879.000000	99.248967 
1878.000000	99.248693 
1877.000000	99.248418 
1876.000000	99.247722 
1875.000000	99.246836 
1874.000000	99.246793 
1873.000000	99.248246 
1872.000000	99.250499 
1871.000000	99.252027 
1870.000000	99.251837 
1869.000000	99.250075 
1868.000000	99.247534 
1867.000000	99.244931 
1866.000000	99.242645 
1865.000000	99.240744 
1864.000000	99.239516 
1863.000000	99.240004 
1862.000000	99.243128 
1861.000000	99.248056 
1860.000000	99.252160 
1859.000000	99.253769 
1858.000000	99.253876 
1857.000000	99.254428 
1856.000000	99.255841 
1855.000000	99.257207 
1854.000000	99.258023 
1853.000000	99.258413 
1852.000000	99.258302 
1851.000000	99.257375 
1850.000000	99.255799 
1849.000000	99.254276 
1848.000000	99.253313 
1847.000000	99.253018 
1846.000000	99.253415 
1845.000000	99.254156 
1844.000000	99.254065 
1843.000000	99.252490 
1842.000000	99.250679 
1841.000000	99.250361 
1840.000000	99.251976 
1839.000000	99.254672 
1838.000000	99.257279 
1837.000000	99.259206 
1836.000000	99.260511 
1835.000000	99.261576 
1834.000000	99.262639 
1833.000000	99.263561 
1832.000000	99.264020 
1831.000000	99.263717 
1830.000000	99.262798 
1829.000000	99.262014 
1828.000000	99.262104 
1827.000000	99.263039 
1826.000000	99.264099 
1825.000000	99.264727 
1824.000000	99.264968 
1823.000000	99.265203 
1822.000000	99.265597 
1821.000000	99.265653 
1820.000000	99.264596 
1819.000000	99.262426 
1818.000000	99.260365 
1817.000000	99.259617 
1816.000000	99.259869 
1815.000000	99.260023 
1814.000000	99.260062 
1813.000000	99.261100 
1812.000000	99.263864 
1811.000000	99.267743 
1810.000000	99.271601 
1809.000000	99.274753 
1808.000000	99.276581 
1807.000000	99.276514 
1806.000000	99.274935 
1805.000000	99.273234 
1804.000000	99.272453 
1803.000000	99.272313 
1802.000000	99.272019 
1801.000000	99.271525 
1800.000000	99.271148 
1799.000000	99.270888 
1798.000000	99.270878 
1797.000000	99.271360 
1796.000000	99.272255 
1795.000000	99.273325 
1794.000000	99.274334 
1793.000000	99.274998 
1792.000000	99.275147 
1791.000000	99.274972 
1790.000000	99.274926 
1789.000000	99.275330 
1788.000000	99.276214 
1787.000000	99.277452 
1786.000000	99.278838 
1785.000000	99.279903 
1784.000000	99.280122 
1783.000000	99.279619 
1782.000000	99.279147 
1781.000000	99.279241 
1780.000000	99.279594 
1779.000000	99.279637 
1778.000000	99.279499 
1777.000000	99.279742 
1776.000000	99.280529 
1775.000000	99.281614 
1774.000000	99.282713 
1773.000000	99.283670 
1772.000000	99.284339 
1771.000000	99.284634 
1770.000000	99.284702 
1769.000000	99.284758 
1768.000000	99.284932 
1767.000000	99.285233 
1766.000000	99.285606 
1765.000000	99.286061 
1764.000000	99.286610 
1763.000000	99.287220 
1762.000000	99.287885 
1761.000000	99.288610 
1760.000000	99.289309 
1759.000000	99.289865 
1758.000000	99.290233 
1757.000000	99.290477 
1756.000000	99.290717 
1755.000000	99.291008 
1754.000000	99.291333 
1753.000000	99.291672 
1752.000000	99.292130 
1751.000000	99.292966 
1750.000000	99.294209 
1749.000000	99.295439 
1748.000000	99.296220 
1747.000000	99.296471 
1746.000000	99.296416 
1745.000000	99.296455 
1744.000000	99.296864 
1743.000000	99.297578 
1742.000000	99.298284 
1741.000000	99.298764 
1740.000000	99.299017 
1739.000000	99.299184 
1738.000000	99.299417 
1737.000000	99.299724 
1736.000000	99.299919 
1735.000000	99.299820 
1734.000000	99.299583 
1733.000000	99.299599 
1732.000000	99.300017 
1731.000000	99.300701 
1730.000000	99.301453 
1729.000000	99.302139 
1728.000000	99.302744 
1727.000000	99.303299 
1726.000000	99.303810 
1725.000000	99.304248 
1724.000000	99.304624 
1723.000000	99.305036 
1722.000000	99.305589 
1721.000000	99.306288 
1720.000000	99.307025 
1719.000000	99.307622 
1718.000000	99.307976 
1717.000000	99.308155 
1716.000000	99.308317 
1715.000000	99.308556 
1714.000000	99.308891 
1713.000000	99.309289 
1712.000000	99.309692 
1711.000000	99.310077 
1710.000000	99.310464 
1709.000000	99.310875 
1708.000000	99.311303 
1707.000000	99.311734 
1706.000000	99.312167 
1705.000000	99.312599 
1704.000000	99.313013 
1703.000000	99.313410 
1702.000000	99.313803 
1701.000000	99.314217 
1700.000000	99.314672 
1699.000000	99.315173 
1698.000000	99.315714 
1697.000000	99.316288 
1696.000000	99.316888 
1695.000000	99.317497 
1694.000000	99.318097 
1693.000000	99.318684 
1692.000000	99.319247 
1691.000000	99.319763 
1690.000000	99.320236 
1689.000000	99.320697 
1688.000000	99.321163 
1687.000000	99.321598 
1686.000000	99.321969 
1685.000000	99.322405 
1684.000000	99.323010 
1683.000000	99.323555 
1682.000000	99.323913 
1681.000000	99.324177 
1680.000000	99.324547 
1679.000000	99.325164 
1678.000000	99.325954 
1677.000000	99.326728 
1676.000000	99.327449 
1675.000000	99.328209 
1674.000000	99.328929 
1673.000000	99.329567 
1672.000000	99.330184 
1671.000000	99.330820 
1670.000000	99.331390 
1669.000000	99.331694 
1668.000000	99.332044 
1667.000000	99.332887 
1666.000000	99.333807 
1665.000000	99.334042 
1664.000000	99.333664 
1663.000000	99.333843 
1662.000000	99.335326 
1661.000000	99.337377 
1660.000000	99.339155 
1659.000000	99.340888 
1658.000000	99.343399 
1657.000000	99.346176 
1656.000000	99.347660 
1655.000000	99.346363 
1654.000000	99.344062 
1653.000000	99.342942 
1652.000000	99.341681 
1651.000000	99.341035 
1650.000000	99.340837 
1649.000000	99.339668 
1648.000000	99.337585 
1647.000000	99.335498 
1646.000000	99.334411 
1645.000000	99.334967 
1644.000000	99.337144 
1643.000000	99.339966 
1642.000000	99.342230 
1641.000000	99.343494 
1640.000000	99.343981 
1639.000000	99.344047 
1638.000000	99.343819 
1637.000000	99.343479 
1636.000000	99.343091 
1635.000000	99.342520 
1634.000000	99.342656 
1633.000000	99.344025 
1632.000000	99.345660 
1631.000000	99.346635 
1630.000000	99.346764 
1629.000000	99.346308 
1628.000000	99.345751 
1627.000000	99.345555 
1626.000000	99.345860 
1625.000000	99.346529 
1624.000000	99.347531 
1623.000000	99.348874 
1622.000000	99.350207 
1621.000000	99.351022 
1620.000000	99.350931 
1619.000000	99.349867 
1618.000000	99.348637 
1617.000000	99.348345 
1616.000000	99.348962 
1615.000000	99.349658 
1614.000000	99.349499 
1613.000000	99.347839 
1612.000000	99.345207 
1611.000000	99.342795 
1610.000000	99.341064 
1609.000000	99.339745 
1608.000000	99.338967 
1607.000000	99.339191 
1606.000000	99.339948 
1605.000000	99.340286 
1604.000000	99.340198 
1603.000000	99.340474 
1602.000000	99.341312 
1601.000000	99.341905 
1600.000000	99.341719 
1599.000000	99.341304 
1598.000000	99.341477 
1597.000000	99.342436 
1596.000000	99.343847 
1595.000000	99.345311 
1594.000000	99.346469 
1593.000000	99.346977 
1592.000000	99.346834 
1591.000000	99.346509 
1590.000000	99.346438 
1589.000000	99.346582 
1588.000000	99.346757 
1587.000000	99.347006 
1586.000000	99.347188 
1585.000000	99.346825 
1584.000000	99.345765 
1583.000000	99.344482 
1582.000000	99.343632 
1581.000000	99.343455 
1580.000000	99.343705 
1579.000000	99.344014 
1578.000000	99.344175 
1577.000000	99.344173 
1576.000000	99.344034 
1575.000000	99.343888 
1574.000000	99.343821 
1573.000000	99.343705 
1572.000000	99.343479 
1571.000000	99.343247 
1570.000000	99.343104 
1569.000000	99.343009 
1568.000000	99.342889 
1567.000000	99.342730 
1566.000000	99.342545 
1565.000000	99.342346 
1564.000000	99.342134 
1563.000000	99.341911 
1562.000000	99.341677 
1561.000000	99.341430 
1560.000000	99.341165 
1559.000000	99.340882 
1558.000000	99.340582 
1557.000000	99.340266 
1556.000000	99.339933 
1555.000000	99.339580 
1554.000000	99.339203 
1553.000000	99.338802 
1552.000000	99.338379 
1551.000000	99.337937 
1550.000000	99.337476 
1549.000000	99.336998 
1548.000000	99.336502 
1547.000000	99.335988 
1546.000000	99.335455 
1545.000000	99.334910 
1544.000000	99.334361 
1543.000000	99.333819 
1542.000000	99.333290 
1541.000000	99.332778 
1540.000000	99.332278 
1539.000000	99.331782 
1538.000000	99.331292 
1537.000000	99.330810 
1536.000000	99.330336 
1535.000000	99.329867 
1534.000000	99.329402 
1533.000000	99.328938 
1532.000000	99.328486 
1531.000000	99.328013 
1530.000000	99.327496 
1529.000000	99.326969 
1528.000000	99.326462 
1527.000000	99.325935 
1526.000000	99.325355 
1525.000000	99.324757 
1524.000000	99.324179 
1523.000000	99.323631 
1522.000000	99.323261 
1521.000000	99.323129 
1520.000000	99.322793 
1519.000000	99.321848 
1518.000000	99.320385 
1517.000000	99.318889 
1516.000000	99.317694 
1515.000000	99.316700 
1514.000000	99.315790 
1513.000000	99.314991 
1512.000000	99.314228 
1511.000000	99.313236 
1510.000000	99.311861 
1509.000000	99.310274 
1508.000000	99.309531 
1507.000000	99.310836 
1506.000000	99.312162 
1505.000000	99.311218 
1504.000000	99.309164 
1503.000000	99.307349 
1502.000000	99.306271 
1501.000000	99.306444 
1500.000000	99.307790 
1499.000000	99.309568 
1498.000000	99.310802 
1497.000000	99.311580 
1496.000000	99.312019 
1495.000000	99.311246 
1494.000000	99.308795 
1493.000000	99.305233 
1492.000000	99.301178 
1491.000000	99.297206 
1490.000000	99.294111 
1489.000000	99.292197 
1488.000000	99.290331 
1487.000000	99.287802 
1486.000000	99.285763 
1485.000000	99.284826 
1484.000000	99.284296 
1483.000000	99.283386 
1482.000000	99.281733 
1481.000000	99.279372 
1480.000000	99.276407 
1479.000000	99.273152 
1478.000000	99.270254 
1477.000000	99.268278 
1476.000000	99.266904 
1475.000000	99.264947 
1474.000000	99.262595 
1473.000000	99.262499 
1472.000000	99.265286 
1471.000000	99.267363 
1470.000000	99.266976 
1469.000000	99.266150 
1468.000000	99.266861 
1467.000000	99.269177 
1466.000000	99.272076 
1465.000000	99.274497 
1464.000000	99.275308 
1463.000000	99.273973 
1462.000000	99.271614 
1461.000000	99.269902 
1460.000000	99.269134 
1459.000000	99.267766 
1458.000000	99.263677 
1457.000000	99.257262 
1456.000000	99.250746 
1455.000000	99.245072 
1454.000000	99.240503 
1453.000000	99.237402 
1452.000000	99.235049 
1451.000000	99.232669 
1450.000000	99.231450 
1449.000000	99.234393 
1448.000000	99.241749 
1447.000000	99.249006 
1446.000000	99.252201 
1445.000000	99.252397 
1444.000000	99.252079 
1443.000000	99.251120 
1442.000000	99.248781 
1441.000000	99.246525 
1440.000000	99.247005 
1439.000000	99.250928 
1438.000000	99.255793 
1437.000000	99.257972 
1436.000000	99.255212 
1435.000000	99.247815 
1434.000000	99.239052 
1433.000000	99.232735 
1432.000000	99.230055 
1431.000000	99.229888 
1430.000000	99.230271 
1429.000000	99.230112 
1428.000000	99.228969 
1427.000000	99.226032 
1426.000000	99.220432 
1425.000000	99.212496 
1424.000000	99.205020 
1423.000000	99.200115 
1422.000000	99.196150 
1421.000000	99.190181 
1420.000000	99.181169 
1419.000000	99.170410 
1418.000000	99.158589 
1417.000000	99.145766 
1416.000000	99.133254 
1415.000000	99.121622 
1414.000000	99.109407 
1413.000000	99.095362 
1412.000000	99.080849 
1411.000000	99.068516 
1410.000000	99.058938 
1409.000000	99.051395 
1408.000000	99.046171 
1407.000000	99.043759 
1406.000000	99.043471 
1405.000000	99.045089 
1404.000000	99.050174 
1403.000000	99.058440 
1402.000000	99.066426 
1401.000000	99.071640 
1400.000000	99.075067 
1399.000000	99.078322 
1398.000000	99.078295 
1397.000000	99.068849 
1396.000000	99.048822 
1395.000000	99.027373 
1394.000000	99.018024 
1393.000000	99.025899 
1392.000000	99.045924 
1391.000000	99.069079 
1390.000000	99.087594 
1389.000000	99.097422 
1388.000000	99.098702 
1387.000000	99.094837 
1386.000000	99.089656 
1385.000000	99.085378 
1384.000000	99.082865 
1383.000000	99.082125 
1382.000000	99.082926 
1381.000000	99.085677 
1380.000000	99.090881 
1379.000000	99.097985 
1378.000000	99.105308 
1377.000000	99.111455 
1376.000000	99.116778 
1375.000000	99.123228 
1374.000000	99.132196 
1373.000000	99.142559 
1372.000000	99.152155 
1371.000000	99.160901 
1370.000000	99.170565 
1369.000000	99.181759 
1368.000000	99.193305 
1367.000000	99.203529 
1366.000000	99.211582 
1365.000000	99.217598 
1364.000000	99.221867 
1363.000000	99.225110 
1362.000000	99.228839 
1361.000000	99.233962 
1360.000000	99.239986 
1359.000000	99.246317 
1358.000000	99.253168 
1357.000000	99.260832 
1356.000000	99.268646 
1355.000000	99.275293 
1354.000000	99.280177 
1353.000000	99.283916 
1352.000000	99.286397 
1351.000000	99.286585 
1350.000000	99.285458 
1349.000000	99.285431 
1348.000000	99.287818 
1347.000000	99.292136 
1346.000000	99.297394 
1345.000000	99.302578 
1344.000000	99.306405 
1343.000000	99.308127 
1342.000000	99.308515 
1341.000000	99.308826 
1340.000000	99.309076 
1339.000000	99.308521 
1338.000000	99.307393 
1337.000000	99.307143 
1336.000000	99.308608 
1335.000000	99.310963 
1334.000000	99.313197 
1333.000000	99.315438 
1332.000000	99.317878 
1331.000000	99.319802 
1330.000000	99.320402 
1329.000000	99.319651 
1328.000000	99.317962 
1327.000000	99.315848 
1326.000000	99.314048 
1325.000000	99.313051 
1324.000000	99.313198 
1323.000000	99.314457 
1322.000000	99.316020 
1321.000000	99.316698 
1320.000000	99.316092 
1319.000000	99.315091 
1318.000000	99.314732 
1317.000000	99.314885 
1316.000000	99.314417 
1315.000000	99.312651 
1314.000000	99.310297 
1313.000000	99.308919 
1312.000000	99.309416 
1311.000000	99.311318 
1310.000000	99.313646 
1309.000000	99.315983 
1308.000000	99.318200 
1307.000000	99.319581 
1306.000000	99.319164 
1305.000000	99.316936 
1304.000000	99.314621 
1303.000000	99.314230 
1302.000000	99.316116 
1301.000000	99.318744 
1300.000000	99.320176 
1299.000000	99.319343 
1298.000000	99.316316 
1297.000000	99.312203 
1296.000000	99.308732 
1295.000000	99.307425 
1294.000000	99.308543 
1293.000000	99.310934 
1292.000000	99.312909 
1291.000000	99.313194 
1290.000000	99.311565 
1289.000000	99.308949 
1288.000000	99.306603 
1287.000000	99.304805 
1286.000000	99.302675 
1285.000000	99.299681 
1284.000000	99.296743 
1283.000000	99.295132 
1282.000000	99.294428 
1281.000000	99.292594 
1280.000000	99.288355 
1279.000000	99.282535 
1278.000000	99.276650 
1277.000000	99.271275 
1276.000000	99.266122 
1275.000000	99.261077 
1274.000000	99.256428 
1273.000000	99.252391 
1272.000000	99.248844 
1271.000000	99.245271 
1270.000000	99.240783 
1269.000000	99.234685 
1268.000000	99.227379 
1267.000000	99.220118 
1266.000000	99.213448 
1265.000000	99.206636 
1264.000000	99.198944 
1263.000000	99.190622 
1262.000000	99.182229 
1261.000000	99.173919 
1260.000000	99.166144 
1259.000000	99.160087 
1258.000000	99.156214 
1257.000000	99.153320 
1256.000000	99.150065 
1255.000000	99.146841 
1254.000000	99.144875 
1253.000000	99.143966 
1252.000000	99.142586 
1251.000000	99.140285 
1250.000000	99.138661 
1249.000000	99.139655 
1248.000000	99.143957 
1247.000000	99.150853 
1246.000000	99.158015 
1245.000000	99.161423 
1244.000000	99.157756 
1243.000000	99.148517 
1242.000000	99.140824 
1241.000000	99.141701 
1240.000000	99.151634 
1239.000000	99.164250 
1238.000000	99.172268 
1237.000000	99.173359 
1236.000000	99.169803 
1235.000000	99.164575 
1234.000000	99.159007 
1233.000000	99.153501 
1232.000000	99.148798 
1231.000000	99.145764 
1230.000000	99.144500 
1229.000000	99.144419 
1228.000000	99.145225 
1227.000000	99.147465 
1226.000000	99.151865 
1225.000000	99.158143 
1224.000000	99.164707 
1223.000000	99.169804 
1222.000000	99.173079 
1221.000000	99.175830 
1220.000000	99.179713 
1219.000000	99.185387 
1218.000000	99.192298 
1217.000000	99.199408 
1216.000000	99.205930 
1215.000000	99.211709 
1214.000000	99.217269 
1213.000000	99.223371 
1212.000000	99.230152 
1211.000000	99.236674 
1210.000000	99.241678 
1209.000000	99.244732 
1208.000000	99.246357 
1207.000000	99.247192 
1206.000000	99.247604 
1205.000000	99.248230 
1204.000000	99.250160 
1203.000000	99.253900 
1202.000000	99.258191 
1201.000000	99.260574 
1200.000000	99.259679 
1199.000000	99.256657 
1198.000000	99.254154 
1197.000000	99.253916 
1196.000000	99.255485 
1195.000000	99.257277 
1194.000000	99.258239 
1193.000000	99.258105 
1192.000000	99.256816 
1191.000000	99.254630 
1190.000000	99.252587 
1189.000000	99.252132 
1188.000000	99.254052 
1187.000000	99.257910 
1186.000000	99.262330 
1185.000000	99.265603 
1184.000000	99.266315 
1183.000000	99.264077 
1182.000000	99.259984 
1181.000000	99.256125 
1180.000000	99.254232 
1179.000000	99.254674 
1178.000000	99.256416 
1177.000000	99.257766 
1176.000000	99.257558 
1175.000000	99.256067 
1174.000000	99.254697 
1173.000000	99.254472 
1172.000000	99.255106 
1171.000000	99.255874 
1170.000000	99.256763 
1169.000000	99.257998 
1168.000000	99.258794 
1167.000000	99.257674 
1166.000000	99.254230 
1165.000000	99.249842 
1164.000000	99.246343 
1163.000000	99.244491 
1162.000000	99.243877 
1161.000000	99.243570 
1160.000000	99.242659 
1159.000000	99.241101 
1158.000000	99.240288 
1157.000000	99.241738 
1156.000000	99.244766 
1155.000000	99.246622 
1154.000000	99.245611 
1153.000000	99.242911 
1152.000000	99.240572 
1151.000000	99.239031 
1150.000000	99.237706 
1149.000000	99.236706 
1148.000000	99.236228 
1147.000000	99.234894 
1146.000000	99.230557 
1145.000000	99.222961 
1144.000000	99.214537 
1143.000000	99.208343 
1142.000000	99.205651 
1141.000000	99.205442 
1140.000000	99.205660 
1139.000000	99.204973 
1138.000000	99.203589 
1137.000000	99.202283 
1136.000000	99.200768 
1135.000000	99.197875 
1134.000000	99.193518 
1133.000000	99.189283 
1132.000000	99.186385 
1131.000000	99.184091 
1130.000000	99.181048 
1129.000000	99.177204 
1128.000000	99.173245 
1127.000000	99.168919 
1126.000000	99.163441 
1125.000000	99.157260 
1124.000000	99.151985 
1123.000000	99.148327 
1122.000000	99.145044 
1121.000000	99.140244 
1120.000000	99.133144 
1119.000000	99.124305 
1118.000000	99.114594 
1117.000000	99.104160 
1116.000000	99.092370 
1115.000000	99.078722 
1114.000000	99.063514 
1113.000000	99.047198 
1112.000000	99.029663 
1111.000000	99.011403 
1110.000000	98.994705 
1109.000000	98.981928 
1108.000000	98.972259 
1107.000000	98.961584 
1106.000000	98.946869 
1105.000000	98.929356 
1104.000000	98.912072 
1103.000000	98.895748 
1102.000000	98.879285 
1101.000000	98.863583 
1100.000000	98.851744 
1099.000000	98.844663 
1098.000000	98.839938 
1097.000000	98.834975 
1096.000000	98.829581 
1095.000000	98.823692 
1094.000000	98.814524 
1093.000000	98.798182 
1092.000000	98.773533 
1091.000000	98.742898 
1090.000000	98.709255 
1089.000000	98.674111 
1088.000000	98.638211 
1087.000000	98.602907 
1086.000000	98.569893 
1085.000000	98.540010 
1084.000000	98.512751 
1083.000000	98.486747 
1082.000000	98.460728 
1081.000000	98.434416 
1080.000000	98.408590 
1079.000000	98.384244 
1078.000000	98.362178 
1077.000000	98.343729 
1076.000000	98.330985 
1075.000000	98.325283 
1074.000000	98.326049 
1073.000000	98.331718 
1072.000000	98.339997 
1071.000000	98.345247 
1070.000000	98.337726 
1069.000000	98.310675 
1068.000000	98.270584 
1067.000000	98.237357 
1066.000000	98.229741 
1065.000000	98.250390 
1064.000000	98.285383 
1063.000000	98.316191 
1062.000000	98.331166 
1061.000000	98.327457 
1060.000000	98.308186 
1059.000000	98.281870 
1058.000000	98.261047 
1057.000000	98.255169 
1056.000000	98.262970 
1055.000000	98.273687 
1054.000000	98.277360 
1053.000000	98.273558 
1052.000000	98.269342 
1051.000000	98.270400 
1050.000000	98.276366 
1049.000000	98.284141 
1048.000000	98.292768 
1047.000000	98.303554 
1046.000000	98.316994 
1045.000000	98.331439 
1044.000000	98.345057 
1043.000000	98.358423 
1042.000000	98.374190 
1041.000000	98.393520 
1040.000000	98.413804 
1039.000000	98.431795 
1038.000000	98.448888 
1037.000000	98.470599 
1036.000000	98.499857 
1035.000000	98.533351 
1034.000000	98.565959 
1033.000000	98.595618 
1032.000000	98.620662 
1031.000000	98.635612 
1030.000000	98.635809 
1029.000000	98.626791 
1028.000000	98.624090 
1027.000000	98.640069 
1026.000000	98.672960 
1025.000000	98.710219 
1024.000000	98.740442 
1023.000000	98.760096 
1022.000000	98.771557 
1021.000000	98.778813 
1020.000000	98.785249 
1019.000000	98.792998 
1018.000000	98.802437 
1017.000000	98.812678 
1016.000000	98.823120 
1015.000000	98.834309 
1014.000000	98.847358 
1013.000000	98.862704 
1012.000000	98.879176 
1011.000000	98.894298 
1010.000000	98.906292 
1009.000000	98.916055 
1008.000000	98.926390 
1007.000000	98.938932 
1006.000000	98.952590 
1005.000000	98.965491 
1004.000000	98.977436 
1003.000000	98.989508 
1002.000000	99.001988 
1001.000000	99.013962 
1000.000000	99.024834 
999.000000	 99.035007 
998.000000	 99.044779 
997.000000	 99.053522 
996.000000	 99.060737 
995.000000	 99.067587 
994.000000	 99.076529 
993.000000	 99.088886 
992.000000	 99.102812 
991.000000	 99.114246 
990.000000	 99.120464 
989.000000	 99.122528 
988.000000	 99.123827 
987.000000	 99.126410 
986.000000	 99.129723 
985.000000	 99.133054 
984.000000	 99.137739 
983.000000	 99.145434 
982.000000	 99.155157 
981.000000	 99.163976 
980.000000	 99.170122 
979.000000	 99.173962 
978.000000	 99.176311 
977.000000	 99.177687 
976.000000	 99.179340 
975.000000	 99.183233 
974.000000	 99.190024 
973.000000	 99.197999 
972.000000	 99.204864 
971.000000	 99.210018 
970.000000	 99.214410 
969.000000	 99.218826 
968.000000	 99.223266 
967.000000	 99.227647 
966.000000	 99.231989 
965.000000	 99.235799 
964.000000	 99.238333 
963.000000	 99.239810 
962.000000	 99.241447 
961.000000	 99.243762 
960.000000	 99.245710 
959.000000	 99.246305 
958.000000	 99.246343 
957.000000	 99.247356 
956.000000	 99.249309 
955.000000	 99.250795 
954.000000	 99.251542 
953.000000	 99.253176 
952.000000	 99.256872 
951.000000	 99.261436 
950.000000	 99.264630 
949.000000	 99.265600 
948.000000	 99.265240 
947.000000	 99.265118 
946.000000	 99.266780 
945.000000	 99.271122 
944.000000	 99.277343 
943.000000	 99.283071 
942.000000	 99.286595 
941.000000	 99.288274 
940.000000	 99.288934 
939.000000	 99.288051 
938.000000	 99.284850 
937.000000	 99.280409 
936.000000	 99.276770 
935.000000	 99.274155 
934.000000	 99.270988 
933.000000	 99.266849 
932.000000	 99.263549 
931.000000	 99.262740 
930.000000	 99.263990 
929.000000	 99.266018 
928.000000	 99.268402 
927.000000	 99.271038 
926.000000	 99.273018 
925.000000	 99.273253 
924.000000	 99.271657 
923.000000	 99.268770 
922.000000	 99.264679 
921.000000	 99.259279 
920.000000	 99.253314 
919.000000	 99.248261 
918.000000	 99.245047 
917.000000	 99.243252 
916.000000	 99.241516 
915.000000	 99.238521 
914.000000	 99.234028 
913.000000	 99.229360 
912.000000	 99.226462 
911.000000	 99.225920 
910.000000	 99.226024 
909.000000	 99.224183 
908.000000	 99.219163 
907.000000	 99.211713 
906.000000	 99.203302 
905.000000	 99.194708 
904.000000	 99.185991 
903.000000	 99.177747 
902.000000	 99.172114 
901.000000	 99.171816 
900.000000	 99.177527 
899.000000	 99.186167 
898.000000	 99.192778 
897.000000	 99.194756 
896.000000	 99.193182 
895.000000	 99.190266 
894.000000	 99.187187 
893.000000	 99.184924 
892.000000	 99.185287 
891.000000	 99.189298 
890.000000	 99.195348 
889.000000	 99.200716 
888.000000	 99.204669 
887.000000	 99.208282 
886.000000	 99.211407 
885.000000	 99.211985 
884.000000	 99.209154 
883.000000	 99.205388 
882.000000	 99.204090 
881.000000	 99.205943 
880.000000	 99.209131 
879.000000	 99.212559 
878.000000	 99.217121 
877.000000	 99.223326 
876.000000	 99.229139 
875.000000	 99.231438 
874.000000	 99.229327 
873.000000	 99.225271 
872.000000	 99.222986 
871.000000	 99.224430 
870.000000	 99.228684 
869.000000	 99.233051 
868.000000	 99.235421 
867.000000	 99.236125 
866.000000	 99.237792 
865.000000	 99.243070 
864.000000	 99.252145 
863.000000	 99.262448 
862.000000	 99.270790 
861.000000	 99.275677 
860.000000	 99.277614 
859.000000	 99.278170 
858.000000	 99.279502 
857.000000	 99.283951 
856.000000	 99.292585 
855.000000	 99.303556 
854.000000	 99.312896 
853.000000	 99.318072 
852.000000	 99.320064 
851.000000	 99.321388 
850.000000	 99.322859 
849.000000	 99.323499 
848.000000	 99.323184 
847.000000	 99.323579 
846.000000	 99.325991 
845.000000	 99.329652 
844.000000	 99.333153 
843.000000	 99.336549 
842.000000	 99.340645 
841.000000	 99.344676 
840.000000	 99.346609 
839.000000	 99.346235 
838.000000	 99.346286 
837.000000	 99.349038 
836.000000	 99.352749 
835.000000	 99.353547 
834.000000	 99.350678 
833.000000	 99.347776 
832.000000	 99.348078 
831.000000	 99.350022 
830.000000	 99.349779 
829.000000	 99.347086 
828.000000	 99.345887 
827.000000	 99.348669 
826.000000	 99.352593 
825.000000	 99.353111 
824.000000	 99.349945 
823.000000	 99.347170 
822.000000	 99.347768 
821.000000	 99.350298 
820.000000	 99.351481 
819.000000	 99.350090 
818.000000	 99.347427 
817.000000	 99.345194 
816.000000	 99.343739 
815.000000	 99.342181 
814.000000	 99.339579 
813.000000	 99.335950 
812.000000	 99.332490 
811.000000	 99.330785 
810.000000	 99.331459 
809.000000	 99.333426 
808.000000	 99.334630 
807.000000	 99.333742 
806.000000	 99.331061 
805.000000	 99.327748 
804.000000	 99.324460 
803.000000	 99.321127 
802.000000	 99.317926 
801.000000	 99.315767 
800.000000	 99.315349 
799.000000	 99.316215 
798.000000	 99.317207 
797.000000	 99.317722 
796.000000	 99.318005 
795.000000	 99.318432 
794.000000	 99.319160 
793.000000	 99.320384 
792.000000	 99.322114 
791.000000	 99.323497 
790.000000	 99.323110 
789.000000	 99.320395 
788.000000	 99.316558 
787.000000	 99.313737 
786.000000	 99.313027 
785.000000	 99.314055 
784.000000	 99.315885 
783.000000	 99.317840 
782.000000	 99.319460 
781.000000	 99.320316 
780.000000	 99.320335 
779.000000	 99.319836 
778.000000	 99.319122 
777.000000	 99.318408 
776.000000	 99.318225 
775.000000	 99.319250 
774.000000	 99.321463 
773.000000	 99.323928 
772.000000	 99.325737 
771.000000	 99.326851 
770.000000	 99.327712 
769.000000	 99.328489 
768.000000	 99.329129 
767.000000	 99.329860 
766.000000	 99.331077 
765.000000	 99.332761 
764.000000	 99.334402 
763.000000	 99.335522 
762.000000	 99.336084 
761.000000	 99.336401 
760.000000	 99.336862 
759.000000	 99.337714 
758.000000	 99.338914 
757.000000	 99.340126 
756.000000	 99.340998 
755.000000	 99.341592 
754.000000	 99.342415 
753.000000	 99.343885 
752.000000	 99.345866 
751.000000	 99.347803 
750.000000	 99.349239 
749.000000	 99.349989 
748.000000	 99.349980 
747.000000	 99.349372 
746.000000	 99.348865 
745.000000	 99.349249 
744.000000	 99.350425 
743.000000	 99.351237 
742.000000	 99.350688 
741.000000	 99.349087 
740.000000	 99.347798 
739.000000	 99.347753 
738.000000	 99.348573 
737.000000	 99.349165 
736.000000	 99.348968 
735.000000	 99.348281 
734.000000	 99.347762 
733.000000	 99.347968 
732.000000	 99.349172 
731.000000	 99.350968 
730.000000	 99.352180 
729.000000	 99.351848 
728.000000	 99.350183 
727.000000	 99.348431 
726.000000	 99.347709 
725.000000	 99.348167 
724.000000	 99.349310 
723.000000	 99.350643 
722.000000	 99.351861 
721.000000	 99.352701 
720.000000	 99.352809 
719.000000	 99.351990 
718.000000	 99.350496 
717.000000	 99.348908 
716.000000	 99.347887 
715.000000	 99.347676 
714.000000	 99.347792 
713.000000	 99.347524 
712.000000	 99.346787 
711.000000	 99.346200 
710.000000	 99.346311 
709.000000	 99.347004 
708.000000	 99.347886 
707.000000	 99.348824 
706.000000	 99.349841 
705.000000	 99.350719 
704.000000	 99.351056 
703.000000	 99.350710 
702.000000	 99.349889 
701.000000	 99.348950 
700.000000	 99.348433 
699.000000	 99.348912 
698.000000	 99.350425 
697.000000	 99.351877 
696.000000	 99.351418 
695.000000	 99.348041 
694.000000	 99.342758 
693.000000	 99.338419 
692.000000	 99.337813 
691.000000	 99.341292 
690.000000	 99.346205 
689.000000	 99.349126 
688.000000	 99.349211 
687.000000	 99.348716 
686.000000	 99.349723 
685.000000	 99.351510 
684.000000	 99.352003 
683.000000	 99.350424 
682.000000	 99.347870 
681.000000	 99.346339 
680.000000	 99.347778 
679.000000	 99.352572 
678.000000	 99.357805 
677.000000	 99.359096 
676.000000	 99.355332 
675.000000	 99.349663 
674.000000	 99.345918 
673.000000	 99.344640 
672.000000	 99.343015 
671.000000	 99.337961 
670.000000	 99.328370 
669.000000	 99.316649 
668.000000	 99.309431 
667.000000	 99.310874 
666.000000	 99.319415 
665.000000	 99.332310 
664.000000	 99.344356 
663.000000	 99.350769 
662.000000	 99.350818 
661.000000	 99.349046 
660.000000	 99.350540 
659.000000	 99.354840 
658.000000	 99.357091 
657.000000	 99.354822 
656.000000	 99.350243 
655.000000	 99.346612 
654.000000	 99.345486 
653.000000	 99.346363 
652.000000	 99.346695 
651.000000	 99.344258 
650.000000	 99.340604 

