4000.000000	99.040679 
3999.000000	99.040789 
3998.000000	99.040867 
3997.000000	99.040715 
3996.000000	99.040148 
3995.000000	99.039181 
3994.000000	99.038196 
3993.000000	99.037698 
3992.000000	99.037870 
3991.000000	99.038470 
3990.000000	99.039036 
3989.000000	99.039299 
3988.000000	99.039350 
3987.000000	99.039459 
3986.000000	99.039801 
3985.000000	99.040287 
3984.000000	99.040607 
3983.000000	99.040463 
3982.000000	99.039798 
3981.000000	99.038845 
3980.000000	99.037967 
3979.000000	99.037375 
3978.000000	99.037077 
3977.000000	99.037014 
3976.000000	99.037172 
3975.000000	99.037550 
3974.000000	99.038053 
3973.000000	99.038454 
3972.000000	99.038501 
3971.000000	99.038118 
3970.000000	99.037463 
3969.000000	99.036822 
3968.000000	99.036396 
3967.000000	99.036179 
3966.000000	99.036048 
3965.000000	99.035937 
3964.000000	99.035861 
3963.000000	99.035797 
3962.000000	99.035620 
3961.000000	99.035215 
3960.000000	99.034604 
3959.000000	99.033945 
3958.000000	99.033396 
3957.000000	99.032990 
3956.000000	99.032673 
3955.000000	99.032418 
3954.000000	99.032294 
3953.000000	99.032359 
3952.000000	99.032519 
3951.000000	99.032539 
3950.000000	99.032190 
3949.000000	99.031424 
3948.000000	99.030488 
3947.000000	99.029817 
3946.000000	99.029673 
3945.000000	99.029995 
3944.000000	99.030419 
3943.000000	99.030473 
3942.000000	99.030043 
3941.000000	99.029429 
3940.000000	99.028905 
3939.000000	99.028371 
3938.000000	99.027528 
3937.000000	99.026367 
3936.000000	99.025375 
3935.000000	99.025093 
3934.000000	99.025674 
3933.000000	99.026802 
3932.000000	99.027980 
3931.000000	99.028741 
3930.000000	99.028755 
3929.000000	99.028105 
3928.000000	99.027322 
3927.000000	99.026938 
3926.000000	99.027021 
3925.000000	99.027142 
3924.000000	99.026843 
3923.000000	99.026088 
3922.000000	99.025132 
3921.000000	99.024309 
3920.000000	99.023895 
3919.000000	99.024022 
3918.000000	99.024580 
3917.000000	99.025268 
3916.000000	99.025871 
3915.000000	99.026429 
3914.000000	99.027080 
3913.000000	99.027795 
3912.000000	99.028360 
3911.000000	99.028688 
3910.000000	99.028974 
3909.000000	99.029491 
3908.000000	99.030293 
3907.000000	99.030896 
3906.000000	99.030445 
3905.000000	99.028288 
3904.000000	99.024663 
3903.000000	99.020984 
3902.000000	99.018824 
3901.000000	99.018619 
3900.000000	99.019719 
3899.000000	99.020991 
3898.000000	99.021738 
3897.000000	99.021940 
3896.000000	99.021796 
3895.000000	99.021501 
3894.000000	99.021202 
3893.000000	99.020874 
3892.000000	99.020289 
3891.000000	99.019297 
3890.000000	99.018145 
3889.000000	99.017293 
3888.000000	99.017070 
3887.000000	99.017397 
3886.000000	99.017785 
3885.000000	99.017872 
3884.000000	99.017763 
3883.000000	99.017728 
3882.000000	99.017849 
3881.000000	99.017954 
3880.000000	99.017859 
3879.000000	99.017577 
3878.000000	99.017290 
3877.000000	99.017189 
3876.000000	99.017298 
3875.000000	99.017375 
3874.000000	99.017160 
3873.000000	99.016678 
3872.000000	99.016178 
3871.000000	99.015859 
3870.000000	99.015721 
3869.000000	99.015708 
3868.000000	99.015789 
3867.000000	99.015931 
3866.000000	99.016086 
3865.000000	99.016208 
3864.000000	99.016281 
3863.000000	99.016325 
3862.000000	99.016383 
3861.000000	99.016516 
3860.000000	99.016749 
3859.000000	99.017020 
3858.000000	99.017215 
3857.000000	99.017311 
3856.000000	99.017423 
3855.000000	99.017694 
3854.000000	99.018027 
3853.000000	99.018278 
3852.000000	99.018556 
3851.000000	99.018938 
3850.000000	99.019351 
3849.000000	99.019738 
3848.000000	99.020096 
3847.000000	99.020442 
3846.000000	99.020769 
3845.000000	99.021051 
3844.000000	99.021284 
3843.000000	99.021495 
3842.000000	99.021713 
3841.000000	99.021941 
3840.000000	99.022176 
3839.000000	99.022421 
3838.000000	99.022693 
3837.000000	99.023001 
3836.000000	99.023339 
3835.000000	99.023705 
3834.000000	99.024090 
3833.000000	99.024482 
3832.000000	99.024862 
3831.000000	99.025219 
3830.000000	99.025555 
3829.000000	99.025875 
3828.000000	99.026180 
3827.000000	99.026459 
3826.000000	99.026715 
3825.000000	99.026956 
3824.000000	99.027193 
3823.000000	99.027437 
3822.000000	99.027686 
3821.000000	99.027931 
3820.000000	99.028165 
3819.000000	99.028390 
3818.000000	99.028613 
3817.000000	99.028834 
3816.000000	99.029050 
3815.000000	99.029252 
3814.000000	99.029435 
3813.000000	99.029598 
3812.000000	99.029748 
3811.000000	99.029889 
3810.000000	99.030024 
3809.000000	99.030151 
3808.000000	99.030264 
3807.000000	99.030359 
3806.000000	99.030439 
3805.000000	99.030511 
3804.000000	99.030585 
3803.000000	99.030671 
3802.000000	99.030767 
3801.000000	99.030864 
3800.000000	99.030952 
3799.000000	99.031025 
3798.000000	99.031080 
3797.000000	99.031115 
3796.000000	99.031130 
3795.000000	99.031124 
3794.000000	99.031093 
3793.000000	99.031036 
3792.000000	99.030953 
3791.000000	99.030845 
3790.000000	99.030717 
3789.000000	99.030573 
3788.000000	99.030417 
3787.000000	99.030252 
3786.000000	99.030079 
3785.000000	99.029897 
3784.000000	99.029709 
3783.000000	99.029509 
3782.000000	99.029316 
3781.000000	99.029205 
3780.000000	99.029177 
3779.000000	99.029108 
3778.000000	99.028869 
3777.000000	99.028429 
3776.000000	99.027829 
3775.000000	99.027129 
3774.000000	99.026461 
3773.000000	99.026019 
3772.000000	99.025944 
3771.000000	99.026072 
3770.000000	99.025844 
3769.000000	99.024870 
3768.000000	99.023543 
3767.000000	99.022645 
3766.000000	99.022482 
3765.000000	99.022698 
3764.000000	99.022889 
3763.000000	99.023144 
3762.000000	99.023753 
3761.000000	99.024554 
3760.000000	99.024773 
3759.000000	99.024096 
3758.000000	99.022958 
3757.000000	99.021410 
3756.000000	99.018907 
3755.000000	99.015309 
3754.000000	99.011184 
3753.000000	99.007340 
3752.000000	99.004371 
3751.000000	99.002498 
3750.000000	99.001921 
3749.000000	99.001790 
3748.000000	99.001559 
3747.000000	99.002860 
3746.000000	99.007844 
3745.000000	99.013222 
3744.000000	99.014891 
3743.000000	99.014760 
3742.000000	99.013827 
3741.000000	99.009530 
3740.000000	99.001620 
3739.000000	98.993709 
3738.000000	98.990323 
3737.000000	98.991832 
3736.000000	98.994153 
3735.000000	98.994756 
3734.000000	98.994994 
3733.000000	98.996404 
3732.000000	98.998537 
3731.000000	99.000011 
3730.000000	98.999944 
3729.000000	98.998421 
3728.000000	98.996696 
3727.000000	98.995684 
3726.000000	98.994946 
3725.000000	98.993698 
3724.000000	98.992049 
3723.000000	98.990880 
3722.000000	98.990448 
3721.000000	98.990279 
3720.000000	98.989093 
3719.000000	98.985421 
3718.000000	98.978727 
3717.000000	98.968992 
3716.000000	98.956638 
3715.000000	98.942576 
3714.000000	98.928372 
3713.000000	98.915982 
3712.000000	98.905986 
3711.000000	98.898013 
3710.000000	98.891005 
3709.000000	98.882940 
3708.000000	98.872437 
3707.000000	98.859441 
3706.000000	98.845321 
3705.000000	98.832237 
3704.000000	98.821383 
3703.000000	98.811140 
3702.000000	98.797431 
3701.000000	98.777965 
3700.000000	98.754936 
3699.000000	98.732452 
3698.000000	98.713117 
3697.000000	98.697015 
3696.000000	98.683113 
3695.000000	98.671178 
3694.000000	98.661928 
3693.000000	98.655768 
3692.000000	98.651472 
3691.000000	98.646642 
3690.000000	98.639262 
3689.000000	98.629986 
3688.000000	98.621809 
3687.000000	98.615995 
3686.000000	98.611281 
3685.000000	98.606701 
3684.000000	98.602884 
3683.000000	98.600727 
3682.000000	98.599242 
3681.000000	98.594687 
3680.000000	98.583112 
3679.000000	98.564396 
3678.000000	98.543837 
3677.000000	98.529045 
3676.000000	98.522319 
3675.000000	98.519211 
3674.000000	98.514298 
3673.000000	98.505980 
3672.000000	98.496502 
3671.000000	98.489268 
3670.000000	98.484234 
3669.000000	98.479240 
3668.000000	98.473393 
3667.000000	98.466999 
3666.000000	98.460828 
3665.000000	98.455112 
3664.000000	98.449104 
3663.000000	98.441954 
3662.000000	98.433320 
3661.000000	98.423016 
3660.000000	98.411483 
3659.000000	98.400618 
3658.000000	98.393339 
3657.000000	98.390495 
3656.000000	98.389288 
3655.000000	98.386313 
3654.000000	98.380613 
3653.000000	98.374055 
3652.000000	98.368880 
3651.000000	98.364799 
3650.000000	98.359472 
3649.000000	98.353970 
3648.000000	98.352142 
3647.000000	98.353850 
3646.000000	98.355750 
3645.000000	98.356376 
3644.000000	98.356951 
3643.000000	98.358895 
3642.000000	98.362304 
3641.000000	98.365872 
3640.000000	98.368099 
3639.000000	98.367670 
3638.000000	98.363921 
3637.000000	98.357517 
3636.000000	98.349668 
3635.000000	98.340329 
3634.000000	98.327811 
3633.000000	98.311640 
3632.000000	98.295343 
3631.000000	98.284980 
3630.000000	98.282855 
3629.000000	98.283241 
3628.000000	98.280232 
3627.000000	98.273986 
3626.000000	98.267196 
3625.000000	98.262466 
3624.000000	98.261331 
3623.000000	98.263936 
3622.000000	98.270184 
3621.000000	98.280352 
3620.000000	98.292903 
3619.000000	98.303684 
3618.000000	98.309698 
3617.000000	98.312168 
3616.000000	98.315368 
3615.000000	98.322943 
3614.000000	98.334173 
3613.000000	98.344979 
3612.000000	98.353248 
3611.000000	98.361117 
3610.000000	98.371841 
3609.000000	98.385632 
3608.000000	98.398991 
3607.000000	98.408939 
3606.000000	98.416261 
3605.000000	98.423993 
3604.000000	98.434457 
3603.000000	98.447444 
3602.000000	98.460915 
3601.000000	98.473174 
3600.000000	98.483552 
3599.000000	98.491478 
3598.000000	98.496480 
3597.000000	98.498750 
3596.000000	98.499855 
3595.000000	98.501976 
3594.000000	98.505799 
3593.000000	98.510156 
3592.000000	98.513533 
3591.000000	98.515489 
3590.000000	98.516951 
3589.000000	98.518699 
3588.000000	98.520115 
3587.000000	98.520223 
3586.000000	98.519182 
3585.000000	98.517969 
3584.000000	98.518412 
3583.000000	98.521816 
3582.000000	98.527701 
3581.000000	98.533611 
3580.000000	98.536967 
3579.000000	98.536859 
3578.000000	98.534036 
3577.000000	98.530140 
3576.000000	98.526815 
3575.000000	98.525402 
3574.000000	98.525930 
3573.000000	98.526702 
3572.000000	98.525763 
3571.000000	98.522924 
3570.000000	98.519773 
3569.000000	98.517835 
3568.000000	98.516941 
3567.000000	98.516031 
3566.000000	98.514965 
3565.000000	98.514277 
3564.000000	98.514402 
3563.000000	98.515781 
3562.000000	98.518341 
3561.000000	98.520886 
3560.000000	98.521633 
3559.000000	98.519634 
3558.000000	98.515787 
3557.000000	98.512293 
3556.000000	98.510842 
3555.000000	98.511216 
3554.000000	98.511624 
3553.000000	98.510243 
3552.000000	98.506895 
3551.000000	98.503065 
3550.000000	98.500272 
3549.000000	98.498905 
3548.000000	98.498542 
3547.000000	98.498655 
3546.000000	98.498847 
3545.000000	98.498580 
3544.000000	98.497415 
3543.000000	98.495713 
3542.000000	98.494558 
3541.000000	98.494723 
3540.000000	98.495953 
3539.000000	98.497187 
3538.000000	98.497559 
3537.000000	98.497001 
3536.000000	98.496015 
3535.000000	98.495100 
3534.000000	98.494425 
3533.000000	98.493940 
3532.000000	98.493594 
3531.000000	98.493402 
3530.000000	98.493278 
3529.000000	98.492942 
3528.000000	98.492139 
3527.000000	98.490922 
3526.000000	98.489659 
3525.000000	98.488723 
3524.000000	98.488183 
3523.000000	98.487819 
3522.000000	98.487371 
3521.000000	98.486755 
3520.000000	98.486096 
3519.000000	98.485586 
3518.000000	98.485337 
3517.000000	98.485292 
3516.000000	98.485241 
3515.000000	98.485005 
3514.000000	98.484566 
3513.000000	98.484016 
3512.000000	98.483400 
3511.000000	98.482652 
3510.000000	98.481738 
3509.000000	98.480793 
3508.000000	98.480051 
3507.000000	98.479663 
3506.000000	98.479617 
3505.000000	98.479724 
3504.000000	98.479669 
3503.000000	98.479198 
3502.000000	98.478354 
3501.000000	98.477483 
3500.000000	98.476891 
3499.000000	98.476473 
3498.000000	98.475771 
3497.000000	98.474443 
3496.000000	98.472611 
3495.000000	98.470814 
3494.000000	98.469544 
3493.000000	98.468864 
3492.000000	98.468501 
3491.000000	98.468150 
3490.000000	98.467743 
3489.000000	98.467431 
3488.000000	98.467327 
3487.000000	98.467293 
3486.000000	98.467012 
3485.000000	98.466296 
3484.000000	98.465231 
3483.000000	98.464020 
3482.000000	98.462752 
3481.000000	98.461447 
3480.000000	98.460190 
3479.000000	98.459065 
3478.000000	98.457967 
3477.000000	98.456664 
3476.000000	98.455129 
3475.000000	98.453733 
3474.000000	98.452908 
3473.000000	98.452642 
3472.000000	98.452355 
3471.000000	98.451446 
3470.000000	98.449861 
3469.000000	98.448059 
3468.000000	98.446499 
3467.000000	98.445186 
3466.000000	98.443864 
3465.000000	98.442460 
3464.000000	98.441160 
3463.000000	98.440103 
3462.000000	98.439146 
3461.000000	98.438020 
3460.000000	98.436631 
3459.000000	98.435171 
3458.000000	98.433908 
3457.000000	98.432848 
3456.000000	98.431690 
3455.000000	98.430134 
3454.000000	98.428244 
3453.000000	98.426428 
3452.000000	98.424967 
3451.000000	98.423687 
3450.000000	98.422162 
3449.000000	98.420184 
3448.000000	98.417918 
3447.000000	98.415669 
3446.000000	98.413593 
3445.000000	98.411724 
3444.000000	98.410156 
3443.000000	98.409023 
3442.000000	98.408205 
3441.000000	98.407178 
3440.000000	98.405384 
3439.000000	98.402750 
3438.000000	98.399756 
3437.000000	98.396933 
3436.000000	98.394472 
3435.000000	98.392425 
3434.000000	98.391052 
3433.000000	98.390605 
3432.000000	98.390745 
3431.000000	98.390568 
3430.000000	98.389420 
3429.000000	98.387621 
3428.000000	98.386138 
3427.000000	98.385412 
3426.000000	98.384710 
3425.000000	98.382827 
3424.000000	98.379411 
3423.000000	98.375409 
3422.000000	98.372162 
3421.000000	98.370191 
3420.000000	98.369151 
3419.000000	98.368665 
3418.000000	98.368778 
3417.000000	98.369503 
3416.000000	98.370341 
3415.000000	98.370575 
3414.000000	98.369914 
3413.000000	98.368723 
3412.000000	98.367667 
3411.000000	98.367216 
3410.000000	98.367346 
3409.000000	98.367539 
3408.000000	98.367047 
3407.000000	98.365329 
3406.000000	98.362442 
3405.000000	98.359106 
3404.000000	98.356365 
3403.000000	98.354996 
3402.000000	98.355122 
3401.000000	98.356322 
3400.000000	98.358062 
3399.000000	98.360040 
3398.000000	98.362114 
3397.000000	98.363990 
3396.000000	98.365072 
3395.000000	98.364719 
3394.000000	98.362734 
3393.000000	98.359740 
3392.000000	98.357079 
3391.000000	98.356048 
3390.000000	98.357134 
3389.000000	98.359872 
3388.000000	98.363212 
3387.000000	98.366105 
3386.000000	98.368027 
3385.000000	98.369134 
3384.000000	98.369989 
3383.000000	98.370951 
3382.000000	98.371760 
3381.000000	98.371896 
3380.000000	98.371312 
3379.000000	98.370636 
3378.000000	98.370566 
3377.000000	98.371140 
3376.000000	98.371784 
3375.000000	98.371985 
3374.000000	98.371784 
3373.000000	98.371664 
3372.000000	98.372051 
3371.000000	98.372987 
3370.000000	98.374159 
3369.000000	98.375174 
3368.000000	98.375839 
3367.000000	98.376289 
3366.000000	98.376846 
3365.000000	98.377706 
3364.000000	98.378733 
3363.000000	98.379619 
3362.000000	98.380211 
3361.000000	98.380604 
3360.000000	98.380958 
3359.000000	98.381340 
3358.000000	98.381771 
3357.000000	98.382323 
3356.000000	98.383087 
3355.000000	98.384039 
3354.000000	98.385001 
3353.000000	98.385809 
3352.000000	98.386477 
3351.000000	98.387169 
3350.000000	98.388010 
3349.000000	98.388981 
3348.000000	98.389985 
3347.000000	98.390916 
3346.000000	98.391717 
3345.000000	98.392397 
3344.000000	98.393032 
3343.000000	98.393731 
3342.000000	98.394541 
3341.000000	98.395404 
3340.000000	98.396215 
3339.000000	98.396927 
3338.000000	98.397608 
3337.000000	98.398389 
3336.000000	98.399329 
3335.000000	98.400372 
3334.000000	98.401418 
3333.000000	98.402444 
3332.000000	98.403489 
3331.000000	98.404556 
3330.000000	98.405572 
3329.000000	98.406455 
3328.000000	98.407209 
3327.000000	98.407920 
3326.000000	98.408677 
3325.000000	98.409495 
3324.000000	98.410329 
3323.000000	98.411128 
3322.000000	98.411905 
3321.000000	98.412724 
3320.000000	98.413637 
3319.000000	98.414638 
3318.000000	98.415682 
3317.000000	98.416723 
3316.000000	98.417721 
3315.000000	98.418633 
3314.000000	98.419442 
3313.000000	98.420193 
3312.000000	98.420974 
3311.000000	98.421834 
3310.000000	98.422713 
3309.000000	98.423492 
3308.000000	98.424115 
3307.000000	98.424630 
3306.000000	98.425153 
3305.000000	98.425786 
3304.000000	98.426572 
3303.000000	98.427495 
3302.000000	98.428472 
3301.000000	98.429376 
3300.000000	98.430090 
3299.000000	98.430584 
3298.000000	98.430958 
3297.000000	98.431395 
3296.000000	98.432024 
3295.000000	98.432825 
3294.000000	98.433649 
3293.000000	98.434368 
3292.000000	98.434990 
3291.000000	98.435594 
3290.000000	98.436159 
3289.000000	98.436544 
3288.000000	98.436682 
3287.000000	98.436738 
3286.000000	98.437015 
3285.000000	98.437672 
3284.000000	98.438592 
3283.000000	98.439518 
3282.000000	98.440301 
3281.000000	98.440995 
3280.000000	98.441737 
3279.000000	98.442609 
3278.000000	98.443572 
3277.000000	98.444486 
3276.000000	98.445163 
3275.000000	98.445463 
3274.000000	98.445403 
3273.000000	98.445234 
3272.000000	98.445356 
3271.000000	98.446046 
3270.000000	98.447250 
3269.000000	98.448605 
3268.000000	98.449700 
3267.000000	98.450363 
3266.000000	98.450715 
3265.000000	98.451038 
3264.000000	98.451608 
3263.000000	98.452644 
3262.000000	98.454281 
3261.000000	98.456445 
3260.000000	98.458753 
3259.000000	98.460634 
3258.000000	98.461702 
3257.000000	98.462053 
3256.000000	98.462163 
3255.000000	98.462448 
3254.000000	98.463003 
3253.000000	98.463785 
3252.000000	98.464883 
3251.000000	98.466458 
3250.000000	98.468446 
3249.000000	98.470506 
3248.000000	98.472314 
3247.000000	98.473805 
3246.000000	98.475094 
3245.000000	98.476265 
3244.000000	98.477255 
3243.000000	98.477929 
3242.000000	98.478214 
3241.000000	98.478234 
3240.000000	98.478368 
3239.000000	98.479123 
3238.000000	98.480859 
3237.000000	98.483577 
3236.000000	98.486869 
3235.000000	98.490033 
3234.000000	98.492370 
3233.000000	98.493541 
3232.000000	98.493775 
3231.000000	98.493755 
3230.000000	98.494119 
3229.000000	98.495007 
3228.000000	98.496067 
3227.000000	98.496794 
3226.000000	98.496906 
3225.000000	98.496546 
3224.000000	98.496236 
3223.000000	98.496559 
3222.000000	98.497749 
3221.000000	98.499518 
3220.000000	98.501278 
3219.000000	98.502631 
3218.000000	98.503698 
3217.000000	98.505037 
3216.000000	98.507212 
3215.000000	98.510327 
3214.000000	98.513846 
3213.000000	98.516865 
3212.000000	98.518687 
3211.000000	98.519194 
3210.000000	98.518809 
3209.000000	98.518180 
3208.000000	98.517860 
3207.000000	98.518158 
3206.000000	98.519122 
3205.000000	98.520571 
3204.000000	98.522238 
3203.000000	98.523974 
3202.000000	98.525795 
3201.000000	98.527747 
3200.000000	98.529790 
3199.000000	98.531842 
3198.000000	98.533865 
3197.000000	98.535834 
3196.000000	98.537694 
3195.000000	98.539401 
3194.000000	98.540938 
3193.000000	98.542210 
3192.000000	98.542996 
3191.000000	98.543132 
3190.000000	98.542758 
3189.000000	98.542299 
3188.000000	98.542225 
3187.000000	98.542868 
3186.000000	98.544368 
3185.000000	98.546595 
3184.000000	98.549083 
3183.000000	98.551221 
3182.000000	98.552748 
3181.000000	98.554034 
3180.000000	98.555755 
3179.000000	98.558187 
3178.000000	98.560795 
3177.000000	98.562614 
3176.000000	98.563161 
3175.000000	98.562986 
3174.000000	98.563289 
3173.000000	98.564759 
3172.000000	98.566888 
3171.000000	98.568579 
3170.000000	98.569411 
3169.000000	98.570057 
3168.000000	98.571381 
3167.000000	98.573401 
3166.000000	98.575399 
3165.000000	98.576861 
3164.000000	98.577965 
3163.000000	98.579149 
3162.000000	98.580515 
3161.000000	98.581836 
3160.000000	98.582992 
3159.000000	98.584125 
3158.000000	98.585292 
3157.000000	98.586136 
3156.000000	98.586176 
3155.000000	98.585411 
3154.000000	98.584419 
3153.000000	98.583701 
3152.000000	98.583189 
3151.000000	98.582692 
3150.000000	98.582633 
3149.000000	98.583835 
3148.000000	98.586538 
3147.000000	98.589997 
3146.000000	98.593168 
3145.000000	98.595590 
3144.000000	98.597380 
3143.000000	98.598735 
3142.000000	98.599780 
3141.000000	98.600719 
3140.000000	98.601774 
3139.000000	98.602949 
3138.000000	98.604058 
3137.000000	98.605020 
3136.000000	98.605996 
3135.000000	98.607219 
3134.000000	98.608754 
3133.000000	98.610397 
3132.000000	98.611771 
3131.000000	98.612603 
3130.000000	98.613016 
3129.000000	98.613500 
3128.000000	98.614524 
3127.000000	98.616207 
3126.000000	98.618328 
3125.000000	98.620478 
3124.000000	98.622188 
3123.000000	98.623159 
3122.000000	98.623489 
3121.000000	98.623689 
3120.000000	98.624284 
3119.000000	98.625360 
3118.000000	98.626646 
3117.000000	98.627907 
3116.000000	98.629147 
3115.000000	98.630441 
3114.000000	98.631756 
3113.000000	98.632967 
3112.000000	98.634001 
3111.000000	98.634905 
3110.000000	98.635810 
3109.000000	98.636846 
3108.000000	98.638045 
3107.000000	98.639289 
3106.000000	98.640375 
3105.000000	98.641174 
3104.000000	98.641744 
3103.000000	98.642312 
3102.000000	98.643147 
3101.000000	98.644428 
3100.000000	98.646157 
3099.000000	98.648160 
3098.000000	98.650231 
3097.000000	98.652254 
3096.000000	98.654104 
3095.000000	98.655481 
3094.000000	98.656030 
3093.000000	98.655706 
3092.000000	98.654927 
3091.000000	98.654326 
3090.000000	98.654401 
3089.000000	98.655363 
3088.000000	98.657003 
3087.000000	98.658644 
3086.000000	98.659580 
3085.000000	98.659751 
3084.000000	98.659615 
3083.000000	98.659230 
3082.000000	98.658031 
3081.000000	98.655924 
3080.000000	98.654132 
3079.000000	98.654357 
3078.000000	98.657290 
3077.000000	98.662249 
3076.000000	98.667887 
3075.000000	98.672784 
3074.000000	98.675731 
3073.000000	98.676239 
3072.000000	98.674827 
3071.000000	98.672398 
3070.000000	98.669366 
3069.000000	98.665783 
3068.000000	98.662169 
3067.000000	98.659708 
3066.000000	98.659618 
3065.000000	98.662557 
3064.000000	98.668195 
3063.000000	98.674666 
3062.000000	98.678829 
3061.000000	98.678177 
3060.000000	98.672952 
3059.000000	98.666014 
3058.000000	98.660669 
3057.000000	98.658906 
3056.000000	98.661167 
3055.000000	98.666460 
3054.000000	98.672334 
3053.000000	98.675874 
3052.000000	98.675578 
3051.000000	98.672130 
3050.000000	98.667299 
3049.000000	98.662611 
3048.000000	98.658941 
3047.000000	98.656237 
3046.000000	98.653066 
3045.000000	98.647468 
3044.000000	98.639278 
3043.000000	98.631125 
3042.000000	98.626120 
3041.000000	98.624562 
3040.000000	98.623570 
3039.000000	98.619857 
3038.000000	98.612256 
3037.000000	98.601730 
3036.000000	98.589768 
3035.000000	98.577256 
3034.000000	98.564490 
3033.000000	98.551545 
3032.000000	98.538369 
3031.000000	98.524717 
3030.000000	98.510211 
3029.000000	98.494811 
3028.000000	98.479364 
3027.000000	98.465287 
3026.000000	98.453119 
3025.000000	98.441352 
3024.000000	98.427055 
3023.000000	98.408037 
3022.000000	98.384534 
3021.000000	98.358866 
3020.000000	98.333432 
3019.000000	98.308992 
3018.000000	98.284894 
3017.000000	98.260647 
3016.000000	98.236617 
3015.000000	98.212975 
3014.000000	98.188842 
3013.000000	98.163453 
3012.000000	98.137832 
3011.000000	98.114037 
3010.000000	98.092443 
3009.000000	98.070767 
3008.000000	98.046296 
3007.000000	98.018424 
3006.000000	97.988577 
3005.000000	97.958440 
3004.000000	97.929005 
3003.000000	97.900811 
3002.000000	97.874126 
3001.000000	97.848869 
3000.000000	97.824862 
2999.000000	97.802210 
2998.000000	97.781332 
2997.000000	97.762879 
2996.000000	97.747392 
2995.000000	97.733670 
2994.000000	97.716716 
2993.000000	97.688974 
2992.000000	97.646410 
2991.000000	97.594360 
2990.000000	97.546035 
2989.000000	97.513896 
2988.000000	97.502351 
2987.000000	97.507729 
2986.000000	97.522866 
2985.000000	97.540912 
2984.000000	97.556460 
2983.000000	97.566015 
2982.000000	97.568935 
2981.000000	97.567424 
2980.000000	97.564752 
2979.000000	97.563037 
2978.000000	97.562299 
2977.000000	97.560979 
2976.000000	97.557257 
2975.000000	97.550596 
2974.000000	97.542726 
2973.000000	97.537091 
2972.000000	97.536796 
2971.000000	97.542765 
2970.000000	97.553823 
2969.000000	97.568411 
2968.000000	97.585982 
2967.000000	97.606662 
2966.000000	97.629848 
2965.000000	97.653557 
2964.000000	97.675307 
2963.000000	97.693582 
2962.000000	97.708479 
2961.000000	97.721151 
2960.000000	97.732806 
2959.000000	97.744231 
2958.000000	97.756050 
2957.000000	97.769047 
2956.000000	97.783791 
2955.000000	97.799910 
2954.000000	97.816189 
2953.000000	97.831766 
2952.000000	97.847014 
2951.000000	97.862772 
2950.000000	97.878745 
2949.000000	97.893159 
2948.000000	97.904079 
2947.000000	97.910746 
2946.000000	97.913970 
2945.000000	97.915912 
2944.000000	97.919165 
2943.000000	97.925052 
2942.000000	97.932294 
2941.000000	97.937850 
2940.000000	97.939823 
2939.000000	97.939674 
2938.000000	97.941054 
2937.000000	97.946405 
2936.000000	97.955027 
2935.000000	97.964038 
2934.000000	97.970555 
2933.000000	97.973090 
2932.000000	97.971735 
2931.000000	97.967546 
2930.000000	97.961821 
2929.000000	97.955850 
2928.000000	97.950824 
2927.000000	97.947182 
2926.000000	97.943826 
2925.000000	97.938829 
2924.000000	97.931610 
2923.000000	97.923991 
2922.000000	97.918409 
2921.000000	97.915317 
2920.000000	97.912986 
2919.000000	97.909486 
2918.000000	97.904140 
2917.000000	97.897214 
2916.000000	97.889145 
2915.000000	97.880288 
2914.000000	97.870973 
2913.000000	97.861714 
2912.000000	97.853663 
2911.000000	97.848401 
2910.000000	97.846480 
2909.000000	97.846269 
2908.000000	97.845089 
2907.000000	97.841395 
2906.000000	97.834807 
2905.000000	97.824129 
2904.000000	97.807608 
2903.000000	97.786666 
2902.000000	97.769262 
2901.000000	97.765935 
2900.000000	97.782026 
2899.000000	97.813036 
2898.000000	97.846743 
2897.000000	97.871340 
2896.000000	97.882730 
2895.000000	97.885286 
2894.000000	97.886616 
2893.000000	97.891486 
2892.000000	97.899909 
2891.000000	97.909578 
2890.000000	97.918754 
2889.000000	97.926712 
2888.000000	97.932883 
2887.000000	97.937109 
2886.000000	97.940624 
2885.000000	97.945769 
2884.000000	97.954415 
2883.000000	97.967092 
2882.000000	97.983533 
2881.000000	98.003185 
2880.000000	98.024864 
2879.000000	98.046598 
2878.000000	98.066549 
2877.000000	98.084158 
2876.000000	98.100114 
2875.000000	98.115263 
2874.000000	98.129660 
2873.000000	98.142580 
2872.000000	98.153321 
2871.000000	98.162074 
2870.000000	98.170197 
2869.000000	98.179674 
2868.000000	98.192177 
2867.000000	98.208303 
2866.000000	98.227302 
2865.000000	98.247412 
2864.000000	98.266862 
2863.000000	98.284967 
2862.000000	98.302229 
2861.000000	98.319317 
2860.000000	98.336321 
2859.000000	98.353244 
2858.000000	98.370533 
2857.000000	98.388316 
2856.000000	98.405371 
2855.000000	98.419840 
2854.000000	98.431407 
2853.000000	98.442183 
2852.000000	98.454591 
2851.000000	98.468838 
2850.000000	98.483250 
2849.000000	98.496547 
2848.000000	98.508943 
2847.000000	98.521155 
2846.000000	98.533002 
2845.000000	98.543250 
2844.000000	98.550675 
2843.000000	98.555271 
2842.000000	98.558612 
2841.000000	98.562993 
2840.000000	98.569867 
2839.000000	98.578965 
2838.000000	98.588848 
2837.000000	98.598089 
2836.000000	98.605908 
2835.000000	98.612208 
2834.000000	98.617515 
2833.000000	98.622737 
2832.000000	98.628421 
2831.000000	98.634095 
2830.000000	98.638624 
2829.000000	98.641339 
2828.000000	98.642748 
2827.000000	98.644206 
2826.000000	98.647022 
2825.000000	98.651573 
2824.000000	98.656875 
2823.000000	98.661090 
2822.000000	98.663019 
2821.000000	98.663333 
2820.000000	98.664072 
2819.000000	98.666737 
2818.000000	98.671048 
2817.000000	98.675614 
2816.000000	98.679434 
2815.000000	98.682449 
2814.000000	98.684913 
2813.000000	98.686736 
2812.000000	98.687654 
2811.000000	98.687950 
2810.000000	98.688698 
2809.000000	98.690989 
2808.000000	98.694725 
2807.000000	98.698411 
2806.000000	98.700521 
2805.000000	98.701057 
2804.000000	98.701464 
2803.000000	98.702982 
2802.000000	98.705389 
2801.000000	98.707496 
2800.000000	98.708532 
2799.000000	98.708797 
2798.000000	98.709142 
2797.000000	98.710023 
2796.000000	98.711101 
2795.000000	98.711767 
2794.000000	98.712074 
2793.000000	98.712915 
2792.000000	98.715003 
2791.000000	98.717877 
2790.000000	98.720392 
2789.000000	98.722150 
2788.000000	98.723894 
2787.000000	98.726314 
2786.000000	98.728971 
2785.000000	98.730754 
2784.000000	98.731130 
2783.000000	98.730575 
2782.000000	98.730018 
2781.000000	98.730120 
2780.000000	98.731029 
2779.000000	98.732512 
2778.000000	98.734187 
2777.000000	98.735820 
2776.000000	98.737474 
2775.000000	98.739284 
2774.000000	98.741101 
2773.000000	98.742531 
2772.000000	98.743381 
2771.000000	98.743922 
2770.000000	98.744586 
2769.000000	98.745474 
2768.000000	98.746327 
2767.000000	98.746975 
2766.000000	98.747607 
2765.000000	98.748479 
2764.000000	98.749450 
2763.000000	98.750072 
2762.000000	98.750147 
2761.000000	98.750003 
2760.000000	98.750163 
2759.000000	98.750824 
2758.000000	98.751850 
2757.000000	98.753126 
2756.000000	98.754662 
2755.000000	98.756300 
2754.000000	98.757597 
2753.000000	98.758233 
2752.000000	98.758360 
2751.000000	98.758496 
2750.000000	98.759014 
2749.000000	98.759862 
2748.000000	98.760773 
2747.000000	98.761607 
2746.000000	98.762420 
2745.000000	98.763311 
2744.000000	98.764272 
2743.000000	98.765212 
2742.000000	98.766064 
2741.000000	98.766879 
2740.000000	98.767769 
2739.000000	98.768753 
2738.000000	98.769717 
2737.000000	98.770594 
2736.000000	98.771506 
2735.000000	98.772609 
2734.000000	98.773853 
2733.000000	98.774995 
2732.000000	98.775881 
2731.000000	98.776576 
2730.000000	98.777244 
2729.000000	98.777965 
2728.000000	98.778734 
2727.000000	98.779544 
2726.000000	98.780412 
2725.000000	98.781339 
2724.000000	98.782320 
2723.000000	98.783369 
2722.000000	98.784510 
2721.000000	98.785726 
2720.000000	98.786921 
2719.000000	98.787951 
2718.000000	98.788740 
2717.000000	98.789342 
2716.000000	98.789895 
2715.000000	98.790518 
2714.000000	98.791254 
2713.000000	98.792093 
2712.000000	98.793014 
2711.000000	98.793971 
2710.000000	98.794886 
2709.000000	98.795723 
2708.000000	98.796513 
2707.000000	98.797275 
2706.000000	98.797972 
2705.000000	98.798583 
2704.000000	98.799174 
2703.000000	98.799830 
2702.000000	98.800550 
2701.000000	98.801252 
2700.000000	98.801869 
2699.000000	98.802423 
2698.000000	98.802978 
2697.000000	98.803564 
2696.000000	98.804152 
2695.000000	98.804692 
2694.000000	98.805166 
2693.000000	98.805592 
2692.000000	98.806006 
2691.000000	98.806429 
2690.000000	98.806852 
2689.000000	98.807257 
2688.000000	98.807646 
2687.000000	98.808032 
2686.000000	98.808424 
2685.000000	98.808816 
2684.000000	98.809200 
2683.000000	98.809569 
2682.000000	98.809914 
2681.000000	98.810232 
2680.000000	98.810527 
2679.000000	98.810803 
2678.000000	98.811071 
2677.000000	98.811338 
2676.000000	98.811608 
2675.000000	98.811877 
2674.000000	98.812137 
2673.000000	98.812377 
2672.000000	98.812592 
2671.000000	98.812780 
2670.000000	98.812948 
2669.000000	98.813103 
2668.000000	98.813252 
2667.000000	98.813398 
2666.000000	98.813544 
2665.000000	98.813688 
2664.000000	98.813831 
2663.000000	98.813971 
2662.000000	98.814108 
2661.000000	98.814240 
2660.000000	98.814371 
2659.000000	98.814503 
2658.000000	98.814640 
2657.000000	98.814782 
2656.000000	98.814932 
2655.000000	98.815087 
2654.000000	98.815248 
2653.000000	98.815415 
2652.000000	98.815592 
2651.000000	98.815780 
2650.000000	98.815981 
2649.000000	98.816192 
2648.000000	98.816407 
2647.000000	98.816627 
2646.000000	98.816855 
2645.000000	98.817096 
2644.000000	98.817350 
2643.000000	98.817610 
2642.000000	98.817878 
2641.000000	98.818139 
2640.000000	98.818369 
2639.000000	98.818589 
2638.000000	98.818856 
2637.000000	98.819194 
2636.000000	98.819525 
2635.000000	98.819744 
2634.000000	98.819835 
2633.000000	98.819877 
2632.000000	98.819949 
2631.000000	98.820124 
2630.000000	98.820493 
2629.000000	98.821090 
2628.000000	98.821787 
2627.000000	98.822403 
2626.000000	98.822882 
2625.000000	98.823288 
2624.000000	98.823633 
2623.000000	98.823845 
2622.000000	98.823932 
2621.000000	98.824055 
2620.000000	98.824367 
2619.000000	98.824862 
2618.000000	98.825459 
2617.000000	98.826135 
2616.000000	98.826922 
2615.000000	98.827812 
2614.000000	98.828756 
2613.000000	98.829691 
2612.000000	98.830528 
2611.000000	98.831160 
2610.000000	98.831551 
2609.000000	98.831796 
2608.000000	98.832043 
2607.000000	98.832442 
2606.000000	98.833182 
2605.000000	98.834431 
2604.000000	98.836033 
2603.000000	98.837370 
2602.000000	98.837810 
2601.000000	98.837415 
2600.000000	98.836957 
2599.000000	98.837059 
2598.000000	98.837472 
2597.000000	98.837395 
2596.000000	98.836388 
2595.000000	98.834820 
2594.000000	98.833552 
2593.000000	98.833244 
2592.000000	98.833945 
2591.000000	98.835196 
2590.000000	98.836427 
2589.000000	98.837360 
2588.000000	98.838030 
2587.000000	98.838472 
2586.000000	98.838602 
2585.000000	98.838460 
2584.000000	98.838365 
2583.000000	98.838587 
2582.000000	98.838981 
2581.000000	98.839170 
2580.000000	98.839032 
2579.000000	98.838783 
2578.000000	98.838615 
2577.000000	98.838487 
2576.000000	98.838319 
2575.000000	98.838160 
2574.000000	98.838076 
2573.000000	98.838082 
2572.000000	98.838236 
2571.000000	98.838640 
2570.000000	98.839212 
2569.000000	98.839631 
2568.000000	98.839644 
2567.000000	98.839342 
2566.000000	98.839025 
2565.000000	98.838826 
2564.000000	98.838655 
2563.000000	98.838485 
2562.000000	98.838427 
2561.000000	98.838475 
2560.000000	98.838390 
2559.000000	98.837942 
2558.000000	98.837149 
2557.000000	98.836277 
2556.000000	98.835696 
2555.000000	98.835731 
2554.000000	98.836497 
2553.000000	98.837678 
2552.000000	98.838623 
2551.000000	98.838868 
2550.000000	98.838434 
2549.000000	98.837672 
2548.000000	98.836919 
2547.000000	98.836355 
2546.000000	98.836018 
2545.000000	98.835812 
2544.000000	98.835610 
2543.000000	98.835405 
2542.000000	98.835224 
2541.000000	98.834921 
2540.000000	98.834338 
2539.000000	98.833675 
2538.000000	98.833349 
2537.000000	98.833342 
2536.000000	98.833076 
2535.000000	98.832217 
2534.000000	98.831239 
2533.000000	98.830776 
2532.000000	98.830621 
2531.000000	98.829924 
2530.000000	98.828410 
2529.000000	98.826897 
2528.000000	98.826353 
2527.000000	98.826786 
2526.000000	98.827380 
2525.000000	98.827666 
2524.000000	98.828109 
2523.000000	98.829404 
2522.000000	98.831573 
2521.000000	98.833822 
2520.000000	98.835149 
2519.000000	98.835015 
2518.000000	98.833538 
2517.000000	98.831368 
2516.000000	98.829365 
2515.000000	98.828122 
2514.000000	98.827703 
2513.000000	98.827874 
2512.000000	98.828524 
2511.000000	98.829739 
2510.000000	98.831436 
2509.000000	98.833172 
2508.000000	98.834472 
2507.000000	98.835194 
2506.000000	98.835415 
2505.000000	98.835152 
2504.000000	98.834419 
2503.000000	98.833470 
2502.000000	98.832708 
2501.000000	98.832379 
2500.000000	98.832513 
2499.000000	98.833115 
2498.000000	98.834169 
2497.000000	98.835420 
2496.000000	98.836376 
2495.000000	98.836707 
2494.000000	98.836529 
2493.000000	98.836239 
2492.000000	98.836143 
2491.000000	98.836286 
2490.000000	98.836603 
2489.000000	98.837097 
2488.000000	98.837832 
2487.000000	98.838731 
2486.000000	98.839412 
2485.000000	98.839404 
2484.000000	98.838628 
2483.000000	98.837511 
2482.000000	98.836693 
2481.000000	98.836445 
2480.000000	98.836588 
2479.000000	98.836802 
2478.000000	98.836926 
2477.000000	98.836971 
2476.000000	98.836950 
2475.000000	98.836871 
2474.000000	98.836813 
2473.000000	98.836860 
2472.000000	98.836955 
2471.000000	98.836943 
2470.000000	98.836742 
2469.000000	98.836406 
2468.000000	98.836048 
2467.000000	98.835742 
2466.000000	98.835502 
2465.000000	98.835310 
2464.000000	98.835144 
2463.000000	98.834997 
2462.000000	98.834882 
2461.000000	98.834810 
2460.000000	98.834763 
2459.000000	98.834697 
2458.000000	98.834591 
2457.000000	98.834475 
2456.000000	98.834390 
2455.000000	98.834340 
2454.000000	98.834298 
2453.000000	98.834244 
2452.000000	98.834175 
2451.000000	98.834091 
2450.000000	98.833979 
2449.000000	98.833834 
2448.000000	98.833683 
2447.000000	98.833585 
2446.000000	98.833584 
2445.000000	98.833668 
2444.000000	98.833764 
2443.000000	98.833792 
2442.000000	98.833715 
2441.000000	98.833563 
2440.000000	98.833435 
2439.000000	98.833429 
2438.000000	98.833561 
2437.000000	98.833745 
2436.000000	98.833868 
2435.000000	98.833877 
2434.000000	98.833813 
2433.000000	98.833796 
2432.000000	98.833939 
2431.000000	98.834268 
2430.000000	98.834673 
2429.000000	98.834944 
2428.000000	98.834914 
2427.000000	98.834574 
2426.000000	98.834095 
2425.000000	98.833709 
2424.000000	98.833553 
2423.000000	98.833654 
2422.000000	98.834007 
2421.000000	98.834581 
2420.000000	98.835197 
2419.000000	98.835487 
2418.000000	98.835186 
2417.000000	98.834403 
2416.000000	98.833595 
2415.000000	98.833138 
2414.000000	98.833022 
2413.000000	98.832986 
2412.000000	98.832831 
2411.000000	98.832537 
2410.000000	98.832156 
2409.000000	98.831765 
2408.000000	98.831491 
2407.000000	98.831416 
2406.000000	98.831492 
2405.000000	98.831691 
2404.000000	98.832165 
2403.000000	98.833030 
2402.000000	98.834016 
2401.000000	98.834581 
2400.000000	98.834425 
2399.000000	98.833724 
2398.000000	98.832903 
2397.000000	98.832330 
2396.000000	98.832267 
2395.000000	98.832782 
2394.000000	98.833540 
2393.000000	98.833980 
2392.000000	98.833878 
2391.000000	98.833561 
2390.000000	98.833457 
2389.000000	98.833647 
2388.000000	98.834027 
2387.000000	98.834640 
2386.000000	98.835534 
2385.000000	98.836444 
2384.000000	98.836956 
2383.000000	98.836997 
2382.000000	98.836942 
2381.000000	98.837174 
2380.000000	98.837688 
2379.000000	98.838266 
2378.000000	98.838923 
2377.000000	98.839934 
2376.000000	98.841375 
2375.000000	98.842796 
2374.000000	98.843569 
2373.000000	98.843484 
2372.000000	98.842845 
2371.000000	98.842127 
2370.000000	98.841643 
2369.000000	98.841536 
2368.000000	98.841808 
2367.000000	98.842286 
2366.000000	98.842755 
2365.000000	98.843168 
2364.000000	98.843584 
2363.000000	98.843926 
2362.000000	98.843974 
2361.000000	98.843662 
2360.000000	98.843139 
2359.000000	98.842636 
2358.000000	98.842332 
2357.000000	98.842338 
2356.000000	98.842692 
2355.000000	98.843345 
2354.000000	98.844181 
2353.000000	98.844855 
2352.000000	98.844981 
2351.000000	98.844525 
2350.000000	98.843782 
2349.000000	98.843125 
2348.000000	98.842724 
2347.000000	98.842635 
2346.000000	98.842732 
2345.000000	98.842706 
2344.000000	98.842442 
2343.000000	98.842119 
2342.000000	98.841935 
2341.000000	98.841775 
2340.000000	98.841486 
2339.000000	98.841196 
2338.000000	98.841228 
2337.000000	98.841596 
2336.000000	98.841832 
2335.000000	98.841556 
2334.000000	98.841058 
2333.000000	98.840856 
2332.000000	98.840973 
2331.000000	98.841035 
2330.000000	98.840807 
2329.000000	98.840440 
2328.000000	98.840082 
2327.000000	98.839872 
2326.000000	98.839811 
2325.000000	98.839628 
2324.000000	98.839080 
2323.000000	98.838404 
2322.000000	98.838323 
2321.000000	98.838925 
2320.000000	98.839365 
2319.000000	98.838829 
2318.000000	98.837645 
2317.000000	98.836934 
2316.000000	98.837293 
2315.000000	98.838414 
2314.000000	98.839667 
2313.000000	98.840865 
2312.000000	98.842111 
2311.000000	98.843374 
2310.000000	98.844330 
2309.000000	98.844691 
2308.000000	98.844576 
2307.000000	98.844472 
2306.000000	98.844839 
2305.000000	98.845753 
2304.000000	98.847003 
2303.000000	98.848319 
2302.000000	98.849491 
2301.000000	98.850395 
2300.000000	98.851126 
2299.000000	98.851964 
2298.000000	98.852997 
2297.000000	98.853908 
2296.000000	98.854330 
2295.000000	98.854342 
2294.000000	98.854430 
2293.000000	98.854999 
2292.000000	98.856025 
2291.000000	98.857205 
2290.000000	98.858218 
2289.000000	98.858950 
2288.000000	98.859496 
2287.000000	98.860041 
2286.000000	98.860695 
2285.000000	98.861412 
2284.000000	98.862109 
2283.000000	98.862815 
2282.000000	98.863640 
2281.000000	98.864607 
2280.000000	98.865621 
2279.000000	98.866590 
2278.000000	98.867494 
2277.000000	98.868360 
2276.000000	98.869207 
2275.000000	98.870043 
2274.000000	98.870893 
2273.000000	98.871790 
2272.000000	98.872744 
2271.000000	98.873709 
2270.000000	98.874623 
2269.000000	98.875469 
2268.000000	98.876284 
2267.000000	98.877126 
2266.000000	98.878009 
2265.000000	98.878873 
2264.000000	98.879610 
2263.000000	98.880123 
2262.000000	98.880427 
2261.000000	98.880703 
2260.000000	98.881193 
2259.000000	98.882024 
2258.000000	98.883118 
2257.000000	98.884313 
2256.000000	98.885527 
2255.000000	98.886703 
2254.000000	98.887692 
2253.000000	98.888358 
2252.000000	98.888836 
2251.000000	98.889452 
2250.000000	98.890297 
2249.000000	98.891063 
2248.000000	98.891497 
2247.000000	98.891798 
2246.000000	98.892352 
2245.000000	98.893293 
2244.000000	98.894437 
2243.000000	98.895616 
2242.000000	98.896806 
2241.000000	98.898017 
2240.000000	98.899279 
2239.000000	98.900644 
2238.000000	98.902041 
2237.000000	98.903184 
2236.000000	98.903844 
2235.000000	98.904133 
2234.000000	98.904422 
2233.000000	98.905003 
2232.000000	98.905863 
2231.000000	98.906824 
2230.000000	98.907730 
2229.000000	98.908553 
2228.000000	98.909379 
2227.000000	98.910320 
2226.000000	98.911403 
2225.000000	98.912564 
2224.000000	98.913730 
2223.000000	98.914883 
2222.000000	98.916029 
2221.000000	98.917167 
2220.000000	98.918298 
2219.000000	98.919418 
2218.000000	98.920528 
2217.000000	98.921642 
2216.000000	98.922766 
2215.000000	98.923899 
2214.000000	98.925028 
2213.000000	98.926152 
2212.000000	98.927282 
2211.000000	98.928442 
2210.000000	98.929652 
2209.000000	98.930918 
2208.000000	98.932228 
2207.000000	98.933557 
2206.000000	98.934884 
2205.000000	98.936204 
2204.000000	98.937536 
2203.000000	98.938899 
2202.000000	98.940309 
2201.000000	98.941842 
2200.000000	98.943491 
2199.000000	98.945060 
2198.000000	98.946358 
2197.000000	98.947408 
2196.000000	98.948472 
2195.000000	98.949866 
2194.000000	98.951715 
2193.000000	98.953778 
2192.000000	98.955628 
2191.000000	98.957112 
2190.000000	98.958544 
2189.000000	98.960387 
2188.000000	98.962687 
2187.000000	98.964757 
2186.000000	98.965504 
2185.000000	98.964372 
2184.000000	98.962166 
2183.000000	98.960693 
2182.000000	98.961136 
2181.000000	98.963121 
2180.000000	98.965451 
2179.000000	98.967429 
2178.000000	98.969034 
2177.000000	98.970375 
2176.000000	98.971638 
2175.000000	98.973072 
2174.000000	98.974431 
2173.000000	98.975160 
2172.000000	98.975900 
2171.000000	98.978858 
2170.000000	98.985305 
2169.000000	98.993051 
2168.000000	98.997956 
2167.000000	98.998160 
2166.000000	98.995322 
2165.000000	98.992307 
2164.000000	98.990929 
2163.000000	98.992187 
2162.000000	98.996340 
2161.000000	99.001229 
2160.000000	99.002563 
2159.000000	98.998057 
2158.000000	98.990128 
2157.000000	98.983278 
2156.000000	98.979335 
2155.000000	98.977144 
2154.000000	98.975560 
2153.000000	98.974784 
2152.000000	98.975106 
2151.000000	98.975637 
2150.000000	98.974923 
2149.000000	98.972681 
2148.000000	98.970480 
2147.000000	98.970175 
2146.000000	98.971601 
2145.000000	98.972347 
2144.000000	98.970323 
2143.000000	98.966063 
2142.000000	98.962007 
2141.000000	98.959694 
2140.000000	98.958443 
2139.000000	98.956809 
2138.000000	98.954515 
2137.000000	98.952534 
2136.000000	98.951663 
2135.000000	98.951526 
2134.000000	98.951061 
2133.000000	98.949790 
2132.000000	98.948268 
2131.000000	98.947076 
2130.000000	98.945704 
2129.000000	98.942987 
2128.000000	98.938723 
2127.000000	98.934375 
2126.000000	98.931720 
2125.000000	98.931266 
2124.000000	98.932193 
2123.000000	98.933386 
2122.000000	98.934152 
2121.000000	98.934121 
2120.000000	98.933288 
2119.000000	98.932127 
2118.000000	98.931202 
2117.000000	98.930660 
2116.000000	98.930275 
2115.000000	98.929908 
2114.000000	98.929676 
2113.000000	98.929597 
2112.000000	98.929399 
2111.000000	98.928907 
2110.000000	98.928378 
2109.000000	98.928219 
2108.000000	98.928457 
2107.000000	98.928622 
2106.000000	98.928164 
2105.000000	98.927007 
2104.000000	98.925795 
2103.000000	98.925455 
2102.000000	98.926314 
2101.000000	98.927714 
2100.000000	98.928656 
2099.000000	98.928812 
2098.000000	98.928660 
2097.000000	98.928859 
2096.000000	98.929667 
2095.000000	98.930966 
2094.000000	98.932520 
2093.000000	98.934089 
2092.000000	98.935483 
2091.000000	98.936628 
2090.000000	98.937594 
2089.000000	98.938536 
2088.000000	98.939566 
2087.000000	98.940627 
2086.000000	98.941490 
2085.000000	98.942032 
2084.000000	98.942588 
2083.000000	98.943818 
2082.000000	98.945981 
2081.000000	98.948624 
2080.000000	98.951020 
2079.000000	98.952966 
2078.000000	98.954862 
2077.000000	98.957095 
2076.000000	98.959564 
2075.000000	98.961804 
2074.000000	98.963442 
2073.000000	98.964440 
2072.000000	98.965169 
2071.000000	98.966226 
2070.000000	98.967962 
2069.000000	98.970210 
2068.000000	98.972452 
2067.000000	98.974348 
2066.000000	98.975959 
2065.000000	98.977575 
2064.000000	98.979509 
2063.000000	98.981978 
2062.000000	98.984911 
2061.000000	98.987872 
2060.000000	98.990395 
2059.000000	98.992460 
2058.000000	98.994437 
2057.000000	98.996643 
2056.000000	98.999007 
2055.000000	99.001254 
2054.000000	99.003274 
2053.000000	99.005185 
2052.000000	99.007149 
2051.000000	99.009223 
2050.000000	99.011363 
2049.000000	99.013468 
2048.000000	99.015455 
2047.000000	99.017337 
2046.000000	99.019211 
2045.000000	99.021098 
2044.000000	99.022852 
2043.000000	99.024332 
2042.000000	99.025613 
2041.000000	99.026919 
2040.000000	99.028375 
2039.000000	99.029896 
2038.000000	99.031260 
2037.000000	99.032278 
2036.000000	99.032974 
2035.000000	99.033589 
2034.000000	99.034249 
2033.000000	99.034733 
2032.000000	99.034874 
2031.000000	99.035173 
2030.000000	99.036491 
2029.000000	99.038936 
2028.000000	99.041222 
2027.000000	99.041951 
2026.000000	99.041073 
2025.000000	99.039786 
2024.000000	99.039269 
2023.000000	99.039891 
2022.000000	99.041336 
2021.000000	99.042570 
2020.000000	99.042277 
2019.000000	99.040322 
2018.000000	99.038487 
2017.000000	99.038665 
2016.000000	99.040322 
2015.000000	99.041155 
2014.000000	99.040077 
2013.000000	99.038218 
2012.000000	99.037164 
2011.000000	99.037389 
2010.000000	99.038580 
2009.000000	99.040367 
2008.000000	99.042274 
2007.000000	99.043760 
2006.000000	99.044542 
2005.000000	99.044441 
2004.000000	99.043032 
2003.000000	99.040020 
2002.000000	99.035818 
2001.000000	99.031134 
2000.000000	99.026118 
1999.000000	99.020545 
1998.000000	99.014726 
1997.000000	99.009772 
1996.000000	99.006946 
1995.000000	99.007005 
1994.000000	99.009766 
1993.000000	99.013953 
1992.000000	99.017768 
1991.000000	99.020002 
1990.000000	99.020404 
1989.000000	99.019041 
1988.000000	99.016436 
1987.000000	99.014527 
1986.000000	99.016050 
1985.000000	99.022073 
1984.000000	99.030275 
1983.000000	99.036292 
1982.000000	99.036946 
1981.000000	99.032270 
1980.000000	99.025791 
1979.000000	99.022625 
1978.000000	99.025433 
1977.000000	99.031434 
1976.000000	99.034541 
1975.000000	99.031525 
1974.000000	99.024750 
1973.000000	99.018931 
1972.000000	99.016112 
1971.000000	99.014881 
1970.000000	99.013781 
1969.000000	99.013943 
1968.000000	99.017523 
1967.000000	99.024032 
1966.000000	99.029725 
1965.000000	99.031440 
1964.000000	99.029805 
1963.000000	99.027817 
1962.000000	99.027167 
1961.000000	99.027196 
1960.000000	99.026782 
1959.000000	99.025135 
1958.000000	99.020755 
1957.000000	99.012196 
1956.000000	99.000730 
1955.000000	98.990177 
1954.000000	98.982855 
1953.000000	98.977241 
1952.000000	98.970802 
1951.000000	98.963951 
1950.000000	98.959643 
1949.000000	98.959575 
1948.000000	98.962310 
1947.000000	98.964866 
1946.000000	98.964744 
1945.000000	98.960729 
1944.000000	98.953582 
1943.000000	98.946432 
1942.000000	98.942612 
1941.000000	98.942201 
1940.000000	98.942455 
1939.000000	98.941517 
1938.000000	98.939963 
1937.000000	98.939052 
1936.000000	98.938922 
1935.000000	98.938561 
1934.000000	98.936786 
1933.000000	98.933116 
1932.000000	98.928292 
1931.000000	98.924229 
1930.000000	98.922804 
1929.000000	98.924051 
1928.000000	98.926021 
1927.000000	98.926767 
1926.000000	98.925787 
1925.000000	98.923475 
1924.000000	98.920327 
1923.000000	98.917147 
1922.000000	98.915075 
1921.000000	98.914516 
1920.000000	98.914680 
1919.000000	98.914424 
1918.000000	98.913231 
1917.000000	98.911416 
1916.000000	98.909663 
1915.000000	98.908551 
1914.000000	98.908298 
1913.000000	98.908630 
1912.000000	98.908880 
1911.000000	98.908545 
1910.000000	98.907660 
1909.000000	98.906524 
1908.000000	98.905352 
1907.000000	98.904270 
1906.000000	98.903419 
1905.000000	98.902773 
1904.000000	98.901946 
1903.000000	98.900505 
1902.000000	98.898476 
1901.000000	98.896381 
1900.000000	98.894778 
1899.000000	98.893938 
1898.000000	98.893779 
1897.000000	98.893866 
1896.000000	98.893630 
1895.000000	98.892938 
1894.000000	98.892339 
1893.000000	98.892377 
1892.000000	98.892801 
1891.000000	98.892799 
1890.000000	98.891956 
1889.000000	98.890722 
1888.000000	98.889878 
1887.000000	98.889826 
1886.000000	98.890403 
1885.000000	98.890941 
1884.000000	98.890688 
1883.000000	98.889576 
1882.000000	98.888340 
1881.000000	98.887545 
1880.000000	98.887036 
1879.000000	98.886541 
1878.000000	98.886088 
1877.000000	98.885510 
1876.000000	98.884388 
1875.000000	98.883161 
1874.000000	98.883429 
1873.000000	98.886029 
1872.000000	98.889423 
1871.000000	98.891014 
1870.000000	98.889990 
1869.000000	98.887769 
1868.000000	98.885360 
1867.000000	98.882253 
1866.000000	98.878602 
1865.000000	98.875896 
1864.000000	98.875536 
1863.000000	98.878018 
1862.000000	98.882901 
1861.000000	98.888740 
1860.000000	98.893427 
1859.000000	98.895956 
1858.000000	98.897525 
1857.000000	98.899808 
1856.000000	98.902858 
1855.000000	98.905788 
1854.000000	98.908237 
1853.000000	98.909985 
1852.000000	98.910355 
1851.000000	98.909023 
1850.000000	98.906961 
1849.000000	98.905780 
1848.000000	98.906179 
1847.000000	98.907755 
1846.000000	98.909884 
1845.000000	98.911811 
1844.000000	98.912321 
1843.000000	98.911293 
1842.000000	98.910477 
1841.000000	98.911214 
1840.000000	98.913364 
1839.000000	98.916156 
1838.000000	98.918943 
1837.000000	98.921282 
1836.000000	98.922915 
1835.000000	98.924247 
1834.000000	98.926011 
1833.000000	98.928317 
1832.000000	98.930584 
1831.000000	98.931911 
1830.000000	98.931803 
1829.000000	98.931068 
1828.000000	98.931007 
1827.000000	98.931519 
1826.000000	98.931442 
1825.000000	98.930507 
1824.000000	98.929658 
1823.000000	98.929636 
1822.000000	98.930280 
1821.000000	98.930929 
1820.000000	98.930933 
1819.000000	98.930036 
1818.000000	98.928882 
1817.000000	98.928503 
1816.000000	98.928730 
1815.000000	98.928469 
1814.000000	98.927688 
1813.000000	98.927939 
1812.000000	98.930410 
1811.000000	98.934138 
1810.000000	98.937523 
1809.000000	98.940307 
1808.000000	98.942327 
1807.000000	98.942731 
1806.000000	98.941473 
1805.000000	98.939675 
1804.000000	98.938048 
1803.000000	98.936164 
1802.000000	98.933940 
1801.000000	98.932746 
1800.000000	98.933261 
1799.000000	98.934167 
1798.000000	98.934568 
1797.000000	98.935147 
1796.000000	98.936478 
1795.000000	98.938186 
1794.000000	98.939538 
1793.000000	98.940257 
1792.000000	98.940496 
1791.000000	98.940444 
1790.000000	98.940626 
1789.000000	98.941529 
1788.000000	98.943068 
1787.000000	98.944838 
1786.000000	98.946543 
1785.000000	98.947874 
1784.000000	98.948389 
1783.000000	98.948111 
1782.000000	98.947685 
1781.000000	98.947699 
1780.000000	98.947966 
1779.000000	98.947930 
1778.000000	98.947725 
1777.000000	98.947976 
1776.000000	98.948962 
1775.000000	98.950565 
1774.000000	98.952586 
1773.000000	98.954907 
1772.000000	98.957104 
1771.000000	98.958475 
1770.000000	98.958773 
1769.000000	98.958370 
1768.000000	98.958050 
1767.000000	98.958368 
1766.000000	98.959236 
1765.000000	98.960289 
1764.000000	98.961325 
1763.000000	98.962339 
1762.000000	98.963348 
1761.000000	98.964377 
1760.000000	98.965392 
1759.000000	98.966126 
1758.000000	98.966303 
1757.000000	98.966027 
1756.000000	98.965915 
1755.000000	98.966287 
1754.000000	98.966616 
1753.000000	98.966296 
1752.000000	98.965768 
1751.000000	98.966457 
1750.000000	98.968857 
1749.000000	98.971597 
1748.000000	98.973264 
1747.000000	98.973690 
1746.000000	98.973178 
1745.000000	98.972056 
1744.000000	98.970996 
1743.000000	98.970631 
1742.000000	98.970849 
1741.000000	98.971098 
1740.000000	98.971090 
1739.000000	98.970856 
1738.000000	98.970187 
1737.000000	98.968649 
1736.000000	98.965796 
1735.000000	98.962021 
1734.000000	98.959189 
1733.000000	98.958729 
1732.000000	98.960139 
1731.000000	98.962164 
1730.000000	98.963899 
1729.000000	98.964569 
1728.000000	98.964192 
1727.000000	98.963386 
1726.000000	98.962546 
1725.000000	98.961441 
1724.000000	98.959955 
1723.000000	98.958655 
1722.000000	98.958300 
1721.000000	98.958836 
1720.000000	98.959357 
1719.000000	98.958630 
1718.000000	98.955946 
1717.000000	98.952403 
1716.000000	98.949046 
1715.000000	98.945644 
1714.000000	98.942901 
1713.000000	98.941484 
1712.000000	98.940486 
1711.000000	98.938953 
1710.000000	98.937105 
1709.000000	98.935583 
1708.000000	98.934255 
1707.000000	98.932473 
1706.000000	98.930565 
1705.000000	98.929542 
1704.000000	98.928342 
1703.000000	98.924733 
1702.000000	98.917880 
1701.000000	98.910688 
1700.000000	98.906996 
1699.000000	98.905283 
1698.000000	98.902947 
1697.000000	98.900273 
1696.000000	98.897938 
1695.000000	98.895526 
1694.000000	98.892875 
1693.000000	98.890092 
1692.000000	98.886618 
1691.000000	98.882094 
1690.000000	98.877027 
1689.000000	98.872283 
1688.000000	98.867915 
1687.000000	98.863180 
1686.000000	98.857694 
1685.000000	98.852772 
1684.000000	98.849241 
1683.000000	98.846000 
1682.000000	98.842426 
1681.000000	98.838177 
1680.000000	98.833905 
1679.000000	98.830407 
1678.000000	98.827512 
1677.000000	98.824100 
1676.000000	98.819792 
1675.000000	98.815526 
1674.000000	98.811806 
1673.000000	98.808257 
1672.000000	98.804655 
1671.000000	98.801425 
1670.000000	98.798793 
1669.000000	98.795636 
1668.000000	98.791928 
1667.000000	98.788817 
1666.000000	98.785186 
1665.000000	98.779119 
1664.000000	98.771321 
1663.000000	98.765522 
1662.000000	98.764131 
1661.000000	98.764701 
1660.000000	98.763841 
1659.000000	98.761106 
1658.000000	98.758238 
1657.000000	98.754342 
1656.000000	98.747576 
1655.000000	98.737684 
1654.000000	98.732389 
1653.000000	98.734025 
1652.000000	98.733470 
1651.000000	98.730388 
1650.000000	98.725197 
1649.000000	98.717774 
1648.000000	98.709856 
1647.000000	98.703814 
1646.000000	98.700213 
1645.000000	98.699368 
1644.000000	98.700249 
1643.000000	98.701319 
1642.000000	98.701797 
1641.000000	98.702174 
1640.000000	98.702370 
1639.000000	98.701846 
1638.000000	98.700820 
1637.000000	98.700774 
1636.000000	98.701791 
1635.000000	98.702734 
1634.000000	98.704665 
1633.000000	98.707525 
1632.000000	98.709197 
1631.000000	98.709270 
1630.000000	98.709513 
1629.000000	98.710904 
1628.000000	98.712775 
1627.000000	98.714766 
1626.000000	98.717497 
1625.000000	98.721374 
1624.000000	98.726673 
1623.000000	98.733591 
1622.000000	98.741054 
1621.000000	98.746367 
1620.000000	98.747942 
1619.000000	98.747187 
1618.000000	98.748142 
1617.000000	98.753026 
1616.000000	98.758858 
1615.000000	98.763254 
1614.000000	98.765972 
1613.000000	98.766525 
1612.000000	98.766109 
1611.000000	98.767823 
1610.000000	98.772948 
1609.000000	98.778738 
1608.000000	98.782324 
1607.000000	98.784691 
1606.000000	98.787849 
1605.000000	98.791917 
1604.000000	98.796683 
1603.000000	98.802721 
1602.000000	98.809528 
1601.000000	98.814974 
1600.000000	98.818332 
1599.000000	98.821605 
1598.000000	98.826481 
1597.000000	98.832303 
1596.000000	98.837767 
1595.000000	98.842967 
1594.000000	98.848405 
1593.000000	98.853153 
1592.000000	98.856070 
1591.000000	98.857915 
1590.000000	98.860411 
1589.000000	98.863868 
1588.000000	98.867530 
1587.000000	98.871487 
1586.000000	98.875974 
1585.000000	98.879820 
1584.000000	98.881883 
1583.000000	98.883017 
1582.000000	98.885135 
1581.000000	98.888756 
1580.000000	98.892988 
1579.000000	98.897282 
1578.000000	98.901774 
1577.000000	98.905895 
1576.000000	98.908237 
1575.000000	98.909916 
1574.000000	98.912750 
1573.000000	98.915427 
1572.000000	98.916611 
1571.000000	98.917469 
1570.000000	98.920017 
1569.000000	98.923380 
1568.000000	98.925863 
1567.000000	98.927650 
1566.000000	98.929407 
1565.000000	98.931091 
1564.000000	98.933158 
1563.000000	98.935509 
1562.000000	98.937496 
1561.000000	98.937333 
1560.000000	98.935514 
1559.000000	98.935346 
1558.000000	98.937732 
1557.000000	98.941106 
1556.000000	98.943400 
1555.000000	98.944784 
1554.000000	98.945126 
1553.000000	98.945213 
1552.000000	98.945419 
1551.000000	98.946268 
1550.000000	98.947695 
1549.000000	98.949165 
1548.000000	98.950041 
1547.000000	98.950292 
1546.000000	98.950284 
1545.000000	98.950537 
1544.000000	98.951031 
1543.000000	98.951190 
1542.000000	98.951062 
1541.000000	98.951780 
1540.000000	98.952770 
1539.000000	98.952891 
1538.000000	98.953188 
1537.000000	98.953921 
1536.000000	98.954317 
1535.000000	98.954213 
1534.000000	98.954362 
1533.000000	98.955110 
1532.000000	98.955691 
1531.000000	98.955380 
1530.000000	98.954696 
1529.000000	98.954411 
1528.000000	98.954270 
1527.000000	98.953574 
1526.000000	98.952509 
1525.000000	98.951936 
1524.000000	98.951871 
1523.000000	98.951630 
1522.000000	98.951674 
1521.000000	98.952972 
1520.000000	98.954513 
1519.000000	98.954398 
1518.000000	98.952278 
1517.000000	98.949387 
1516.000000	98.946839 
1515.000000	98.944755 
1514.000000	98.942887 
1513.000000	98.941477 
1512.000000	98.941009 
1511.000000	98.940857 
1510.000000	98.939925 
1509.000000	98.938120 
1508.000000	98.937492 
1507.000000	98.938451 
1506.000000	98.938150 
1505.000000	98.936887 
1504.000000	98.935987 
1503.000000	98.934978 
1502.000000	98.933306 
1501.000000	98.931685 
1500.000000	98.930980 
1499.000000	98.931214 
1498.000000	98.931205 
1497.000000	98.931291 
1496.000000	98.932342 
1495.000000	98.932790 
1494.000000	98.930680 
1493.000000	98.926053 
1492.000000	98.920252 
1491.000000	98.915116 
1490.000000	98.911937 
1489.000000	98.910803 
1488.000000	98.909818 
1487.000000	98.907078 
1486.000000	98.903762 
1485.000000	98.901525 
1484.000000	98.900232 
1483.000000	98.898712 
1482.000000	98.895778 
1481.000000	98.891330 
1480.000000	98.886193 
1479.000000	98.881142 
1478.000000	98.876567 
1477.000000	98.872657 
1476.000000	98.868861 
1475.000000	98.864046 
1474.000000	98.858812 
1473.000000	98.856163 
1472.000000	98.857093 
1471.000000	98.858157 
1470.000000	98.856919 
1469.000000	98.854420 
1468.000000	98.852194 
1467.000000	98.850256 
1466.000000	98.847814 
1465.000000	98.844864 
1464.000000	98.842048 
1463.000000	98.839559 
1462.000000	98.837464 
1461.000000	98.836225 
1460.000000	98.835491 
1459.000000	98.832781 
1458.000000	98.822944 
1457.000000	98.804681 
1456.000000	98.787010 
1455.000000	98.776351 
1454.000000	98.769562 
1453.000000	98.764247 
1452.000000	98.760275 
1451.000000	98.757759 
1450.000000	98.756613 
1449.000000	98.758529 
1448.000000	98.764445 
1447.000000	98.770823 
1446.000000	98.773243 
1445.000000	98.772232 
1444.000000	98.770680 
1443.000000	98.768795 
1442.000000	98.765170 
1441.000000	98.760210 
1440.000000	98.756060 
1439.000000	98.753086 
1438.000000	98.748603 
1437.000000	98.741418 
1436.000000	98.734915 
1435.000000	98.730646 
1434.000000	98.726266 
1433.000000	98.721526 
1432.000000	98.718054 
1431.000000	98.716512 
1430.000000	98.714707 
1429.000000	98.710603 
1428.000000	98.705116 
1427.000000	98.699452 
1426.000000	98.692736 
1425.000000	98.683642 
1424.000000	98.674182 
1423.000000	98.666776 
1422.000000	98.659244 
1421.000000	98.647660 
1420.000000	98.632142 
1419.000000	98.616056 
1418.000000	98.599523 
1417.000000	98.581541 
1416.000000	98.563912 
1415.000000	98.547746 
1414.000000	98.531006 
1413.000000	98.511688 
1412.000000	98.491841 
1411.000000	98.475717 
1410.000000	98.464120 
1409.000000	98.455573 
1408.000000	98.450294 
1407.000000	98.449262 
1406.000000	98.451776 
1405.000000	98.457221 
1404.000000	98.467648 
1403.000000	98.483078 
1402.000000	98.498741 
1401.000000	98.511043 
1400.000000	98.521503 
1399.000000	98.531925 
1398.000000	98.536478 
1397.000000	98.525406 
1396.000000	98.497551 
1395.000000	98.468056 
1394.000000	98.458302 
1393.000000	98.475494 
1392.000000	98.510099 
1391.000000	98.546901 
1390.000000	98.574468 
1389.000000	98.588663 
1388.000000	98.591579 
1387.000000	98.588471 
1386.000000	98.583918 
1385.000000	98.580373 
1384.000000	98.579383 
1383.000000	98.581857 
1382.000000	98.587478 
1381.000000	98.595413 
1380.000000	98.605130 
1379.000000	98.616462 
1378.000000	98.628908 
1377.000000	98.641632 
1376.000000	98.654644 
1375.000000	98.669175 
1374.000000	98.685727 
1373.000000	98.702674 
1372.000000	98.718190 
1371.000000	98.732721 
1370.000000	98.748098 
1369.000000	98.764479 
1368.000000	98.780605 
1367.000000	98.795551 
1366.000000	98.809107 
1365.000000	98.821232 
1364.000000	98.831617 
1363.000000	98.840608 
1362.000000	98.850040 
1361.000000	98.861302 
1360.000000	98.873502 
1359.000000	98.885226 
1358.000000	98.896593 
1357.000000	98.908554 
1356.000000	98.921134 
1355.000000	98.933183 
1354.000000	98.943745 
1353.000000	98.953070 
1352.000000	98.960674 
1351.000000	98.965105 
1350.000000	98.967558 
1349.000000	98.970677 
1348.000000	98.975385 
1347.000000	98.981105 
1346.000000	98.987838 
1345.000000	98.995622 
1344.000000	99.002943 
1343.000000	99.007800 
1342.000000	99.010034 
1341.000000	99.010829 
1340.000000	99.010638 
1339.000000	99.009559 
1338.000000	99.008927 
1337.000000	99.010732 
1336.000000	99.015258 
1335.000000	99.020483 
1334.000000	99.024683 
1333.000000	99.028477 
1332.000000	99.033144 
1331.000000	99.038188 
1330.000000	99.041495 
1329.000000	99.041440 
1328.000000	99.038417 
1327.000000	99.034684 
1326.000000	99.032445 
1325.000000	99.031630 
1324.000000	99.031347 
1323.000000	99.031706 
1322.000000	99.033078 
1321.000000	99.034686 
1320.000000	99.035412 
1319.000000	99.035537 
1318.000000	99.036371 
1317.000000	99.038279 
1316.000000	99.040003 
1315.000000	99.040221 
1314.000000	99.039088 
1313.000000	99.038136 
1312.000000	99.038616 
1311.000000	99.040302 
1310.000000	99.042012 
1309.000000	99.043029 
1308.000000	99.043346 
1307.000000	99.042901 
1306.000000	99.041459 
1305.000000	99.039189 
1304.000000	99.037647 
1303.000000	99.038663 
1302.000000	99.042375 
1301.000000	99.046904 
1300.000000	99.049958 
1299.000000	99.050113 
1298.000000	99.047130 
1297.000000	99.042230 
1296.000000	99.037971 
1295.000000	99.036964 
1294.000000	99.039736 
1293.000000	99.044294 
1292.000000	99.047862 
1291.000000	99.048759 
1290.000000	99.047169 
1289.000000	99.044864 
1288.000000	99.043830 
1287.000000	99.044340 
1286.000000	99.044639 
1285.000000	99.043205 
1284.000000	99.040769 
1283.000000	99.039276 
1282.000000	99.039123 
1281.000000	99.038814 
1280.000000	99.037525 
1279.000000	99.036079 
1278.000000	99.034758 
1277.000000	99.032255 
1276.000000	99.027634 
1275.000000	99.022148 
1274.000000	99.018016 
1273.000000	99.016052 
1272.000000	99.015202 
1271.000000	99.013586 
1270.000000	99.009463 
1269.000000	99.002191 
1268.000000	98.993202 
1267.000000	98.985061 
1266.000000	98.978656 
1265.000000	98.972410 
1264.000000	98.964835 
1263.000000	98.956348 
1262.000000	98.947790 
1261.000000	98.938840 
1260.000000	98.929500 
1259.000000	98.921724 
1258.000000	98.917267 
1257.000000	98.915098 
1256.000000	98.912856 
1255.000000	98.909976 
1254.000000	98.907355 
1253.000000	98.904650 
1252.000000	98.900460 
1251.000000	98.895435 
1250.000000	98.892922 
1249.000000	98.895945 
1248.000000	98.905083 
1247.000000	98.918709 
1246.000000	98.932429 
1245.000000	98.938521 
1244.000000	98.930313 
1243.000000	98.910499 
1242.000000	98.893294 
1241.000000	98.893664 
1240.000000	98.913186 
1239.000000	98.938101 
1238.000000	98.951963 
1237.000000	98.948884 
1236.000000	98.934103 
1235.000000	98.915305 
1234.000000	98.896348 
1233.000000	98.878298 
1232.000000	98.862500 
1231.000000	98.850050 
1230.000000	98.839630 
1229.000000	98.828433 
1228.000000	98.815525 
1227.000000	98.803120 
1226.000000	98.794223 
1225.000000	98.789428 
1224.000000	98.785873 
1223.000000	98.778912 
1222.000000	98.765348 
1221.000000	98.745860 
1220.000000	98.724227 
1219.000000	98.703688 
1218.000000	98.684175 
1217.000000	98.663379 
1216.000000	98.639561 
1215.000000	98.612365 
1214.000000	98.581893 
1213.000000	98.548570 
1212.000000	98.513501 
1211.000000	98.477346 
1210.000000	98.439256 
1209.000000	98.398320 
1208.000000	98.355462 
1207.000000	98.312300 
1206.000000	98.268981 
1205.000000	98.225084 
1204.000000	98.181565 
1203.000000	98.139095 
1202.000000	98.095241 
1201.000000	98.046658 
1200.000000	97.994152 
1199.000000	97.942382 
1198.000000	97.893998 
1197.000000	97.847215 
1196.000000	97.799579 
1195.000000	97.750753 
1194.000000	97.700758 
1193.000000	97.648602 
1192.000000	97.594334 
1191.000000	97.539977 
1190.000000	97.486861 
1189.000000	97.434169 
1188.000000	97.381137 
1187.000000	97.328142 
1186.000000	97.274477 
1185.000000	97.217712 
1184.000000	97.156609 
1183.000000	97.092304 
1182.000000	97.025606 
1181.000000	96.955765 
1180.000000	96.883227 
1179.000000	96.810819 
1178.000000	96.740205 
1177.000000	96.669436 
1176.000000	96.595695 
1175.000000	96.518335 
1174.000000	96.437878 
1173.000000	96.354580 
1172.000000	96.269847 
1171.000000	96.186671 
1170.000000	96.106625 
1169.000000	96.028460 
1168.000000	95.951322 
1167.000000	95.877416 
1166.000000	95.810632 
1165.000000	95.755425 
1164.000000	95.718224 
1163.000000	95.706051 
1162.000000	95.720641 
1161.000000	95.755020 
1160.000000	95.796675 
1159.000000	95.832622 
1158.000000	95.852090 
1157.000000	95.848457 
1156.000000	95.820978 
1155.000000	95.773591 
1154.000000	95.711460 
1153.000000	95.639669 
1152.000000	95.564210 
1151.000000	95.490565 
1150.000000	95.420262 
1149.000000	95.351496 
1148.000000	95.283443 
1147.000000	95.216683 
1146.000000	95.149421 
1145.000000	95.077879 
1144.000000	95.001796 
1143.000000	94.925673 
1142.000000	94.853024 
1141.000000	94.782780 
1140.000000	94.712470 
1139.000000	94.640995 
1138.000000	94.567066 
1137.000000	94.489082 
1136.000000	94.408252 
1135.000000	94.328298 
1134.000000	94.250580 
1133.000000	94.172755 
1132.000000	94.092930 
1131.000000	94.011141 
1130.000000	93.926326 
1129.000000	93.836550 
1128.000000	93.743154 
1127.000000	93.650002 
1126.000000	93.557760 
1125.000000	93.463654 
1124.000000	93.367396 
1123.000000	93.271844 
1122.000000	93.176951 
1121.000000	93.079180 
1120.000000	92.978274 
1119.000000	92.878365 
1118.000000	92.780799 
1117.000000	92.682541 
1116.000000	92.583526 
1115.000000	92.488656 
1114.000000	92.399849 
1113.000000	92.312554 
1112.000000	92.222852 
1111.000000	92.131994 
1110.000000	92.041730 
1109.000000	91.951453 
1108.000000	91.861650 
1107.000000	91.774026 
1106.000000	91.687018 
1105.000000	91.597024 
1104.000000	91.504897 
1103.000000	91.415495 
1102.000000	91.329975 
1101.000000	91.245526 
1100.000000	91.162407 
1099.000000	91.083271 
1098.000000	91.007047 
1097.000000	90.929775 
1096.000000	90.852562 
1095.000000	90.779304 
1094.000000	90.705874 
1093.000000	90.621225 
1092.000000	90.521610 
1091.000000	90.414883 
1090.000000	90.308447 
1089.000000	90.201873 
1088.000000	90.094339 
1087.000000	89.989942 
1086.000000	89.891427 
1085.000000	89.796646 
1084.000000	89.704665 
1083.000000	89.617522 
1082.000000	89.533169 
1081.000000	89.445261 
1080.000000	89.353193 
1079.000000	89.264193 
1078.000000	89.182727 
1077.000000	89.106322 
1076.000000	89.033978 
1075.000000	88.968639 
1074.000000	88.908208 
1073.000000	88.843824 
1072.000000	88.768966 
1071.000000	88.678992 
1070.000000	88.560631 
1069.000000	88.398397 
1068.000000	88.199434 
1067.000000	88.000353 
1066.000000	87.837903 
1065.000000	87.718289 
1064.000000	87.621545 
1063.000000	87.524120 
1062.000000	87.408425 
1061.000000	87.262774 
1060.000000	87.087680 
1059.000000	86.900678 
1058.000000	86.725152 
1057.000000	86.572897 
1056.000000	86.439301 
1055.000000	86.309893 
1054.000000	86.168643 
1053.000000	86.007558 
1052.000000	85.833483 
1051.000000	85.660119 
1050.000000	85.490763 
1049.000000	85.317063 
1048.000000	85.135723 
1047.000000	84.954033 
1046.000000	84.776508 
1045.000000	84.598860 
1044.000000	84.418702 
1043.000000	84.240839 
1042.000000	84.067752 
1041.000000	83.894851 
1040.000000	83.720226 
1039.000000	83.551330 
1038.000000	83.398276 
1037.000000	83.267191 
1036.000000	83.160908 
1035.000000	83.077294 
1034.000000	83.005926 
1033.000000	82.934658 
1032.000000	82.858602 
1031.000000	82.775459 
1030.000000	82.679424 
1029.000000	82.574400 
1028.000000	82.487293 
1027.000000	82.447821 
1026.000000	82.453878 
1025.000000	82.472952 
1024.000000	82.478708 
1023.000000	82.469229 
1022.000000	82.449421 
1021.000000	82.417913 
1020.000000	82.377268 
1019.000000	82.338107 
1018.000000	82.304304 
1017.000000	82.267802 
1016.000000	82.224306 
1015.000000	82.181065 
1014.000000	82.144123 
1013.000000	82.110832 
1012.000000	82.079288 
1011.000000	82.052344 
1010.000000	82.028772 
1009.000000	82.003630 
1008.000000	81.980570 
1007.000000	81.970534 
1006.000000	81.975529 
1005.000000	81.986994 
1004.000000	82.002051 
1003.000000	82.026840 
1002.000000	82.061578 
1001.000000	82.097793 
1000.000000	82.133638 
999.000000	 82.176857 
998.000000	 82.228823 
997.000000	 82.280448 
996.000000	 82.328128 
995.000000	 82.379622 
994.000000	 82.439722 
993.000000	 82.503488 
992.000000	 82.567552 
991.000000	 82.635185 
990.000000	 82.706718 
989.000000	 82.777859 
988.000000	 82.850670 
987.000000	 82.933456 
986.000000	 83.027311 
985.000000	 83.125801 
984.000000	 83.229667 
983.000000	 83.347794 
982.000000	 83.481779 
981.000000	 83.623330 
980.000000	 83.769159 
979.000000	 83.924904 
978.000000	 84.091689 
977.000000	 84.263050 
976.000000	 84.438189 
975.000000	 84.624321 
974.000000	 84.822594 
973.000000	 85.024927 
972.000000	 85.227765 
971.000000	 85.435679 
970.000000	 85.648307 
969.000000	 85.857245 
968.000000	 86.059738 
967.000000	 86.262724 
966.000000	 86.469166 
965.000000	 86.672195 
964.000000	 86.866952 
963.000000	 87.057071 
962.000000	 87.245318 
961.000000	 87.428223 
960.000000	 87.604098 
959.000000	 87.776703 
958.000000	 87.947171 
957.000000	 88.111143 
956.000000	 88.267121 
955.000000	 88.419122 
954.000000	 88.568377 
953.000000	 88.710643 
952.000000	 88.843916 
951.000000	 88.970639 
950.000000	 89.090644 
949.000000	 89.200144 
948.000000	 89.299376 
947.000000	 89.393213 
946.000000	 89.482966 
945.000000	 89.565452 
944.000000	 89.640727 
943.000000	 89.712318 
942.000000	 89.779476 
941.000000	 89.838321 
940.000000	 89.891318 
939.000000	 89.946348 
938.000000	 90.005444 
937.000000	 90.063586 
936.000000	 90.119203 
935.000000	 90.175912 
934.000000	 90.233209 
933.000000	 90.286091 
932.000000	 90.335645 
931.000000	 90.389834 
930.000000	 90.451548 
929.000000	 90.515271 
928.000000	 90.577178 
927.000000	 90.638649 
926.000000	 90.698202 
925.000000	 90.750122 
924.000000	 90.793436 
923.000000	 90.832759 
922.000000	 90.868267 
921.000000	 90.894478 
920.000000	 90.911185 
919.000000	 90.925990 
918.000000	 90.943384 
917.000000	 90.960540 
916.000000	 90.976377 
915.000000	 90.995592 
914.000000	 91.021515 
913.000000	 91.054436 
912.000000	 91.099113 
911.000000	 91.163654 
910.000000	 91.247962 
909.000000	 91.343068 
908.000000	 91.445035 
907.000000	 91.560198 
906.000000	 91.693743 
905.000000	 91.842476 
904.000000	 92.001492 
903.000000	 92.169114 
902.000000	 92.342806 
901.000000	 92.518639 
900.000000	 92.696907 
899.000000	 92.880575 
898.000000	 93.066843 
897.000000	 93.247285 
896.000000	 93.416684 
895.000000	 93.575076 
894.000000	 93.723119 
893.000000	 93.864001 
892.000000	 94.007742 
891.000000	 94.162752 
890.000000	 94.322835 
889.000000	 94.472732 
888.000000	 94.606821 
887.000000	 94.732245 
886.000000	 94.853589 
885.000000	 94.966040 
884.000000	 95.066355 
883.000000	 95.159884 
882.000000	 95.252879 
881.000000	 95.347165 
880.000000	 95.446265 
879.000000	 95.557090 
878.000000	 95.679824 
877.000000	 95.803507 
876.000000	 95.916643 
875.000000	 96.016742 
874.000000	 96.107893 
873.000000	 96.196274 
872.000000	 96.290038 
871.000000	 96.395550 
870.000000	 96.509786 
869.000000	 96.622330 
868.000000	 96.727297 
867.000000	 96.828425 
866.000000	 96.932017 
865.000000	 97.040634 
864.000000	 97.154366 
863.000000	 97.271769 
862.000000	 97.387874 
861.000000	 97.496631 
860.000000	 97.596916 
859.000000	 97.692435 
858.000000	 97.786288 
857.000000	 97.880028 
856.000000	 97.976152 
855.000000	 98.074696 
854.000000	 98.168049 
853.000000	 98.246564 
852.000000	 98.309968 
851.000000	 98.366962 
850.000000	 98.423226 
849.000000	 98.476496 
848.000000	 98.524224 
847.000000	 98.568542 
846.000000	 98.611195 
845.000000	 98.649878 
844.000000	 98.682219 
843.000000	 98.707987 
842.000000	 98.724957 
841.000000	 98.727811 
840.000000	 98.714359 
839.000000	 98.689426 
838.000000	 98.660109 
837.000000	 98.629454 
836.000000	 98.596087 
835.000000	 98.558084 
834.000000	 98.517048 
833.000000	 98.480097 
832.000000	 98.455664 
831.000000	 98.444032 
830.000000	 98.435925 
829.000000	 98.426972 
828.000000	 98.429163 
827.000000	 98.457026 
826.000000	 98.504126 
825.000000	 98.547238 
824.000000	 98.575734 
823.000000	 98.602159 
822.000000	 98.639647 
821.000000	 98.683277 
820.000000	 98.719516 
819.000000	 98.741652 
818.000000	 98.750261 
817.000000	 98.747290 
816.000000	 98.734107 
815.000000	 98.709011 
814.000000	 98.663234 
813.000000	 98.585057 
812.000000	 98.470642 
811.000000	 98.325440 
810.000000	 98.152404 
809.000000	 97.944815 
808.000000	 97.694286 
807.000000	 97.400224 
806.000000	 97.068260 
805.000000	 96.706308 
804.000000	 96.328217 
803.000000	 95.956275 
802.000000	 95.613665 
801.000000	 95.317495 
800.000000	 95.080967 
799.000000	 94.914056 
798.000000	 94.817374 
797.000000	 94.782291 
796.000000	 94.799507 
795.000000	 94.859917 
794.000000	 94.947450 
793.000000	 95.042357 
792.000000	 95.132978 
791.000000	 95.214309 
790.000000	 95.275866 
789.000000	 95.304320 
788.000000	 95.299860 
787.000000	 95.276426 
786.000000	 95.241212 
785.000000	 95.185415 
784.000000	 95.100465 
783.000000	 94.992746 
782.000000	 94.876823 
781.000000	 94.764899 
780.000000	 94.669360 
779.000000	 94.604937 
778.000000	 94.580001 
777.000000	 94.593505 
776.000000	 94.645405 
775.000000	 94.739676 
774.000000	 94.870711 
773.000000	 95.017072 
772.000000	 95.156701 
771.000000	 95.281239 
770.000000	 95.390125 
769.000000	 95.479648 
768.000000	 95.545991 
767.000000	 95.593207 
766.000000	 95.630133 
765.000000	 95.662005 
764.000000	 95.689954 
763.000000	 95.715093 
762.000000	 95.738658 
761.000000	 95.761515 
760.000000	 95.787043 
759.000000	 95.820867 
758.000000	 95.864742 
757.000000	 95.914474 
756.000000	 95.966056 
755.000000	 96.019744 
754.000000	 96.076600 
753.000000	 96.135661 
752.000000	 96.196161 
751.000000	 96.257665 
750.000000	 96.316653 
749.000000	 96.368019 
748.000000	 96.411812 
747.000000	 96.454753 
746.000000	 96.504379 
745.000000	 96.564939 
744.000000	 96.637660 
743.000000	 96.719998 
742.000000	 96.805934 
741.000000	 96.892515 
740.000000	 96.984368 
739.000000	 97.086120 
738.000000	 97.192982 
737.000000	 97.295496 
736.000000	 97.390912 
735.000000	 97.482448 
734.000000	 97.570320 
733.000000	 97.651793 
732.000000	 97.726925 
731.000000	 97.794756 
730.000000	 97.846611 
729.000000	 97.874087 
728.000000	 97.883953 
727.000000	 97.893885 
726.000000	 97.911872 
725.000000	 97.932349 
724.000000	 97.953852 
723.000000	 97.986523 
722.000000	 98.037455 
721.000000	 98.099752 
720.000000	 98.161898 
719.000000	 98.219394 
718.000000	 98.272322 
717.000000	 98.320247 
716.000000	 98.364455 
715.000000	 98.407720 
714.000000	 98.447882 
713.000000	 98.478419 
712.000000	 98.498856 
711.000000	 98.517044 
710.000000	 98.537769 
709.000000	 98.556222 
708.000000	 98.565619 
707.000000	 98.564530 
706.000000	 98.552481 
705.000000	 98.527388 
704.000000	 98.491049 
703.000000	 98.447192 
702.000000	 98.390658 
701.000000	 98.306275 
700.000000	 98.181073 
699.000000	 98.013728 
698.000000	 97.812197 
697.000000	 97.594761 
696.000000	 97.396731 
695.000000	 97.260072 
694.000000	 97.209084 
693.000000	 97.239703 
692.000000	 97.330363 
691.000000	 97.455212 
690.000000	 97.586682 
689.000000	 97.702366 
688.000000	 97.798105 
687.000000	 97.884332 
686.000000	 97.966288 
685.000000	 98.037008 
684.000000	 98.091449 
683.000000	 98.136174 
682.000000	 98.180744 
681.000000	 98.229924 
680.000000	 98.286504 
679.000000	 98.351025 
678.000000	 98.413486 
677.000000	 98.455881 
676.000000	 98.477334 
675.000000	 98.502363 
674.000000	 98.549841 
673.000000	 98.608537 
672.000000	 98.658617 
671.000000	 98.704361 
670.000000	 98.772037 
669.000000	 98.874353 
668.000000	 98.963973 
667.000000	 98.992045 
666.000000	 98.992060 
665.000000	 98.994587 
664.000000	 99.001784 
663.000000	 99.011184 
662.000000	 99.021823 
661.000000	 99.035707 
660.000000	 99.060746 
659.000000	 99.099504 
658.000000	 99.130575 
657.000000	 99.120145 
656.000000	 99.066144 
655.000000	 99.009658 
654.000000	 98.985838 
653.000000	 98.985819 
652.000000	 98.988235 
651.000000	 98.996170 
650.000000	 99.020286 

