4000.000000	99.559133 
3999.000000	99.562779 
3998.000000	99.564771 
3997.000000	99.563465 
3996.000000	99.558398 
3995.000000	99.551032 
3994.000000	99.544360 
3993.000000	99.541246 
3992.000000	99.542607 
3991.000000	99.546904 
3990.000000	99.551424 
3989.000000	99.554361 
3988.000000	99.555936 
3987.000000	99.557609 
3986.000000	99.560253 
3985.000000	99.563093 
3984.000000	99.564293 
3983.000000	99.562501 
3982.000000	99.557987 
3981.000000	99.552487 
3980.000000	99.547823 
3979.000000	99.544828 
3978.000000	99.543692 
3977.000000	99.544747 
3976.000000	99.548362 
3975.000000	99.554121 
3974.000000	99.560642 
3973.000000	99.566305 
3972.000000	99.569962 
3971.000000	99.571164 
3970.000000	99.569967 
3969.000000	99.566712 
3968.000000	99.562187 
3967.000000	99.557706 
3966.000000	99.554831 
3965.000000	99.554784 
3964.000000	99.557478 
3963.000000	99.560979 
3962.000000	99.562478 
3961.000000	99.560254 
3960.000000	99.554892 
3959.000000	99.549001 
3958.000000	99.545414 
3957.000000	99.545267 
3956.000000	99.547788 
3955.000000	99.551338 
3954.000000	99.554524 
3953.000000	99.556397 
3952.000000	99.556195 
3951.000000	99.553784 
3950.000000	99.549964 
3949.000000	99.546414 
3948.000000	99.544814 
3947.000000	99.545526 
3946.000000	99.547539 
3945.000000	99.549687 
3944.000000	99.551608 
3943.000000	99.552999 
3942.000000	99.553277 
3941.000000	99.552217 
3940.000000	99.549917 
3939.000000	99.546242 
3938.000000	99.540892 
3937.000000	99.534138 
3936.000000	99.527674 
3935.000000	99.524254 
3934.000000	99.526372 
3933.000000	99.534394 
3932.000000	99.545450 
3931.000000	99.554389 
3930.000000	99.557031 
3929.000000	99.553532 
3928.000000	99.548109 
3927.000000	99.545393 
3926.000000	99.547365 
3925.000000	99.551911 
3924.000000	99.554100 
3923.000000	99.550658 
3922.000000	99.542732 
3921.000000	99.534788 
3920.000000	99.530894 
3919.000000	99.532219 
3918.000000	99.537548 
3917.000000	99.544742 
3916.000000	99.551605 
3915.000000	99.556510 
3914.000000	99.559529 
3913.000000	99.562173 
3912.000000	99.565361 
3911.000000	99.568797 
3910.000000	99.571847 
3909.000000	99.574491 
3908.000000	99.576915 
3907.000000	99.577814 
3906.000000	99.574177 
3905.000000	99.563301 
3904.000000	99.545589 
3903.000000	99.526515 
3902.000000	99.513990 
3901.000000	99.512643 
3900.000000	99.521035 
3899.000000	99.532652 
3898.000000	99.541191 
3897.000000	99.545127 
3896.000000	99.546674 
3895.000000	99.548173 
3894.000000	99.549672 
3893.000000	99.549032 
3892.000000	99.544713 
3891.000000	99.538367 
3890.000000	99.533252 
3889.000000	99.530130 
3888.000000	99.527413 
3887.000000	99.524905 
3886.000000	99.524111 
3885.000000	99.525166 
3884.000000	99.526278 
3883.000000	99.526976 
3882.000000	99.529246 
3881.000000	99.534192 
3880.000000	99.539635 
3879.000000	99.542177 
3878.000000	99.541314 
3877.000000	99.540037 
3876.000000	99.542700 
3875.000000	99.550561 
3874.000000	99.558637 
3873.000000	99.559292 
3872.000000	99.550789 
3871.000000	99.540247 
3870.000000	99.536443 
3869.000000	99.540730 
3868.000000	99.547042 
3867.000000	99.550348 
3866.000000	99.552224 
3865.000000	99.555927 
3864.000000	99.559221 
3863.000000	99.557938 
3862.000000	99.552559 
3861.000000	99.548075 
3860.000000	99.548953 
3859.000000	99.555963 
3858.000000	99.565541 
3857.000000	99.572160 
3856.000000	99.571576 
3855.000000	99.566104 
3854.000000	99.561720 
3853.000000	99.560360 
3852.000000	99.560577 
3851.000000	99.561173 
3850.000000	99.561113 
3849.000000	99.561153 
3848.000000	99.561569 
3847.000000	99.561631 
3846.000000	99.560651 
3845.000000	99.558410 
3844.000000	99.556095 
3843.000000	99.556486 
3842.000000	99.560145 
3841.000000	99.564268 
3840.000000	99.565844 
3839.000000	99.564349 
3838.000000	99.561426 
3837.000000	99.558786 
3836.000000	99.556670 
3835.000000	99.555117 
3834.000000	99.554904 
3833.000000	99.557650 
3832.000000	99.564006 
3831.000000	99.571657 
3830.000000	99.576930 
3829.000000	99.577549 
3828.000000	99.574141 
3827.000000	99.570223 
3826.000000	99.568999 
3825.000000	99.570011 
3824.000000	99.570419 
3823.000000	99.570164 
3822.000000	99.572088 
3821.000000	99.576440 
3820.000000	99.579600 
3819.000000	99.578748 
3818.000000	99.573903 
3817.000000	99.568820 
3816.000000	99.567592 
3815.000000	99.568506 
3814.000000	99.566441 
3813.000000	99.561086 
3812.000000	99.557853 
3811.000000	99.560977 
3810.000000	99.568452 
3809.000000	99.574634 
3808.000000	99.576906 
3807.000000	99.577565 
3806.000000	99.578547 
3805.000000	99.578061 
3804.000000	99.574002 
3803.000000	99.569148 
3802.000000	99.568877 
3801.000000	99.573065 
3800.000000	99.575655 
3799.000000	99.572355 
3798.000000	99.564556 
3797.000000	99.557276 
3796.000000	99.553992 
3795.000000	99.553802 
3794.000000	99.553717 
3793.000000	99.552462 
3792.000000	99.551089 
3791.000000	99.551101 
3790.000000	99.553152 
3789.000000	99.556882 
3788.000000	99.561136 
3787.000000	99.564144 
3786.000000	99.564824 
3785.000000	99.563867 
3784.000000	99.562800 
3783.000000	99.561977 
3782.000000	99.560865 
3781.000000	99.559848 
3780.000000	99.560037 
3779.000000	99.561485 
3778.000000	99.562579 
3777.000000	99.561501 
3776.000000	99.557985 
3775.000000	99.553989 
3774.000000	99.551337 
3773.000000	99.549646 
3772.000000	99.547806 
3771.000000	99.546257 
3770.000000	99.545636 
3769.000000	99.545177 
3768.000000	99.544220 
3767.000000	99.543045 
3766.000000	99.542392 
3765.000000	99.542352 
3764.000000	99.541610 
3763.000000	99.538902 
3762.000000	99.535788 
3761.000000	99.536102 
3760.000000	99.540730 
3759.000000	99.546239 
3758.000000	99.550168 
3757.000000	99.553725 
3756.000000	99.557734 
3755.000000	99.560613 
3754.000000	99.560838 
3753.000000	99.559120 
3752.000000	99.556351 
3751.000000	99.551549 
3750.000000	99.546808 
3749.000000	99.548040 
3748.000000	99.555740 
3747.000000	99.562721 
3746.000000	99.562592 
3745.000000	99.556272 
3744.000000	99.550052 
3743.000000	99.547015 
3742.000000	99.544737 
3741.000000	99.541325 
3740.000000	99.537109 
3739.000000	99.531611 
3738.000000	99.525613 
3737.000000	99.524818 
3736.000000	99.534780 
3735.000000	99.551285 
3734.000000	99.562227 
3733.000000	99.561258 
3732.000000	99.552906 
3731.000000	99.543985 
3730.000000	99.535792 
3729.000000	99.526137 
3728.000000	99.516305 
3727.000000	99.511195 
3726.000000	99.512612 
3725.000000	99.516820 
3724.000000	99.520529 
3723.000000	99.524726 
3722.000000	99.530927 
3721.000000	99.538325 
3720.000000	99.543743 
3719.000000	99.543973 
3718.000000	99.538940 
3717.000000	99.531136 
3716.000000	99.522979 
3715.000000	99.515211 
3714.000000	99.507770 
3713.000000	99.501753 
3712.000000	99.498419 
3711.000000	99.498208 
3710.000000	99.500158 
3709.000000	99.501955 
3708.000000	99.501993 
3707.000000	99.500565 
3706.000000	99.499560 
3705.000000	99.501080 
3704.000000	99.505576 
3703.000000	99.510013 
3702.000000	99.508205 
3701.000000	99.496409 
3700.000000	99.477433 
3699.000000	99.457380 
3698.000000	99.441167 
3697.000000	99.430552 
3696.000000	99.423580 
3695.000000	99.416911 
3694.000000	99.410385 
3693.000000	99.407827 
3692.000000	99.411971 
3691.000000	99.419905 
3690.000000	99.423443 
3689.000000	99.416670 
3688.000000	99.402349 
3687.000000	99.386881 
3686.000000	99.373427 
3685.000000	99.363956 
3684.000000	99.360939 
3683.000000	99.364515 
3682.000000	99.370523 
3681.000000	99.373057 
3680.000000	99.368589 
3679.000000	99.355912 
3678.000000	99.336580 
3677.000000	99.319105 
3676.000000	99.314798 
3675.000000	99.323081 
3674.000000	99.331997 
3673.000000	99.332722 
3672.000000	99.326248 
3671.000000	99.322454 
3670.000000	99.327606 
3669.000000	99.336604 
3668.000000	99.342835 
3667.000000	99.345812 
3666.000000	99.347933 
3665.000000	99.350535 
3664.000000	99.352773 
3663.000000	99.353427 
3662.000000	99.352546 
3661.000000	99.350540 
3660.000000	99.347199 
3659.000000	99.342740 
3658.000000	99.340020 
3657.000000	99.343300 
3656.000000	99.353323 
3655.000000	99.365578 
3654.000000	99.374400 
3653.000000	99.377472 
3652.000000	99.376260 
3651.000000	99.373652 
3650.000000	99.370902 
3649.000000	99.368820 
3648.000000	99.370136 
3647.000000	99.376062 
3646.000000	99.384619 
3645.000000	99.393851 
3644.000000	99.403642 
3643.000000	99.414688 
3642.000000	99.427357 
3641.000000	99.440513 
3640.000000	99.452253 
3639.000000	99.461045 
3638.000000	99.466055 
3637.000000	99.467144 
3636.000000	99.465308 
3635.000000	99.463043 
3634.000000	99.462342 
3633.000000	99.462160 
3632.000000	99.459497 
3631.000000	99.453901 
3630.000000	99.450259 
3629.000000	99.452685 
3628.000000	99.458022 
3627.000000	99.462241 
3626.000000	99.465733 
3625.000000	99.471585 
3624.000000	99.482114 
3623.000000	99.496790 
3622.000000	99.513144 
3621.000000	99.529057 
3620.000000	99.540915 
3619.000000	99.542633 
3618.000000	99.531970 
3617.000000	99.514699 
3616.000000	99.499349 
3615.000000	99.491386 
3614.000000	99.490156 
3613.000000	99.490169 
3612.000000	99.487006 
3611.000000	99.481262 
3610.000000	99.476677 
3609.000000	99.476475 
3608.000000	99.480236 
3607.000000	99.485482 
3606.000000	99.491783 
3605.000000	99.500490 
3604.000000	99.512000 
3603.000000	99.524380 
3602.000000	99.534799 
3601.000000	99.542125 
3600.000000	99.545911 
3599.000000	99.544728 
3598.000000	99.537810 
3597.000000	99.527170 
3596.000000	99.517385 
3595.000000	99.513129 
3594.000000	99.515138 
3593.000000	99.519832 
3592.000000	99.522873 
3591.000000	99.522040 
3590.000000	99.518805 
3589.000000	99.517340 
3588.000000	99.519872 
3587.000000	99.523115 
3586.000000	99.523209 
3585.000000	99.520901 
3584.000000	99.520147 
3583.000000	99.523061 
3582.000000	99.528388 
3581.000000	99.533113 
3580.000000	99.535214 
3579.000000	99.534536 
3578.000000	99.531669 
3577.000000	99.527541 
3576.000000	99.523639 
3575.000000	99.522104 
3574.000000	99.523989 
3573.000000	99.527744 
3572.000000	99.530366 
3571.000000	99.529691 
3570.000000	99.525409 
3569.000000	99.519587 
3568.000000	99.515752 
3567.000000	99.515678 
3566.000000	99.517984 
3565.000000	99.520462 
3564.000000	99.522293 
3563.000000	99.524500 
3562.000000	99.528498 
3561.000000	99.534087 
3560.000000	99.539406 
3559.000000	99.542611 
3558.000000	99.543639 
3557.000000	99.544133 
3556.000000	99.545866 
3555.000000	99.549201 
3554.000000	99.552858 
3553.000000	99.554296 
3552.000000	99.551271 
3551.000000	99.543711 
3550.000000	99.533786 
3549.000000	99.524530 
3548.000000	99.518912 
3547.000000	99.518589 
3546.000000	99.522741 
3545.000000	99.527715 
3544.000000	99.529727 
3543.000000	99.528547 
3542.000000	99.527942 
3541.000000	99.531619 
3540.000000	99.539365 
3539.000000	99.547162 
3538.000000	99.551302 
3537.000000	99.551573 
3536.000000	99.550462 
3535.000000	99.550081 
3534.000000	99.550394 
3533.000000	99.550525 
3532.000000	99.550348 
3531.000000	99.550465 
3530.000000	99.550658 
3529.000000	99.549419 
3528.000000	99.545772 
3527.000000	99.541234 
3526.000000	99.538945 
3525.000000	99.540583 
3524.000000	99.544551 
3523.000000	99.547593 
3522.000000	99.548145 
3521.000000	99.547304 
3520.000000	99.547080 
3519.000000	99.548449 
3518.000000	99.551246 
3517.000000	99.554774 
3516.000000	99.557958 
3515.000000	99.559591 
3514.000000	99.558820 
3513.000000	99.555795 
3512.000000	99.551658 
3511.000000	99.547788 
3510.000000	99.544846 
3509.000000	99.542842 
3508.000000	99.541883 
3507.000000	99.542351 
3506.000000	99.544092 
3505.000000	99.545339 
3504.000000	99.543341 
3503.000000	99.537283 
3502.000000	99.530749 
3501.000000	99.529691 
3500.000000	99.536988 
3499.000000	99.549449 
3498.000000	99.560172 
3497.000000	99.563889 
3496.000000	99.560328 
3495.000000	99.553318 
3494.000000	99.547526 
3493.000000	99.545717 
3492.000000	99.548001 
3491.000000	99.552538 
3490.000000	99.557046 
3489.000000	99.560307 
3488.000000	99.562402 
3487.000000	99.563610 
3486.000000	99.563717 
3485.000000	99.562690 
3484.000000	99.561321 
3483.000000	99.560556 
3482.000000	99.560245 
3481.000000	99.559460 
3480.000000	99.558131 
3479.000000	99.557407 
3478.000000	99.558024 
3477.000000	99.559260 
3476.000000	99.560312 
3475.000000	99.562169 
3474.000000	99.566694 
3473.000000	99.573375 
3472.000000	99.578444 
3471.000000	99.578607 
3470.000000	99.575020 
3469.000000	99.572086 
3468.000000	99.572458 
3467.000000	99.574517 
3466.000000	99.575424 
3465.000000	99.575103 
3464.000000	99.575832 
3463.000000	99.578661 
3462.000000	99.581870 
3461.000000	99.583366 
3460.000000	99.583273 
3459.000000	99.583457 
3458.000000	99.585058 
3457.000000	99.587039 
3456.000000	99.587247 
3455.000000	99.584601 
3454.000000	99.580242 
3453.000000	99.576811 
3452.000000	99.576178 
3451.000000	99.578027 
3450.000000	99.580638 
3449.000000	99.582929 
3448.000000	99.585075 
3447.000000	99.587112 
3446.000000	99.587789 
3445.000000	99.585755 
3444.000000	99.581566 
3443.000000	99.577610 
3442.000000	99.575843 
3441.000000	99.575911 
3440.000000	99.575906 
3439.000000	99.574425 
3438.000000	99.571369 
3437.000000	99.567264 
3436.000000	99.563033 
3435.000000	99.560480 
3434.000000	99.561769 
3433.000000	99.567565 
3432.000000	99.575600 
3431.000000	99.582081 
3430.000000	99.584805 
3429.000000	99.584798 
3428.000000	99.584777 
3427.000000	99.586022 
3426.000000	99.587052 
3425.000000	99.585337 
3424.000000	99.580145 
3423.000000	99.573459 
3422.000000	99.568097 
3421.000000	99.565396 
3420.000000	99.565222 
3419.000000	99.567563 
3418.000000	99.572804 
3417.000000	99.580091 
3416.000000	99.586505 
3415.000000	99.588857 
3414.000000	99.586399 
3413.000000	99.581391 
3412.000000	99.577067 
3411.000000	99.575293 
3410.000000	99.575803 
3409.000000	99.576956 
3408.000000	99.576982 
3407.000000	99.575027 
3406.000000	99.571688 
3405.000000	99.568609 
3404.000000	99.567372 
3403.000000	99.568477 
3402.000000	99.571187 
3401.000000	99.574428 
3400.000000	99.577755 
3399.000000	99.581425 
3398.000000	99.585484 
3397.000000	99.588968 
3396.000000	99.590240 
3395.000000	99.588159 
3394.000000	99.582793 
3393.000000	99.575217 
3392.000000	99.567119 
3391.000000	99.560677 
3390.000000	99.558279 
3389.000000	99.561418 
3388.000000	99.569349 
3387.000000	99.579056 
3386.000000	99.587141 
3385.000000	99.592125 
3384.000000	99.594794 
3383.000000	99.596234 
3382.000000	99.595873 
3381.000000	99.592110 
3380.000000	99.584947 
3379.000000	99.577532 
3378.000000	99.574195 
3377.000000	99.576599 
3376.000000	99.582110 
3375.000000	99.586289 
3374.000000	99.586903 
3373.000000	99.585239 
3372.000000	99.583843 
3371.000000	99.583660 
3370.000000	99.583716 
3369.000000	99.582966 
3368.000000	99.581797 
3367.000000	99.581558 
3366.000000	99.582991 
3365.000000	99.585261 
3364.000000	99.586507 
3363.000000	99.585398 
3362.000000	99.582228 
3361.000000	99.578344 
3360.000000	99.574555 
3359.000000	99.570644 
3358.000000	99.566883 
3357.000000	99.565407 
3356.000000	99.568702 
3355.000000	99.576174 
3354.000000	99.583133 
3353.000000	99.584391 
3352.000000	99.578969 
3351.000000	99.570962 
3350.000000	99.565788 
3349.000000	99.565912 
3348.000000	99.569909 
3347.000000	99.574507 
3346.000000	99.577059 
3345.000000	99.576799 
3344.000000	99.574878 
3343.000000	99.573455 
3342.000000	99.573934 
3341.000000	99.575590 
3340.000000	99.576110 
3339.000000	99.573922 
3338.000000	99.569980 
3337.000000	99.566935 
3336.000000	99.566570 
3335.000000	99.568349 
3334.000000	99.570639 
3333.000000	99.572863 
3332.000000	99.575887 
3331.000000	99.580225 
3330.000000	99.584344 
3329.000000	99.585419 
3328.000000	99.582049 
3327.000000	99.576004 
3326.000000	99.570819 
3325.000000	99.568529 
3324.000000	99.567991 
3323.000000	99.566737 
3322.000000	99.564085 
3321.000000	99.561822 
3320.000000	99.561901 
3319.000000	99.564243 
3318.000000	99.567234 
3317.000000	99.569646 
3316.000000	99.571161 
3315.000000	99.571453 
3314.000000	99.570077 
3313.000000	99.567653 
3312.000000	99.566092 
3311.000000	99.566754 
3310.000000	99.568697 
3309.000000	99.569478 
3308.000000	99.567582 
3307.000000	99.563716 
3306.000000	99.560115 
3305.000000	99.559146 
3304.000000	99.562167 
3303.000000	99.568466 
3302.000000	99.574908 
3301.000000	99.577436 
3300.000000	99.573933 
3299.000000	99.566004 
3298.000000	99.557967 
3297.000000	99.553915 
3296.000000	99.555035 
3295.000000	99.559042 
3294.000000	99.562134 
3293.000000	99.562114 
3292.000000	99.560025 
3291.000000	99.558488 
3290.000000	99.558459 
3289.000000	99.558319 
3288.000000	99.556254 
3287.000000	99.552645 
3286.000000	99.549386 
3285.000000	99.547346 
3284.000000	99.545506 
3283.000000	99.542666 
3282.000000	99.539336 
3281.000000	99.537587 
3280.000000	99.539355 
3279.000000	99.544881 
3278.000000	99.552268 
3277.000000	99.558276 
3276.000000	99.559932 
3275.000000	99.556239 
3274.000000	99.548939 
3273.000000	99.541658 
3272.000000	99.537772 
3271.000000	99.538297 
3270.000000	99.541364 
3269.000000	99.543882 
3268.000000	99.543976 
3267.000000	99.541963 
3266.000000	99.539314 
3265.000000	99.537311 
3264.000000	99.536741 
3263.000000	99.538103 
3262.000000	99.541245 
3261.000000	99.544844 
3260.000000	99.547062 
3259.000000	99.546945 
3258.000000	99.544986 
3257.000000	99.542361 
3256.000000	99.539883 
3255.000000	99.537661 
3254.000000	99.535479 
3253.000000	99.533484 
3252.000000	99.532577 
3251.000000	99.533939 
3250.000000	99.537627 
3249.000000	99.541742 
3248.000000	99.543575 
3247.000000	99.541864 
3246.000000	99.537826 
3245.000000	99.533864 
3244.000000	99.531477 
3243.000000	99.530430 
3242.000000	99.529564 
3241.000000	99.528113 
3240.000000	99.526577 
3239.000000	99.526573 
3238.000000	99.529687 
3237.000000	99.536123 
3236.000000	99.544253 
3235.000000	99.551343 
3234.000000	99.554845 
3233.000000	99.553611 
3232.000000	99.548668 
3231.000000	99.543032 
3230.000000	99.539948 
3229.000000	99.540475 
3228.000000	99.542665 
3227.000000	99.543294 
3226.000000	99.540536 
3225.000000	99.535086 
3224.000000	99.529125 
3223.000000	99.524677 
3222.000000	99.522718 
3221.000000	99.523068 
3220.000000	99.524665 
3219.000000	99.526114 
3218.000000	99.526627 
3217.000000	99.526770 
3216.000000	99.528230 
3215.000000	99.532323 
3214.000000	99.538369 
3213.000000	99.543627 
3212.000000	99.545166 
3211.000000	99.542043 
3210.000000	99.535752 
3209.000000	99.528860 
3208.000000	99.523441 
3207.000000	99.520441 
3206.000000	99.519774 
3205.000000	99.520692 
3204.000000	99.522443 
3203.000000	99.524853 
3202.000000	99.527997 
3201.000000	99.531185 
3200.000000	99.532847 
3199.000000	99.531909 
3198.000000	99.529056 
3197.000000	99.526230 
3196.000000	99.525078 
3195.000000	99.526134 
3194.000000	99.528916 
3193.000000	99.531981 
3192.000000	99.533097 
3191.000000	99.530522 
3190.000000	99.524737 
3189.000000	99.518579 
3188.000000	99.515166 
3187.000000	99.515675 
3186.000000	99.518971 
3185.000000	99.522762 
3184.000000	99.524978 
3183.000000	99.524642 
3182.000000	99.522277 
3181.000000	99.519612 
3180.000000	99.518467 
3179.000000	99.519434 
3178.000000	99.521402 
3177.000000	99.522453 
3176.000000	99.521598 
3175.000000	99.519880 
3174.000000	99.519494 
3173.000000	99.521312 
3172.000000	99.523403 
3171.000000	99.522778 
3170.000000	99.518886 
3169.000000	99.514716 
3168.000000	99.513816 
3167.000000	99.516594 
3166.000000	99.520202 
3165.000000	99.521781 
3164.000000	99.521135 
3163.000000	99.520091 
3162.000000	99.520068 
3161.000000	99.520815 
3160.000000	99.521203 
3159.000000	99.520585 
3158.000000	99.519155 
3157.000000	99.517393 
3156.000000	99.515543 
3155.000000	99.513550 
3154.000000	99.511103 
3153.000000	99.507652 
3152.000000	99.502872 
3151.000000	99.497545 
3150.000000	99.493697 
3149.000000	99.493206 
3148.000000	99.496109 
3147.000000	99.500638 
3146.000000	99.504984 
3145.000000	99.508599 
3144.000000	99.511680 
3143.000000	99.514035 
3142.000000	99.515107 
3141.000000	99.514837 
3140.000000	99.513804 
3139.000000	99.512539 
3138.000000	99.511166 
3137.000000	99.509890 
3136.000000	99.509303 
3135.000000	99.509855 
3134.000000	99.511175 
3133.000000	99.512191 
3132.000000	99.511934 
3131.000000	99.510242 
3130.000000	99.507794 
3129.000000	99.505645 
3128.000000	99.504707 
3127.000000	99.505478 
3126.000000	99.507819 
3125.000000	99.510679 
3124.000000	99.512240 
3123.000000	99.511065 
3122.000000	99.507602 
3121.000000	99.504151 
3120.000000	99.502733 
3119.000000	99.503084 
3118.000000	99.503234 
3117.000000	99.502136 
3116.000000	99.501129 
3115.000000	99.502284 
3114.000000	99.505563 
3113.000000	99.508225 
3112.000000	99.507408 
3111.000000	99.503175 
3110.000000	99.498605 
3109.000000	99.496747 
3108.000000	99.497680 
3107.000000	99.498895 
3106.000000	99.498249 
3105.000000	99.496033 
3104.000000	99.494164 
3103.000000	99.494004 
3102.000000	99.495440 
3101.000000	99.497613 
3100.000000	99.500006 
3099.000000	99.502803 
3098.000000	99.506503 
3097.000000	99.511155 
3096.000000	99.515726 
3095.000000	99.518334 
3094.000000	99.517537 
3093.000000	99.513561 
3092.000000	99.508199 
3091.000000	99.503634 
3090.000000	99.501379 
3089.000000	99.501837 
3088.000000	99.504119 
3087.000000	99.506346 
3086.000000	99.506833 
3085.000000	99.505398 
3084.000000	99.503136 
3083.000000	99.500792 
3082.000000	99.497942 
3081.000000	99.494151 
3080.000000	99.490449 
3079.000000	99.488971 
3078.000000	99.491213 
3077.000000	99.496865 
3076.000000	99.504013 
3075.000000	99.510005 
3074.000000	99.512455 
3073.000000	99.510476 
3072.000000	99.505304 
3071.000000	99.499378 
3070.000000	99.494463 
3069.000000	99.490765 
3068.000000	99.487910 
3067.000000	99.486400 
3066.000000	99.487727 
3065.000000	99.492911 
3064.000000	99.500818 
3063.000000	99.507938 
3062.000000	99.510376 
3061.000000	99.506718 
3060.000000	99.499252 
3059.000000	99.492139 
3058.000000	99.488356 
3057.000000	99.488359 
3056.000000	99.490998 
3055.000000	99.494788 
3054.000000	99.498170 
3053.000000	99.499506 
3052.000000	99.497610 
3051.000000	99.492467 
3050.000000	99.485565 
3049.000000	99.479675 
3048.000000	99.477555 
3047.000000	99.479554 
3046.000000	99.482296 
3045.000000	99.480996 
3044.000000	99.474068 
3043.000000	99.464938 
3042.000000	99.458554 
3041.000000	99.456476 
3040.000000	99.456071 
3039.000000	99.453916 
3038.000000	99.448841 
3037.000000	99.441727 
3036.000000	99.433576 
3035.000000	99.424614 
3034.000000	99.414820 
3033.000000	99.404556 
3032.000000	99.394451 
3031.000000	99.384848 
3030.000000	99.375583 
3029.000000	99.366389 
3028.000000	99.357420 
3027.000000	99.349104 
3026.000000	99.341318 
3025.000000	99.332878 
3024.000000	99.322266 
3023.000000	99.308934 
3022.000000	99.293680 
3021.000000	99.277522 
3020.000000	99.260424 
3019.000000	99.241442 
3018.000000	99.220354 
3017.000000	99.198733 
3016.000000	99.178856 
3015.000000	99.161403 
3014.000000	99.144944 
3013.000000	99.128054 
3012.000000	99.111229 
3011.000000	99.095812 
3010.000000	99.081518 
3009.000000	99.066332 
3008.000000	99.048893 
3007.000000	99.029786 
3006.000000	99.010137 
3005.000000	98.990120 
3004.000000	98.969634 
3003.000000	98.949478 
3002.000000	98.930815 
3001.000000	98.913929 
3000.000000	98.898288 
2999.000000	98.883486 
2998.000000	98.869567 
2997.000000	98.856820 
2996.000000	98.845625 
2995.000000	98.835335 
2994.000000	98.822328 
2993.000000	98.800571 
2992.000000	98.766724 
2991.000000	98.725300 
2990.000000	98.687366 
2989.000000	98.663169 
2988.000000	98.656036 
2987.000000	98.662701 
2986.000000	98.677348 
2985.000000	98.694453 
2984.000000	98.709348 
2983.000000	98.718704 
2982.000000	98.721525 
2981.000000	98.719486 
2980.000000	98.715936 
2979.000000	98.714058 
2978.000000	98.714937 
2977.000000	98.716615 
2976.000000	98.715363 
2975.000000	98.708850 
2974.000000	98.698603 
2973.000000	98.689410 
2972.000000	98.686099 
2971.000000	98.690467 
2970.000000	98.700625 
2969.000000	98.712962 
2968.000000	98.725001 
2967.000000	98.736893 
2966.000000	98.750377 
2965.000000	98.766426 
2964.000000	98.784026 
2963.000000	98.800968 
2962.000000	98.815360 
2961.000000	98.826404 
2960.000000	98.834405 
2959.000000	98.840645 
2958.000000	98.847006 
2957.000000	98.855019 
2956.000000	98.864878 
2955.000000	98.875532 
2954.000000	98.886008 
2953.000000	98.896607 
2952.000000	98.908475 
2951.000000	98.921712 
2950.000000	98.934120 
2949.000000	98.942416 
2948.000000	98.944952 
2947.000000	98.943168 
2946.000000	98.940474 
2945.000000	98.940057 
2944.000000	98.943404 
2943.000000	98.949727 
2942.000000	98.956128 
2941.000000	98.959228 
2940.000000	98.957870 
2939.000000	98.954419 
2938.000000	98.952804 
2937.000000	98.955255 
2936.000000	98.961061 
2935.000000	98.967750 
2934.000000	98.972626 
2933.000000	98.973663 
2932.000000	98.970352 
2931.000000	98.964084 
2930.000000	98.957140 
2929.000000	98.951123 
2928.000000	98.946454 
2927.000000	98.942712 
2926.000000	98.938599 
2925.000000	98.932278 
2924.000000	98.923271 
2923.000000	98.913944 
2922.000000	98.907727 
2921.000000	98.905580 
2920.000000	98.905405 
2919.000000	98.904906 
2918.000000	98.903587 
2917.000000	98.901497 
2916.000000	98.897640 
2915.000000	98.890749 
2914.000000	98.880964 
2913.000000	98.870060 
2912.000000	98.860578 
2911.000000	98.854900 
2910.000000	98.853907 
2909.000000	98.855738 
2908.000000	98.856641 
2907.000000	98.853907 
2906.000000	98.847157 
2905.000000	98.836448 
2904.000000	98.820928 
2903.000000	98.801530 
2902.000000	98.784290 
2901.000000	98.778855 
2900.000000	98.790573 
2899.000000	98.815731 
2898.000000	98.843482 
2897.000000	98.863204 
2896.000000	98.871068 
2895.000000	98.871183 
2894.000000	98.871220 
2893.000000	98.876215 
2892.000000	98.885809 
2891.000000	98.896366 
2890.000000	98.904738 
2889.000000	98.909699 
2888.000000	98.911195 
2887.000000	98.910047 
2886.000000	98.908499 
2885.000000	98.909673 
2884.000000	98.915744 
2883.000000	98.926961 
2882.000000	98.942339 
2881.000000	98.960390 
2880.000000	98.978851 
2879.000000	98.994910 
2878.000000	99.006836 
2877.000000	99.015408 
2876.000000	99.023103 
2875.000000	99.031779 
2874.000000	99.041362 
2873.000000	99.050538 
2872.000000	99.058086 
2871.000000	99.063501 
2870.000000	99.067025 
2869.000000	99.070001 
2868.000000	99.075116 
2867.000000	99.085214 
2866.000000	99.100741 
2865.000000	99.118551 
2864.000000	99.134167 
2863.000000	99.145517 
2862.000000	99.153852 
2861.000000	99.161149 
2860.000000	99.167979 
2859.000000	99.174559 
2858.000000	99.182330 
2857.000000	99.192755 
2856.000000	99.205044 
2855.000000	99.216779 
2854.000000	99.226898 
2853.000000	99.236707 
2852.000000	99.247564 
2851.000000	99.258863 
2850.000000	99.269126 
2849.000000	99.278113 
2848.000000	99.286767 
2847.000000	99.295497 
2846.000000	99.303553 
2845.000000	99.310034 
2844.000000	99.314667 
2843.000000	99.317561 
2842.000000	99.319131 
2841.000000	99.320722 
2840.000000	99.324549 
2839.000000	99.331965 
2838.000000	99.341744 
2837.000000	99.350765 
2836.000000	99.356759 
2835.000000	99.360084 
2834.000000	99.362634 
2833.000000	99.365560 
2832.000000	99.368562 
2831.000000	99.370959 
2830.000000	99.372529 
2829.000000	99.373317 
2828.000000	99.373561 
2827.000000	99.374202 
2826.000000	99.376657 
2825.000000	99.381297 
2824.000000	99.386575 
2823.000000	99.390343 
2822.000000	99.391893 
2821.000000	99.392259 
2820.000000	99.392768 
2819.000000	99.393917 
2818.000000	99.395425 
2817.000000	99.396738 
2816.000000	99.397511 
2815.000000	99.398100 
2814.000000	99.399336 
2813.000000	99.401261 
2812.000000	99.402441 
2811.000000	99.401583 
2810.000000	99.399719 
2809.000000	99.399524 
2808.000000	99.402019 
2807.000000	99.405010 
2806.000000	99.405572 
2805.000000	99.403378 
2804.000000	99.400834 
2803.000000	99.400493 
2802.000000	99.403044 
2801.000000	99.407310 
2800.000000	99.411194 
2799.000000	99.412782 
2798.000000	99.411419 
2797.000000	99.407991 
2796.000000	99.403920 
2795.000000	99.400175 
2794.000000	99.397609 
2793.000000	99.397503 
2792.000000	99.400499 
2791.000000	99.405087 
2790.000000	99.408497 
2789.000000	99.409593 
2788.000000	99.410004 
2787.000000	99.411748 
2786.000000	99.414519 
2785.000000	99.416113 
2784.000000	99.415065 
2783.000000	99.412014 
2782.000000	99.408761 
2781.000000	99.406857 
2780.000000	99.407164 
2779.000000	99.409875 
2778.000000	99.414384 
2777.000000	99.419399 
2776.000000	99.423612 
2775.000000	99.426382 
2774.000000	99.427827 
2773.000000	99.428576 
2772.000000	99.429558 
2771.000000	99.431644 
2770.000000	99.434933 
2769.000000	99.438212 
2768.000000	99.439592 
2767.000000	99.438200 
2766.000000	99.435272 
2765.000000	99.433108 
2764.000000	99.432676 
2763.000000	99.432594 
2762.000000	99.430832 
2761.000000	99.427105 
2760.000000	99.423100 
2759.000000	99.420709 
2758.000000	99.420860 
2757.000000	99.423898 
2756.000000	99.429649 
2755.000000	99.436349 
2754.000000	99.440558 
2753.000000	99.439726 
2752.000000	99.434991 
2751.000000	99.430459 
2750.000000	99.429340 
2749.000000	99.431245 
2748.000000	99.433385 
2747.000000	99.433774 
2746.000000	99.432793 
2745.000000	99.432002 
2744.000000	99.432065 
2743.000000	99.432181 
2742.000000	99.431486 
2741.000000	99.430642 
2740.000000	99.431388 
2739.000000	99.434335 
2738.000000	99.437857 
2737.000000	99.439857 
2736.000000	99.440255 
2735.000000	99.440792 
2734.000000	99.442488 
2733.000000	99.444294 
2732.000000	99.444591 
2731.000000	99.443189 
2730.000000	99.441320 
2729.000000	99.440311 
2728.000000	99.440827 
2727.000000	99.442838 
2726.000000	99.445543 
2725.000000	99.447587 
2724.000000	99.448186 
2723.000000	99.448147 
2722.000000	99.449198 
2721.000000	99.452096 
2720.000000	99.455667 
2719.000000	99.457877 
2718.000000	99.457650 
2717.000000	99.455561 
2716.000000	99.453069 
2715.000000	99.451374 
2714.000000	99.451031 
2713.000000	99.452158 
2712.000000	99.454524 
2711.000000	99.457488 
2710.000000	99.460427 
2709.000000	99.463424 
2708.000000	99.466926 
2707.000000	99.470325 
2706.000000	99.471677 
2705.000000	99.469839 
2704.000000	99.466534 
2703.000000	99.465032 
2702.000000	99.466649 
2701.000000	99.469510 
2700.000000	99.471065 
2699.000000	99.470813 
2698.000000	99.470128 
2697.000000	99.470339 
2696.000000	99.471581 
2695.000000	99.472865 
2694.000000	99.472763 
2693.000000	99.470694 
2692.000000	99.467996 
2691.000000	99.466900 
2690.000000	99.467892 
2689.000000	99.468974 
2688.000000	99.468359 
2687.000000	99.466950 
2686.000000	99.467089 
2685.000000	99.469545 
2684.000000	99.472956 
2683.000000	99.475667 
2682.000000	99.476785 
2681.000000	99.475747 
2680.000000	99.472483 
2679.000000	99.468365 
2678.000000	99.465836 
2677.000000	99.466513 
2676.000000	99.470055 
2675.000000	99.474833 
2674.000000	99.478946 
2673.000000	99.480818 
2672.000000	99.480011 
2671.000000	99.477829 
2670.000000	99.476260 
2669.000000	99.475927 
2668.000000	99.475741 
2667.000000	99.474823 
2666.000000	99.473903 
2665.000000	99.474252 
2664.000000	99.475791 
2663.000000	99.476998 
2662.000000	99.476600 
2661.000000	99.475011 
2660.000000	99.473947 
2659.000000	99.474606 
2658.000000	99.476374 
2657.000000	99.477758 
2656.000000	99.478582 
2655.000000	99.480236 
2654.000000	99.483228 
2653.000000	99.485785 
2652.000000	99.486379 
2651.000000	99.486601 
2650.000000	99.489196 
2649.000000	99.493346 
2648.000000	99.494698 
2647.000000	99.491208 
2646.000000	99.486811 
2645.000000	99.487215 
2644.000000	99.493091 
2643.000000	99.499278 
2642.000000	99.500351 
2641.000000	99.495662 
2640.000000	99.489145 
2639.000000	99.485525 
2638.000000	99.486764 
2637.000000	99.491077 
2636.000000	99.494860 
2635.000000	99.495818 
2634.000000	99.494313 
2633.000000	99.492050 
2632.000000	99.490405 
2631.000000	99.490246 
2630.000000	99.492022 
2629.000000	99.494936 
2628.000000	99.496948 
2627.000000	99.496954 
2626.000000	99.496431 
2625.000000	99.497661 
2624.000000	99.500650 
2623.000000	99.503041 
2622.000000	99.502960 
2621.000000	99.500817 
2620.000000	99.498377 
2619.000000	99.497129 
2618.000000	99.497557 
2617.000000	99.499035 
2616.000000	99.500345 
2615.000000	99.501103 
2614.000000	99.502504 
2613.000000	99.505812 
2612.000000	99.510394 
2611.000000	99.514427 
2610.000000	99.517228 
2609.000000	99.519307 
2608.000000	99.520162 
2607.000000	99.518151 
2606.000000	99.513553 
2605.000000	99.509925 
2604.000000	99.510543 
2603.000000	99.514243 
2602.000000	99.516659 
2601.000000	99.515614 
2600.000000	99.513730 
2599.000000	99.515051 
2598.000000	99.519993 
2597.000000	99.524501 
2596.000000	99.523888 
2595.000000	99.516912 
2594.000000	99.506245 
2593.000000	99.495893 
2592.000000	99.488876 
2591.000000	99.486957 
2590.000000	99.490956 
2589.000000	99.499792 
2588.000000	99.509449 
2587.000000	99.514673 
2586.000000	99.513050 
2585.000000	99.507155 
2584.000000	99.501885 
2583.000000	99.499744 
2582.000000	99.499434 
2581.000000	99.498761 
2580.000000	99.497571 
2579.000000	99.497142 
2578.000000	99.497604 
2577.000000	99.497278 
2576.000000	99.494659 
2575.000000	99.490183 
2574.000000	99.485810 
2573.000000	99.483511 
2572.000000	99.484328 
2571.000000	99.487933 
2570.000000	99.492334 
2569.000000	99.494690 
2568.000000	99.493690 
2567.000000	99.491213 
2566.000000	99.490711 
2565.000000	99.493610 
2564.000000	99.497868 
2563.000000	99.500327 
2562.000000	99.499844 
2561.000000	99.497649 
2560.000000	99.495084 
2559.000000	99.491777 
2558.000000	99.486375 
2557.000000	99.479027 
2556.000000	99.472821 
2555.000000	99.472085 
2554.000000	99.478539 
2553.000000	99.489087 
2552.000000	99.497897 
2551.000000	99.500901 
2550.000000	99.498201 
2549.000000	99.492568 
2548.000000	99.486571 
2547.000000	99.481310 
2546.000000	99.477037 
2545.000000	99.474129 
2544.000000	99.473182 
2543.000000	99.474026 
2542.000000	99.474722 
2541.000000	99.472468 
2540.000000	99.466590 
2539.000000	99.460176 
2538.000000	99.457204 
2537.000000	99.457960 
2536.000000	99.458964 
2535.000000	99.457857 
2534.000000	99.456217 
2533.000000	99.456156 
2532.000000	99.456322 
2531.000000	99.454088 
2530.000000	99.450703 
2529.000000	99.450580 
2528.000000	99.454456 
2527.000000	99.456452 
2526.000000	99.450674 
2525.000000	99.439475 
2524.000000	99.432324 
2523.000000	99.436173 
2522.000000	99.448839 
2521.000000	99.462280 
2520.000000	99.470344 
2519.000000	99.471967 
2518.000000	99.468589 
2517.000000	99.461348 
2516.000000	99.451326 
2515.000000	99.440642 
2514.000000	99.432027 
2513.000000	99.427805 
2512.000000	99.429463 
2511.000000	99.436978 
2510.000000	99.447757 
2509.000000	99.457514 
2508.000000	99.463654 
2507.000000	99.467152 
2506.000000	99.469814 
2505.000000	99.470601 
2504.000000	99.466803 
2503.000000	99.458765 
2502.000000	99.451082 
2501.000000	99.448174 
2500.000000	99.450178 
2499.000000	99.454115 
2498.000000	99.457432 
2497.000000	99.459080 
2496.000000	99.458260 
2495.000000	99.454441 
2494.000000	99.448740 
2493.000000	99.443864 
2492.000000	99.442109 
2491.000000	99.443826 
2490.000000	99.447919 
2489.000000	99.453381 
2488.000000	99.460199 
2487.000000	99.468768 
2486.000000	99.478096 
2485.000000	99.484771 
2484.000000	99.484808 
2483.000000	99.477294 
2482.000000	99.465650 
2481.000000	99.454767 
2480.000000	99.447407 
2479.000000	99.443691 
2478.000000	99.442725 
2477.000000	99.443392 
2476.000000	99.444428 
2475.000000	99.445446 
2474.000000	99.447653 
2473.000000	99.452037 
2472.000000	99.456936 
2471.000000	99.459058 
2470.000000	99.457163 
2469.000000	99.453273 
2468.000000	99.449833 
2467.000000	99.447200 
2466.000000	99.444715 
2465.000000	99.442806 
2464.000000	99.442669 
2463.000000	99.444671 
2462.000000	99.448198 
2461.000000	99.452447 
2460.000000	99.456179 
2459.000000	99.457268 
2458.000000	99.454193 
2457.000000	99.448335 
2456.000000	99.443652 
2455.000000	99.443383 
2454.000000	99.447409 
2453.000000	99.452913 
2452.000000	99.456870 
2451.000000	99.457610 
2450.000000	99.454882 
2449.000000	99.449662 
2448.000000	99.444162 
2447.000000	99.441273 
2446.000000	99.442984 
2445.000000	99.448675 
2444.000000	99.454899 
2443.000000	99.457421 
2442.000000	99.454224 
2441.000000	99.447016 
2440.000000	99.439921 
2439.000000	99.436651 
2438.000000	99.438390 
2437.000000	99.443413 
2436.000000	99.448120 
2435.000000	99.449144 
2434.000000	99.445847 
2433.000000	99.441337 
2432.000000	99.440338 
2431.000000	99.445092 
2430.000000	99.452962 
2429.000000	99.458187 
2428.000000	99.456396 
2427.000000	99.448049 
2426.000000	99.438029 
2425.000000	99.431889 
2424.000000	99.432066 
2423.000000	99.437292 
2422.000000	99.444948 
2421.000000	99.452893 
2420.000000	99.458787 
2419.000000	99.459426 
2418.000000	99.453003 
2417.000000	99.442128 
2416.000000	99.432664 
2415.000000	99.428534 
2414.000000	99.428634 
2413.000000	99.429388 
2412.000000	99.429084 
2411.000000	99.428671 
2410.000000	99.429412 
2409.000000	99.431255 
2408.000000	99.433131 
2407.000000	99.433712 
2406.000000	99.432248 
2405.000000	99.429732 
2404.000000	99.428756 
2403.000000	99.430886 
2402.000000	99.434386 
2401.000000	99.435831 
2400.000000	99.433921 
2399.000000	99.430565 
2398.000000	99.428360 
2397.000000	99.428365 
2396.000000	99.430351 
2395.000000	99.433482 
2394.000000	99.436035 
2393.000000	99.435880 
2392.000000	99.432251 
2391.000000	99.426282 
2390.000000	99.419316 
2389.000000	99.411946 
2388.000000	99.405512 
2387.000000	99.402940 
2386.000000	99.406133 
2385.000000	99.412896 
2384.000000	99.418386 
2383.000000	99.420157 
2382.000000	99.420737 
2381.000000	99.424468 
2380.000000	99.432589 
2379.000000	99.442465 
2378.000000	99.451605 
2377.000000	99.460178 
2376.000000	99.468157 
2375.000000	99.472225 
2374.000000	99.468946 
2373.000000	99.459659 
2372.000000	99.449095 
2371.000000	99.440082 
2370.000000	99.433204 
2369.000000	99.430049 
2368.000000	99.431452 
2367.000000	99.434073 
2366.000000	99.434901 
2365.000000	99.437021 
2364.000000	99.444298 
2363.000000	99.451968 
2362.000000	99.450984 
2361.000000	99.440947 
2360.000000	99.428130 
2359.000000	99.416016 
2358.000000	99.406040 
2357.000000	99.401413 
2356.000000	99.405669 
2355.000000	99.417021 
2354.000000	99.435854 
2353.000000	99.456294 
2352.000000	99.466565 
2351.000000	99.461042 
2350.000000	99.444209 
2349.000000	99.426338 
2348.000000	99.415281 
2347.000000	99.417290 
2346.000000	99.429186 
2345.000000	99.436846 
2344.000000	99.433790 
2343.000000	99.424450 
2342.000000	99.418763 
2341.000000	99.416775 
2340.000000	99.415117 
2339.000000	99.414470 
2338.000000	99.419787 
2337.000000	99.431212 
2336.000000	99.436991 
2335.000000	99.430456 
2334.000000	99.419093 
2333.000000	99.416790 
2332.000000	99.421489 
2331.000000	99.426649 
2330.000000	99.426136 
2329.000000	99.424450 
2328.000000	99.420080 
2327.000000	99.417502 
2326.000000	99.419454 
2325.000000	99.424143 
2324.000000	99.422676 
2323.000000	99.412283 
2322.000000	99.401862 
2321.000000	99.398797 
2320.000000	99.398274 
2319.000000	99.394202 
2318.000000	99.387441 
2317.000000	99.387101 
2316.000000	99.393853 
2315.000000	99.404889 
2314.000000	99.413862 
2313.000000	99.421912 
2312.000000	99.427928 
2311.000000	99.433132 
2310.000000	99.434903 
2309.000000	99.433313 
2308.000000	99.427725 
2307.000000	99.422845 
2306.000000	99.422673 
2305.000000	99.429590 
2304.000000	99.440373 
2303.000000	99.452144 
2302.000000	99.461008 
2301.000000	99.465084 
2300.000000	99.463747 
2299.000000	99.462826 
2298.000000	99.467036 
2297.000000	99.476018 
2296.000000	99.481553 
2295.000000	99.479406 
2294.000000	99.472770 
2293.000000	99.469335 
2292.000000	99.471842 
2291.000000	99.478500 
2290.000000	99.486712 
2289.000000	99.494963 
2288.000000	99.501518 
2287.000000	99.504346 
2286.000000	99.502930 
2285.000000	99.497955 
2284.000000	99.491520 
2283.000000	99.486634 
2282.000000	99.485989 
2281.000000	99.488381 
2280.000000	99.489690 
2279.000000	99.488058 
2278.000000	99.486744 
2277.000000	99.489139 
2276.000000	99.493237 
2275.000000	99.494610 
2274.000000	99.492728 
2273.000000	99.491183 
2272.000000	99.491785 
2271.000000	99.492970 
2270.000000	99.493318 
2269.000000	99.493587 
2268.000000	99.494313 
2267.000000	99.494775 
2266.000000	99.494644 
2265.000000	99.494381 
2264.000000	99.493061 
2263.000000	99.488430 
2262.000000	99.480357 
2261.000000	99.472413 
2260.000000	99.468863 
2259.000000	99.470438 
2258.000000	99.474350 
2257.000000	99.477400 
2256.000000	99.478833 
2255.000000	99.479802 
2254.000000	99.480846 
2253.000000	99.481323 
2252.000000	99.481598 
2251.000000	99.484450 
2250.000000	99.491504 
2249.000000	99.499557 
2248.000000	99.502323 
2247.000000	99.497657 
2246.000000	99.489226 
2245.000000	99.481993 
2244.000000	99.478179 
2243.000000	99.478267 
2242.000000	99.482276 
2241.000000	99.488608 
2240.000000	99.494990 
2239.000000	99.502280 
2238.000000	99.513564 
2237.000000	99.526854 
2236.000000	99.532894 
2235.000000	99.524775 
2234.000000	99.507692 
2233.000000	99.494530 
2232.000000	99.492308 
2231.000000	99.496414 
2230.000000	99.497597 
2229.000000	99.491289 
2228.000000	99.480204 
2227.000000	99.470754 
2226.000000	99.467595 
2225.000000	99.470309 
2224.000000	99.475390 
2223.000000	99.481511 
2222.000000	99.490052 
2221.000000	99.499198 
2220.000000	99.502028 
2219.000000	99.495053 
2218.000000	99.485735 
2217.000000	99.485581 
2216.000000	99.496134 
2215.000000	99.507383 
2214.000000	99.510519 
2213.000000	99.506775 
2212.000000	99.501753 
2211.000000	99.496515 
2210.000000	99.489132 
2209.000000	99.482153 
2208.000000	99.482193 
2207.000000	99.490400 
2206.000000	99.497369 
2205.000000	99.491871 
2204.000000	99.474969 
2203.000000	99.461692 
2202.000000	99.465822 
2201.000000	99.484429 
2200.000000	99.500998 
2199.000000	99.503703 
2198.000000	99.496290 
2197.000000	99.490144 
2196.000000	99.490994 
2195.000000	99.497046 
2194.000000	99.505673 
2193.000000	99.515487 
2192.000000	99.523352 
2191.000000	99.525997 
2190.000000	99.525956 
2189.000000	99.530691 
2188.000000	99.542517 
2187.000000	99.552405 
2186.000000	99.547730 
2185.000000	99.525913 
2184.000000	99.497939 
2183.000000	99.477895 
2182.000000	99.471013 
2181.000000	99.472468 
2180.000000	99.475594 
2179.000000	99.478427 
2178.000000	99.482033 
2177.000000	99.485775 
2176.000000	99.486982 
2175.000000	99.484307 
2174.000000	99.479234 
2173.000000	99.475036 
2172.000000	99.476272 
2171.000000	99.487864 
2170.000000	99.510909 
2169.000000	99.538824 
2168.000000	99.560715 
2167.000000	99.569671 
2166.000000	99.566405 
2165.000000	99.556602 
2164.000000	99.548366 
2163.000000	99.550289 
2162.000000	99.564756 
2161.000000	99.580442 
2160.000000	99.577576 
2159.000000	99.546398 
2158.000000	99.497300 
2157.000000	99.449076 
2156.000000	99.412950 
2155.000000	99.392417 
2154.000000	99.389584 
2153.000000	99.402865 
2152.000000	99.422806 
2151.000000	99.438046 
2150.000000	99.445353 
2149.000000	99.450382 
2148.000000	99.459572 
2147.000000	99.474034 
2146.000000	99.489817 
2145.000000	99.500580 
2144.000000	99.500890 
2143.000000	99.490318 
2142.000000	99.474604 
2141.000000	99.460985 
2140.000000	99.452403 
2139.000000	99.447701 
2138.000000	99.446241 
2137.000000	99.449109 
2136.000000	99.455395 
2135.000000	99.460456 
2134.000000	99.460347 
2133.000000	99.457123 
2132.000000	99.457012 
2131.000000	99.462105 
2130.000000	99.465649 
2129.000000	99.458300 
2128.000000	99.439503 
2127.000000	99.419975 
2126.000000	99.411217 
2125.000000	99.414886 
2124.000000	99.424975 
2123.000000	99.437821 
2122.000000	99.454612 
2121.000000	99.474357 
2120.000000	99.490454 
2119.000000	99.497026 
2118.000000	99.495002 
2117.000000	99.489469 
2116.000000	99.483894 
2115.000000	99.479494 
2114.000000	99.477517 
2113.000000	99.478503 
2112.000000	99.480682 
2111.000000	99.482360 
2110.000000	99.485015 
2109.000000	99.490946 
2108.000000	99.498076 
2107.000000	99.500060 
2106.000000	99.492555 
2105.000000	99.478180 
2104.000000	99.464785 
2103.000000	99.459260 
2102.000000	99.462510 
2101.000000	99.469279 
2100.000000	99.472891 
2099.000000	99.470755 
2098.000000	99.465304 
2097.000000	99.460327 
2096.000000	99.457936 
2095.000000	99.459093 
2094.000000	99.464464 
2093.000000	99.472841 
2092.000000	99.480454 
2091.000000	99.484046 
2090.000000	99.484236 
2089.000000	99.484442 
2088.000000	99.486405 
2087.000000	99.487629 
2086.000000	99.483816 
2085.000000	99.474349 
2084.000000	99.465483 
2083.000000	99.466348 
2082.000000	99.479884 
2081.000000	99.498431 
2080.000000	99.510965 
2079.000000	99.514873 
2078.000000	99.517956 
2077.000000	99.528267 
2076.000000	99.544162 
2075.000000	99.555184 
2074.000000	99.550954 
2073.000000	99.529613 
2072.000000	99.500458 
2071.000000	99.478062 
2070.000000	99.470744 
2069.000000	99.473681 
2068.000000	99.474963 
2067.000000	99.468370 
2066.000000	99.457843 
2065.000000	99.451150 
2064.000000	99.453437 
2063.000000	99.466190 
2062.000000	99.485991 
2061.000000	99.502921 
2060.000000	99.507458 
2059.000000	99.502228 
2058.000000	99.500677 
2057.000000	99.510243 
2056.000000	99.522819 
2055.000000	99.526895 
2054.000000	99.523591 
2053.000000	99.523765 
2052.000000	99.532576 
2051.000000	99.544063 
2050.000000	99.549858 
2049.000000	99.547862 
2048.000000	99.542522 
2047.000000	99.540355 
2046.000000	99.545441 
2045.000000	99.555646 
2044.000000	99.563026 
2043.000000	99.561427 
2042.000000	99.553498 
2041.000000	99.547046 
2040.000000	99.544948 
2039.000000	99.542836 
2038.000000	99.536721 
2037.000000	99.528456 
2036.000000	99.522144 
2035.000000	99.517701 
2034.000000	99.510405 
2033.000000	99.497272 
2032.000000	99.483561 
2031.000000	99.480877 
2030.000000	99.495741 
2029.000000	99.519904 
2028.000000	99.535632 
2027.000000	99.531837 
2026.000000	99.511677 
2025.000000	99.485727 
2024.000000	99.463846 
2023.000000	99.453913 
2022.000000	99.459892 
2021.000000	99.475719 
2020.000000	99.487005 
2019.000000	99.485204 
2018.000000	99.476528 
2017.000000	99.472602 
2016.000000	99.476327 
2015.000000	99.482665 
2014.000000	99.488277 
2013.000000	99.492725 
2012.000000	99.494331 
2011.000000	99.492238 
2010.000000	99.490785 
2009.000000	99.495801 
2008.000000	99.507181 
2007.000000	99.519370 
2006.000000	99.526943 
2005.000000	99.525981 
2004.000000	99.514572 
2003.000000	99.497416 
2002.000000	99.485954 
2001.000000	99.486768 
2000.000000	99.491634 
1999.000000	99.485761 
1998.000000	99.464838 
1997.000000	99.439292 
1996.000000	99.423444 
1995.000000	99.424529 
1994.000000	99.440303 
1993.000000	99.461007 
1992.000000	99.473836 
1991.000000	99.471730 
1990.000000	99.458985 
1989.000000	99.445653 
1988.000000	99.439166 
1987.000000	99.443456 
1986.000000	99.461050 
1985.000000	99.489779 
1984.000000	99.519382 
1983.000000	99.537874 
1982.000000	99.541773 
1981.000000	99.536265 
1980.000000	99.526621 
1979.000000	99.514231 
1978.000000	99.500147 
1977.000000	99.486275 
1976.000000	99.471601 
1975.000000	99.452648 
1974.000000	99.430523 
1973.000000	99.413342 
1972.000000	99.408579 
1971.000000	99.415591 
1970.000000	99.428122 
1969.000000	99.442015 
1968.000000	99.457265 
1967.000000	99.472827 
1966.000000	99.483444 
1965.000000	99.484392 
1964.000000	99.477778 
1963.000000	99.470937 
1962.000000	99.468432 
1961.000000	99.467928 
1960.000000	99.465233 
1959.000000	99.460717 
1958.000000	99.457469 
1957.000000	99.455125 
1956.000000	99.449686 
1955.000000	99.439007 
1954.000000	99.424966 
1953.000000	99.410483 
1952.000000	99.397777 
1951.000000	99.390050 
1950.000000	99.390973 
1949.000000	99.399961 
1948.000000	99.410878 
1947.000000	99.418103 
1946.000000	99.420985 
1945.000000	99.420480 
1944.000000	99.415301 
1943.000000	99.404833 
1942.000000	99.393066 
1941.000000	99.384725 
1940.000000	99.380008 
1939.000000	99.377130 
1938.000000	99.376806 
1937.000000	99.381070 
1936.000000	99.389378 
1935.000000	99.398305 
1934.000000	99.404159 
1933.000000	99.404528 
1932.000000	99.398864 
1931.000000	99.390585 
1930.000000	99.387354 
1929.000000	99.394169 
1928.000000	99.406293 
1927.000000	99.413261 
1926.000000	99.409375 
1925.000000	99.397210 
1924.000000	99.382884 
1923.000000	99.372001 
1922.000000	99.369260 
1921.000000	99.376083 
1920.000000	99.388131 
1919.000000	99.398335 
1918.000000	99.402725 
1917.000000	99.402195 
1916.000000	99.399314 
1915.000000	99.397287 
1914.000000	99.400509 
1913.000000	99.411325 
1912.000000	99.425642 
1911.000000	99.435290 
1910.000000	99.435964 
1909.000000	99.430424 
1908.000000	99.424474 
1907.000000	99.422809 
1906.000000	99.427559 
1905.000000	99.436027 
1904.000000	99.439960 
1903.000000	99.431876 
1902.000000	99.412976 
1901.000000	99.391947 
1900.000000	99.377426 
1899.000000	99.373384 
1898.000000	99.378980 
1897.000000	99.388891 
1896.000000	99.395048 
1895.000000	99.393393 
1894.000000	99.389024 
1893.000000	99.389757 
1892.000000	99.396209 
1891.000000	99.402478 
1890.000000	99.404279 
1889.000000	99.402766 
1888.000000	99.400815 
1887.000000	99.400463 
1886.000000	99.403376 
1885.000000	99.409280 
1884.000000	99.414235 
1883.000000	99.414334 
1882.000000	99.410804 
1881.000000	99.407893 
1880.000000	99.407325 
1879.000000	99.407417 
1878.000000	99.405988 
1877.000000	99.401815 
1876.000000	99.394877 
1875.000000	99.388261 
1874.000000	99.388229 
1873.000000	99.397788 
1872.000000	99.410851 
1871.000000	99.417076 
1870.000000	99.412427 
1869.000000	99.402083 
1868.000000	99.390887 
1867.000000	99.378354 
1866.000000	99.365898 
1865.000000	99.358630 
1864.000000	99.360111 
1863.000000	99.369653 
1862.000000	99.384118 
1861.000000	99.399279 
1860.000000	99.409736 
1859.000000	99.412047 
1858.000000	99.408963 
1857.000000	99.406752 
1856.000000	99.408428 
1855.000000	99.412845 
1854.000000	99.418040 
1853.000000	99.421824 
1852.000000	99.421366 
1851.000000	99.415721 
1850.000000	99.408264 
1849.000000	99.403929 
1848.000000	99.403840 
1847.000000	99.404897 
1846.000000	99.404509 
1845.000000	99.402149 
1844.000000	99.397015 
1843.000000	99.389216 
1842.000000	99.383123 
1841.000000	99.383259 
1840.000000	99.390123 
1839.000000	99.400239 
1838.000000	99.409140 
1837.000000	99.414748 
1836.000000	99.417463 
1835.000000	99.418307 
1834.000000	99.417883 
1833.000000	99.417020 
1832.000000	99.417566 
1831.000000	99.419756 
1830.000000	99.420462 
1829.000000	99.417784 
1828.000000	99.415378 
1827.000000	99.416931 
1826.000000	99.420933 
1825.000000	99.423603 
1824.000000	99.423565 
1823.000000	99.422689 
1822.000000	99.422858 
1821.000000	99.422986 
1820.000000	99.419974 
1819.000000	99.412229 
1818.000000	99.403074 
1817.000000	99.398539 
1816.000000	99.399859 
1815.000000	99.402325 
1814.000000	99.402618 
1813.000000	99.403362 
1812.000000	99.409001 
1811.000000	99.418593 
1810.000000	99.428361 
1809.000000	99.437958 
1808.000000	99.446932 
1807.000000	99.451214 
1806.000000	99.447993 
1805.000000	99.439775 
1804.000000	99.431266 
1803.000000	99.425045 
1802.000000	99.422082 
1801.000000	99.423801 
1800.000000	99.428305 
1799.000000	99.429676 
1798.000000	99.426014 
1797.000000	99.421195 
1796.000000	99.418824 
1795.000000	99.419618 
1794.000000	99.422958 
1793.000000	99.427512 
1792.000000	99.430568 
1791.000000	99.429717 
1790.000000	99.427949 
1789.000000	99.430360 
1788.000000	99.437163 
1787.000000	99.443686 
1786.000000	99.445529 
1785.000000	99.442329 
1784.000000	99.436434 
1783.000000	99.431253 
1782.000000	99.429505 
1781.000000	99.430694 
1780.000000	99.430176 
1779.000000	99.423986 
1778.000000	99.415068 
1777.000000	99.409821 
1776.000000	99.411423 
1775.000000	99.419287 
1774.000000	99.431348 
1773.000000	99.443882 
1772.000000	99.451205 
1771.000000	99.449721 
1770.000000	99.442058 
1769.000000	99.433162 
1768.000000	99.427400 
1767.000000	99.425999 
1766.000000	99.427202 
1765.000000	99.429798 
1764.000000	99.433565 
1763.000000	99.437442 
1762.000000	99.438738 
1761.000000	99.436723 
1760.000000	99.434451 
1759.000000	99.434156 
1758.000000	99.434958 
1757.000000	99.434734 
1756.000000	99.433237 
1755.000000	99.431582 
1754.000000	99.428690 
1753.000000	99.422249 
1752.000000	99.414573 
1751.000000	99.414168 
1750.000000	99.424657 
1749.000000	99.438238 
1748.000000	99.446609 
1747.000000	99.448804 
1746.000000	99.447366 
1745.000000	99.444154 
1744.000000	99.441059 
1743.000000	99.439696 
1742.000000	99.439802 
1741.000000	99.440952 
1740.000000	99.443772 
1739.000000	99.447891 
1738.000000	99.451076 
1737.000000	99.450890 
1736.000000	99.444771 
1735.000000	99.431116 
1734.000000	99.415347 
1733.000000	99.407873 
1732.000000	99.413258 
1731.000000	99.426973 
1730.000000	99.441558 
1729.000000	99.450121 
1728.000000	99.450886 
1727.000000	99.447597 
1726.000000	99.443947 
1725.000000	99.440568 
1724.000000	99.437082 
1723.000000	99.435147 
1722.000000	99.437805 
1721.000000	99.445979 
1720.000000	99.456160 
1719.000000	99.461398 
1718.000000	99.456543 
1717.000000	99.448110 
1716.000000	99.443377 
1715.000000	99.439173 
1714.000000	99.434328 
1713.000000	99.432589 
1712.000000	99.434478 
1711.000000	99.437644 
1710.000000	99.440749 
1709.000000	99.444466 
1708.000000	99.449317 
1707.000000	99.454139 
1706.000000	99.459191 
1705.000000	99.465830 
1704.000000	99.470349 
1703.000000	99.464689 
1702.000000	99.446347 
1701.000000	99.426442 
1700.000000	99.422162 
1699.000000	99.427342 
1698.000000	99.433021 
1697.000000	99.440667 
1696.000000	99.450307 
1695.000000	99.454282 
1694.000000	99.452170 
1693.000000	99.449933 
1692.000000	99.447475 
1691.000000	99.442880 
1690.000000	99.437437 
1689.000000	99.434353 
1688.000000	99.433853 
1687.000000	99.432071 
1686.000000	99.428109 
1685.000000	99.427403 
1684.000000	99.433106 
1683.000000	99.437194 
1682.000000	99.438519 
1681.000000	99.437151 
1680.000000	99.435296 
1679.000000	99.435444 
1678.000000	99.437768 
1677.000000	99.440114 
1676.000000	99.441199 
1675.000000	99.442377 
1674.000000	99.443731 
1673.000000	99.445000 
1672.000000	99.446487 
1671.000000	99.449580 
1670.000000	99.455182 
1669.000000	99.459931 
1668.000000	99.461171 
1667.000000	99.460489 
1666.000000	99.457136 
1665.000000	99.450132 
1664.000000	99.442803 
1663.000000	99.441637 
1662.000000	99.448397 
1661.000000	99.456809 
1660.000000	99.460777 
1659.000000	99.461151 
1658.000000	99.461611 
1657.000000	99.462596 
1656.000000	99.459326 
1655.000000	99.451554 
1654.000000	99.448405 
1653.000000	99.454838 
1652.000000	99.455065 
1651.000000	99.455715 
1650.000000	99.455456 
1649.000000	99.451217 
1648.000000	99.442668 
1647.000000	99.433267 
1646.000000	99.425895 
1645.000000	99.424691 
1644.000000	99.430099 
1643.000000	99.437589 
1642.000000	99.443360 
1641.000000	99.446339 
1640.000000	99.446698 
1639.000000	99.444970 
1638.000000	99.442679 
1637.000000	99.442096 
1636.000000	99.442793 
1635.000000	99.442573 
1634.000000	99.443871 
1633.000000	99.448174 
1632.000000	99.451709 
1631.000000	99.452855 
1630.000000	99.453046 
1629.000000	99.453183 
1628.000000	99.451991 
1627.000000	99.449971 
1626.000000	99.450008 
1625.000000	99.453662 
1624.000000	99.459620 
1623.000000	99.465791 
1622.000000	99.471104 
1621.000000	99.474465 
1620.000000	99.474097 
1619.000000	99.469839 
1618.000000	99.464966 
1617.000000	99.462347 
1616.000000	99.460113 
1615.000000	99.457902 
1614.000000	99.456242 
1613.000000	99.452677 
1612.000000	99.447030 
1611.000000	99.442885 
1610.000000	99.443259 
1609.000000	99.445642 
1608.000000	99.445514 
1607.000000	99.442758 
1606.000000	99.439815 
1605.000000	99.437501 
1604.000000	99.436171 
1603.000000	99.437308 
1602.000000	99.440572 
1601.000000	99.442380 
1600.000000	99.441089 
1599.000000	99.440322 
1598.000000	99.443669 
1597.000000	99.449607 
1596.000000	99.454277 
1595.000000	99.456846 
1594.000000	99.458999 
1593.000000	99.460138 
1592.000000	99.458253 
1591.000000	99.454708 
1590.000000	99.453349 
1589.000000	99.454668 
1588.000000	99.455868 
1587.000000	99.456222 
1586.000000	99.457005 
1585.000000	99.457046 
1584.000000	99.454179 
1583.000000	99.449845 
1582.000000	99.448160 
1581.000000	99.449915 
1580.000000	99.452367 
1579.000000	99.454052 
1578.000000	99.456074 
1577.000000	99.457507 
1576.000000	99.454383 
1575.000000	99.449786 
1574.000000	99.451040 
1573.000000	99.455060 
1572.000000	99.455921 
1571.000000	99.453529 
1570.000000	99.452214 
1569.000000	99.452235 
1568.000000	99.451793 
1567.000000	99.452234 
1566.000000	99.453221 
1565.000000	99.453005 
1564.000000	99.451641 
1563.000000	99.451298 
1562.000000	99.452180 
1561.000000	99.450040 
1560.000000	99.442312 
1559.000000	99.436875 
1558.000000	99.435535 
1557.000000	99.437091 
1556.000000	99.439335 
1555.000000	99.439816 
1554.000000	99.438509 
1553.000000	99.436667 
1552.000000	99.435848 
1551.000000	99.436760 
1550.000000	99.440118 
1549.000000	99.444797 
1548.000000	99.448360 
1547.000000	99.449193 
1546.000000	99.446965 
1545.000000	99.443532 
1544.000000	99.440623 
1543.000000	99.436910 
1542.000000	99.432799 
1541.000000	99.433661 
1540.000000	99.436653 
1539.000000	99.432461 
1538.000000	99.427341 
1537.000000	99.426440 
1536.000000	99.426262 
1535.000000	99.425267 
1534.000000	99.426913 
1533.000000	99.432914 
1532.000000	99.437698 
1531.000000	99.436363 
1530.000000	99.431231 
1529.000000	99.427908 
1528.000000	99.427981 
1527.000000	99.428929 
1526.000000	99.428558 
1525.000000	99.428040 
1524.000000	99.428122 
1523.000000	99.427961 
1522.000000	99.429103 
1521.000000	99.434030 
1520.000000	99.438636 
1519.000000	99.438613 
1518.000000	99.433871 
1517.000000	99.427728 
1516.000000	99.422156 
1515.000000	99.416992 
1514.000000	99.412684 
1513.000000	99.410747 
1512.000000	99.412359 
1511.000000	99.415352 
1510.000000	99.415619 
1509.000000	99.412301 
1508.000000	99.411491 
1507.000000	99.416886 
1506.000000	99.417848 
1505.000000	99.413569 
1504.000000	99.412032 
1503.000000	99.411791 
1502.000000	99.411640 
1501.000000	99.413334 
1500.000000	99.418641 
1499.000000	99.424791 
1498.000000	99.426054 
1497.000000	99.423865 
1496.000000	99.424995 
1495.000000	99.427406 
1494.000000	99.424037 
1493.000000	99.413449 
1492.000000	99.399905 
1491.000000	99.389784 
1490.000000	99.386913 
1489.000000	99.389915 
1488.000000	99.392343 
1487.000000	99.389142 
1486.000000	99.384515 
1485.000000	99.383556 
1484.000000	99.385430 
1483.000000	99.386778 
1482.000000	99.384896 
1481.000000	99.380157 
1480.000000	99.374478 
1479.000000	99.368991 
1478.000000	99.364288 
1477.000000	99.361111 
1476.000000	99.358384 
1475.000000	99.352010 
1474.000000	99.342906 
1473.000000	99.339983 
1472.000000	99.347506 
1471.000000	99.355652 
1470.000000	99.357861 
1469.000000	99.357346 
1468.000000	99.358648 
1467.000000	99.361545 
1466.000000	99.363464 
1465.000000	99.364046 
1464.000000	99.364288 
1463.000000	99.364225 
1462.000000	99.363765 
1461.000000	99.364236 
1460.000000	99.365844 
1459.000000	99.365503 
1458.000000	99.355833 
1457.000000	99.335418 
1456.000000	99.316589 
1455.000000	99.308287 
1454.000000	99.306372 
1453.000000	99.306426 
1452.000000	99.307147 
1451.000000	99.307776 
1450.000000	99.308715 
1449.000000	99.313579 
1448.000000	99.324559 
1447.000000	99.336254 
1446.000000	99.342042 
1445.000000	99.342944 
1444.000000	99.343420 
1443.000000	99.344179 
1442.000000	99.343204 
1441.000000	99.340628 
1440.000000	99.339610 
1439.000000	99.341641 
1438.000000	99.343001 
1437.000000	99.339824 
1436.000000	99.333999 
1435.000000	99.328116 
1434.000000	99.322387 
1433.000000	99.318373 
1432.000000	99.318349 
1431.000000	99.322727 
1430.000000	99.327405 
1429.000000	99.328160 
1428.000000	99.325923 
1427.000000	99.323404 
1426.000000	99.320291 
1425.000000	99.313954 
1424.000000	99.305652 
1423.000000	99.299146 
1422.000000	99.292994 
1421.000000	99.282953 
1420.000000	99.269117 
1419.000000	99.256192 
1418.000000	99.242752 
1417.000000	99.225924 
1416.000000	99.209336 
1415.000000	99.195393 
1414.000000	99.180886 
1413.000000	99.161604 
1412.000000	99.139511 
1411.000000	99.120727 
1410.000000	99.106743 
1409.000000	99.095651 
1408.000000	99.088230 
1407.000000	99.085790 
1406.000000	99.086460 
1405.000000	99.088618 
1404.000000	99.096039 
1403.000000	99.110537 
1402.000000	99.125375 
1401.000000	99.134147 
1400.000000	99.138782 
1399.000000	99.144914 
1398.000000	99.147636 
1397.000000	99.133560 
1396.000000	99.098983 
1395.000000	99.060789 
1394.000000	99.044373 
1393.000000	99.058838 
1392.000000	99.095092 
1391.000000	99.137167 
1390.000000	99.170529 
1389.000000	99.186810 
1388.000000	99.186213 
1387.000000	99.175926 
1386.000000	99.163355 
1385.000000	99.152423 
1384.000000	99.145154 
1383.000000	99.142370 
1382.000000	99.142962 
1381.000000	99.145785 
1380.000000	99.150883 
1379.000000	99.158816 
1378.000000	99.168923 
1377.000000	99.179308 
1376.000000	99.189441 
1375.000000	99.201215 
1374.000000	99.215584 
1373.000000	99.229390 
1372.000000	99.239667 
1371.000000	99.248528 
1370.000000	99.260941 
1369.000000	99.277444 
1368.000000	99.294337 
1367.000000	99.308189 
1366.000000	99.318016 
1365.000000	99.324393 
1364.000000	99.328014 
1363.000000	99.330462 
1362.000000	99.334431 
1361.000000	99.340436 
1360.000000	99.346131 
1359.000000	99.350198 
1358.000000	99.354359 
1357.000000	99.360517 
1356.000000	99.368005 
1355.000000	99.374479 
1354.000000	99.378918 
1353.000000	99.382254 
1352.000000	99.384242 
1351.000000	99.383131 
1350.000000	99.380228 
1349.000000	99.378255 
1348.000000	99.379162 
1347.000000	99.383209 
1346.000000	99.389711 
1345.000000	99.396715 
1344.000000	99.401712 
1343.000000	99.403847 
1342.000000	99.404927 
1341.000000	99.406639 
1340.000000	99.407918 
1339.000000	99.406667 
1338.000000	99.403062 
1337.000000	99.399776 
1336.000000	99.399113 
1335.000000	99.400815 
1334.000000	99.403208 
1333.000000	99.405356 
1332.000000	99.407295 
1331.000000	99.409171 
1330.000000	99.410669 
1329.000000	99.410760 
1328.000000	99.408758 
1327.000000	99.405701 
1326.000000	99.403952 
1325.000000	99.404052 
1324.000000	99.405326 
1323.000000	99.407500 
1322.000000	99.410138 
1321.000000	99.411434 
1320.000000	99.409730 
1319.000000	99.405862 
1318.000000	99.402368 
1317.000000	99.400570 
1316.000000	99.399479 
1315.000000	99.397588 
1314.000000	99.394690 
1313.000000	99.392175 
1312.000000	99.391713 
1311.000000	99.393696 
1310.000000	99.397055 
1309.000000	99.400469 
1308.000000	99.403210 
1307.000000	99.404482 
1306.000000	99.403457 
1305.000000	99.400168 
1304.000000	99.397308 
1303.000000	99.398287 
1302.000000	99.403497 
1301.000000	99.409631 
1300.000000	99.413046 
1299.000000	99.412312 
1298.000000	99.407877 
1297.000000	99.401494 
1296.000000	99.396275 
1295.000000	99.395476 
1294.000000	99.399405 
1293.000000	99.404743 
1292.000000	99.407680 
1291.000000	99.406724 
1290.000000	99.402594 
1289.000000	99.397045 
1288.000000	99.392139 
1287.000000	99.388931 
1286.000000	99.386066 
1285.000000	99.381404 
1284.000000	99.375543 
1283.000000	99.371538 
1282.000000	99.370589 
1281.000000	99.370307 
1280.000000	99.368173 
1279.000000	99.364519 
1278.000000	99.360322 
1277.000000	99.354654 
1276.000000	99.346452 
1275.000000	99.337477 
1274.000000	99.330690 
1273.000000	99.326553 
1272.000000	99.323040 
1271.000000	99.318450 
1270.000000	99.312171 
1269.000000	99.303732 
1268.000000	99.293519 
1267.000000	99.283636 
1266.000000	99.275504 
1265.000000	99.267603 
1264.000000	99.257498 
1263.000000	99.245103 
1262.000000	99.232199 
1261.000000	99.220008 
1260.000000	99.209330 
1259.000000	99.201843 
1258.000000	99.198146 
1257.000000	99.195918 
1256.000000	99.192479 
1255.000000	99.188330 
1254.000000	99.185550 
1253.000000	99.183705 
1252.000000	99.180378 
1251.000000	99.175713 
1250.000000	99.173260 
1249.000000	99.176029 
1248.000000	99.184316 
1247.000000	99.196838 
1246.000000	99.210052 
1245.000000	99.216642 
1244.000000	99.209862 
1243.000000	99.192533 
1242.000000	99.178496 
1241.000000	99.180801 
1240.000000	99.198908 
1239.000000	99.219729 
1238.000000	99.230545 
1237.000000	99.228733 
1236.000000	99.219552 
1235.000000	99.208336 
1234.000000	99.196880 
1233.000000	99.185421 
1232.000000	99.175065 
1231.000000	99.167175 
1230.000000	99.161494 
1229.000000	99.156470 
1228.000000	99.151753 
1227.000000	99.149519 
1226.000000	99.152537 
1225.000000	99.160849 
1224.000000	99.170953 
1223.000000	99.178578 
1222.000000	99.182144 
1221.000000	99.183357 
1220.000000	99.184883 
1219.000000	99.188033 
1218.000000	99.192411 
1217.000000	99.196964 
1216.000000	99.200832 
1215.000000	99.203579 
1214.000000	99.205360 
1213.000000	99.206890 
1212.000000	99.208576 
1211.000000	99.209393 
1210.000000	99.207560 
1209.000000	99.202819 
1208.000000	99.197218 
1207.000000	99.192966 
1206.000000	99.190209 
1205.000000	99.187687 
1204.000000	99.184682 
1203.000000	99.181024 
1202.000000	99.175632 
1201.000000	99.166809 
1200.000000	99.154670 
1199.000000	99.142246 
1198.000000	99.133176 
1197.000000	99.128711 
1196.000000	99.127190 
1195.000000	99.125608 
1194.000000	99.121464 
1193.000000	99.113852 
1192.000000	99.103687 
1191.000000	99.092836 
1190.000000	99.082883 
1189.000000	99.074882 
1188.000000	99.069815 
1187.000000	99.067978 
1186.000000	99.067502 
1185.000000	99.064700 
1184.000000	99.056752 
1183.000000	99.043897 
1182.000000	99.029069 
1181.000000	99.015993 
1180.000000	99.007372 
1179.000000	99.003418 
1178.000000	99.001106 
1177.000000	98.995874 
1176.000000	98.985395 
1175.000000	98.971626 
1174.000000	98.958647 
1173.000000	98.948760 
1172.000000	98.941376 
1171.000000	98.934931 
1170.000000	98.928507 
1169.000000	98.921711 
1168.000000	98.914161 
1167.000000	98.905595 
1166.000000	98.896176 
1165.000000	98.886808 
1164.000000	98.879517 
1163.000000	98.876921 
1162.000000	98.880224 
1161.000000	98.887463 
1160.000000	98.894414 
1159.000000	98.897875 
1158.000000	98.897901 
1157.000000	98.896535 
1156.000000	98.894538 
1155.000000	98.889864 
1154.000000	98.879637 
1153.000000	98.863531 
1152.000000	98.844955 
1151.000000	98.828793 
1150.000000	98.817901 
1149.000000	98.811523 
1148.000000	98.806417 
1147.000000	98.799051 
1146.000000	98.787378 
1145.000000	98.771727 
1144.000000	98.754475 
1143.000000	98.738547 
1142.000000	98.725768 
1141.000000	98.716374 
1140.000000	98.709414 
1139.000000	98.702929 
1138.000000	98.694360 
1137.000000	98.682236 
1136.000000	98.667701 
1135.000000	98.653538 
1134.000000	98.641461 
1133.000000	98.630995 
1132.000000	98.620818 
1131.000000	98.610053 
1130.000000	98.598227 
1129.000000	98.585222 
1128.000000	98.571664 
1127.000000	98.558305 
1126.000000	98.544793 
1125.000000	98.530171 
1124.000000	98.514781 
1123.000000	98.500266 
1122.000000	98.487064 
1121.000000	98.473257 
1120.000000	98.456866 
1119.000000	98.438134 
1118.000000	98.418602 
1117.000000	98.398891 
1116.000000	98.378472 
1115.000000	98.356793 
1114.000000	98.333477 
1113.000000	98.308028 
1112.000000	98.280611 
1111.000000	98.253024 
1110.000000	98.227703 
1109.000000	98.205447 
1108.000000	98.184905 
1107.000000	98.163995 
1106.000000	98.142001 
1105.000000	98.120201 
1104.000000	98.100226 
1103.000000	98.081989 
1102.000000	98.064212 
1101.000000	98.046975 
1100.000000	98.033145 
1099.000000	98.023575 
1098.000000	98.015638 
1097.000000	98.006285 
1096.000000	97.995704 
1095.000000	97.984820 
1094.000000	97.970433 
1093.000000	97.946775 
1092.000000	97.912140 
1091.000000	97.870608 
1090.000000	97.826491 
1089.000000	97.780328 
1088.000000	97.731784 
1087.000000	97.683256 
1086.000000	97.638200 
1085.000000	97.597683 
1084.000000	97.560354 
1083.000000	97.524197 
1082.000000	97.487212 
1081.000000	97.448464 
1080.000000	97.409914 
1079.000000	97.375607 
1078.000000	97.348103 
1077.000000	97.327253 
1076.000000	97.312562 
1075.000000	97.304104 
1074.000000	97.300791 
1073.000000	97.300412 
1072.000000	97.300575 
1071.000000	97.295238 
1070.000000	97.271349 
1069.000000	97.217489 
1068.000000	97.140966 
1067.000000	97.071220 
1066.000000	97.038607 
1065.000000	97.049186 
1064.000000	97.082883 
1063.000000	97.112518 
1062.000000	97.119912 
1061.000000	97.098310 
1060.000000	97.050392 
1059.000000	96.989186 
1058.000000	96.935023 
1057.000000	96.903252 
1056.000000	96.892652 
1055.000000	96.887495 
1054.000000	96.871999 
1053.000000	96.843235 
1052.000000	96.810586 
1051.000000	96.784055 
1050.000000	96.765043 
1049.000000	96.749105 
1048.000000	96.734547 
1047.000000	96.724289 
1046.000000	96.720116 
1045.000000	96.719141 
1044.000000	96.717189 
1043.000000	96.713495 
1042.000000	96.710475 
1041.000000	96.709644 
1040.000000	96.709541 
1039.000000	96.708719 
1038.000000	96.710335 
1037.000000	96.721840 
1036.000000	96.748303 
1035.000000	96.786597 
1034.000000	96.827906 
1033.000000	96.864634 
1032.000000	96.891250 
1031.000000	96.900176 
1030.000000	96.885493 
1029.000000	96.855356 
1028.000000	96.834511 
1027.000000	96.845949 
1026.000000	96.889606 
1025.000000	96.943775 
1024.000000	96.986367 
1023.000000	97.009920 
1022.000000	97.018591 
1021.000000	97.019280 
1020.000000	97.018507 
1019.000000	97.021725 
1018.000000	97.030191 
1017.000000	97.040028 
1016.000000	97.047112 
1015.000000	97.051846 
1014.000000	97.057982 
1013.000000	97.068321 
1012.000000	97.082515 
1011.000000	97.097553 
1010.000000	97.109899 
1009.000000	97.119052 
1008.000000	97.129254 
1007.000000	97.145609 
1006.000000	97.168173 
1005.000000	97.192028 
1004.000000	97.213241 
1003.000000	97.232081 
1002.000000	97.250177 
1001.000000	97.267767 
1000.000000	97.284849 
999.000000	 97.302032 
998.000000	 97.318517 
997.000000	 97.331789 
996.000000	 97.341588 
995.000000	 97.352485 
994.000000	 97.370131 
993.000000	 97.395292 
992.000000	 97.422776 
991.000000	 97.445827 
990.000000	 97.461290 
989.000000	 97.471588 
988.000000	 97.482263 
987.000000	 97.496853 
986.000000	 97.514129 
985.000000	 97.531223 
984.000000	 97.548680 
983.000000	 97.570086 
982.000000	 97.596740 
981.000000	 97.625376 
980.000000	 97.652023 
979.000000	 97.675810 
978.000000	 97.698090 
977.000000	 97.720249 
976.000000	 97.743812 
975.000000	 97.770531 
974.000000	 97.800327 
973.000000	 97.830613 
972.000000	 97.859378 
971.000000	 97.887586 
970.000000	 97.916841 
969.000000	 97.946089 
968.000000	 97.972886 
967.000000	 97.997135 
966.000000	 98.021133 
965.000000	 98.045906 
964.000000	 98.069658 
963.000000	 98.090346 
962.000000	 98.108145 
961.000000	 98.124576 
960.000000	 98.140457 
959.000000	 98.155682 
958.000000	 98.170249 
957.000000	 98.184642 
956.000000	 98.199569 
955.000000	 98.215715 
954.000000	 98.233192 
953.000000	 98.250696 
952.000000	 98.265838 
951.000000	 98.277174 
950.000000	 98.285803 
949.000000	 98.294298 
948.000000	 98.304155 
947.000000	 98.314960 
946.000000	 98.325945 
945.000000	 98.337356 
944.000000	 98.349642 
943.000000	 98.361757 
942.000000	 98.371155 
941.000000	 98.375811 
940.000000	 98.376195 
939.000000	 98.375211 
938.000000	 98.376046 
937.000000	 98.379542 
936.000000	 98.383404 
935.000000	 98.384249 
934.000000	 98.380827 
933.000000	 98.375244 
932.000000	 98.371015 
931.000000	 98.370366 
930.000000	 98.373590 
929.000000	 98.380273 
928.000000	 98.390011 
927.000000	 98.401793 
926.000000	 98.413576 
925.000000	 98.423011 
924.000000	 98.428329 
923.000000	 98.428546 
922.000000	 98.423570 
921.000000	 98.414517 
920.000000	 98.403625 
919.000000	 98.393548 
918.000000	 98.386477 
917.000000	 98.383258 
916.000000	 98.382566 
915.000000	 98.381209 
914.000000	 98.376662 
913.000000	 98.370138 
912.000000	 98.366371 
911.000000	 98.369337 
910.000000	 98.378073 
909.000000	 98.387131 
908.000000	 98.391077 
907.000000	 98.388653 
906.000000	 98.383441 
905.000000	 98.381060 
904.000000	 98.385345 
903.000000	 98.396501 
902.000000	 98.412367 
901.000000	 98.430868 
900.000000	 98.450845 
899.000000	 98.471239 
898.000000	 98.490895 
897.000000	 98.508766 
896.000000	 98.523163 
895.000000	 98.531668 
894.000000	 98.534298 
893.000000	 98.536673 
892.000000	 98.547028 
891.000000	 98.568588 
890.000000	 98.596646 
889.000000	 98.624164 
888.000000	 98.647741 
887.000000	 98.666391 
886.000000	 98.677690 
885.000000	 98.679276 
884.000000	 98.673610 
883.000000	 98.667752 
882.000000	 98.667421 
881.000000	 98.673193 
880.000000	 98.683120 
879.000000	 98.696705 
878.000000	 98.714502 
877.000000	 98.734696 
876.000000	 98.751844 
875.000000	 98.759922 
874.000000	 98.757441 
873.000000	 98.749971 
872.000000	 98.746818 
871.000000	 98.753716 
870.000000	 98.768017 
869.000000	 98.781421 
868.000000	 98.787805 
867.000000	 98.788504 
866.000000	 98.790426 
865.000000	 98.799435 
864.000000	 98.815626 
863.000000	 98.834641 
862.000000	 98.852699 
861.000000	 98.869120 
860.000000	 98.883934 
859.000000	 98.895662 
858.000000	 98.904194 
857.000000	 98.914427 
856.000000	 98.932525 
855.000000	 98.957159 
854.000000	 98.978052 
853.000000	 98.986175 
852.000000	 98.983328 
851.000000	 98.978854 
850.000000	 98.978779 
849.000000	 98.981842 
848.000000	 98.985278 
847.000000	 98.989679 
846.000000	 98.996506 
845.000000	 99.004396 
844.000000	 99.010959 
843.000000	 99.016340 
842.000000	 99.021794 
841.000000	 99.025396 
840.000000	 99.022815 
839.000000	 99.013637 
838.000000	 99.004074 
837.000000	 99.000450 
836.000000	 99.001244 
835.000000	 98.999162 
834.000000	 98.991583 
833.000000	 98.985022 
832.000000	 98.986370 
831.000000	 98.992770 
830.000000	 98.995412 
829.000000	 98.992850 
828.000000	 98.993643 
827.000000	 99.002437 
826.000000	 99.009696 
825.000000	 99.002965 
824.000000	 98.985589 
823.000000	 98.974885 
822.000000	 98.980813 
821.000000	 98.994745 
820.000000	 99.001555 
819.000000	 98.995896 
818.000000	 98.984173 
817.000000	 98.975557 
816.000000	 98.973991 
815.000000	 98.975863 
814.000000	 98.972487 
813.000000	 98.956884 
812.000000	 98.930784 
811.000000	 98.903902 
810.000000	 98.884194 
809.000000	 98.869573 
808.000000	 98.850589 
807.000000	 98.819118 
806.000000	 98.772602 
805.000000	 98.712738 
804.000000	 98.645165 
803.000000	 98.580544 
802.000000	 98.530578 
801.000000	 98.500100 
800.000000	 98.484669 
799.000000	 98.476826 
798.000000	 98.473170 
797.000000	 98.474985 
796.000000	 98.483981 
795.000000	 98.499074 
794.000000	 98.517206 
793.000000	 98.536229 
792.000000	 98.555514 
791.000000	 98.572758 
790.000000	 98.581739 
789.000000	 98.576757 
788.000000	 98.560318 
787.000000	 98.543052 
786.000000	 98.533202 
785.000000	 98.528191 
784.000000	 98.519821 
783.000000	 98.505726 
782.000000	 98.491304 
781.000000	 98.481624 
780.000000	 98.476489 
779.000000	 98.473611 
778.000000	 98.471954 
777.000000	 98.471443 
776.000000	 98.473831 
775.000000	 98.484385 
774.000000	 98.507256 
773.000000	 98.537365 
772.000000	 98.562210 
771.000000	 98.574657 
770.000000	 98.579382 
769.000000	 98.583649 
768.000000	 98.587423 
767.000000	 98.588020 
766.000000	 98.589325 
765.000000	 98.598056 
764.000000	 98.612333 
763.000000	 98.621305 
762.000000	 98.617241 
761.000000	 98.603356 
760.000000	 98.589406 
759.000000	 98.583760 
758.000000	 98.589129 
757.000000	 98.601322 
756.000000	 98.612031 
755.000000	 98.616890 
754.000000	 98.620509 
753.000000	 98.629599 
752.000000	 98.642903 
751.000000	 98.653049 
750.000000	 98.656765 
749.000000	 98.657031 
748.000000	 98.656043 
747.000000	 98.653761 
746.000000	 98.654126 
745.000000	 98.663541 
744.000000	 98.679566 
743.000000	 98.689656 
742.000000	 98.686802 
741.000000	 98.679780 
740.000000	 98.681916 
739.000000	 98.694965 
738.000000	 98.710077 
737.000000	 98.720468 
736.000000	 98.726695 
735.000000	 98.732716 
734.000000	 98.742942 
733.000000	 98.760531 
732.000000	 98.783115 
731.000000	 98.801775 
730.000000	 98.808864 
729.000000	 98.804160 
728.000000	 98.793335 
727.000000	 98.781980 
726.000000	 98.771018 
725.000000	 98.760475 
724.000000	 98.754627 
723.000000	 98.759736 
722.000000	 98.776564 
721.000000	 98.797017 
720.000000	 98.809863 
719.000000	 98.809457 
718.000000	 98.797720 
717.000000	 98.779833 
716.000000	 98.760303 
715.000000	 98.743188 
714.000000	 98.732295 
713.000000	 98.727727 
712.000000	 98.725950 
711.000000	 98.725403 
710.000000	 98.729343 
709.000000	 98.738448 
708.000000	 98.745096 
707.000000	 98.742617 
706.000000	 98.732770 
705.000000	 98.721982 
704.000000	 98.714029 
703.000000	 98.707666 
702.000000	 98.702537 
701.000000	 98.700355 
700.000000	 98.696008 
699.000000	 98.680394 
698.000000	 98.650269 
697.000000	 98.611428 
696.000000	 98.572559 
695.000000	 98.537176 
694.000000	 98.511792 
693.000000	 98.509280 
692.000000	 98.532255 
691.000000	 98.566131 
690.000000	 98.591710 
689.000000	 98.604667 
688.000000	 98.615476 
687.000000	 98.630461 
686.000000	 98.648682 
685.000000	 98.669091 
684.000000	 98.686842 
683.000000	 98.692763 
682.000000	 98.685088 
681.000000	 98.677027 
680.000000	 98.682676 
679.000000	 98.701557 
678.000000	 98.721441 
677.000000	 98.722841 
676.000000	 98.699981 
675.000000	 98.674726 
674.000000	 98.676720 
673.000000	 98.713650 
672.000000	 98.778271 
671.000000	 98.877169 
670.000000	 99.037541 
669.000000	 99.242419 
668.000000	 99.327819 
667.000000	 99.188038 
666.000000	 98.998148 
665.000000	 98.865822 
664.000000	 98.782472 
663.000000	 98.727972 
662.000000	 98.694437 
661.000000	 98.679260 
660.000000	 98.682392 
659.000000	 98.699792 
658.000000	 98.714359 
657.000000	 98.699929 
656.000000	 98.659736 
655.000000	 98.631112 
654.000000	 98.628611 
653.000000	 98.620639 
652.000000	 98.582946 
651.000000	 98.533080 
650.000000	 98.500973 

