4000.000000	99.488139 
3999.000000	99.487759 
3998.000000	99.487158 
3997.000000	99.486257 
3996.000000	99.485091 
3995.000000	99.483939 
3994.000000	99.483310 
3993.000000	99.483658 
3992.000000	99.484969 
3991.000000	99.486584 
3990.000000	99.487666 
3989.000000	99.487960 
3988.000000	99.487937 
3987.000000	99.488200 
3986.000000	99.488759 
3985.000000	99.488982 
3984.000000	99.488250 
3983.000000	99.486532 
3982.000000	99.484443 
3981.000000	99.482804 
3980.000000	99.481987 
3979.000000	99.481706 
3978.000000	99.481440 
3977.000000	99.481040 
3976.000000	99.480896 
3975.000000	99.481498 
3974.000000	99.482931 
3973.000000	99.484715 
3972.000000	99.486105 
3971.000000	99.486615 
3970.000000	99.486229 
3969.000000	99.485296 
3968.000000	99.484268 
3967.000000	99.483450 
3966.000000	99.482936 
3965.000000	99.482694 
3964.000000	99.482542 
3963.000000	99.482091 
3962.000000	99.480957 
3961.000000	99.479152 
3960.000000	99.477220 
3959.000000	99.475890 
3958.000000	99.475489 
3957.000000	99.475690 
3956.000000	99.475864 
3955.000000	99.475646 
3954.000000	99.475180 
3953.000000	99.474810 
3952.000000	99.474645 
3951.000000	99.474523 
3950.000000	99.474266 
3949.000000	99.473914 
3948.000000	99.473653 
3947.000000	99.473530 
3946.000000	99.473409 
3945.000000	99.473198 
3944.000000	99.473006 
3943.000000	99.472956 
3942.000000	99.473042 
3941.000000	99.473147 
3940.000000	99.473037 
3939.000000	99.472383 
3938.000000	99.470954 
3937.000000	99.468914 
3936.000000	99.466940 
3935.000000	99.465870 
3934.000000	99.466188 
3933.000000	99.467712 
3932.000000	99.469629 
3931.000000	99.470913 
3930.000000	99.470975 
3929.000000	99.470075 
3928.000000	99.469119 
3927.000000	99.468946 
3926.000000	99.469787 
3925.000000	99.471122 
3924.000000	99.472045 
3923.000000	99.472020 
3922.000000	99.471206 
3921.000000	99.470249 
3920.000000	99.469795 
3919.000000	99.470151 
3918.000000	99.471220 
3917.000000	99.472564 
3916.000000	99.473647 
3915.000000	99.474218 
3914.000000	99.474552 
3913.000000	99.475103 
3912.000000	99.475932 
3911.000000	99.476656 
3910.000000	99.476910 
3909.000000	99.476731 
3908.000000	99.476413 
3907.000000	99.475936 
3906.000000	99.474789 
3905.000000	99.472405 
3904.000000	99.468786 
3903.000000	99.464917 
3902.000000	99.462269 
3901.000000	99.461756 
3900.000000	99.463310 
3899.000000	99.465937 
3898.000000	99.468355 
3897.000000	99.469791 
3896.000000	99.470089 
3895.000000	99.469458 
3894.000000	99.468307 
3893.000000	99.467089 
3892.000000	99.466136 
3891.000000	99.465512 
3890.000000	99.465097 
3889.000000	99.464740 
3888.000000	99.464461 
3887.000000	99.464477 
3886.000000	99.464904 
3885.000000	99.465491 
3884.000000	99.465832 
3883.000000	99.465775 
3882.000000	99.465529 
3881.000000	99.465372 
3880.000000	99.465399 
3879.000000	99.465499 
3878.000000	99.465605 
3877.000000	99.465795 
3876.000000	99.466140 
3875.000000	99.466475 
3874.000000	99.466479 
3873.000000	99.466056 
3872.000000	99.465511 
3871.000000	99.465288 
3870.000000	99.465523 
3869.000000	99.466006 
3868.000000	99.466469 
3867.000000	99.466832 
3866.000000	99.467167 
3865.000000	99.467521 
3864.000000	99.467859 
3863.000000	99.468157 
3862.000000	99.468437 
3861.000000	99.468744 
3860.000000	99.469094 
3859.000000	99.469460 
3858.000000	99.469806 
3857.000000	99.470122 
3856.000000	99.470414 
3855.000000	99.470716 
3854.000000	99.471055 
3853.000000	99.471419 
3852.000000	99.471788 
3851.000000	99.472156 
3850.000000	99.472520 
3849.000000	99.472881 
3848.000000	99.473240 
3847.000000	99.473596 
3846.000000	99.473947 
3845.000000	99.474291 
3844.000000	99.474631 
3843.000000	99.474973 
3842.000000	99.475317 
3841.000000	99.475660 
3840.000000	99.476005 
3839.000000	99.476357 
3838.000000	99.476719 
3837.000000	99.477081 
3836.000000	99.477427 
3835.000000	99.477757 
3834.000000	99.478088 
3833.000000	99.478440 
3832.000000	99.478819 
3831.000000	99.479182 
3830.000000	99.479468 
3829.000000	99.479663 
3828.000000	99.479801 
3827.000000	99.479928 
3826.000000	99.480066 
3825.000000	99.480210 
3824.000000	99.480351 
3823.000000	99.480484 
3822.000000	99.480606 
3821.000000	99.480716 
3820.000000	99.480814 
3819.000000	99.480905 
3818.000000	99.480990 
3817.000000	99.481065 
3816.000000	99.481125 
3815.000000	99.481166 
3814.000000	99.481188 
3813.000000	99.481196 
3812.000000	99.481194 
3811.000000	99.481185 
3810.000000	99.481169 
3809.000000	99.481140 
3808.000000	99.481094 
3807.000000	99.481030 
3806.000000	99.480949 
3805.000000	99.480854 
3804.000000	99.480746 
3803.000000	99.480631 
3802.000000	99.480511 
3801.000000	99.480381 
3800.000000	99.480236 
3799.000000	99.480067 
3798.000000	99.479872 
3797.000000	99.479655 
3796.000000	99.479422 
3795.000000	99.479177 
3794.000000	99.478917 
3793.000000	99.478643 
3792.000000	99.478358 
3791.000000	99.478068 
3790.000000	99.477779 
3789.000000	99.477497 
3788.000000	99.477225 
3787.000000	99.476957 
3786.000000	99.476680 
3785.000000	99.476392 
3784.000000	99.476109 
3783.000000	99.475843 
3782.000000	99.475590 
3781.000000	99.475397 
3780.000000	99.475367 
3779.000000	99.475518 
3778.000000	99.475648 
3777.000000	99.475449 
3776.000000	99.474733 
3775.000000	99.473621 
3774.000000	99.472461 
3773.000000	99.471559 
3772.000000	99.471073 
3771.000000	99.470994 
3770.000000	99.471015 
3769.000000	99.470745 
3768.000000	99.470190 
3767.000000	99.469700 
3766.000000	99.469513 
3765.000000	99.469476 
3764.000000	99.469222 
3763.000000	99.468664 
3762.000000	99.468236 
3761.000000	99.468375 
3760.000000	99.468660 
3759.000000	99.468186 
3758.000000	99.466983 
3757.000000	99.466113 
3756.000000	99.466161 
3755.000000	99.466611 
3754.000000	99.466800 
3753.000000	99.466926 
3752.000000	99.467597 
3751.000000	99.468594 
3750.000000	99.469485 
3749.000000	99.470565 
3748.000000	99.471834 
3747.000000	99.472534 
3746.000000	99.472389 
3745.000000	99.471572 
3744.000000	99.470163 
3743.000000	99.468311 
3742.000000	99.466012 
3741.000000	99.463125 
3740.000000	99.459681 
3739.000000	99.455760 
3738.000000	99.452007 
3737.000000	99.449924 
3736.000000	99.450429 
3735.000000	99.452266 
3734.000000	99.452983 
3733.000000	99.451938 
3732.000000	99.450797 
3731.000000	99.450890 
3730.000000	99.451633 
3729.000000	99.451717 
3728.000000	99.450969 
3727.000000	99.449970 
3726.000000	99.448495 
3725.000000	99.445749 
3724.000000	99.442244 
3723.000000	99.439983 
3722.000000	99.440278 
3721.000000	99.442383 
3720.000000	99.444051 
3719.000000	99.443430 
3718.000000	99.440563 
3717.000000	99.436649 
3716.000000	99.432410 
3715.000000	99.427966 
3714.000000	99.424073 
3713.000000	99.422508 
3712.000000	99.423937 
3711.000000	99.426499 
3710.000000	99.427472 
3709.000000	99.425425 
3708.000000	99.420641 
3707.000000	99.414166 
3706.000000	99.407077 
3705.000000	99.400332 
3704.000000	99.394600 
3703.000000	99.389772 
3702.000000	99.384664 
3701.000000	99.378072 
3700.000000	99.370005 
3699.000000	99.361442 
3698.000000	99.353496 
3697.000000	99.346801 
3696.000000	99.341274 
3695.000000	99.336697 
3694.000000	99.333488 
3693.000000	99.332274 
3692.000000	99.332309 
3691.000000	99.330934 
3690.000000	99.325444 
3689.000000	99.316277 
3688.000000	99.307156 
3687.000000	99.300755 
3686.000000	99.296716 
3685.000000	99.294280 
3684.000000	99.293869 
3683.000000	99.295827 
3682.000000	99.298671 
3681.000000	99.299360 
3680.000000	99.295292 
3679.000000	99.285798 
3678.000000	99.272998 
3677.000000	99.262241 
3676.000000	99.258799 
3675.000000	99.262165 
3674.000000	99.266597 
3673.000000	99.267678 
3672.000000	99.265937 
3671.000000	99.265551 
3670.000000	99.268893 
3669.000000	99.273852 
3668.000000	99.277609 
3667.000000	99.279787 
3666.000000	99.281461 
3665.000000	99.283200 
3664.000000	99.284417 
3663.000000	99.284343 
3662.000000	99.282978 
3661.000000	99.280867 
3660.000000	99.278696 
3659.000000	99.277542 
3658.000000	99.279148 
3657.000000	99.284569 
3656.000000	99.292308 
3655.000000	99.299253 
3654.000000	99.303465 
3653.000000	99.305359 
3652.000000	99.306491 
3651.000000	99.307722 
3650.000000	99.308460 
3649.000000	99.308844 
3648.000000	99.311144 
3647.000000	99.316779 
3646.000000	99.324616 
3645.000000	99.332972 
3644.000000	99.341168 
3643.000000	99.349282 
3642.000000	99.357562 
3641.000000	99.365907 
3640.000000	99.373942 
3639.000000	99.381008 
3638.000000	99.386243 
3637.000000	99.389097 
3636.000000	99.389750 
3635.000000	99.388849 
3634.000000	99.386713 
3633.000000	99.383418 
3632.000000	99.379900 
3631.000000	99.378349 
3630.000000	99.380639 
3629.000000	99.385187 
3628.000000	99.388360 
3627.000000	99.389562 
3626.000000	99.390932 
3625.000000	99.393882 
3624.000000	99.397853 
3623.000000	99.401321 
3622.000000	99.403643 
3621.000000	99.405900 
3620.000000	99.409114 
3619.000000	99.412235 
3618.000000	99.413449 
3617.000000	99.412754 
3616.000000	99.411928 
3615.000000	99.412707 
3614.000000	99.414929 
3613.000000	99.416699 
3612.000000	99.416711 
3611.000000	99.415774 
3610.000000	99.415697 
3609.000000	99.417076 
3608.000000	99.418756 
3607.000000	99.419794 
3606.000000	99.420944 
3605.000000	99.423437 
3604.000000	99.427241 
3603.000000	99.430984 
3602.000000	99.433364 
3601.000000	99.434342 
3600.000000	99.434569 
3599.000000	99.434298 
3598.000000	99.433484 
3597.000000	99.432424 
3596.000000	99.431866 
3595.000000	99.432461 
3594.000000	99.434065 
3593.000000	99.435851 
3592.000000	99.436949 
3591.000000	99.436857 
3590.000000	99.435707 
3589.000000	99.434330 
3588.000000	99.433747 
3587.000000	99.434173 
3586.000000	99.435029 
3585.000000	99.435963 
3584.000000	99.437370 
3583.000000	99.439625 
3582.000000	99.442338 
3581.000000	99.444461 
3580.000000	99.445209 
3579.000000	99.444707 
3578.000000	99.443724 
3577.000000	99.443061 
3576.000000	99.443107 
3575.000000	99.443841 
3574.000000	99.444880 
3573.000000	99.445605 
3572.000000	99.445575 
3571.000000	99.444775 
3570.000000	99.443349 
3569.000000	99.441478 
3568.000000	99.439659 
3567.000000	99.438737 
3566.000000	99.439309 
3565.000000	99.441212 
3564.000000	99.443891 
3563.000000	99.447014 
3562.000000	99.450403 
3561.000000	99.453560 
3560.000000	99.455775 
3559.000000	99.456753 
3558.000000	99.456968 
3557.000000	99.457218 
3556.000000	99.457866 
3555.000000	99.458585 
3554.000000	99.458828 
3553.000000	99.458261 
3552.000000	99.456921 
3551.000000	99.455131 
3550.000000	99.453233 
3549.000000	99.451510 
3548.000000	99.450399 
3547.000000	99.450389 
3546.000000	99.451561 
3545.000000	99.453143 
3544.000000	99.454056 
3543.000000	99.454120 
3542.000000	99.454316 
3541.000000	99.455632 
3540.000000	99.457976 
3539.000000	99.460251 
3538.000000	99.461560 
3537.000000	99.461980 
3536.000000	99.462249 
3535.000000	99.462861 
3534.000000	99.463635 
3533.000000	99.464173 
3532.000000	99.464419 
3531.000000	99.464685 
3530.000000	99.465136 
3529.000000	99.465487 
3528.000000	99.465385 
3527.000000	99.464944 
3526.000000	99.464681 
3525.000000	99.464944 
3524.000000	99.465586 
3523.000000	99.466203 
3522.000000	99.466577 
3521.000000	99.466784 
3520.000000	99.467056 
3519.000000	99.467624 
3518.000000	99.468631 
3517.000000	99.469981 
3516.000000	99.471262 
3515.000000	99.471953 
3514.000000	99.471793 
3513.000000	99.470960 
3512.000000	99.469963 
3511.000000	99.469318 
3510.000000	99.469214 
3509.000000	99.469488 
3508.000000	99.469852 
3507.000000	99.470166 
3506.000000	99.470497 
3505.000000	99.470905 
3504.000000	99.471323 
3503.000000	99.471690 
3502.000000	99.472125 
3501.000000	99.472824 
3500.000000	99.473772 
3499.000000	99.474670 
3498.000000	99.475158 
3497.000000	99.475125 
3496.000000	99.474740 
3495.000000	99.474326 
3494.000000	99.474149 
3493.000000	99.474308 
3492.000000	99.474756 
3491.000000	99.475340 
3490.000000	99.475893 
3489.000000	99.476348 
3488.000000	99.476746 
3487.000000	99.477132 
3486.000000	99.477493 
3485.000000	99.477795 
3484.000000	99.478051 
3483.000000	99.478323 
3482.000000	99.478653 
3481.000000	99.479019 
3480.000000	99.479369 
3479.000000	99.479671 
3478.000000	99.479924 
3477.000000	99.480141 
3476.000000	99.480346 
3475.000000	99.480589 
3474.000000	99.480900 
3473.000000	99.481264 
3472.000000	99.481627 
3471.000000	99.481951 
3470.000000	99.482248 
3469.000000	99.482567 
3468.000000	99.482937 
3467.000000	99.483321 
3466.000000	99.483645 
3465.000000	99.483884 
3464.000000	99.484084 
3463.000000	99.484319 
3462.000000	99.484606 
3461.000000	99.484902 
3460.000000	99.485156 
3459.000000	99.485368 
3458.000000	99.485558 
3457.000000	99.485706 
3456.000000	99.485757 
3455.000000	99.485719 
3454.000000	99.485704 
3453.000000	99.485846 
3452.000000	99.486162 
3451.000000	99.486534 
3450.000000	99.486808 
3449.000000	99.486923 
3448.000000	99.486918 
3447.000000	99.486867 
3446.000000	99.486834 
3445.000000	99.486886 
3444.000000	99.487101 
3443.000000	99.487496 
3442.000000	99.487941 
3441.000000	99.488210 
3440.000000	99.488161 
3439.000000	99.487833 
3438.000000	99.487355 
3437.000000	99.486783 
3436.000000	99.486119 
3435.000000	99.485490 
3434.000000	99.485183 
3433.000000	99.485426 
3432.000000	99.486142 
3431.000000	99.486960 
3430.000000	99.487519 
3429.000000	99.487763 
3428.000000	99.487895 
3427.000000	99.488087 
3426.000000	99.488247 
3425.000000	99.488100 
3424.000000	99.487485 
3423.000000	99.486532 
3422.000000	99.485585 
3421.000000	99.484947 
3420.000000	99.484746 
3419.000000	99.484975 
3418.000000	99.485561 
3417.000000	99.486341 
3416.000000	99.487027 
3415.000000	99.487317 
3414.000000	99.487096 
3413.000000	99.486549 
3412.000000	99.486073 
3411.000000	99.485999 
3410.000000	99.486339 
3409.000000	99.486780 
3408.000000	99.486932 
3407.000000	99.486621 
3406.000000	99.485965 
3405.000000	99.485238 
3404.000000	99.484692 
3403.000000	99.484462 
3402.000000	99.484568 
3401.000000	99.484977 
3400.000000	99.485664 
3399.000000	99.486614 
3398.000000	99.487702 
3397.000000	99.488637 
3396.000000	99.489093 
3395.000000	99.488940 
3394.000000	99.488296 
3393.000000	99.487360 
3392.000000	99.486291 
3391.000000	99.485266 
3390.000000	99.484576 
3389.000000	99.484502 
3388.000000	99.485111 
3387.000000	99.486152 
3386.000000	99.487197 
3385.000000	99.487943 
3384.000000	99.488343 
3383.000000	99.488490 
3382.000000	99.488394 
3381.000000	99.487960 
3380.000000	99.487200 
3379.000000	99.486409 
3378.000000	99.486006 
3377.000000	99.486155 
3376.000000	99.486626 
3375.000000	99.487007 
3374.000000	99.487076 
3373.000000	99.486954 
3372.000000	99.486911 
3371.000000	99.487084 
3370.000000	99.487374 
3369.000000	99.487557 
3368.000000	99.487508 
3367.000000	99.487327 
3366.000000	99.487244 
3365.000000	99.487380 
3364.000000	99.487596 
3363.000000	99.487622 
3362.000000	99.487323 
3361.000000	99.486790 
3360.000000	99.486201 
3359.000000	99.485646 
3358.000000	99.485136 
3357.000000	99.484734 
3356.000000	99.484561 
3355.000000	99.484632 
3354.000000	99.484746 
3353.000000	99.484633 
3352.000000	99.484201 
3351.000000	99.483617 
3350.000000	99.483176 
3349.000000	99.483066 
3348.000000	99.483283 
3347.000000	99.483669 
3346.000000	99.483974 
3345.000000	99.483983 
3344.000000	99.483658 
3343.000000	99.483206 
3342.000000	99.482906 
3341.000000	99.482790 
3340.000000	99.482579 
3339.000000	99.482050 
3338.000000	99.481377 
3337.000000	99.481006 
3336.000000	99.481182 
3335.000000	99.481706 
3334.000000	99.482172 
3333.000000	99.482384 
3332.000000	99.482450 
3331.000000	99.482510 
3330.000000	99.482490 
3329.000000	99.482163 
3328.000000	99.481448 
3327.000000	99.480569 
3326.000000	99.479831 
3325.000000	99.479257 
3324.000000	99.478543 
3323.000000	99.477444 
3322.000000	99.476169 
3321.000000	99.475243 
3320.000000	99.475008 
3319.000000	99.475361 
3318.000000	99.475964 
3317.000000	99.476545 
3316.000000	99.476906 
3315.000000	99.476851 
3314.000000	99.476385 
3313.000000	99.475907 
3312.000000	99.475944 
3311.000000	99.476610 
3310.000000	99.477433 
3309.000000	99.477805 
3308.000000	99.477555 
3307.000000	99.476955 
3306.000000	99.476365 
3305.000000	99.475999 
3304.000000	99.475929 
3303.000000	99.476077 
3302.000000	99.476154 
3301.000000	99.475781 
3300.000000	99.474819 
3299.000000	99.473553 
3298.000000	99.472539 
3297.000000	99.472169 
3296.000000	99.472372 
3295.000000	99.472666 
3294.000000	99.472557 
3293.000000	99.471973 
3292.000000	99.471290 
3291.000000	99.470882 
3290.000000	99.470658 
3289.000000	99.470176 
3288.000000	99.469189 
3287.000000	99.467911 
3286.000000	99.466777 
3285.000000	99.465998 
3284.000000	99.465458 
3283.000000	99.464966 
3282.000000	99.464503 
3281.000000	99.464196 
3280.000000	99.464109 
3279.000000	99.464140 
3278.000000	99.464096 
3277.000000	99.463813 
3276.000000	99.463224 
3275.000000	99.462339 
3274.000000	99.461250 
3273.000000	99.460165 
3272.000000	99.459371 
3271.000000	99.459060 
3270.000000	99.459184 
3269.000000	99.459463 
3268.000000	99.459562 
3267.000000	99.459306 
3266.000000	99.458703 
3265.000000	99.457913 
3264.000000	99.457203 
3263.000000	99.456833 
3262.000000	99.456884 
3261.000000	99.457167 
3260.000000	99.457374 
3259.000000	99.457331 
3258.000000	99.457060 
3257.000000	99.456631 
3256.000000	99.456067 
3255.000000	99.455398 
3254.000000	99.454742 
3253.000000	99.454254 
3252.000000	99.454077 
3251.000000	99.454314 
3250.000000	99.454905 
3249.000000	99.455481 
3248.000000	99.455518 
3247.000000	99.454762 
3246.000000	99.453470 
3245.000000	99.452196 
3244.000000	99.451315 
3243.000000	99.450854 
3242.000000	99.450677 
3241.000000	99.450646 
3240.000000	99.450664 
3239.000000	99.450775 
3238.000000	99.451260 
3237.000000	99.452429 
3236.000000	99.454188 
3235.000000	99.455863 
3234.000000	99.456674 
3233.000000	99.456377 
3232.000000	99.455381 
3231.000000	99.454327 
3230.000000	99.453591 
3229.000000	99.453180 
3228.000000	99.452883 
3227.000000	99.452396 
3226.000000	99.451457 
3225.000000	99.450069 
3224.000000	99.448617 
3223.000000	99.447624 
3222.000000	99.447303 
3221.000000	99.447385 
3220.000000	99.447363 
3219.000000	99.446900 
3218.000000	99.446096 
3217.000000	99.445476 
3216.000000	99.445681 
3215.000000	99.446991 
3214.000000	99.448992 
3213.000000	99.450685 
3212.000000	99.451230 
3211.000000	99.450494 
3210.000000	99.448967 
3209.000000	99.447338 
3208.000000	99.446116 
3207.000000	99.445540 
3206.000000	99.445537 
3205.000000	99.445691 
3204.000000	99.445539 
3203.000000	99.445050 
3202.000000	99.444638 
3201.000000	99.444639 
3200.000000	99.444932 
3199.000000	99.445142 
3198.000000	99.445036 
3197.000000	99.444603 
3196.000000	99.443925 
3195.000000	99.443163 
3194.000000	99.442557 
3193.000000	99.442199 
3192.000000	99.441852 
3191.000000	99.441175 
3190.000000	99.440136 
3189.000000	99.439026 
3188.000000	99.438124 
3187.000000	99.437564 
3186.000000	99.437509 
3185.000000	99.438127 
3184.000000	99.439231 
3183.000000	99.440198 
3182.000000	99.440555 
3181.000000	99.440514 
3180.000000	99.440712 
3179.000000	99.441472 
3178.000000	99.442476 
3177.000000	99.443140 
3176.000000	99.443181 
3175.000000	99.442818 
3174.000000	99.442500 
3173.000000	99.442404 
3172.000000	99.442140 
3171.000000	99.441090 
3170.000000	99.439148 
3169.000000	99.437116 
3168.000000	99.436061 
3167.000000	99.436292 
3166.000000	99.437202 
3165.000000	99.437940 
3164.000000	99.438090 
3163.000000	99.437698 
3162.000000	99.436971 
3161.000000	99.436234 
3160.000000	99.435962 
3159.000000	99.436457 
3158.000000	99.437380 
3157.000000	99.437864 
3156.000000	99.437253 
3155.000000	99.435631 
3154.000000	99.433593 
3153.000000	99.431637 
3152.000000	99.429931 
3151.000000	99.428590 
3150.000000	99.427849 
3149.000000	99.427833 
3148.000000	99.428321 
3147.000000	99.428918 
3146.000000	99.429433 
3145.000000	99.429964 
3144.000000	99.430622 
3143.000000	99.431303 
3142.000000	99.431757 
3141.000000	99.431782 
3140.000000	99.431378 
3139.000000	99.430749 
3138.000000	99.430166 
3137.000000	99.429786 
3136.000000	99.429603 
3135.000000	99.429564 
3134.000000	99.429679 
3133.000000	99.429936 
3132.000000	99.430158 
3131.000000	99.430075 
3130.000000	99.429607 
3129.000000	99.429023 
3128.000000	99.428750 
3127.000000	99.428989 
3126.000000	99.429577 
3125.000000	99.430130 
3124.000000	99.430341 
3123.000000	99.430144 
3122.000000	99.429657 
3121.000000	99.429082 
3120.000000	99.428613 
3119.000000	99.428357 
3118.000000	99.428329 
3117.000000	99.428491 
3116.000000	99.428780 
3115.000000	99.429095 
3114.000000	99.429296 
3113.000000	99.429268 
3112.000000	99.429022 
3111.000000	99.428717 
3110.000000	99.428531 
3109.000000	99.428513 
3108.000000	99.428548 
3107.000000	99.428455 
3106.000000	99.428113 
3105.000000	99.427517 
3104.000000	99.426794 
3103.000000	99.426196 
3102.000000	99.426002 
3101.000000	99.426369 
3100.000000	99.427172 
3099.000000	99.428027 
3098.000000	99.428594 
3097.000000	99.428811 
3096.000000	99.428805 
3095.000000	99.428658 
3094.000000	99.428308 
3093.000000	99.427679 
3092.000000	99.426867 
3091.000000	99.426120 
3090.000000	99.425637 
3089.000000	99.425477 
3088.000000	99.425627 
3087.000000	99.426027 
3086.000000	99.426481 
3085.000000	99.426667 
3084.000000	99.426290 
3083.000000	99.425158 
3082.000000	99.423195 
3081.000000	99.420634 
3080.000000	99.418239 
3079.000000	99.417054 
3078.000000	99.417778 
3077.000000	99.420356 
3076.000000	99.424039 
3075.000000	99.427592 
3074.000000	99.429581 
3073.000000	99.429075 
3072.000000	99.426374 
3071.000000	99.422770 
3070.000000	99.419269 
3069.000000	99.415868 
3068.000000	99.412400 
3067.000000	99.409759 
3066.000000	99.409689 
3065.000000	99.413178 
3064.000000	99.419175 
3063.000000	99.424824 
3062.000000	99.427071 
3061.000000	99.424472 
3060.000000	99.418057 
3059.000000	99.410660 
3058.000000	99.405264 
3057.000000	99.403676 
3056.000000	99.406137 
3055.000000	99.411267 
3054.000000	99.416315 
3053.000000	99.418406 
3052.000000	99.416353 
3051.000000	99.411283 
3050.000000	99.405420 
3049.000000	99.400606 
3048.000000	99.397828 
3047.000000	99.397007 
3046.000000	99.396439 
3045.000000	99.393394 
3044.000000	99.386707 
3043.000000	99.378689 
3042.000000	99.373269 
3041.000000	99.371938 
3040.000000	99.372311 
3039.000000	99.370876 
3038.000000	99.366195 
3037.000000	99.359112 
3036.000000	99.350871 
3035.000000	99.341976 
3034.000000	99.332523 
3033.000000	99.322669 
3032.000000	99.312531 
3031.000000	99.302060 
3030.000000	99.291206 
3029.000000	99.280222 
3028.000000	99.269862 
3027.000000	99.261122 
3026.000000	99.254251 
3025.000000	99.247764 
3024.000000	99.238963 
3023.000000	99.226086 
3022.000000	99.209946 
3021.000000	99.193004 
3020.000000	99.176707 
3019.000000	99.160279 
3018.000000	99.142507 
3017.000000	99.124035 
3016.000000	99.106878 
3015.000000	99.091661 
3014.000000	99.076591 
3013.000000	99.059917 
3012.000000	99.042518 
3011.000000	99.026820 
3010.000000	99.013437 
3009.000000	99.000289 
3008.000000	98.985219 
3007.000000	98.968218 
3006.000000	98.950496 
3005.000000	98.932457 
3004.000000	98.913610 
3003.000000	98.893921 
3002.000000	98.874262 
3001.000000	98.855711 
3000.000000	98.839032 
2999.000000	98.824607 
2998.000000	98.812270 
2997.000000	98.801383 
2996.000000	98.791358 
2995.000000	98.781384 
2994.000000	98.768968 
2993.000000	98.749850 
2992.000000	98.721392 
2991.000000	98.686629 
2990.000000	98.653908 
2989.000000	98.631557 
2988.000000	98.622988 
2987.000000	98.626284 
2986.000000	98.636807 
2985.000000	98.649616 
2984.000000	98.660560 
2983.000000	98.666949 
2982.000000	98.668280 
2981.000000	98.666373 
2980.000000	98.664319 
2979.000000	98.664519 
2978.000000	98.666983 
2977.000000	98.669297 
2976.000000	98.668564 
2975.000000	98.663835 
2974.000000	98.656936 
2973.000000	98.651308 
2972.000000	98.650065 
2971.000000	98.654505 
2970.000000	98.663646 
2969.000000	98.675123 
2968.000000	98.687140 
2967.000000	98.699775 
2966.000000	98.714145 
2965.000000	98.730372 
2964.000000	98.746862 
2963.000000	98.761579 
2962.000000	98.773583 
2961.000000	98.783199 
2960.000000	98.791164 
2959.000000	98.798046 
2958.000000	98.804390 
2957.000000	98.811067 
2956.000000	98.819116 
2955.000000	98.829036 
2954.000000	98.840300 
2953.000000	98.851947 
2952.000000	98.863651 
2951.000000	98.875618 
2950.000000	98.887249 
2949.000000	98.896641 
2948.000000	98.902107 
2947.000000	98.903872 
2946.000000	98.903953 
2945.000000	98.904786 
2944.000000	98.908067 
2943.000000	98.914088 
2942.000000	98.921248 
2941.000000	98.926756 
2940.000000	98.929014 
2939.000000	98.929531 
2938.000000	98.931628 
2937.000000	98.937097 
2936.000000	98.944835 
2935.000000	98.952494 
2934.000000	98.958375 
2933.000000	98.961654 
2932.000000	98.962021 
2931.000000	98.959802 
2930.000000	98.956019 
2929.000000	98.951974 
2928.000000	98.948743 
2927.000000	98.946744 
2926.000000	98.945289 
2925.000000	98.942898 
2924.000000	98.938793 
2923.000000	98.933888 
2922.000000	98.929555 
2921.000000	98.925696 
2920.000000	98.921065 
2919.000000	98.915318 
2918.000000	98.909515 
2917.000000	98.904288 
2916.000000	98.898528 
2915.000000	98.890488 
2914.000000	98.879775 
2913.000000	98.867990 
2912.000000	98.857841 
2911.000000	98.851459 
2910.000000	98.848769 
2909.000000	98.847338 
2908.000000	98.844458 
2907.000000	98.839463 
2906.000000	98.833185 
2905.000000	98.825274 
2904.000000	98.813877 
2903.000000	98.798923 
2902.000000	98.785377 
2901.000000	98.780744 
2900.000000	98.789440 
2899.000000	98.809247 
2898.000000	98.832208 
2897.000000	98.849633 
2896.000000	98.857506 
2895.000000	98.858243 
2894.000000	98.857633 
2893.000000	98.859868 
2892.000000	98.865253 
2891.000000	98.871791 
2890.000000	98.877740 
2889.000000	98.882308 
2888.000000	98.885214 
2887.000000	98.886881 
2886.000000	98.888790 
2885.000000	98.892649 
2884.000000	98.899107 
2883.000000	98.907735 
2882.000000	98.918061 
2881.000000	98.929995 
2880.000000	98.943252 
2879.000000	98.956946 
2878.000000	98.969956 
2877.000000	98.981617 
2876.000000	98.992074 
2875.000000	99.002132 
2874.000000	99.012542 
2873.000000	99.023171 
2872.000000	99.032943 
2871.000000	99.040769 
2870.000000	99.046496 
2869.000000	99.051104 
2868.000000	99.056394 
2867.000000	99.064395 
2866.000000	99.076173 
2865.000000	99.090700 
2864.000000	99.105393 
2863.000000	99.118401 
2862.000000	99.130043 
2861.000000	99.141620 
2860.000000	99.153471 
2859.000000	99.165001 
2858.000000	99.175990 
2857.000000	99.186782 
2856.000000	99.197237 
2855.000000	99.206534 
2854.000000	99.214358 
2853.000000	99.221573 
2852.000000	99.229188 
2851.000000	99.237178 
2850.000000	99.244885 
2849.000000	99.252082 
2848.000000	99.259059 
2847.000000	99.265914 
2846.000000	99.272265 
2845.000000	99.277572 
2844.000000	99.281351 
2843.000000	99.283197 
2842.000000	99.283232 
2841.000000	99.282899 
2840.000000	99.284755 
2839.000000	99.290592 
2838.000000	99.299501 
2837.000000	99.308230 
2836.000000	99.313910 
2835.000000	99.316299 
2834.000000	99.317311 
2833.000000	99.318821 
2832.000000	99.321287 
2831.000000	99.324119 
2830.000000	99.326455 
2829.000000	99.327535 
2828.000000	99.327135 
2827.000000	99.326140 
2826.000000	99.326238 
2825.000000	99.328536 
2824.000000	99.332539 
2823.000000	99.336632 
2822.000000	99.339395 
2821.000000	99.340432 
2820.000000	99.340398 
2819.000000	99.340538 
2818.000000	99.341878 
2817.000000	99.344498 
2816.000000	99.347580 
2815.000000	99.350204 
2814.000000	99.351899 
2813.000000	99.352542 
2812.000000	99.352300 
2811.000000	99.351964 
2810.000000	99.352817 
2809.000000	99.355479 
2808.000000	99.358930 
2807.000000	99.361150 
2806.000000	99.360924 
2805.000000	99.358885 
2804.000000	99.356885 
2803.000000	99.356432 
2802.000000	99.357674 
2801.000000	99.359672 
2800.000000	99.361417 
2799.000000	99.362583 
2798.000000	99.363375 
2797.000000	99.363882 
2796.000000	99.363867 
2795.000000	99.363229 
2794.000000	99.362436 
2793.000000	99.362279 
2792.000000	99.363173 
2791.000000	99.364778 
2790.000000	99.366315 
2789.000000	99.367242 
2788.000000	99.367696 
2787.000000	99.368256 
2786.000000	99.369261 
2785.000000	99.370427 
2784.000000	99.371182 
2783.000000	99.371306 
2782.000000	99.371102 
2781.000000	99.371020 
2780.000000	99.371281 
2779.000000	99.371883 
2778.000000	99.372731 
2777.000000	99.373703 
2776.000000	99.374771 
2775.000000	99.376088 
2774.000000	99.377793 
2773.000000	99.379705 
2772.000000	99.381436 
2771.000000	99.382857 
2770.000000	99.384164 
2769.000000	99.385349 
2768.000000	99.385970 
2767.000000	99.385728 
2766.000000	99.385004 
2765.000000	99.384440 
2764.000000	99.384107 
2763.000000	99.383504 
2762.000000	99.382388 
2761.000000	99.381229 
2760.000000	99.380725 
2759.000000	99.381090 
2758.000000	99.382053 
2757.000000	99.383345 
2756.000000	99.384880 
2755.000000	99.386469 
2754.000000	99.387647 
2753.000000	99.388044 
2752.000000	99.387844 
2751.000000	99.387723 
2750.000000	99.388224 
2749.000000	99.389284 
2748.000000	99.390388 
2747.000000	99.391098 
2746.000000	99.391358 
2745.000000	99.391362 
2744.000000	99.391293 
2743.000000	99.391215 
2742.000000	99.391146 
2741.000000	99.391167 
2740.000000	99.391421 
2739.000000	99.391998 
2738.000000	99.392843 
2737.000000	99.393813 
2736.000000	99.394773 
2735.000000	99.395610 
2734.000000	99.396186 
2733.000000	99.396407 
2732.000000	99.396353 
2731.000000	99.396279 
2730.000000	99.396432 
2729.000000	99.396856 
2728.000000	99.397438 
2727.000000	99.398055 
2726.000000	99.398642 
2725.000000	99.399183 
2724.000000	99.399688 
2723.000000	99.400199 
2722.000000	99.400757 
2721.000000	99.401353 
2720.000000	99.401927 
2719.000000	99.402422 
2718.000000	99.402840 
2717.000000	99.403223 
2716.000000	99.403612 
2715.000000	99.404026 
2714.000000	99.404465 
2713.000000	99.404919 
2712.000000	99.405370 
2711.000000	99.405810 
2710.000000	99.406243 
2709.000000	99.406683 
2708.000000	99.407130 
2707.000000	99.407575 
2706.000000	99.408006 
2705.000000	99.408419 
2704.000000	99.408820 
2703.000000	99.409221 
2702.000000	99.409637 
2701.000000	99.410061 
2700.000000	99.410470 
2699.000000	99.410856 
2698.000000	99.411245 
2697.000000	99.411676 
2696.000000	99.412156 
2695.000000	99.412641 
2694.000000	99.413070 
2693.000000	99.413428 
2692.000000	99.413762 
2691.000000	99.414130 
2690.000000	99.414522 
2689.000000	99.414876 
2688.000000	99.415149 
2687.000000	99.415390 
2686.000000	99.415698 
2685.000000	99.416135 
2684.000000	99.416696 
2683.000000	99.417314 
2682.000000	99.417873 
2681.000000	99.418239 
2680.000000	99.418347 
2679.000000	99.418288 
2678.000000	99.418288 
2677.000000	99.418547 
2676.000000	99.419120 
2675.000000	99.419931 
2674.000000	99.420823 
2673.000000	99.421615 
2672.000000	99.422176 
2671.000000	99.422502 
2670.000000	99.422708 
2669.000000	99.422911 
2668.000000	99.423134 
2667.000000	99.423352 
2666.000000	99.423593 
2665.000000	99.423925 
2664.000000	99.424379 
2663.000000	99.424929 
2662.000000	99.425553 
2661.000000	99.426275 
2660.000000	99.427110 
2659.000000	99.427983 
2658.000000	99.428744 
2657.000000	99.429303 
2656.000000	99.429728 
2655.000000	99.430171 
2654.000000	99.430688 
2653.000000	99.431193 
2652.000000	99.431618 
2651.000000	99.432030 
2650.000000	99.432535 
2649.000000	99.433118 
2648.000000	99.433659 
2647.000000	99.434095 
2646.000000	99.434506 
2645.000000	99.435017 
2644.000000	99.435651 
2643.000000	99.436305 
2642.000000	99.436839 
2641.000000	99.437201 
2640.000000	99.437456 
2639.000000	99.437766 
2638.000000	99.438262 
2637.000000	99.438915 
2636.000000	99.439524 
2635.000000	99.439908 
2634.000000	99.440079 
2633.000000	99.440223 
2632.000000	99.440552 
2631.000000	99.441174 
2630.000000	99.442023 
2629.000000	99.442819 
2628.000000	99.443234 
2627.000000	99.443215 
2626.000000	99.443093 
2625.000000	99.443200 
2624.000000	99.443438 
2623.000000	99.443420 
2622.000000	99.443032 
2621.000000	99.442637 
2620.000000	99.442670 
2619.000000	99.443196 
2618.000000	99.443941 
2617.000000	99.444599 
2616.000000	99.445063 
2615.000000	99.445453 
2614.000000	99.445968 
2613.000000	99.446678 
2612.000000	99.447471 
2611.000000	99.448244 
2610.000000	99.449013 
2609.000000	99.449735 
2608.000000	99.450174 
2607.000000	99.450152 
2606.000000	99.449892 
2605.000000	99.449905 
2604.000000	99.450543 
2603.000000	99.451750 
2602.000000	99.453134 
2601.000000	99.454232 
2600.000000	99.454776 
2599.000000	99.454795 
2598.000000	99.454411 
2597.000000	99.453448 
2596.000000	99.451554 
2595.000000	99.448900 
2594.000000	99.446419 
2593.000000	99.445037 
2592.000000	99.444863 
2591.000000	99.445344 
2590.000000	99.446036 
2589.000000	99.446977 
2588.000000	99.448288 
2587.000000	99.449653 
2586.000000	99.450359 
2585.000000	99.449900 
2584.000000	99.448483 
2583.000000	99.446949 
2582.000000	99.446127 
2581.000000	99.446206 
2580.000000	99.446722 
2579.000000	99.447012 
2578.000000	99.446634 
2577.000000	99.445462 
2576.000000	99.443683 
2575.000000	99.441774 
2574.000000	99.440298 
2573.000000	99.439601 
2572.000000	99.439706 
2571.000000	99.440445 
2570.000000	99.441498 
2569.000000	99.442395 
2568.000000	99.442759 
2567.000000	99.442582 
2566.000000	99.442155 
2565.000000	99.441757 
2564.000000	99.441575 
2563.000000	99.441753 
2562.000000	99.442175 
2561.000000	99.442224 
2560.000000	99.441217 
2559.000000	99.439174 
2558.000000	99.436927 
2557.000000	99.435414 
2556.000000	99.435064 
2555.000000	99.435883 
2554.000000	99.437641 
2553.000000	99.439750 
2552.000000	99.441384 
2551.000000	99.442115 
2550.000000	99.442172 
2549.000000	99.441882 
2548.000000	99.441091 
2547.000000	99.439500 
2546.000000	99.437334 
2545.000000	99.435293 
2544.000000	99.433914 
2543.000000	99.433291 
2542.000000	99.433147 
2541.000000	99.432973 
2540.000000	99.432378 
2539.000000	99.431476 
2538.000000	99.430706 
2537.000000	99.430140 
2536.000000	99.429376 
2535.000000	99.428330 
2534.000000	99.427656 
2533.000000	99.427892 
2532.000000	99.428571 
2531.000000	99.428692 
2530.000000	99.427997 
2529.000000	99.427206 
2528.000000	99.427005 
2527.000000	99.427230 
2526.000000	99.427202 
2525.000000	99.426621 
2524.000000	99.425886 
2523.000000	99.425608 
2522.000000	99.426032 
2521.000000	99.426938 
2520.000000	99.427852 
2519.000000	99.428299 
2518.000000	99.428019 
2517.000000	99.427122 
2516.000000	99.426091 
2515.000000	99.425462 
2514.000000	99.425427 
2513.000000	99.425781 
2512.000000	99.426269 
2511.000000	99.426870 
2510.000000	99.427649 
2509.000000	99.428524 
2508.000000	99.429375 
2507.000000	99.430257 
2506.000000	99.431225 
2505.000000	99.431973 
2504.000000	99.431961 
2503.000000	99.431022 
2502.000000	99.429681 
2501.000000	99.428793 
2500.000000	99.428815 
2499.000000	99.429622 
2498.000000	99.430807 
2497.000000	99.431962 
2496.000000	99.432781 
2495.000000	99.433089 
2494.000000	99.432924 
2493.000000	99.432535 
2492.000000	99.432246 
2491.000000	99.432286 
2490.000000	99.432759 
2489.000000	99.433675 
2488.000000	99.434979 
2487.000000	99.436482 
2486.000000	99.437737 
2485.000000	99.438133 
2484.000000	99.437385 
2483.000000	99.435907 
2482.000000	99.434583 
2481.000000	99.433913 
2480.000000	99.433636 
2479.000000	99.433257 
2478.000000	99.432674 
2477.000000	99.432183 
2476.000000	99.432022 
2475.000000	99.432167 
2474.000000	99.432489 
2473.000000	99.432835 
2472.000000	99.432991 
2471.000000	99.432810 
2470.000000	99.432401 
2469.000000	99.432060 
2468.000000	99.431943 
2467.000000	99.431916 
2466.000000	99.431749 
2465.000000	99.431391 
2464.000000	99.430981 
2463.000000	99.430669 
2462.000000	99.430509 
2461.000000	99.430480 
2460.000000	99.430498 
2459.000000	99.430449 
2458.000000	99.430251 
2457.000000	99.429926 
2456.000000	99.429577 
2455.000000	99.429288 
2454.000000	99.429069 
2453.000000	99.428883 
2452.000000	99.428683 
2451.000000	99.428427 
2450.000000	99.428096 
2449.000000	99.427707 
2448.000000	99.427325 
2447.000000	99.427020 
2446.000000	99.426807 
2445.000000	99.426632 
2444.000000	99.426435 
2443.000000	99.426195 
2442.000000	99.425917 
2441.000000	99.425605 
2440.000000	99.425278 
2439.000000	99.424996 
2438.000000	99.424832 
2437.000000	99.424791 
2436.000000	99.424769 
2435.000000	99.424640 
2434.000000	99.424370 
2433.000000	99.424057 
2432.000000	99.423873 
2431.000000	99.423956 
2430.000000	99.424310 
2429.000000	99.424692 
2428.000000	99.424710 
2427.000000	99.424143 
2426.000000	99.423168 
2425.000000	99.422264 
2424.000000	99.421783 
2423.000000	99.421761 
2422.000000	99.422090 
2421.000000	99.422662 
2420.000000	99.423224 
2419.000000	99.423264 
2418.000000	99.422392 
2417.000000	99.420795 
2416.000000	99.419167 
2415.000000	99.418036 
2414.000000	99.417334 
2413.000000	99.416718 
2412.000000	99.416077 
2411.000000	99.415520 
2410.000000	99.415043 
2409.000000	99.414516 
2408.000000	99.413973 
2407.000000	99.413630 
2406.000000	99.413578 
2405.000000	99.413700 
2404.000000	99.413958 
2403.000000	99.414442 
2402.000000	99.415022 
2401.000000	99.415212 
2400.000000	99.414620 
2399.000000	99.413372 
2398.000000	99.411966 
2397.000000	99.410838 
2396.000000	99.410187 
2395.000000	99.410020 
2394.000000	99.410099 
2393.000000	99.409994 
2392.000000	99.409471 
2391.000000	99.408770 
2390.000000	99.408279 
2389.000000	99.408083 
2388.000000	99.408063 
2387.000000	99.408285 
2386.000000	99.408912 
2385.000000	99.409765 
2384.000000	99.410360 
2383.000000	99.410479 
2382.000000	99.410359 
2381.000000	99.410277 
2380.000000	99.410195 
2379.000000	99.409985 
2378.000000	99.409791 
2377.000000	99.409912 
2376.000000	99.410436 
2375.000000	99.411146 
2374.000000	99.411709 
2373.000000	99.411943 
2372.000000	99.411890 
2371.000000	99.411755 
2370.000000	99.411760 
2369.000000	99.411998 
2368.000000	99.412406 
2367.000000	99.412894 
2366.000000	99.413432 
2365.000000	99.414045 
2364.000000	99.414747 
2363.000000	99.415476 
2362.000000	99.416099 
2361.000000	99.416518 
2360.000000	99.416770 
2359.000000	99.416999 
2358.000000	99.417330 
2357.000000	99.417790 
2356.000000	99.418393 
2355.000000	99.419178 
2354.000000	99.420078 
2353.000000	99.420914 
2352.000000	99.421592 
2351.000000	99.422202 
2350.000000	99.422879 
2349.000000	99.423616 
2348.000000	99.424339 
2347.000000	99.425013 
2346.000000	99.425679 
2345.000000	99.426392 
2344.000000	99.427149 
2343.000000	99.427924 
2342.000000	99.428646 
2341.000000	99.429266 
2340.000000	99.429823 
2339.000000	99.430485 
2338.000000	99.431393 
2337.000000	99.432447 
2336.000000	99.433331 
2335.000000	99.433874 
2334.000000	99.434272 
2333.000000	99.434869 
2332.000000	99.435753 
2331.000000	99.436700 
2330.000000	99.437497 
2329.000000	99.438178 
2328.000000	99.439053 
2327.000000	99.440376 
2326.000000	99.442100 
2325.000000	99.443754 
2324.000000	99.444757 
2323.000000	99.445026 
2322.000000	99.445063 
2321.000000	99.445402 
2320.000000	99.445892 
2319.000000	99.446019 
2318.000000	99.445652 
2317.000000	99.445245 
2316.000000	99.445332 
2315.000000	99.446017 
2314.000000	99.447069 
2313.000000	99.448227 
2312.000000	99.449379 
2311.000000	99.450416 
2310.000000	99.451157 
2309.000000	99.451475 
2308.000000	99.451486 
2307.000000	99.451541 
2306.000000	99.451957 
2305.000000	99.452767 
2304.000000	99.453744 
2303.000000	99.454639 
2302.000000	99.455351 
2301.000000	99.455942 
2300.000000	99.456592 
2299.000000	99.457483 
2298.000000	99.458534 
2297.000000	99.459265 
2296.000000	99.459221 
2295.000000	99.458502 
2294.000000	99.457800 
2293.000000	99.457746 
2292.000000	99.458386 
2291.000000	99.459364 
2290.000000	99.460310 
2289.000000	99.460975 
2288.000000	99.461184 
2287.000000	99.460931 
2286.000000	99.460462 
2285.000000	99.460009 
2284.000000	99.459569 
2283.000000	99.459122 
2282.000000	99.458918 
2281.000000	99.459236 
2280.000000	99.459957 
2279.000000	99.460636 
2278.000000	99.460980 
2277.000000	99.461094 
2276.000000	99.461208 
2275.000000	99.461390 
2274.000000	99.461601 
2273.000000	99.461816 
2272.000000	99.461984 
2271.000000	99.462052 
2270.000000	99.462082 
2269.000000	99.462204 
2268.000000	99.462404 
2267.000000	99.462498 
2266.000000	99.462381 
2265.000000	99.462164 
2264.000000	99.461986 
2263.000000	99.461815 
2262.000000	99.461549 
2261.000000	99.461264 
2260.000000	99.461220 
2259.000000	99.461579 
2258.000000	99.462210 
2257.000000	99.462848 
2256.000000	99.463287 
2255.000000	99.463491 
2254.000000	99.463542 
2253.000000	99.463544 
2252.000000	99.463591 
2251.000000	99.463710 
2250.000000	99.463861 
2249.000000	99.463987 
2248.000000	99.464076 
2247.000000	99.464159 
2246.000000	99.464264 
2245.000000	99.464398 
2244.000000	99.464553 
2243.000000	99.464730 
2242.000000	99.464932 
2241.000000	99.465155 
2240.000000	99.465388 
2239.000000	99.465615 
2238.000000	99.465818 
2237.000000	99.465985 
2236.000000	99.466107 
2235.000000	99.466190 
2234.000000	99.466251 
2233.000000	99.466311 
2232.000000	99.466378 
2231.000000	99.466448 
2230.000000	99.466514 
2229.000000	99.466576 
2228.000000	99.466637 
2227.000000	99.466702 
2226.000000	99.466770 
2225.000000	99.466835 
2224.000000	99.466889 
2223.000000	99.466929 
2222.000000	99.466949 
2221.000000	99.466948 
2220.000000	99.466922 
2219.000000	99.466876 
2218.000000	99.466821 
2217.000000	99.466768 
2216.000000	99.466720 
2215.000000	99.466669 
2214.000000	99.466604 
2213.000000	99.466531 
2212.000000	99.466467 
2211.000000	99.466433 
2210.000000	99.466441 
2209.000000	99.466490 
2208.000000	99.466570 
2207.000000	99.466667 
2206.000000	99.466771 
2205.000000	99.466890 
2204.000000	99.467027 
2203.000000	99.467158 
2202.000000	99.467513 
2201.000000	99.468311 
2200.000000	99.469158 
2199.000000	99.469378 
2198.000000	99.468778 
2197.000000	99.467805 
2196.000000	99.466997 
2195.000000	99.466634 
2194.000000	99.466853 
2193.000000	99.467573 
2192.000000	99.468211 
2191.000000	99.468050 
2190.000000	99.467283 
2189.000000	99.467262 
2188.000000	99.468961 
2187.000000	99.471240 
2186.000000	99.471398 
2185.000000	99.468000 
2184.000000	99.462666 
2183.000000	99.458557 
2182.000000	99.457135 
2181.000000	99.457394 
2180.000000	99.458009 
2179.000000	99.458976 
2178.000000	99.460602 
2177.000000	99.462198 
2176.000000	99.462876 
2175.000000	99.462824 
2174.000000	99.462684 
2173.000000	99.462520 
2172.000000	99.462745 
2171.000000	99.465151 
2170.000000	99.471089 
2169.000000	99.478776 
2168.000000	99.484283 
2167.000000	99.485689 
2166.000000	99.484612 
2165.000000	99.483605 
2164.000000	99.483751 
2163.000000	99.485226 
2162.000000	99.487733 
2161.000000	99.488855 
2160.000000	99.484350 
2159.000000	99.472478 
2158.000000	99.456963 
2157.000000	99.443927 
2156.000000	99.436398 
2155.000000	99.434054 
2154.000000	99.436179 
2153.000000	99.442043 
2152.000000	99.449287 
2151.000000	99.454272 
2150.000000	99.454872 
2149.000000	99.452281 
2148.000000	99.449961 
2147.000000	99.450679 
2146.000000	99.454167 
2145.000000	99.457286 
2144.000000	99.456885 
2143.000000	99.452794 
2142.000000	99.447808 
2141.000000	99.444613 
2140.000000	99.443245 
2139.000000	99.442090 
2138.000000	99.440517 
2137.000000	99.439416 
2136.000000	99.439294 
2135.000000	99.439091 
2134.000000	99.437575 
2133.000000	99.435325 
2132.000000	99.434344 
2131.000000	99.435556 
2130.000000	99.437386 
2129.000000	99.437302 
2128.000000	99.434694 
2127.000000	99.431645 
2126.000000	99.430653 
2125.000000	99.432215 
2124.000000	99.434995 
2123.000000	99.437686 
2122.000000	99.439924 
2121.000000	99.441655 
2120.000000	99.442750 
2119.000000	99.443406 
2118.000000	99.444228 
2117.000000	99.445576 
2116.000000	99.447216 
2115.000000	99.448862 
2114.000000	99.450530 
2113.000000	99.451997 
2112.000000	99.452537 
2111.000000	99.451755 
2110.000000	99.450407 
2109.000000	99.449822 
2108.000000	99.450368 
2107.000000	99.450966 
2106.000000	99.450343 
2105.000000	99.448508 
2104.000000	99.446893 
2103.000000	99.447076 
2102.000000	99.449301 
2101.000000	99.452163 
2100.000000	99.453822 
2099.000000	99.453619 
2098.000000	99.452442 
2097.000000	99.451692 
2096.000000	99.452048 
2095.000000	99.453264 
2094.000000	99.454789 
2093.000000	99.456221 
2092.000000	99.457340 
2091.000000	99.458078 
2090.000000	99.458608 
2089.000000	99.459253 
2088.000000	99.460070 
2087.000000	99.460505 
2086.000000	99.459733 
2085.000000	99.457720 
2084.000000	99.455865 
2083.000000	99.456104 
2082.000000	99.459010 
2081.000000	99.463176 
2080.000000	99.466672 
2079.000000	99.468971 
2078.000000	99.471043 
2077.000000	99.473782 
2076.000000	99.476809 
2075.000000	99.478751 
2074.000000	99.478293 
2073.000000	99.475119 
2072.000000	99.470502 
2071.000000	99.466634 
2070.000000	99.464862 
2069.000000	99.464716 
2068.000000	99.464789 
2067.000000	99.464396 
2066.000000	99.463903 
2065.000000	99.463920 
2064.000000	99.464930 
2063.000000	99.467282 
2062.000000	99.470581 
2061.000000	99.473302 
2060.000000	99.474080 
2059.000000	99.473243 
2058.000000	99.472425 
2057.000000	99.472717 
2056.000000	99.473740 
2055.000000	99.474647 
2054.000000	99.475272 
2053.000000	99.475954 
2052.000000	99.476761 
2051.000000	99.477346 
2050.000000	99.477364 
2049.000000	99.476801 
2048.000000	99.476001 
2047.000000	99.475489 
2046.000000	99.475527 
2045.000000	99.475817 
2044.000000	99.475744 
2043.000000	99.475074 
2042.000000	99.474157 
2041.000000	99.473487 
2040.000000	99.473139 
2039.000000	99.472857 
2038.000000	99.472398 
2037.000000	99.471727 
2036.000000	99.470938 
2035.000000	99.470112 
2034.000000	99.469267 
2033.000000	99.468424 
2032.000000	99.467631 
2031.000000	99.466934 
2030.000000	99.466324 
2029.000000	99.465753 
2028.000000	99.465147 
2027.000000	99.464477 
2026.000000	99.463765 
2025.000000	99.463051 
2024.000000	99.462372 
2023.000000	99.461752 
2022.000000	99.461208 
2021.000000	99.460728 
2020.000000	99.460226 
2019.000000	99.459593 
2018.000000	99.458824 
2017.000000	99.458036 
2016.000000	99.457268 
2015.000000	99.456442 
2014.000000	99.455620 
2013.000000	99.455025 
2012.000000	99.454681 
2011.000000	99.454291 
2010.000000	99.453672 
2009.000000	99.453081 
2008.000000	99.452915 
2007.000000	99.453231 
2006.000000	99.453729 
2005.000000	99.454100 
2004.000000	99.454255 
2003.000000	99.454280 
2002.000000	99.454207 
2001.000000	99.453717 
2000.000000	99.452263 
1999.000000	99.449710 
1998.000000	99.446815 
1997.000000	99.444776 
1996.000000	99.444235 
1995.000000	99.445123 
1994.000000	99.447078 
1993.000000	99.449414 
1992.000000	99.450848 
1991.000000	99.450101 
1990.000000	99.447154 
1989.000000	99.443603 
1988.000000	99.441548 
1987.000000	99.442282 
1986.000000	99.445891 
1985.000000	99.451411 
1984.000000	99.457047 
1983.000000	99.460931 
1982.000000	99.461873 
1981.000000	99.459530 
1980.000000	99.454679 
1979.000000	99.449476 
1978.000000	99.446275 
1977.000000	99.445184 
1976.000000	99.443621 
1975.000000	99.439631 
1974.000000	99.434883 
1973.000000	99.432824 
1972.000000	99.434319 
1971.000000	99.436797 
1970.000000	99.437723 
1969.000000	99.437583 
1968.000000	99.438732 
1967.000000	99.442244 
1966.000000	99.446850 
1965.000000	99.450587 
1964.000000	99.452481 
1963.000000	99.452499 
1962.000000	99.450704 
1961.000000	99.447121 
1960.000000	99.442311 
1959.000000	99.437399 
1958.000000	99.433103 
1957.000000	99.429018 
1956.000000	99.424291 
1955.000000	99.418812 
1954.000000	99.413139 
1953.000000	99.407536 
1952.000000	99.402058 
1951.000000	99.397732 
1950.000000	99.396446 
1949.000000	99.398740 
1948.000000	99.402477 
1947.000000	99.404753 
1946.000000	99.404458 
1945.000000	99.402161 
1944.000000	99.398749 
1943.000000	99.395257 
1942.000000	99.392975 
1941.000000	99.392135 
1940.000000	99.391381 
1939.000000	99.389680 
1938.000000	99.387943 
1937.000000	99.387915 
1936.000000	99.389934 
1935.000000	99.392380 
1934.000000	99.393231 
1933.000000	99.391828 
1932.000000	99.389176 
1931.000000	99.387176 
1930.000000	99.387495 
1929.000000	99.390222 
1928.000000	99.393660 
1927.000000	99.395847 
1926.000000	99.396064 
1925.000000	99.394738 
1924.000000	99.392660 
1923.000000	99.390794 
1922.000000	99.390114 
1921.000000	99.390804 
1920.000000	99.392019 
1919.000000	99.392689 
1918.000000	99.392473 
1917.000000	99.391852 
1916.000000	99.391452 
1915.000000	99.391536 
1914.000000	99.392081 
1913.000000	99.392886 
1912.000000	99.393589 
1911.000000	99.393859 
1910.000000	99.393662 
1909.000000	99.393240 
1908.000000	99.392870 
1907.000000	99.392698 
1906.000000	99.392742 
1905.000000	99.392909 
1904.000000	99.392990 
1903.000000	99.392796 
1902.000000	99.392320 
1901.000000	99.391734 
1900.000000	99.391275 
1899.000000	99.391131 
1898.000000	99.391347 
1897.000000	99.391751 
1896.000000	99.392039 
1895.000000	99.392069 
1894.000000	99.392034 
1893.000000	99.392244 
1892.000000	99.392751 
1891.000000	99.393276 
1890.000000	99.393509 
1889.000000	99.393450 
1888.000000	99.393357 
1887.000000	99.393458 
1886.000000	99.393792 
1885.000000	99.394198 
1884.000000	99.394404 
1883.000000	99.394238 
1882.000000	99.393795 
1881.000000	99.393327 
1880.000000	99.393062 
1879.000000	99.393099 
1878.000000	99.393301 
1877.000000	99.393296 
1876.000000	99.392876 
1875.000000	99.392502 
1874.000000	99.393043 
1873.000000	99.394716 
1872.000000	99.396479 
1871.000000	99.396945 
1870.000000	99.395781 
1869.000000	99.393951 
1868.000000	99.392380 
1867.000000	99.390920 
1866.000000	99.389295 
1865.000000	99.387912 
1864.000000	99.387541 
1863.000000	99.388775 
1862.000000	99.391658 
1861.000000	99.395353 
1860.000000	99.398319 
1859.000000	99.399613 
1858.000000	99.399876 
1857.000000	99.400442 
1856.000000	99.401741 
1855.000000	99.403229 
1854.000000	99.404448 
1853.000000	99.405257 
1852.000000	99.405382 
1851.000000	99.404523 
1850.000000	99.402892 
1849.000000	99.401235 
1848.000000	99.400142 
1847.000000	99.399775 
1846.000000	99.400178 
1845.000000	99.400966 
1844.000000	99.400884 
1843.000000	99.399288 
1842.000000	99.397490 
1841.000000	99.397190 
1840.000000	99.398888 
1839.000000	99.401925 
1838.000000	99.405205 
1837.000000	99.407901 
1836.000000	99.409635 
1835.000000	99.410565 
1834.000000	99.411218 
1833.000000	99.412026 
1832.000000	99.413064 
1831.000000	99.413895 
1830.000000	99.413909 
1829.000000	99.413308 
1828.000000	99.412989 
1827.000000	99.413122 
1826.000000	99.413071 
1825.000000	99.412697 
1824.000000	99.412606 
1823.000000	99.413101 
1822.000000	99.413635 
1821.000000	99.413183 
1820.000000	99.411038 
1819.000000	99.407576 
1818.000000	99.404476 
1817.000000	99.403495 
1816.000000	99.404538 
1815.000000	99.405985 
1814.000000	99.406975 
1813.000000	99.408320 
1812.000000	99.411121 
1811.000000	99.415088 
1810.000000	99.419242 
1809.000000	99.423140 
1808.000000	99.426046 
1807.000000	99.426623 
1806.000000	99.424534 
1805.000000	99.421276 
1804.000000	99.418762 
1803.000000	99.417475 
1802.000000	99.416868 
1801.000000	99.416843 
1800.000000	99.417423 
1799.000000	99.417989 
1798.000000	99.418255 
1797.000000	99.418723 
1796.000000	99.419829 
1795.000000	99.421472 
1794.000000	99.423113 
1793.000000	99.424069 
1792.000000	99.424083 
1791.000000	99.423629 
1790.000000	99.423517 
1789.000000	99.424175 
1788.000000	99.425461 
1787.000000	99.426891 
1786.000000	99.428010 
1785.000000	99.428571 
1784.000000	99.428472 
1783.000000	99.427975 
1782.000000	99.427631 
1781.000000	99.427646 
1780.000000	99.427528 
1779.000000	99.426746 
1778.000000	99.425717 
1777.000000	99.425342 
1776.000000	99.425965 
1775.000000	99.427476 
1774.000000	99.429661 
1773.000000	99.432088 
1772.000000	99.433808 
1771.000000	99.434208 
1770.000000	99.433694 
1769.000000	99.432966 
1768.000000	99.432559 
1767.000000	99.432654 
1766.000000	99.433075 
1765.000000	99.433645 
1764.000000	99.434272 
1763.000000	99.434835 
1762.000000	99.435264 
1761.000000	99.435796 
1760.000000	99.436727 
1759.000000	99.437887 
1758.000000	99.438877 
1757.000000	99.439451 
1756.000000	99.439795 
1755.000000	99.440268 
1754.000000	99.440866 
1753.000000	99.441322 
1752.000000	99.441726 
1751.000000	99.442740 
1750.000000	99.444621 
1749.000000	99.446685 
1748.000000	99.448221 
1747.000000	99.449084 
1746.000000	99.449325 
1745.000000	99.449112 
1744.000000	99.448910 
1743.000000	99.449055 
1742.000000	99.449411 
1741.000000	99.449681 
1740.000000	99.449740 
1739.000000	99.449706 
1738.000000	99.449735 
1737.000000	99.449769 
1736.000000	99.449572 
1735.000000	99.448989 
1734.000000	99.448260 
1733.000000	99.448031 
1732.000000	99.448541 
1731.000000	99.449442 
1730.000000	99.450304 
1729.000000	99.450848 
1728.000000	99.451096 
1727.000000	99.451250 
1726.000000	99.451442 
1725.000000	99.451636 
1724.000000	99.451768 
1723.000000	99.451870 
1722.000000	99.452051 
1721.000000	99.452367 
1720.000000	99.452782 
1719.000000	99.453171 
1718.000000	99.453348 
1717.000000	99.453262 
1716.000000	99.453036 
1715.000000	99.452809 
1714.000000	99.452671 
1713.000000	99.452634 
1712.000000	99.452643 
1711.000000	99.452651 
1710.000000	99.452657 
1709.000000	99.452674 
1708.000000	99.452703 
1707.000000	99.452736 
1706.000000	99.452771 
1705.000000	99.452805 
1704.000000	99.452833 
1703.000000	99.452863 
1702.000000	99.452906 
1701.000000	99.452986 
1700.000000	99.453121 
1699.000000	99.453318 
1698.000000	99.453563 
1697.000000	99.453835 
1696.000000	99.454120 
1695.000000	99.454410 
1694.000000	99.454703 
1693.000000	99.455000 
1692.000000	99.455293 
1691.000000	99.455571 
1690.000000	99.455826 
1689.000000	99.456061 
1688.000000	99.456284 
1687.000000	99.456495 
1686.000000	99.456698 
1685.000000	99.456919 
1684.000000	99.457167 
1683.000000	99.457423 
1682.000000	99.457707 
1681.000000	99.458003 
1680.000000	99.458294 
1679.000000	99.458596 
1678.000000	99.458917 
1677.000000	99.459234 
1676.000000	99.459528 
1675.000000	99.459832 
1674.000000	99.460199 
1673.000000	99.460639 
1672.000000	99.461108 
1671.000000	99.461580 
1670.000000	99.462034 
1669.000000	99.462420 
1668.000000	99.462827 
1667.000000	99.463384 
1666.000000	99.463921 
1665.000000	99.464177 
1664.000000	99.464175 
1663.000000	99.464305 
1662.000000	99.464952 
1661.000000	99.466061 
1660.000000	99.467255 
1659.000000	99.468353 
1658.000000	99.469433 
1657.000000	99.470091 
1656.000000	99.469818 
1655.000000	99.468594 
1654.000000	99.467988 
1653.000000	99.468448 
1652.000000	99.468865 
1651.000000	99.469383 
1650.000000	99.469367 
1649.000000	99.468459 
1648.000000	99.467250 
1647.000000	99.466326 
1646.000000	99.466007 
1645.000000	99.466649 
1644.000000	99.468159 
1643.000000	99.469898 
1642.000000	99.471322 
1641.000000	99.472205 
1640.000000	99.472500 
1639.000000	99.472313 
1638.000000	99.471839 
1637.000000	99.471374 
1636.000000	99.470690 
1635.000000	99.469750 
1634.000000	99.469839 
1633.000000	99.471253 
1632.000000	99.472817 
1631.000000	99.473783 
1630.000000	99.474262 
1629.000000	99.474608 
1628.000000	99.474890 
1627.000000	99.475158 
1626.000000	99.475745 
1625.000000	99.477020 
1624.000000	99.479072 
1623.000000	99.481378 
1622.000000	99.483276 
1621.000000	99.484362 
1620.000000	99.484271 
1619.000000	99.483007 
1618.000000	99.481529 
1617.000000	99.480771 
1616.000000	99.480591 
1615.000000	99.480858 
1614.000000	99.481132 
1613.000000	99.480569 
1612.000000	99.479306 
1611.000000	99.478268 
1610.000000	99.477866 
1609.000000	99.477470 
1608.000000	99.476519 
1607.000000	99.475422 
1606.000000	99.474744 
1605.000000	99.474583 
1604.000000	99.475058 
1603.000000	99.476282 
1602.000000	99.477652 
1601.000000	99.478108 
1600.000000	99.477598 
1599.000000	99.477360 
1598.000000	99.478279 
1597.000000	99.480026 
1596.000000	99.481873 
1595.000000	99.483609 
1594.000000	99.485218 
1593.000000	99.486323 
1592.000000	99.486761 
1591.000000	99.487146 
1590.000000	99.488043 
1589.000000	99.488974 
1588.000000	99.489153 
1587.000000	99.488676 
1586.000000	99.488050 
1585.000000	99.487195 
1584.000000	99.485840 
1583.000000	99.484416 
1582.000000	99.483784 
1581.000000	99.484157 
1580.000000	99.484985 
1579.000000	99.485745 
1578.000000	99.486344 
1577.000000	99.486772 
1576.000000	99.486809 
1575.000000	99.486699 
1574.000000	99.486769 
1573.000000	99.486719 
1572.000000	99.486359 
1571.000000	99.485944 
1570.000000	99.485756 
1569.000000	99.485737 
1568.000000	99.485727 
1567.000000	99.485667 
1566.000000	99.485563 
1565.000000	99.485443 
1564.000000	99.485316 
1563.000000	99.485171 
1562.000000	99.485006 
1561.000000	99.484817 
1560.000000	99.484604 
1559.000000	99.484366 
1558.000000	99.484104 
1557.000000	99.483827 
1556.000000	99.483532 
1555.000000	99.483214 
1554.000000	99.482869 
1553.000000	99.482499 
1552.000000	99.482109 
1551.000000	99.481700 
1550.000000	99.481274 
1549.000000	99.480830 
1548.000000	99.480368 
1547.000000	99.479885 
1546.000000	99.479383 
1545.000000	99.478867 
1544.000000	99.478343 
1543.000000	99.477813 
1542.000000	99.477280 
1541.000000	99.476743 
1540.000000	99.476195 
1539.000000	99.475632 
1538.000000	99.475062 
1537.000000	99.474491 
1536.000000	99.473922 
1535.000000	99.473350 
1534.000000	99.472775 
1533.000000	99.472190 
1532.000000	99.471592 
1531.000000	99.470980 
1530.000000	99.470357 
1529.000000	99.469717 
1528.000000	99.469068 
1527.000000	99.468417 
1526.000000	99.467768 
1525.000000	99.467153 
1524.000000	99.466583 
1523.000000	99.466023 
1522.000000	99.465466 
1521.000000	99.464901 
1520.000000	99.464233 
1519.000000	99.463350 
1518.000000	99.462246 
1517.000000	99.461057 
1516.000000	99.459904 
1515.000000	99.458875 
1514.000000	99.458030 
1513.000000	99.457298 
1512.000000	99.456524 
1511.000000	99.455470 
1510.000000	99.454096 
1509.000000	99.452666 
1508.000000	99.452102 
1507.000000	99.452630 
1506.000000	99.452623 
1505.000000	99.451861 
1504.000000	99.451129 
1503.000000	99.450240 
1502.000000	99.448987 
1501.000000	99.447799 
1500.000000	99.447332 
1499.000000	99.447897 
1498.000000	99.448853 
1497.000000	99.449639 
1496.000000	99.450134 
1495.000000	99.449901 
1494.000000	99.448354 
1493.000000	99.445446 
1492.000000	99.441751 
1491.000000	99.438454 
1490.000000	99.436615 
1489.000000	99.436178 
1488.000000	99.435699 
1487.000000	99.434087 
1486.000000	99.432261 
1485.000000	99.431283 
1484.000000	99.430992 
1483.000000	99.430654 
1482.000000	99.429535 
1481.000000	99.427421 
1480.000000	99.424634 
1479.000000	99.421749 
1478.000000	99.419349 
1477.000000	99.417860 
1476.000000	99.417000 
1475.000000	99.415687 
1474.000000	99.413928 
1473.000000	99.413643 
1472.000000	99.415630 
1471.000000	99.417799 
1470.000000	99.418487 
1469.000000	99.418274 
1468.000000	99.418321 
1467.000000	99.419037 
1466.000000	99.420393 
1465.000000	99.422084 
1464.000000	99.423312 
1463.000000	99.423506 
1462.000000	99.423010 
1461.000000	99.422900 
1460.000000	99.423716 
1459.000000	99.424256 
1458.000000	99.420499 
1457.000000	99.409807 
1456.000000	99.397785 
1455.000000	99.390531 
1454.000000	99.387050 
1453.000000	99.385530 
1452.000000	99.385069 
1451.000000	99.385127 
1450.000000	99.385841 
1449.000000	99.388449 
1448.000000	99.393058 
1447.000000	99.397311 
1446.000000	99.399500 
1445.000000	99.400578 
1444.000000	99.401827 
1443.000000	99.402546 
1442.000000	99.401517 
1441.000000	99.399014 
1440.000000	99.396644 
1439.000000	99.395501 
1438.000000	99.394824 
1437.000000	99.393445 
1436.000000	99.391551 
1435.000000	99.389426 
1434.000000	99.386915 
1433.000000	99.384858 
1432.000000	99.384104 
1431.000000	99.384695 
1430.000000	99.385194 
1429.000000	99.384098 
1428.000000	99.381425 
1427.000000	99.377836 
1426.000000	99.373383 
1425.000000	99.367441 
1424.000000	99.360976 
1423.000000	99.355657 
1422.000000	99.350582 
1421.000000	99.343061 
1420.000000	99.332011 
1419.000000	99.319294 
1418.000000	99.306755 
1417.000000	99.294925 
1416.000000	99.284224 
1415.000000	99.274469 
1414.000000	99.264130 
1413.000000	99.251742 
1412.000000	99.238121 
1411.000000	99.225801 
1410.000000	99.215859 
1409.000000	99.208140 
1408.000000	99.203055 
1407.000000	99.200819 
1406.000000	99.200518 
1405.000000	99.201844 
1404.000000	99.206568 
1403.000000	99.214855 
1402.000000	99.223360 
1401.000000	99.229539 
1400.000000	99.234319 
1399.000000	99.238926 
1398.000000	99.239687 
1397.000000	99.230360 
1396.000000	99.210246 
1395.000000	99.189117 
1394.000000	99.180608 
1393.000000	99.189247 
1392.000000	99.209356 
1391.000000	99.232065 
1390.000000	99.250422 
1389.000000	99.260927 
1388.000000	99.263309 
1387.000000	99.260039 
1386.000000	99.254814 
1385.000000	99.250563 
1384.000000	99.248632 
1383.000000	99.248905 
1382.000000	99.250515 
1381.000000	99.253211 
1380.000000	99.257437 
1379.000000	99.263338 
1378.000000	99.270086 
1377.000000	99.276496 
1376.000000	99.282384 
1375.000000	99.289009 
1374.000000	99.297601 
1373.000000	99.307654 
1372.000000	99.317535 
1371.000000	99.326713 
1370.000000	99.336114 
1369.000000	99.346073 
1368.000000	99.356092 
1367.000000	99.365534 
1366.000000	99.373815 
1365.000000	99.380477 
1364.000000	99.385193 
1363.000000	99.388535 
1362.000000	99.392295 
1361.000000	99.397700 
1360.000000	99.404138 
1359.000000	99.410616 
1358.000000	99.417127 
1357.000000	99.424019 
1356.000000	99.430963 
1355.000000	99.437203 
1354.000000	99.442540 
1353.000000	99.447544 
1352.000000	99.451740 
1351.000000	99.453636 
1350.000000	99.453794 
1349.000000	99.454143 
1348.000000	99.455738 
1347.000000	99.458542 
1346.000000	99.462487 
1345.000000	99.467252 
1344.000000	99.471832 
1343.000000	99.475519 
1342.000000	99.478648 
1341.000000	99.481251 
1340.000000	99.481967 
1339.000000	99.479950 
1338.000000	99.476789 
1337.000000	99.475113 
1336.000000	99.475843 
1335.000000	99.477855 
1334.000000	99.480066 
1333.000000	99.482617 
1332.000000	99.485701 
1331.000000	99.488618 
1330.000000	99.490391 
1329.000000	99.490562 
1328.000000	99.489364 
1327.000000	99.487687 
1326.000000	99.486542 
1325.000000	99.485869 
1324.000000	99.485345 
1323.000000	99.485357 
1322.000000	99.486268 
1321.000000	99.487297 
1320.000000	99.487292 
1319.000000	99.486427 
1318.000000	99.485993 
1317.000000	99.486509 
1316.000000	99.486927 
1315.000000	99.486090 
1314.000000	99.484213 
1313.000000	99.482692 
1312.000000	99.482696 
1311.000000	99.484284 
1310.000000	99.486608 
1309.000000	99.488566 
1308.000000	99.489239 
1307.000000	99.488246 
1306.000000	99.486055 
1305.000000	99.483691 
1304.000000	99.482552 
1303.000000	99.483749 
1302.000000	99.487212 
1301.000000	99.491279 
1300.000000	99.493537 
1299.000000	99.492463 
1298.000000	99.488556 
1297.000000	99.484103 
1296.000000	99.481606 
1295.000000	99.482270 
1294.000000	99.485485 
1293.000000	99.489387 
1292.000000	99.491885 
1291.000000	99.491554 
1290.000000	99.488445 
1289.000000	99.484260 
1288.000000	99.481033 
1287.000000	99.479093 
1286.000000	99.476829 
1285.000000	99.473037 
1284.000000	99.468841 
1283.000000	99.466403 
1282.000000	99.466010 
1281.000000	99.465585 
1280.000000	99.463158 
1279.000000	99.458700 
1278.000000	99.453165 
1277.000000	99.447125 
1276.000000	99.440926 
1275.000000	99.435371 
1274.000000	99.431290 
1273.000000	99.428744 
1272.000000	99.427002 
1271.000000	99.424890 
1270.000000	99.420976 
1269.000000	99.414344 
1268.000000	99.405730 
1267.000000	99.397174 
1266.000000	99.389817 
1265.000000	99.382905 
1264.000000	99.375423 
1263.000000	99.367603 
1262.000000	99.360184 
1261.000000	99.353309 
1260.000000	99.347146 
1259.000000	99.342552 
1258.000000	99.339719 
1257.000000	99.337235 
1256.000000	99.333813 
1255.000000	99.330227 
1254.000000	99.328093 
1253.000000	99.327314 
1252.000000	99.326356 
1251.000000	99.324916 
1250.000000	99.324605 
1249.000000	99.326772 
1248.000000	99.331119 
1247.000000	99.336457 
1246.000000	99.341158 
1245.000000	99.342687 
1244.000000	99.338704 
1243.000000	99.330200 
1242.000000	99.322665 
1241.000000	99.321985 
1240.000000	99.329064 
1239.000000	99.338930 
1238.000000	99.345084 
1237.000000	99.344891 
1236.000000	99.340278 
1235.000000	99.334645 
1234.000000	99.329736 
1233.000000	99.325277 
1232.000000	99.320798 
1231.000000	99.316870 
1230.000000	99.314387 
1229.000000	99.313301 
1228.000000	99.312819 
1227.000000	99.312817 
1226.000000	99.314307 
1225.000000	99.318029 
1224.000000	99.322997 
1223.000000	99.327075 
1222.000000	99.329060 
1221.000000	99.329763 
1220.000000	99.331007 
1219.000000	99.333929 
1218.000000	99.338219 
1217.000000	99.342631 
1216.000000	99.346005 
1215.000000	99.348055 
1214.000000	99.349424 
1213.000000	99.350925 
1212.000000	99.352514 
1211.000000	99.353097 
1210.000000	99.351662 
1209.000000	99.348620 
1208.000000	99.345649 
1207.000000	99.343977 
1206.000000	99.343092 
1205.000000	99.341553 
1204.000000	99.338900 
1203.000000	99.336144 
1202.000000	99.334176 
1201.000000	99.332252 
1200.000000	99.328801 
1199.000000	99.323487 
1198.000000	99.317763 
1197.000000	99.313355 
1196.000000	99.310452 
1195.000000	99.307774 
1194.000000	99.304032 
1193.000000	99.298823 
1192.000000	99.292512 
1191.000000	99.285940 
1190.000000	99.280265 
1189.000000	99.276654 
1188.000000	99.275746 
1187.000000	99.276966 
1186.000000	99.278193 
1185.000000	99.276611 
1184.000000	99.270567 
1183.000000	99.260826 
1182.000000	99.249955 
1181.000000	99.240374 
1180.000000	99.233079 
1179.000000	99.227908 
1178.000000	99.224077 
1177.000000	99.220304 
1176.000000	99.215343 
1175.000000	99.209050 
1174.000000	99.202501 
1173.000000	99.196550 
1172.000000	99.190928 
1171.000000	99.185289 
1170.000000	99.180289 
1169.000000	99.176522 
1168.000000	99.172793 
1167.000000	99.166762 
1166.000000	99.157649 
1165.000000	99.147548 
1164.000000	99.139774 
1163.000000	99.136471 
1162.000000	99.137718 
1161.000000	99.141780 
1160.000000	99.145747 
1159.000000	99.147072 
1158.000000	99.145439 
1157.000000	99.142633 
1156.000000	99.139981 
1155.000000	99.136480 
1154.000000	99.130296 
1153.000000	99.121438 
1152.000000	99.111833 
1151.000000	99.103096 
1150.000000	99.095395 
1149.000000	99.088403 
1148.000000	99.081897 
1147.000000	99.074818 
1146.000000	99.065004 
1145.000000	99.051201 
1144.000000	99.035173 
1143.000000	99.020983 
1142.000000	99.011717 
1141.000000	99.007015 
1140.000000	99.003628 
1139.000000	98.997974 
1138.000000	98.988457 
1137.000000	98.976180 
1136.000000	98.963851 
1135.000000	98.953661 
1134.000000	98.945779 
1133.000000	98.938762 
1132.000000	98.931234 
1131.000000	98.922870 
1130.000000	98.913922 
1129.000000	98.904315 
1128.000000	98.893464 
1127.000000	98.880794 
1126.000000	98.866366 
1125.000000	98.851113 
1124.000000	98.836334 
1123.000000	98.822518 
1122.000000	98.808529 
1121.000000	98.792483 
1120.000000	98.773795 
1119.000000	98.754021 
1118.000000	98.735231 
1117.000000	98.717794 
1116.000000	98.700224 
1115.000000	98.681014 
1114.000000	98.660044 
1113.000000	98.638200 
1112.000000	98.616411 
1111.000000	98.595471 
1110.000000	98.575953 
1109.000000	98.557449 
1108.000000	98.538259 
1107.000000	98.516564 
1106.000000	98.492561 
1105.000000	98.468980 
1104.000000	98.448324 
1103.000000	98.430072 
1102.000000	98.411782 
1101.000000	98.393068 
1100.000000	98.376394 
1099.000000	98.363012 
1098.000000	98.351069 
1097.000000	98.338056 
1096.000000	98.324018 
1095.000000	98.309916 
1094.000000	98.293957 
1093.000000	98.272263 
1092.000000	98.243367 
1091.000000	98.209918 
1090.000000	98.175358 
1089.000000	98.140464 
1088.000000	98.104216 
1087.000000	98.066784 
1086.000000	98.030244 
1085.000000	97.996764 
1084.000000	97.966884 
1083.000000	97.939259 
1082.000000	97.911679 
1081.000000	97.882777 
1080.000000	97.853024 
1079.000000	97.823795 
1078.000000	97.795877 
1077.000000	97.769912 
1076.000000	97.747812 
1075.000000	97.731964 
1074.000000	97.722784 
1073.000000	97.718188 
1072.000000	97.714707 
1071.000000	97.706809 
1070.000000	97.686323 
1069.000000	97.647700 
1068.000000	97.596819 
1067.000000	97.551657 
1066.000000	97.529264 
1065.000000	97.532091 
1064.000000	97.547838 
1063.000000	97.560330 
1062.000000	97.558983 
1061.000000	97.540012 
1060.000000	97.505173 
1059.000000	97.462838 
1058.000000	97.426281 
1057.000000	97.405224 
1056.000000	97.398017 
1055.000000	97.393469 
1054.000000	97.381341 
1053.000000	97.361004 
1052.000000	97.339673 
1051.000000	97.323434 
1050.000000	97.311709 
1049.000000	97.300591 
1048.000000	97.289091 
1047.000000	97.279713 
1046.000000	97.273900 
1045.000000	97.269759 
1044.000000	97.264983 
1043.000000	97.260330 
1042.000000	97.258681 
1041.000000	97.260953 
1040.000000	97.264562 
1039.000000	97.267097 
1038.000000	97.270935 
1037.000000	97.282376 
1036.000000	97.305336 
1035.000000	97.336968 
1034.000000	97.370303 
1033.000000	97.399591 
1032.000000	97.420829 
1031.000000	97.429279 
1030.000000	97.422381 
1029.000000	97.407155 
1028.000000	97.400057 
1027.000000	97.414330 
1026.000000	97.448031 
1025.000000	97.486787 
1024.000000	97.517517 
1023.000000	97.536756 
1022.000000	97.547372 
1021.000000	97.552608 
1020.000000	97.555051 
1019.000000	97.557848 
1018.000000	97.563375 
1017.000000	97.571371 
1016.000000	97.580339 
1015.000000	97.590417 
1014.000000	97.603511 
1013.000000	97.620646 
1012.000000	97.640055 
1011.000000	97.658108 
1010.000000	97.672356 
1009.000000	97.683915 
1008.000000	97.696531 
1007.000000	97.712965 
1006.000000	97.732740 
1005.000000	97.753595 
1004.000000	97.774116 
1003.000000	97.794048 
1002.000000	97.813121 
1001.000000	97.831184 
1000.000000	97.849128 
999.000000	 97.868022 
998.000000	 97.887187 
997.000000	 97.904504 
996.000000	 97.919225 
995.000000	 97.933620 
994.000000	 97.951109 
993.000000	 97.972985 
992.000000	 97.997195 
991.000000	 98.019976 
990.000000	 98.038695 
989.000000	 98.053787 
988.000000	 98.068159 
987.000000	 98.084111 
986.000000	 98.101104 
985.000000	 98.117657 
984.000000	 98.134705 
983.000000	 98.155005 
982.000000	 98.179323 
981.000000	 98.205055 
980.000000	 98.229199 
979.000000	 98.251393 
978.000000	 98.273002 
977.000000	 98.294847 
976.000000	 98.317315 
975.000000	 98.341500 
974.000000	 98.368511 
973.000000	 98.397984 
972.000000	 98.428397 
971.000000	 98.458353 
970.000000	 98.486700 
969.000000	 98.512167 
968.000000	 98.534358 
967.000000	 98.554866 
966.000000	 98.575893 
965.000000	 98.597557 
964.000000	 98.617912 
963.000000	 98.635807 
962.000000	 98.652289 
961.000000	 98.668701 
960.000000	 98.684888 
959.000000	 98.700241 
958.000000	 98.715202 
957.000000	 98.730315 
956.000000	 98.744743 
955.000000	 98.757392 
954.000000	 98.769018 
953.000000	 98.781460 
952.000000	 98.794899 
951.000000	 98.807700 
950.000000	 98.819064 
949.000000	 98.829681 
948.000000	 98.839276 
947.000000	 98.845926 
946.000000	 98.849410 
945.000000	 98.853418 
944.000000	 98.862164 
943.000000	 98.875203 
942.000000	 98.887492 
941.000000	 98.894554 
940.000000	 98.896227 
939.000000	 98.895643 
938.000000	 98.896031 
937.000000	 98.898634 
936.000000	 98.902478 
935.000000	 98.905548 
934.000000	 98.906669 
933.000000	 98.906495 
932.000000	 98.906562 
931.000000	 98.907958 
930.000000	 98.911469 
929.000000	 98.918052 
928.000000	 98.927605 
927.000000	 98.937525 
926.000000	 98.944304 
925.000000	 98.946968 
924.000000	 98.947624 
923.000000	 98.948274 
922.000000	 98.948438 
921.000000	 98.946646 
920.000000	 98.943101 
919.000000	 98.939737 
918.000000	 98.938116 
917.000000	 98.937987 
916.000000	 98.937641 
915.000000	 98.935371 
914.000000	 98.931280 
913.000000	 98.927994 
912.000000	 98.928831 
911.000000	 98.934550 
910.000000	 98.942272 
909.000000	 98.948279 
908.000000	 98.951531 
907.000000	 98.953652 
906.000000	 98.956121 
905.000000	 98.958798 
904.000000	 98.961289 
903.000000	 98.964764 
902.000000	 98.971561 
901.000000	 98.982921 
900.000000	 98.997435 
899.000000	 99.011903 
898.000000	 99.023724 
897.000000	 99.032234 
896.000000	 99.037959 
895.000000	 99.041884 
894.000000	 99.046243 
893.000000	 99.054728 
892.000000	 99.069945 
891.000000	 99.090528 
890.000000	 99.112023 
889.000000	 99.131145 
888.000000	 99.147868 
887.000000	 99.162881 
886.000000	 99.174873 
885.000000	 99.181835 
884.000000	 99.184194 
883.000000	 99.185118 
882.000000	 99.187621 
881.000000	 99.192252 
880.000000	 99.198004 
879.000000	 99.204731 
878.000000	 99.213847 
877.000000	 99.226375 
876.000000	 99.240413 
875.000000	 99.251326 
874.000000	 99.255613 
873.000000	 99.254810 
872.000000	 99.254878 
871.000000	 99.260784 
870.000000	 99.271973 
869.000000	 99.283411 
868.000000	 99.290854 
867.000000	 99.294754 
866.000000	 99.299416 
865.000000	 99.308838 
864.000000	 99.323242 
863.000000	 99.339091 
862.000000	 99.352250 
861.000000	 99.361128 
860.000000	 99.366935 
859.000000	 99.372020 
858.000000	 99.378929 
857.000000	 99.390207 
856.000000	 99.406741 
855.000000	 99.425287 
854.000000	 99.439552 
853.000000	 99.445702 
852.000000	 99.446130 
851.000000	 99.446495 
850.000000	 99.449339 
849.000000	 99.452379 
848.000000	 99.453125 
847.000000	 99.452978 
846.000000	 99.455697 
845.000000	 99.463012 
844.000000	 99.473107 
843.000000	 99.482867 
842.000000	 99.490151 
841.000000	 99.493816 
840.000000	 99.493295 
839.000000	 99.489705 
838.000000	 99.486505 
837.000000	 99.486754 
836.000000	 99.489376 
835.000000	 99.490366 
834.000000	 99.488722 
833.000000	 99.488530 
832.000000	 99.492271 
831.000000	 99.494121 
830.000000	 99.485212 
829.000000	 99.466418 
828.000000	 99.451070 
827.000000	 99.450879 
826.000000	 99.462237 
825.000000	 99.471793 
824.000000	 99.473909 
823.000000	 99.475625 
822.000000	 99.483803 
821.000000	 99.494711 
820.000000	 99.499848 
819.000000	 99.496816 
818.000000	 99.490537 
817.000000	 99.486195 
816.000000	 99.483983 
815.000000	 99.480184 
814.000000	 99.471070 
813.000000	 99.455612 
812.000000	 99.436229 
811.000000	 99.417796 
810.000000	 99.404526 
809.000000	 99.396100 
808.000000	 99.386646 
807.000000	 99.368429 
806.000000	 99.337711 
805.000000	 99.297695 
804.000000	 99.256091 
803.000000	 99.219986 
802.000000	 99.192710 
801.000000	 99.174517 
800.000000	 99.164419 
799.000000	 99.160570 
798.000000	 99.160419 
797.000000	 99.162424 
796.000000	 99.167339 
795.000000	 99.176764 
794.000000	 99.190997 
793.000000	 99.208966 
792.000000	 99.228454 
791.000000	 99.244502 
790.000000	 99.249775 
789.000000	 99.240517 
788.000000	 99.222287 
787.000000	 99.206440 
786.000000	 99.199305 
785.000000	 99.197284 
784.000000	 99.193669 
783.000000	 99.187277 
782.000000	 99.182118 
781.000000	 99.180934 
780.000000	 99.182571 
779.000000	 99.184754 
778.000000	 99.186611 
777.000000	 99.189038 
776.000000	 99.194779 
775.000000	 99.207487 
774.000000	 99.228032 
773.000000	 99.251675 
772.000000	 99.271136 
771.000000	 99.282842 
770.000000	 99.288304 
769.000000	 99.289772 
768.000000	 99.287733 
767.000000	 99.283727 
766.000000	 99.282256 
765.000000	 99.286883 
764.000000	 99.295776 
763.000000	 99.303567 
762.000000	 99.307228 
761.000000	 99.308202 
760.000000	 99.309324 
759.000000	 99.311944 
758.000000	 99.316139 
757.000000	 99.321722 
756.000000	 99.328308 
755.000000	 99.335543 
754.000000	 99.343728 
753.000000	 99.353389 
752.000000	 99.364003 
751.000000	 99.373806 
750.000000	 99.381066 
749.000000	 99.384958 
748.000000	 99.385416 
747.000000	 99.383587 
746.000000	 99.382646 
745.000000	 99.386078 
744.000000	 99.393926 
743.000000	 99.401882 
742.000000	 99.405626 
741.000000	 99.405649 
740.000000	 99.406408 
739.000000	 99.411075 
738.000000	 99.418728 
737.000000	 99.426454 
736.000000	 99.432328 
735.000000	 99.436167 
734.000000	 99.439208 
733.000000	 99.443916 
732.000000	 99.452306 
731.000000	 99.462624 
730.000000	 99.469310 
729.000000	 99.468723 
728.000000	 99.463897 
727.000000	 99.461598 
726.000000	 99.464756 
725.000000	 99.470621 
724.000000	 99.476103 
723.000000	 99.481690 
722.000000	 99.488923 
721.000000	 99.496379 
720.000000	 99.500103 
719.000000	 99.497481 
718.000000	 99.489534 
717.000000	 99.480289 
716.000000	 99.474718 
715.000000	 99.475481 
714.000000	 99.480557 
713.000000	 99.484906 
712.000000	 99.485545 
711.000000	 99.484227 
710.000000	 99.484492 
709.000000	 99.487269 
708.000000	 99.490649 
707.000000	 99.492772 
706.000000	 99.493125 
705.000000	 99.491764 
704.000000	 99.488817 
703.000000	 99.485072 
702.000000	 99.482102 
701.000000	 99.480926 
700.000000	 99.480389 
699.000000	 99.477244 
698.000000	 99.468400 
697.000000	 99.453572 
696.000000	 99.436132 
695.000000	 99.421331 
694.000000	 99.413571 
693.000000	 99.414969 
692.000000	 99.424934 
691.000000	 99.439717 
690.000000	 99.453599 
689.000000	 99.462669 
688.000000	 99.467521 
687.000000	 99.471265 
686.000000	 99.475139 
685.000000	 99.477713 
684.000000	 99.478005 
683.000000	 99.477285 
682.000000	 99.477749 
681.000000	 99.480903 
680.000000	 99.486927 
679.000000	 99.493832 
678.000000	 99.497293 
677.000000	 99.494058 
676.000000	 99.486569 
675.000000	 99.481317 
674.000000	 99.482353 
673.000000	 99.487805 
672.000000	 99.492542 
671.000000	 99.493054 
670.000000	 99.488729 
669.000000	 99.480011 
668.000000	 99.468233 
667.000000	 99.460092 
666.000000	 99.462528 
665.000000	 99.473189 
664.000000	 99.484959 
663.000000	 99.492224 
662.000000	 99.493426 
661.000000	 99.491591 
660.000000	 99.491126 
659.000000	 99.493413 
658.000000	 99.496022 
657.000000	 99.495757 
656.000000	 99.492069 
655.000000	 99.487502 
654.000000	 99.485378 
653.000000	 99.485874 
652.000000	 99.485223 
651.000000	 99.480690 
650.000000	 99.475290 

