4000.000000	99.432306 
3999.000000	99.434384 
3998.000000	99.436636 
3997.000000	99.437584 
3996.000000	99.436601 
3995.000000	99.434401 
3994.000000	99.432462 
3993.000000	99.431895 
3992.000000	99.432785 
3991.000000	99.434463 
3990.000000	99.436216 
3989.000000	99.437800 
3988.000000	99.439441 
3987.000000	99.441372 
3986.000000	99.443343 
3985.000000	99.444597 
3984.000000	99.444396 
3983.000000	99.442533 
3982.000000	99.439451 
3981.000000	99.436114 
3980.000000	99.433629 
3979.000000	99.432676 
3978.000000	99.433252 
3977.000000	99.434988 
3976.000000	99.437657 
3975.000000	99.441223 
3974.000000	99.445327 
3973.000000	99.448917 
3972.000000	99.450570 
3971.000000	99.449425 
3970.000000	99.445918 
3969.000000	99.441519 
3968.000000	99.437804 
3967.000000	99.435582 
3966.000000	99.434668 
3965.000000	99.434504 
3964.000000	99.434706 
3963.000000	99.434878 
3962.000000	99.434290 
3961.000000	99.432378 
3960.000000	99.429561 
3959.000000	99.427170 
3958.000000	99.426204 
3957.000000	99.426045 
3956.000000	99.425121 
3955.000000	99.422733 
3954.000000	99.419842 
3953.000000	99.418010 
3952.000000	99.417844 
3951.000000	99.418922 
3950.000000	99.420580 
3949.000000	99.422271 
3948.000000	99.423534 
3947.000000	99.424064 
3946.000000	99.424152 
3945.000000	99.424706 
3944.000000	99.426470 
3943.000000	99.428773 
3942.000000	99.429748 
3941.000000	99.428335 
3940.000000	99.425173 
3939.000000	99.421073 
3938.000000	99.415923 
3937.000000	99.409483 
3936.000000	99.403214 
3935.000000	99.400406 
3934.000000	99.403889 
3933.000000	99.413418 
3932.000000	99.424880 
3931.000000	99.432572 
3930.000000	99.432872 
3929.000000	99.426607 
3928.000000	99.418755 
3927.000000	99.415075 
3926.000000	99.418104 
3925.000000	99.425146 
3924.000000	99.430254 
3923.000000	99.429718 
3922.000000	99.424857 
3921.000000	99.419880 
3920.000000	99.418374 
3919.000000	99.421511 
3918.000000	99.428247 
3917.000000	99.436107 
3916.000000	99.442307 
3915.000000	99.445405 
3914.000000	99.446107 
3913.000000	99.446195 
3912.000000	99.446674 
3911.000000	99.447008 
3910.000000	99.446313 
3909.000000	99.444277 
3908.000000	99.441196 
3907.000000	99.437254 
3906.000000	99.431869 
3905.000000	99.424011 
3904.000000	99.413071 
3903.000000	99.400787 
3902.000000	99.392202 
3901.000000	99.392319 
3900.000000	99.401747 
3899.000000	99.415587 
3898.000000	99.426884 
3897.000000	99.431668 
3896.000000	99.430126 
3895.000000	99.424755 
3894.000000	99.419275 
3893.000000	99.417145 
3892.000000	99.419040 
3891.000000	99.421279 
3890.000000	99.419829 
3889.000000	99.414889 
3888.000000	99.410044 
3887.000000	99.409015 
3886.000000	99.411719 
3885.000000	99.413157 
3884.000000	99.409064 
3883.000000	99.401612 
3882.000000	99.397242 
3881.000000	99.399575 
3880.000000	99.405131 
3879.000000	99.407602 
3878.000000	99.406194 
3877.000000	99.406279 
3876.000000	99.413454 
3875.000000	99.426905 
3874.000000	99.438391 
3873.000000	99.440276 
3872.000000	99.433994 
3871.000000	99.427892 
3870.000000	99.426786 
3869.000000	99.427051 
3868.000000	99.424098 
3867.000000	99.418729 
3866.000000	99.414711 
3865.000000	99.414084 
3864.000000	99.414291 
3863.000000	99.411812 
3862.000000	99.407217 
3861.000000	99.403833 
3860.000000	99.404060 
3859.000000	99.407784 
3858.000000	99.412729 
3857.000000	99.416331 
3856.000000	99.417533 
3855.000000	99.419379 
3854.000000	99.425975 
3853.000000	99.433423 
3852.000000	99.435424 
3851.000000	99.433826 
3850.000000	99.432505 
3849.000000	99.432099 
3848.000000	99.430899 
3847.000000	99.427170 
3846.000000	99.421318 
3845.000000	99.415655 
3844.000000	99.412392 
3843.000000	99.412744 
3842.000000	99.416428 
3841.000000	99.421251 
3840.000000	99.424971 
3839.000000	99.426611 
3838.000000	99.426035 
3837.000000	99.423560 
3836.000000	99.419925 
3835.000000	99.417215 
3834.000000	99.418120 
3833.000000	99.423732 
3832.000000	99.432066 
3831.000000	99.438822 
3830.000000	99.440998 
3829.000000	99.439624 
3828.000000	99.437910 
3827.000000	99.437242 
3826.000000	99.435846 
3825.000000	99.431176 
3824.000000	99.423587 
3823.000000	99.417768 
3822.000000	99.418486 
3821.000000	99.422961 
3820.000000	99.423660 
3819.000000	99.420341 
3818.000000	99.419408 
3817.000000	99.425121 
3816.000000	99.434212 
3815.000000	99.439001 
3814.000000	99.436609 
3813.000000	99.431266 
3812.000000	99.428367 
3811.000000	99.429577 
3810.000000	99.433318 
3809.000000	99.437995 
3808.000000	99.442755 
3807.000000	99.445279 
3806.000000	99.442013 
3805.000000	99.432873 
3804.000000	99.423174 
3803.000000	99.419813 
3802.000000	99.424812 
3801.000000	99.431465 
3800.000000	99.432470 
3799.000000	99.429253 
3798.000000	99.427927 
3797.000000	99.431421 
3796.000000	99.436981 
3795.000000	99.440154 
3794.000000	99.439671 
3793.000000	99.437819 
3792.000000	99.437568 
3791.000000	99.439935 
3790.000000	99.443397 
3789.000000	99.445270 
3788.000000	99.443769 
3787.000000	99.439293 
3786.000000	99.433939 
3785.000000	99.429477 
3784.000000	99.426076 
3783.000000	99.423210 
3782.000000	99.421528 
3781.000000	99.423018 
3780.000000	99.428648 
3779.000000	99.436042 
3778.000000	99.441429 
3777.000000	99.443200 
3776.000000	99.442076 
3775.000000	99.439396 
3774.000000	99.436081 
3773.000000	99.432832 
3772.000000	99.430294 
3771.000000	99.428401 
3770.000000	99.425556 
3769.000000	99.420273 
3768.000000	99.414720 
3767.000000	99.413238 
3766.000000	99.416871 
3765.000000	99.421757 
3764.000000	99.423271 
3763.000000	99.420801 
3762.000000	99.417642 
3761.000000	99.417138 
3760.000000	99.419919 
3759.000000	99.423889 
3758.000000	99.427292 
3757.000000	99.430272 
3756.000000	99.432721 
3755.000000	99.433107 
3754.000000	99.429110 
3753.000000	99.419619 
3752.000000	99.406904 
3751.000000	99.395509 
3750.000000	99.388751 
3749.000000	99.386916 
3748.000000	99.388906 
3747.000000	99.394331 
3746.000000	99.403899 
3745.000000	99.417499 
3744.000000	99.429725 
3743.000000	99.434777 
3742.000000	99.433833 
3741.000000	99.430157 
3740.000000	99.423938 
3739.000000	99.412981 
3738.000000	99.398252 
3737.000000	99.387755 
3736.000000	99.389874 
3735.000000	99.403303 
3734.000000	99.417401 
3733.000000	99.424133 
3732.000000	99.423968 
3731.000000	99.421091 
3730.000000	99.418548 
3729.000000	99.417559 
3728.000000	99.419018 
3727.000000	99.423092 
3726.000000	99.427292 
3725.000000	99.428104 
3724.000000	99.425008 
3723.000000	99.421410 
3722.000000	99.420376 
3721.000000	99.421739 
3720.000000	99.423325 
3719.000000	99.422310 
3718.000000	99.416690 
3717.000000	99.406434 
3716.000000	99.393555 
3715.000000	99.380970 
3714.000000	99.371065 
3713.000000	99.365918 
3712.000000	99.366830 
3711.000000	99.372811 
3710.000000	99.380607 
3709.000000	99.386520 
3708.000000	99.387975 
3707.000000	99.384202 
3706.000000	99.376809 
3705.000000	99.369472 
3704.000000	99.366182 
3703.000000	99.368052 
3702.000000	99.371077 
3701.000000	99.368976 
3700.000000	99.359808 
3699.000000	99.347629 
3698.000000	99.337713 
3697.000000	99.332332 
3696.000000	99.330086 
3695.000000	99.328217 
3694.000000	99.325796 
3693.000000	99.324352 
3692.000000	99.325655 
3691.000000	99.329785 
3690.000000	99.334190 
3689.000000	99.334699 
3688.000000	99.329116 
3687.000000	99.319764 
3686.000000	99.310867 
3685.000000	99.305391 
3684.000000	99.304001 
3683.000000	99.305208 
3682.000000	99.306525 
3681.000000	99.305225 
3680.000000	99.298431 
3679.000000	99.284424 
3678.000000	99.265064 
3677.000000	99.247927 
3676.000000	99.241101 
3675.000000	99.240314 
3674.000000	99.234668 
3673.000000	99.222558 
3672.000000	99.210504 
3671.000000	99.206671 
3670.000000	99.213284 
3669.000000	99.223389 
3668.000000	99.230512 
3667.000000	99.235180 
3666.000000	99.239644 
3665.000000	99.243306 
3664.000000	99.243625 
3663.000000	99.238662 
3662.000000	99.228557 
3661.000000	99.214617 
3660.000000	99.197957 
3659.000000	99.180319 
3658.000000	99.165031 
3657.000000	99.155382 
3656.000000	99.150656 
3655.000000	99.146507 
3654.000000	99.140132 
3653.000000	99.131812 
3652.000000	99.122292 
3651.000000	99.111878 
3650.000000	99.101651 
3649.000000	99.094384 
3648.000000	99.092415 
3647.000000	99.094734 
3646.000000	99.098243 
3645.000000	99.101102 
3644.000000	99.103576 
3643.000000	99.105908 
3642.000000	99.107725 
3641.000000	99.108369 
3640.000000	99.107545 
3639.000000	99.105171 
3638.000000	99.100906 
3637.000000	99.094910 
3636.000000	99.088286 
3635.000000	99.082197 
3634.000000	99.076365 
3633.000000	99.069293 
3632.000000	99.060166 
3631.000000	99.049694 
3630.000000	99.039755 
3629.000000	99.030246 
3628.000000	99.018575 
3627.000000	99.006652 
3626.000000	99.000798 
3625.000000	99.004284 
3624.000000	99.015368 
3623.000000	99.030213 
3622.000000	99.045792 
3621.000000	99.060842 
3620.000000	99.073589 
3619.000000	99.079835 
3618.000000	99.077015 
3617.000000	99.069283 
3616.000000	99.064014 
3615.000000	99.065345 
3614.000000	99.070934 
3613.000000	99.074373 
3612.000000	99.072148 
3611.000000	99.067502 
3610.000000	99.066356 
3609.000000	99.071765 
3608.000000	99.081771 
3607.000000	99.092475 
3606.000000	99.102986 
3605.000000	99.114816 
3604.000000	99.128458 
3603.000000	99.142391 
3602.000000	99.154393 
3601.000000	99.163336 
3600.000000	99.168720 
3599.000000	99.169860 
3598.000000	99.166643 
3597.000000	99.161231 
3596.000000	99.157214 
3595.000000	99.157620 
3594.000000	99.162325 
3593.000000	99.168351 
3592.000000	99.172831 
3591.000000	99.174854 
3590.000000	99.175630 
3589.000000	99.177822 
3588.000000	99.182830 
3587.000000	99.187655 
3586.000000	99.188507 
3585.000000	99.185856 
3584.000000	99.183466 
3583.000000	99.183980 
3582.000000	99.187174 
3581.000000	99.190740 
3580.000000	99.192153 
3579.000000	99.190177 
3578.000000	99.184999 
3577.000000	99.178173 
3576.000000	99.172072 
3575.000000	99.168749 
3574.000000	99.168508 
3573.000000	99.169524 
3572.000000	99.169688 
3571.000000	99.168710 
3570.000000	99.167824 
3569.000000	99.168343 
3568.000000	99.170575 
3567.000000	99.173066 
3566.000000	99.173977 
3565.000000	99.173560 
3564.000000	99.173522 
3563.000000	99.174918 
3562.000000	99.177551 
3561.000000	99.180080 
3560.000000	99.180961 
3559.000000	99.179734 
3558.000000	99.177871 
3557.000000	99.177650 
3556.000000	99.180146 
3555.000000	99.184094 
3554.000000	99.186863 
3553.000000	99.186214 
3552.000000	99.181733 
3551.000000	99.175215 
3550.000000	99.169275 
3549.000000	99.165319 
3548.000000	99.163199 
3547.000000	99.162035 
3546.000000	99.160900 
3545.000000	99.158485 
3544.000000	99.153690 
3543.000000	99.147503 
3542.000000	99.143821 
3541.000000	99.146644 
3540.000000	99.156232 
3539.000000	99.168176 
3538.000000	99.177045 
3537.000000	99.180779 
3536.000000	99.181134 
3535.000000	99.180588 
3534.000000	99.179551 
3533.000000	99.177190 
3532.000000	99.173558 
3531.000000	99.170054 
3530.000000	99.167688 
3529.000000	99.165777 
3528.000000	99.163198 
3527.000000	99.160579 
3526.000000	99.160110 
3525.000000	99.162850 
3524.000000	99.167030 
3523.000000	99.169653 
3522.000000	99.169670 
3521.000000	99.168689 
3520.000000	99.168773 
3519.000000	99.170374 
3518.000000	99.172468 
3517.000000	99.173898 
3516.000000	99.173910 
3515.000000	99.172146 
3514.000000	99.168728 
3513.000000	99.164516 
3512.000000	99.160862 
3511.000000	99.158931 
3510.000000	99.158999 
3509.000000	99.160497 
3508.000000	99.162711 
3507.000000	99.165441 
3506.000000	99.168945 
3505.000000	99.172933 
3504.000000	99.175708 
3503.000000	99.175111 
3502.000000	99.171163 
3501.000000	99.167032 
3500.000000	99.166084 
3499.000000	99.168056 
3498.000000	99.168915 
3497.000000	99.165007 
3496.000000	99.157067 
3495.000000	99.149744 
3494.000000	99.147416 
3493.000000	99.150743 
3492.000000	99.156990 
3491.000000	99.162808 
3490.000000	99.166548 
3489.000000	99.168538 
3488.000000	99.169654 
3487.000000	99.169867 
3486.000000	99.168320 
3485.000000	99.164744 
3484.000000	99.160219 
3483.000000	99.156335 
3482.000000	99.153715 
3481.000000	99.151901 
3480.000000	99.150648 
3479.000000	99.150535 
3478.000000	99.151882 
3477.000000	99.153757 
3476.000000	99.154924 
3475.000000	99.155655 
3474.000000	99.157581 
3473.000000	99.161157 
3472.000000	99.164099 
3471.000000	99.163492 
3470.000000	99.159262 
3469.000000	99.154334 
3468.000000	99.151268 
3467.000000	99.149870 
3466.000000	99.148933 
3465.000000	99.149130 
3464.000000	99.152470 
3463.000000	99.159070 
3462.000000	99.165943 
3461.000000	99.169731 
3460.000000	99.169748 
3459.000000	99.167769 
3458.000000	99.165515 
3457.000000	99.163035 
3456.000000	99.159217 
3455.000000	99.153447 
3454.000000	99.146570 
3453.000000	99.140663 
3452.000000	99.137568 
3451.000000	99.137605 
3450.000000	99.139572 
3449.000000	99.141845 
3448.000000	99.143155 
3447.000000	99.142698 
3446.000000	99.140437 
3445.000000	99.137647 
3444.000000	99.136387 
3443.000000	99.137602 
3442.000000	99.139782 
3441.000000	99.140013 
3440.000000	99.136577 
3439.000000	99.130287 
3438.000000	99.123280 
3437.000000	99.117003 
3436.000000	99.111696 
3435.000000	99.107683 
3434.000000	99.106239 
3433.000000	99.108803 
3432.000000	99.115178 
3431.000000	99.123018 
3430.000000	99.129394 
3429.000000	99.132825 
3428.000000	99.133761 
3427.000000	99.133169 
3426.000000	99.131112 
3425.000000	99.126965 
3424.000000	99.120810 
3423.000000	99.114177 
3422.000000	99.109120 
3421.000000	99.106746 
3420.000000	99.106954 
3419.000000	99.109374 
3418.000000	99.113836 
3417.000000	99.119630 
3416.000000	99.124877 
3415.000000	99.127350 
3414.000000	99.126189 
3413.000000	99.122657 
3412.000000	99.119143 
3411.000000	99.117358 
3410.000000	99.117157 
3409.000000	99.116659 
3408.000000	99.113537 
3407.000000	99.106857 
3406.000000	99.098214 
3405.000000	99.090968 
3404.000000	99.087883 
3403.000000	99.089308 
3402.000000	99.093560 
3401.000000	99.099028 
3400.000000	99.105435 
3399.000000	99.113040 
3398.000000	99.121044 
3397.000000	99.127261 
3396.000000	99.129381 
3395.000000	99.126369 
3394.000000	99.118822 
3393.000000	99.108491 
3392.000000	99.097704 
3391.000000	99.088890 
3390.000000	99.084145 
3389.000000	99.084716 
3388.000000	99.090413 
3387.000000	99.099416 
3386.000000	99.109081 
3385.000000	99.117469 
3384.000000	99.123984 
3383.000000	99.128345 
3382.000000	99.129271 
3381.000000	99.125234 
3380.000000	99.116889 
3379.000000	99.108136 
3378.000000	99.103601 
3377.000000	99.104638 
3376.000000	99.108222 
3375.000000	99.110193 
3374.000000	99.109382 
3373.000000	99.108207 
3372.000000	99.109421 
3371.000000	99.112941 
3370.000000	99.116178 
3369.000000	99.116907 
3368.000000	99.115292 
3367.000000	99.113349 
3366.000000	99.113124 
3365.000000	99.115330 
3364.000000	99.119018 
3363.000000	99.122230 
3362.000000	99.123405 
3361.000000	99.122464 
3360.000000	99.120420 
3359.000000	99.118076 
3358.000000	99.115742 
3357.000000	99.114322 
3356.000000	99.115514 
3355.000000	99.119801 
3354.000000	99.124688 
3353.000000	99.126293 
3352.000000	99.123106 
3351.000000	99.117647 
3350.000000	99.114092 
3349.000000	99.114670 
3348.000000	99.118527 
3347.000000	99.123253 
3346.000000	99.126708 
3345.000000	99.127870 
3344.000000	99.127096 
3343.000000	99.126002 
3342.000000	99.126241 
3341.000000	99.127730 
3340.000000	99.128494 
3339.000000	99.127041 
3338.000000	99.124699 
3337.000000	99.124575 
3336.000000	99.127869 
3335.000000	99.132199 
3334.000000	99.134452 
3333.000000	99.134547 
3332.000000	99.135128 
3331.000000	99.137595 
3330.000000	99.139816 
3329.000000	99.138588 
3328.000000	99.133612 
3327.000000	99.127978 
3326.000000	99.124705 
3325.000000	99.123758 
3324.000000	99.122868 
3323.000000	99.120880 
3322.000000	99.119491 
3321.000000	99.121424 
3320.000000	99.127304 
3319.000000	99.134891 
3318.000000	99.141394 
3317.000000	99.145731 
3316.000000	99.148081 
3315.000000	99.148269 
3314.000000	99.146076 
3313.000000	99.142992 
3312.000000	99.141927 
3311.000000	99.144276 
3310.000000	99.148137 
3309.000000	99.150385 
3308.000000	99.149957 
3307.000000	99.148404 
3306.000000	99.147883 
3305.000000	99.149655 
3304.000000	99.153983 
3303.000000	99.159936 
3302.000000	99.164951 
3301.000000	99.165746 
3300.000000	99.160692 
3299.000000	99.151459 
3298.000000	99.142202 
3297.000000	99.136931 
3296.000000	99.136882 
3295.000000	99.139790 
3294.000000	99.142036 
3293.000000	99.142191 
3292.000000	99.142339 
3291.000000	99.145279 
3290.000000	99.150734 
3289.000000	99.155525 
3288.000000	99.157417 
3287.000000	99.157459 
3286.000000	99.157881 
3285.000000	99.158774 
3284.000000	99.158035 
3283.000000	99.154254 
3282.000000	99.148767 
3281.000000	99.144706 
3280.000000	99.144467 
3279.000000	99.148023 
3278.000000	99.153122 
3277.000000	99.156966 
3276.000000	99.158003 
3275.000000	99.156554 
3274.000000	99.154171 
3273.000000	99.152693 
3272.000000	99.153559 
3271.000000	99.157096 
3270.000000	99.161836 
3269.000000	99.164916 
3268.000000	99.163898 
3267.000000	99.158531 
3266.000000	99.150890 
3265.000000	99.144069 
3264.000000	99.140722 
3263.000000	99.142132 
3262.000000	99.147855 
3261.000000	99.155878 
3260.000000	99.163514 
3259.000000	99.168714 
3258.000000	99.171066 
3257.000000	99.171743 
3256.000000	99.172210 
3255.000000	99.172666 
3254.000000	99.171928 
3253.000000	99.169256 
3252.000000	99.165890 
3251.000000	99.164053 
3250.000000	99.164430 
3249.000000	99.165479 
3248.000000	99.165516 
3247.000000	99.164681 
3246.000000	99.164369 
3245.000000	99.165359 
3244.000000	99.167256 
3243.000000	99.169399 
3242.000000	99.171446 
3241.000000	99.173128 
3240.000000	99.174243 
3239.000000	99.175207 
3238.000000	99.177178 
3237.000000	99.181184 
3236.000000	99.186990 
3235.000000	99.192770 
3234.000000	99.195998 
3233.000000	99.195204 
3232.000000	99.191280 
3231.000000	99.187103 
3230.000000	99.185549 
3229.000000	99.187577 
3228.000000	99.191854 
3227.000000	99.195723 
3226.000000	99.196654 
3225.000000	99.193784 
3224.000000	99.188815 
3223.000000	99.185036 
3222.000000	99.184534 
3221.000000	99.186147 
3220.000000	99.186674 
3219.000000	99.184185 
3218.000000	99.179861 
3217.000000	99.176696 
3216.000000	99.177101 
3215.000000	99.181698 
3214.000000	99.189401 
3213.000000	99.197813 
3212.000000	99.203924 
3211.000000	99.205505 
3210.000000	99.202563 
3209.000000	99.197505 
3208.000000	99.193657 
3207.000000	99.193189 
3206.000000	99.195970 
3205.000000	99.200023 
3204.000000	99.203146 
3203.000000	99.204384 
3202.000000	99.204266 
3201.000000	99.203813 
3200.000000	99.203544 
3199.000000	99.203373 
3198.000000	99.203142 
3197.000000	99.203020 
3196.000000	99.203544 
3195.000000	99.205497 
3194.000000	99.209420 
3193.000000	99.214735 
3192.000000	99.219284 
3191.000000	99.220343 
3190.000000	99.216679 
3189.000000	99.209738 
3188.000000	99.202757 
3187.000000	99.198697 
3186.000000	99.198858 
3185.000000	99.202681 
3184.000000	99.208213 
3183.000000	99.212922 
3182.000000	99.215079 
3181.000000	99.215156 
3180.000000	99.215684 
3179.000000	99.218993 
3178.000000	99.224668 
3177.000000	99.229592 
3176.000000	99.231034 
3175.000000	99.229618 
3174.000000	99.228643 
3173.000000	99.230218 
3172.000000	99.232587 
3171.000000	99.232067 
3170.000000	99.227575 
3169.000000	99.222350 
3168.000000	99.220657 
3167.000000	99.223369 
3166.000000	99.227588 
3165.000000	99.230164 
3164.000000	99.230576 
3163.000000	99.230309 
3162.000000	99.230620 
3161.000000	99.231748 
3160.000000	99.233628 
3159.000000	99.236216 
3158.000000	99.238857 
3157.000000	99.240050 
3156.000000	99.238422 
3155.000000	99.233936 
3154.000000	99.227957 
3153.000000	99.222195 
3152.000000	99.217699 
3151.000000	99.214865 
3150.000000	99.214112 
3149.000000	99.216144 
3148.000000	99.221285 
3147.000000	99.228633 
3146.000000	99.236195 
3145.000000	99.242067 
3144.000000	99.245461 
3143.000000	99.246646 
3142.000000	99.246169 
3141.000000	99.244439 
3140.000000	99.241929 
3139.000000	99.239395 
3138.000000	99.237647 
3137.000000	99.237240 
3136.000000	99.238482 
3135.000000	99.241526 
3134.000000	99.246035 
3133.000000	99.250689 
3132.000000	99.253499 
3131.000000	99.253264 
3130.000000	99.250853 
3129.000000	99.248761 
3128.000000	99.249203 
3127.000000	99.252715 
3126.000000	99.258236 
3125.000000	99.263739 
3124.000000	99.266663 
3123.000000	99.264884 
3122.000000	99.258576 
3121.000000	99.250912 
3120.000000	99.245876 
3119.000000	99.245048 
3118.000000	99.246915 
3117.000000	99.249220 
3116.000000	99.251284 
3115.000000	99.253855 
3114.000000	99.257438 
3113.000000	99.261333 
3112.000000	99.264062 
3111.000000	99.264591 
3110.000000	99.263312 
3109.000000	99.261872 
3108.000000	99.261651 
3107.000000	99.262447 
3106.000000	99.263004 
3105.000000	99.262710 
3104.000000	99.262240 
3103.000000	99.262533 
3102.000000	99.263981 
3101.000000	99.266765 
3100.000000	99.271166 
3099.000000	99.276891 
3098.000000	99.282564 
3097.000000	99.286528 
3096.000000	99.288087 
3095.000000	99.287754 
3094.000000	99.286545 
3093.000000	99.285310 
3092.000000	99.284316 
3091.000000	99.283176 
3090.000000	99.281487 
3089.000000	99.279706 
3088.000000	99.278818 
3087.000000	99.278843 
3086.000000	99.278418 
3085.000000	99.276438 
3084.000000	99.273442 
3083.000000	99.270617 
3082.000000	99.268188 
3081.000000	99.265913 
3080.000000	99.264748 
3079.000000	99.266559 
3078.000000	99.271931 
3077.000000	99.279194 
3076.000000	99.285838 
3075.000000	99.290114 
3074.000000	99.291203 
3073.000000	99.289067 
3072.000000	99.284748 
3071.000000	99.280041 
3070.000000	99.276090 
3069.000000	99.272635 
3068.000000	99.269226 
3067.000000	99.266871 
3066.000000	99.267767 
3065.000000	99.273210 
3064.000000	99.281921 
3063.000000	99.290399 
3062.000000	99.295021 
3061.000000	99.294305 
3060.000000	99.289649 
3059.000000	99.284023 
3058.000000	99.279970 
3057.000000	99.278821 
3056.000000	99.281000 
3055.000000	99.285991 
3054.000000	99.291828 
3053.000000	99.295714 
3052.000000	99.296022 
3051.000000	99.293612 
3050.000000	99.290967 
3049.000000	99.290261 
3048.000000	99.292112 
3047.000000	99.295292 
3046.000000	99.297138 
3045.000000	99.295089 
3044.000000	99.289037 
3043.000000	99.282091 
3042.000000	99.278268 
3041.000000	99.279146 
3040.000000	99.282980 
3039.000000	99.286794 
3038.000000	99.288632 
3037.000000	99.287983 
3036.000000	99.285097 
3035.000000	99.280735 
3034.000000	99.276238 
3033.000000	99.272887 
3032.000000	99.270711 
3031.000000	99.268212 
3030.000000	99.263797 
3029.000000	99.257679 
3028.000000	99.252131 
3027.000000	99.249672 
3026.000000	99.250911 
3025.000000	99.253954 
3024.000000	99.255785 
3023.000000	99.254402 
3022.000000	99.250076 
3021.000000	99.244687 
3020.000000	99.239685 
3019.000000	99.234708 
3018.000000	99.228585 
3017.000000	99.221449 
3016.000000	99.214917 
3015.000000	99.209859 
3014.000000	99.205242 
3013.000000	99.200076 
3012.000000	99.195475 
3011.000000	99.193212 
3010.000000	99.192684 
3009.000000	99.191203 
3008.000000	99.187467 
3007.000000	99.183112 
3006.000000	99.180136 
3005.000000	99.178074 
3004.000000	99.174827 
3003.000000	99.169514 
3002.000000	99.163396 
3001.000000	99.158326 
3000.000000	99.155082 
2999.000000	99.153040 
2998.000000	99.150875 
2997.000000	99.147676 
2996.000000	99.143672 
2995.000000	99.139598 
2994.000000	99.135173 
2993.000000	99.128879 
2992.000000	99.119793 
2991.000000	99.109239 
2990.000000	99.100126 
2989.000000	99.094909 
2988.000000	99.094423 
2987.000000	99.098015 
2986.000000	99.104035 
2985.000000	99.110394 
2984.000000	99.115270 
2983.000000	99.117523 
2982.000000	99.116742 
2981.000000	99.113674 
2980.000000	99.110732 
2979.000000	99.110875 
2978.000000	99.114908 
2977.000000	99.120331 
2976.000000	99.123652 
2975.000000	99.123581 
2974.000000	99.121421 
2973.000000	99.119078 
2972.000000	99.117808 
2971.000000	99.118433 
2970.000000	99.121282 
2969.000000	99.125496 
2968.000000	99.129407 
2967.000000	99.132178 
2966.000000	99.134611 
2965.000000	99.138012 
2964.000000	99.142660 
2963.000000	99.147618 
2962.000000	99.151650 
2961.000000	99.154119 
2960.000000	99.155270 
2959.000000	99.155939 
2958.000000	99.156937 
2957.000000	99.158655 
2956.000000	99.161152 
2955.000000	99.164412 
2954.000000	99.168381 
2953.000000	99.172956 
2952.000000	99.177989 
2951.000000	99.183029 
2950.000000	99.187096 
2949.000000	99.189308 
2948.000000	99.189916 
2947.000000	99.190135 
2946.000000	99.190779 
2945.000000	99.191867 
2944.000000	99.193769 
2943.000000	99.197319 
2942.000000	99.201718 
2941.000000	99.203583 
2940.000000	99.200123 
2939.000000	99.193211 
2938.000000	99.188598 
2937.000000	99.190597 
2936.000000	99.198498 
2935.000000	99.208151 
2934.000000	99.215671 
2933.000000	99.219131 
2932.000000	99.218391 
2931.000000	99.214695 
2930.000000	99.210183 
2929.000000	99.206925 
2928.000000	99.206112 
2927.000000	99.207826 
2926.000000	99.210919 
2925.000000	99.213241 
2924.000000	99.213074 
2923.000000	99.210646 
2922.000000	99.207463 
2921.000000	99.204058 
2920.000000	99.199523 
2919.000000	99.193582 
2918.000000	99.187852 
2917.000000	99.184091 
2916.000000	99.182063 
2915.000000	99.180099 
2914.000000	99.177333 
2913.000000	99.174513 
2912.000000	99.172948 
2911.000000	99.173373 
2910.000000	99.175551 
2909.000000	99.178295 
2908.000000	99.179919 
2907.000000	99.179346 
2906.000000	99.176722 
2905.000000	99.172695 
2904.000000	99.167409 
2903.000000	99.160869 
2902.000000	99.154163 
2901.000000	99.150026 
2900.000000	99.150861 
2899.000000	99.157156 
2898.000000	99.166637 
2897.000000	99.175241 
2896.000000	99.179598 
2895.000000	99.179436 
2894.000000	99.177694 
2893.000000	99.177891 
2892.000000	99.181358 
2891.000000	99.186911 
2890.000000	99.192497 
2889.000000	99.196523 
2888.000000	99.198149 
2887.000000	99.197552 
2886.000000	99.196164 
2885.000000	99.195873 
2884.000000	99.197548 
2883.000000	99.200698 
2882.000000	99.204695 
2881.000000	99.209624 
2880.000000	99.215466 
2879.000000	99.221068 
2878.000000	99.224871 
2877.000000	99.226748 
2876.000000	99.228505 
2875.000000	99.232136 
2874.000000	99.237765 
2873.000000	99.243567 
2872.000000	99.247524 
2871.000000	99.248985 
2870.000000	99.248641 
2869.000000	99.247715 
2868.000000	99.247561 
2867.000000	99.249462 
2866.000000	99.253835 
2865.000000	99.259509 
2864.000000	99.264481 
2863.000000	99.267621 
2862.000000	99.269068 
2861.000000	99.268908 
2860.000000	99.266598 
2859.000000	99.262498 
2858.000000	99.258997 
2857.000000	99.258723 
2856.000000	99.261764 
2855.000000	99.265784 
2854.000000	99.268898 
2853.000000	99.271429 
2852.000000	99.274614 
2851.000000	99.278755 
2850.000000	99.283339 
2849.000000	99.288195 
2848.000000	99.293573 
2847.000000	99.299333 
2846.000000	99.304774 
2845.000000	99.309168 
2844.000000	99.311973 
2843.000000	99.312688 
2842.000000	99.311278 
2841.000000	99.308890 
2840.000000	99.307563 
2839.000000	99.308683 
2838.000000	99.311736 
2837.000000	99.314713 
2836.000000	99.315802 
2835.000000	99.314838 
2834.000000	99.313348 
2833.000000	99.313177 
2832.000000	99.314800 
2831.000000	99.316905 
2830.000000	99.317754 
2829.000000	99.316940 
2828.000000	99.315662 
2827.000000	99.315382 
2826.000000	99.316567 
2825.000000	99.318709 
2824.000000	99.321033 
2823.000000	99.322871 
2822.000000	99.323722 
2821.000000	99.323532 
2820.000000	99.322893 
2819.000000	99.322541 
2818.000000	99.322587 
2817.000000	99.322537 
2816.000000	99.322163 
2815.000000	99.321926 
2814.000000	99.322255 
2813.000000	99.322731 
2812.000000	99.322527 
2811.000000	99.321728 
2810.000000	99.321749 
2809.000000	99.324051 
2808.000000	99.328442 
2807.000000	99.332867 
2806.000000	99.335016 
2805.000000	99.334172 
2804.000000	99.331630 
2803.000000	99.329478 
2802.000000	99.328993 
2801.000000	99.329994 
2800.000000	99.331407 
2799.000000	99.332311 
2798.000000	99.332492 
2797.000000	99.332179 
2796.000000	99.331492 
2795.000000	99.330293 
2794.000000	99.328564 
2793.000000	99.326681 
2792.000000	99.325129 
2791.000000	99.324072 
2790.000000	99.323522 
2789.000000	99.323893 
2788.000000	99.325933 
2787.000000	99.329712 
2786.000000	99.333904 
2785.000000	99.336539 
2784.000000	99.336673 
2783.000000	99.335144 
2782.000000	99.333710 
2781.000000	99.333636 
2780.000000	99.335056 
2779.000000	99.337203 
2778.000000	99.338948 
2777.000000	99.339421 
2776.000000	99.338534 
2775.000000	99.336894 
2774.000000	99.335028 
2773.000000	99.332970 
2772.000000	99.331043 
2771.000000	99.330750 
2770.000000	99.333968 
2769.000000	99.340782 
2768.000000	99.348775 
2767.000000	99.355139 
2766.000000	99.359164 
2765.000000	99.361922 
2764.000000	99.363705 
2763.000000	99.362992 
2762.000000	99.358473 
2761.000000	99.351270 
2760.000000	99.344202 
2759.000000	99.339163 
2758.000000	99.336087 
2757.000000	99.334369 
2756.000000	99.334107 
2755.000000	99.335402 
2754.000000	99.337291 
2753.000000	99.338450 
2752.000000	99.338957 
2751.000000	99.340577 
2750.000000	99.344892 
2749.000000	99.351328 
2748.000000	99.357187 
2747.000000	99.359589 
2746.000000	99.357426 
2745.000000	99.351794 
2744.000000	99.344944 
2743.000000	99.339021 
2742.000000	99.335585 
2741.000000	99.335537 
2740.000000	99.338678 
2739.000000	99.343321 
2738.000000	99.347242 
2737.000000	99.349647 
2736.000000	99.351818 
2735.000000	99.355195 
2734.000000	99.359134 
2733.000000	99.361268 
2732.000000	99.359943 
2731.000000	99.355494 
2730.000000	99.349169 
2729.000000	99.341936 
2728.000000	99.334919 
2727.000000	99.330084 
2726.000000	99.329271 
2725.000000	99.332531 
2724.000000	99.338172 
2723.000000	99.344621 
2722.000000	99.351535 
2721.000000	99.358783 
2720.000000	99.364895 
2719.000000	99.367403 
2718.000000	99.365000 
2717.000000	99.359020 
2716.000000	99.352522 
2715.000000	99.347930 
2714.000000	99.345711 
2713.000000	99.345013 
2712.000000	99.344998 
2711.000000	99.345416 
2710.000000	99.346520 
2709.000000	99.348931 
2708.000000	99.353232 
2707.000000	99.359029 
2706.000000	99.364591 
2705.000000	99.368176 
2704.000000	99.369774 
2703.000000	99.370776 
2702.000000	99.371665 
2701.000000	99.370856 
2700.000000	99.366562 
2699.000000	99.359486 
2698.000000	99.352907 
2697.000000	99.350005 
2696.000000	99.351470 
2695.000000	99.355667 
2694.000000	99.360614 
2693.000000	99.365356 
2692.000000	99.369588 
2691.000000	99.372570 
2690.000000	99.373185 
2689.000000	99.371307 
2688.000000	99.368582 
2687.000000	99.367186 
2686.000000	99.367828 
2685.000000	99.369352 
2684.000000	99.369997 
2683.000000	99.368382 
2682.000000	99.363610 
2681.000000	99.355760 
2680.000000	99.346844 
2679.000000	99.340268 
2678.000000	99.338504 
2677.000000	99.341691 
2676.000000	99.348741 
2675.000000	99.358689 
2674.000000	99.369906 
2673.000000	99.379011 
2672.000000	99.382524 
2671.000000	99.379970 
2670.000000	99.374354 
2669.000000	99.369303 
2668.000000	99.366496 
2667.000000	99.365803 
2666.000000	99.366451 
2665.000000	99.367151 
2664.000000	99.365915 
2663.000000	99.361207 
2662.000000	99.353842 
2661.000000	99.347452 
2660.000000	99.346397 
2659.000000	99.352433 
2658.000000	99.362876 
2657.000000	99.372252 
2656.000000	99.376359 
2655.000000	99.374908 
2654.000000	99.370395 
2653.000000	99.365376 
2652.000000	99.361687 
2651.000000	99.361258 
2650.000000	99.365322 
2649.000000	99.372092 
2648.000000	99.377021 
2647.000000	99.376949 
2646.000000	99.373476 
2645.000000	99.371047 
2644.000000	99.371995 
2643.000000	99.374539 
2642.000000	99.375448 
2641.000000	99.373620 
2640.000000	99.370669 
2639.000000	99.368622 
2638.000000	99.367527 
2637.000000	99.365293 
2636.000000	99.359937 
2635.000000	99.351985 
2634.000000	99.344437 
2633.000000	99.340356 
2632.000000	99.340865 
2631.000000	99.345273 
2630.000000	99.351867 
2629.000000	99.357967 
2628.000000	99.360597 
2627.000000	99.358851 
2626.000000	99.355335 
2625.000000	99.353826 
2624.000000	99.355391 
2623.000000	99.357869 
2622.000000	99.359077 
2621.000000	99.358974 
2620.000000	99.358295 
2619.000000	99.356719 
2618.000000	99.353679 
2617.000000	99.350155 
2616.000000	99.348357 
2615.000000	99.349737 
2614.000000	99.354071 
2613.000000	99.360240 
2612.000000	99.367114 
2611.000000	99.373704 
2610.000000	99.379035 
2609.000000	99.382083 
2608.000000	99.381920 
2607.000000	99.378595 
2606.000000	99.374282 
2605.000000	99.372578 
2604.000000	99.375225 
2603.000000	99.379720 
2602.000000	99.381643 
2601.000000	99.379750 
2600.000000	99.377439 
2599.000000	99.378280 
2598.000000	99.381121 
2597.000000	99.380985 
2596.000000	99.374594 
2595.000000	99.363949 
2594.000000	99.354468 
2593.000000	99.350510 
2592.000000	99.352734 
2591.000000	99.358606 
2590.000000	99.364641 
2589.000000	99.368534 
2588.000000	99.369964 
2587.000000	99.369705 
2586.000000	99.368320 
2585.000000	99.366147 
2584.000000	99.364295 
2583.000000	99.364467 
2582.000000	99.366992 
2581.000000	99.369559 
2580.000000	99.368773 
2579.000000	99.362984 
2578.000000	99.353313 
2577.000000	99.342396 
2576.000000	99.332922 
2575.000000	99.327102 
2574.000000	99.326300 
2573.000000	99.330399 
2572.000000	99.337767 
2571.000000	99.346191 
2570.000000	99.353789 
2569.000000	99.359251 
2568.000000	99.361934 
2567.000000	99.362103 
2566.000000	99.360730 
2565.000000	99.358714 
2564.000000	99.356498 
2563.000000	99.354507 
2562.000000	99.353334 
2561.000000	99.352773 
2560.000000	99.350830 
2559.000000	99.344728 
2558.000000	99.333968 
2557.000000	99.322600 
2556.000000	99.317536 
2555.000000	99.323220 
2554.000000	99.337170 
2553.000000	99.351044 
2552.000000	99.356826 
2551.000000	99.352517 
2550.000000	99.342506 
2549.000000	99.333502 
2548.000000	99.330296 
2547.000000	99.333875 
2546.000000	99.341670 
2545.000000	99.349446 
2544.000000	99.354199 
2543.000000	99.355800 
2542.000000	99.355543 
2541.000000	99.353676 
2540.000000	99.349562 
2539.000000	99.343863 
2538.000000	99.338530 
2537.000000	99.334118 
2536.000000	99.329073 
2535.000000	99.322931 
2534.000000	99.318408 
2533.000000	99.318223 
2532.000000	99.321050 
2531.000000	99.323259 
2530.000000	99.324413 
2529.000000	99.328053 
2528.000000	99.335886 
2527.000000	99.343648 
2526.000000	99.345091 
2525.000000	99.339190 
2524.000000	99.331244 
2523.000000	99.326840 
2522.000000	99.326623 
2521.000000	99.327482 
2520.000000	99.326992 
2519.000000	99.325123 
2518.000000	99.322568 
2517.000000	99.319537 
2516.000000	99.316652 
2515.000000	99.315559 
2514.000000	99.317645 
2513.000000	99.322718 
2512.000000	99.329527 
2511.000000	99.336805 
2510.000000	99.343162 
2509.000000	99.347039 
2508.000000	99.348212 
2507.000000	99.348640 
2506.000000	99.349889 
2505.000000	99.349774 
2504.000000	99.343831 
2503.000000	99.331231 
2502.000000	99.317718 
2501.000000	99.311371 
2500.000000	99.316161 
2499.000000	99.330150 
2498.000000	99.348101 
2497.000000	99.364102 
2496.000000	99.372931 
2495.000000	99.372249 
2494.000000	99.364496 
2493.000000	99.355224 
2492.000000	99.348587 
2491.000000	99.345055 
2490.000000	99.343640 
2489.000000	99.345047 
2488.000000	99.351495 
2487.000000	99.363556 
2486.000000	99.377715 
2485.000000	99.387508 
2484.000000	99.387955 
2483.000000	99.379653 
2482.000000	99.368242 
2481.000000	99.359168 
2480.000000	99.353183 
2479.000000	99.347431 
2478.000000	99.339923 
2477.000000	99.331471 
2476.000000	99.323878 
2475.000000	99.318450 
2474.000000	99.316577 
2473.000000	99.319645 
2472.000000	99.327235 
2471.000000	99.336739 
2470.000000	99.345673 
2469.000000	99.353286 
2468.000000	99.359179 
2467.000000	99.361870 
2466.000000	99.360073 
2465.000000	99.354430 
2464.000000	99.346768 
2463.000000	99.338548 
2462.000000	99.331187 
2461.000000	99.326609 
2460.000000	99.325555 
2459.000000	99.326028 
2458.000000	99.325472 
2457.000000	99.324417 
2456.000000	99.326130 
2455.000000	99.332480 
2454.000000	99.341773 
2453.000000	99.350948 
2452.000000	99.358074 
2451.000000	99.361844 
2450.000000	99.360348 
2449.000000	99.352322 
2448.000000	99.339573 
2447.000000	99.327159 
2446.000000	99.320659 
2445.000000	99.322715 
2444.000000	99.331160 
2443.000000	99.340195 
2442.000000	99.344437 
2441.000000	99.343101 
2440.000000	99.340348 
2439.000000	99.341173 
2438.000000	99.346816 
2437.000000	99.354068 
2436.000000	99.358513 
2435.000000	99.358189 
2434.000000	99.354642 
2433.000000	99.351238 
2432.000000	99.350606 
2431.000000	99.353148 
2430.000000	99.357148 
2429.000000	99.359842 
2428.000000	99.358978 
2427.000000	99.354595 
2426.000000	99.349685 
2425.000000	99.348146 
2424.000000	99.351417 
2423.000000	99.357781 
2422.000000	99.365225 
2421.000000	99.373355 
2420.000000	99.381252 
2419.000000	99.385212 
2418.000000	99.381467 
2417.000000	99.370994 
2416.000000	99.359170 
2415.000000	99.350195 
2414.000000	99.343984 
2413.000000	99.339026 
2412.000000	99.335763 
2411.000000	99.335552 
2410.000000	99.338045 
2409.000000	99.341460 
2408.000000	99.344539 
2407.000000	99.346815 
2406.000000	99.347874 
2405.000000	99.347895 
2404.000000	99.348284 
2403.000000	99.350196 
2402.000000	99.352638 
2401.000000	99.353184 
2400.000000	99.350432 
2399.000000	99.345017 
2398.000000	99.338790 
2397.000000	99.333994 
2396.000000	99.332606 
2395.000000	99.334943 
2394.000000	99.338859 
2393.000000	99.341415 
2392.000000	99.341525 
2391.000000	99.340395 
2390.000000	99.339638 
2389.000000	99.339998 
2388.000000	99.341719 
2387.000000	99.344804 
2386.000000	99.348408 
2385.000000	99.350777 
2384.000000	99.350736 
2383.000000	99.349142 
2382.000000	99.348578 
2381.000000	99.351330 
2380.000000	99.357470 
2379.000000	99.365007 
2378.000000	99.372321 
2377.000000	99.379287 
2376.000000	99.384868 
2375.000000	99.385341 
2374.000000	99.378312 
2373.000000	99.367566 
2372.000000	99.360116 
2371.000000	99.358589 
2370.000000	99.360379 
2369.000000	99.363447 
2368.000000	99.367279 
2367.000000	99.369205 
2366.000000	99.366720 
2365.000000	99.362584 
2364.000000	99.360862 
2363.000000	99.358860 
2362.000000	99.350126 
2361.000000	99.336094 
2360.000000	99.324634 
2359.000000	99.318711 
2358.000000	99.317077 
2357.000000	99.320139 
2356.000000	99.330504 
2355.000000	99.347727 
2354.000000	99.372520 
2353.000000	99.398309 
2352.000000	99.410611 
2351.000000	99.401851 
2350.000000	99.378438 
2349.000000	99.353643 
2348.000000	99.337457 
2347.000000	99.335857 
2346.000000	99.345398 
2345.000000	99.352497 
2344.000000	99.350513 
2343.000000	99.344508 
2342.000000	99.342959 
2341.000000	99.345379 
2340.000000	99.348720 
2339.000000	99.352867 
2338.000000	99.359793 
2337.000000	99.367687 
2336.000000	99.367473 
2335.000000	99.356242 
2334.000000	99.342687 
2333.000000	99.339362 
2332.000000	99.344131 
2331.000000	99.349923 
2330.000000	99.350172 
2329.000000	99.346534 
2328.000000	99.337557 
2327.000000	99.327275 
2326.000000	99.319599 
2325.000000	99.315346 
2324.000000	99.310228 
2323.000000	99.304796 
2322.000000	99.305320 
2321.000000	99.313268 
2320.000000	99.319317 
2319.000000	99.316547 
2318.000000	99.306844 
2317.000000	99.299929 
2316.000000	99.299000 
2315.000000	99.304181 
2314.000000	99.311918 
2313.000000	99.322159 
2312.000000	99.331960 
2311.000000	99.340578 
2310.000000	99.346116 
2309.000000	99.348879 
2308.000000	99.347916 
2307.000000	99.345277 
2306.000000	99.342902 
2305.000000	99.343090 
2304.000000	99.346249 
2303.000000	99.353780 
2302.000000	99.364178 
2301.000000	99.373674 
2300.000000	99.377635 
2299.000000	99.377620 
2298.000000	99.376947 
2297.000000	99.376680 
2296.000000	99.372567 
2295.000000	99.363516 
2294.000000	99.353658 
2293.000000	99.349299 
2292.000000	99.351893 
2291.000000	99.359078 
2290.000000	99.367646 
2289.000000	99.374601 
2288.000000	99.377013 
2287.000000	99.373571 
2286.000000	99.365882 
2285.000000	99.355953 
2284.000000	99.345209 
2283.000000	99.336268 
2282.000000	99.334327 
2281.000000	99.342296 
2280.000000	99.356229 
2279.000000	99.367864 
2278.000000	99.372539 
2277.000000	99.372394 
2276.000000	99.372025 
2275.000000	99.373546 
2274.000000	99.375838 
2273.000000	99.376810 
2272.000000	99.375163 
2271.000000	99.372174 
2270.000000	99.371889 
2269.000000	99.378328 
2268.000000	99.391129 
2267.000000	99.405001 
2266.000000	99.413649 
2265.000000	99.414169 
2264.000000	99.407862 
2263.000000	99.398032 
2262.000000	99.387636 
2261.000000	99.378150 
2260.000000	99.369926 
2259.000000	99.362864 
2258.000000	99.357176 
2257.000000	99.353653 
2256.000000	99.353676 
2255.000000	99.357882 
2254.000000	99.364171 
2253.000000	99.368473 
2252.000000	99.368988 
2251.000000	99.368938 
2250.000000	99.372459 
2249.000000	99.378838 
2248.000000	99.382862 
2247.000000	99.381665 
2246.000000	99.377263 
2245.000000	99.372680 
2244.000000	99.368561 
2243.000000	99.365042 
2242.000000	99.363796 
2241.000000	99.366297 
2240.000000	99.372344 
2239.000000	99.381614 
2238.000000	99.393709 
2237.000000	99.404850 
2236.000000	99.408246 
2235.000000	99.401213 
2234.000000	99.389828 
2233.000000	99.383189 
2232.000000	99.384300 
2231.000000	99.388996 
2230.000000	99.391786 
2229.000000	99.389648 
2228.000000	99.382041 
2227.000000	99.371092 
2226.000000	99.361224 
2225.000000	99.355827 
2224.000000	99.355042 
2223.000000	99.358602 
2222.000000	99.367674 
2221.000000	99.379922 
2220.000000	99.386314 
2219.000000	99.379903 
2218.000000	99.367019 
2217.000000	99.362455 
2216.000000	99.371647 
2215.000000	99.384011 
2214.000000	99.386833 
2213.000000	99.380131 
2212.000000	99.373712 
2211.000000	99.374495 
2210.000000	99.382530 
2209.000000	99.396057 
2208.000000	99.412782 
2207.000000	99.425684 
2206.000000	99.424385 
2205.000000	99.405473 
2204.000000	99.379661 
2203.000000	99.364784 
2202.000000	99.370578 
2201.000000	99.390246 
2200.000000	99.406542 
2199.000000	99.406335 
2198.000000	99.390412 
2197.000000	99.371043 
2196.000000	99.361096 
2195.000000	99.365066 
2194.000000	99.378421 
2193.000000	99.392696 
2192.000000	99.401082 
2191.000000	99.402190 
2190.000000	99.400957 
2189.000000	99.404912 
2188.000000	99.416731 
2187.000000	99.430208 
2186.000000	99.435677 
2185.000000	99.429978 
2184.000000	99.419224 
2183.000000	99.411166 
2182.000000	99.407661 
2181.000000	99.406035 
2180.000000	99.404258 
2179.000000	99.401239 
2178.000000	99.394574 
2177.000000	99.383225 
2176.000000	99.371997 
2175.000000	99.367999 
2174.000000	99.371569 
2173.000000	99.376093 
2172.000000	99.379222 
2171.000000	99.388478 
2170.000000	99.410603 
2169.000000	99.438972 
2168.000000	99.458050 
2167.000000	99.459703 
2166.000000	99.449712 
2165.000000	99.439031 
2164.000000	99.434616 
2163.000000	99.439134 
2162.000000	99.451976 
2161.000000	99.466041 
2160.000000	99.469034 
2159.000000	99.454343 
2158.000000	99.428291 
2157.000000	99.402372 
2156.000000	99.382507 
2155.000000	99.370639 
2154.000000	99.370678 
2153.000000	99.385160 
2152.000000	99.407996 
2151.000000	99.426953 
2150.000000	99.434632 
2149.000000	99.434425 
2148.000000	99.435029 
2147.000000	99.440639 
2146.000000	99.447011 
2145.000000	99.445930 
2144.000000	99.433465 
2143.000000	99.414447 
2142.000000	99.398415 
2141.000000	99.390614 
2140.000000	99.387971 
2139.000000	99.384965 
2138.000000	99.381453 
2137.000000	99.381868 
2136.000000	99.387662 
2135.000000	99.394506 
2134.000000	99.398244 
2133.000000	99.400406 
2132.000000	99.404901 
2131.000000	99.410723 
2130.000000	99.411313 
2129.000000	99.402026 
2128.000000	99.386468 
2127.000000	99.373870 
2126.000000	99.370854 
2125.000000	99.377045 
2124.000000	99.388096 
2123.000000	99.400670 
2122.000000	99.413232 
2121.000000	99.423934 
2120.000000	99.430542 
2119.000000	99.432496 
2118.000000	99.431133 
2117.000000	99.427613 
2116.000000	99.422203 
2115.000000	99.415965 
2114.000000	99.411388 
2113.000000	99.410183 
2112.000000	99.411547 
2111.000000	99.413848 
2110.000000	99.417043 
2109.000000	99.421637 
2108.000000	99.425354 
2107.000000	99.422809 
2106.000000	99.410300 
2105.000000	99.391267 
2104.000000	99.375692 
2103.000000	99.372192 
2102.000000	99.379932 
2101.000000	99.389035 
2100.000000	99.389963 
2099.000000	99.382138 
2098.000000	99.373165 
2097.000000	99.371270 
2096.000000	99.379737 
2095.000000	99.396607 
2094.000000	99.416146 
2093.000000	99.430584 
2092.000000	99.434369 
2091.000000	99.428877 
2090.000000	99.421493 
2089.000000	99.418493 
2088.000000	99.419267 
2087.000000	99.418334 
2086.000000	99.412027 
2085.000000	99.402548 
2084.000000	99.396497 
2083.000000	99.399775 
2082.000000	99.412567 
2081.000000	99.428313 
2080.000000	99.439071 
2079.000000	99.443224 
2078.000000	99.446945 
2077.000000	99.456833 
2076.000000	99.471504 
2075.000000	99.481408 
2074.000000	99.476873 
2073.000000	99.456751 
2072.000000	99.430450 
2071.000000	99.411382 
2070.000000	99.406908 
2069.000000	99.413263 
2068.000000	99.419938 
2067.000000	99.419105 
2066.000000	99.410944 
2065.000000	99.402155 
2064.000000	99.401104 
2063.000000	99.412224 
2062.000000	99.430989 
2061.000000	99.444256 
2060.000000	99.440796 
2059.000000	99.423978 
2058.000000	99.410487 
2057.000000	99.413749 
2056.000000	99.430896 
2055.000000	99.448143 
2054.000000	99.456070 
2053.000000	99.456620 
2052.000000	99.457479 
2051.000000	99.463519 
2050.000000	99.473287 
2049.000000	99.481052 
2048.000000	99.482796 
2047.000000	99.481575 
2046.000000	99.484856 
2045.000000	99.494589 
2044.000000	99.502405 
2043.000000	99.498249 
2042.000000	99.482849 
2041.000000	99.468008 
2040.000000	99.463844 
2039.000000	99.468893 
2038.000000	99.474065 
2037.000000	99.473212 
2036.000000	99.467647 
2035.000000	99.461338 
2034.000000	99.454656 
2033.000000	99.445714 
2032.000000	99.437940 
2031.000000	99.441850 
2030.000000	99.464079 
2029.000000	99.494894 
2028.000000	99.512468 
2027.000000	99.503000 
2026.000000	99.473597 
2025.000000	99.444343 
2024.000000	99.430769 
2023.000000	99.435174 
2022.000000	99.449656 
2021.000000	99.462510 
2020.000000	99.465023 
2019.000000	99.457734 
2018.000000	99.449674 
2017.000000	99.448363 
2016.000000	99.451738 
2015.000000	99.453501 
2014.000000	99.453235 
2013.000000	99.455702 
2012.000000	99.462263 
2011.000000	99.468708 
2010.000000	99.471784 
2009.000000	99.473317 
2008.000000	99.476595 
2007.000000	99.481906 
2006.000000	99.486811 
2005.000000	99.488693 
2004.000000	99.486688 
2003.000000	99.482970 
2002.000000	99.481737 
2001.000000	99.484441 
2000.000000	99.486190 
1999.000000	99.479326 
1998.000000	99.460912 
1997.000000	99.435663 
1996.000000	99.412569 
1995.000000	99.399631 
1994.000000	99.400410 
1993.000000	99.412388 
1992.000000	99.427937 
1991.000000	99.439288 
1990.000000	99.443044 
1989.000000	99.439417 
1988.000000	99.430673 
1987.000000	99.422727 
1986.000000	99.424547 
1985.000000	99.441069 
1984.000000	99.466884 
1983.000000	99.490020 
1982.000000	99.501785 
1981.000000	99.501481 
1980.000000	99.493786 
1979.000000	99.484720 
1978.000000	99.478466 
1977.000000	99.473588 
1976.000000	99.463461 
1975.000000	99.445059 
1974.000000	99.426774 
1973.000000	99.422527 
1972.000000	99.436744 
1971.000000	99.459257 
1970.000000	99.476823 
1969.000000	99.486421 
1968.000000	99.494903 
1967.000000	99.507640 
1966.000000	99.521574 
1965.000000	99.529879 
1964.000000	99.529539 
1963.000000	99.522184 
1962.000000	99.510417 
1961.000000	99.496333 
1960.000000	99.482719 
1959.000000	99.472643 
1958.000000	99.466742 
1957.000000	99.462227 
1956.000000	99.455725 
1955.000000	99.446430 
1954.000000	99.435955 
1953.000000	99.426505 
1952.000000	99.420237 
1951.000000	99.419296 
1950.000000	99.424307 
1949.000000	99.432559 
1948.000000	99.439242 
1947.000000	99.441340 
1946.000000	99.439158 
1945.000000	99.434104 
1944.000000	99.426987 
1943.000000	99.418967 
1942.000000	99.411695 
1941.000000	99.404995 
1940.000000	99.397154 
1939.000000	99.389043 
1938.000000	99.385370 
1937.000000	99.390098 
1936.000000	99.401562 
1935.000000	99.413427 
1934.000000	99.419579 
1933.000000	99.417679 
1932.000000	99.409970 
1931.000000	99.402560 
1930.000000	99.402643 
1929.000000	99.412886 
1928.000000	99.427908 
1927.000000	99.438469 
1926.000000	99.438842 
1925.000000	99.428958 
1924.000000	99.412508 
1923.000000	99.395722 
1922.000000	99.386281 
1921.000000	99.388040 
1920.000000	99.396843 
1919.000000	99.404359 
1918.000000	99.405900 
1917.000000	99.403390 
1916.000000	99.400603 
1915.000000	99.399281 
1914.000000	99.400386 
1913.000000	99.404666 
1912.000000	99.410766 
1911.000000	99.415338 
1910.000000	99.416537 
1909.000000	99.415795 
1908.000000	99.415835 
1907.000000	99.418784 
1906.000000	99.425530 
1905.000000	99.433542 
1904.000000	99.435884 
1903.000000	99.425881 
1902.000000	99.404422 
1901.000000	99.380480 
1900.000000	99.363973 
1899.000000	99.359178 
1898.000000	99.363850 
1897.000000	99.371566 
1896.000000	99.375357 
1895.000000	99.372678 
1894.000000	99.367794 
1893.000000	99.366482 
1892.000000	99.369306 
1891.000000	99.372912 
1890.000000	99.375830 
1889.000000	99.379388 
1888.000000	99.383368 
1887.000000	99.385637 
1886.000000	99.385677 
1885.000000	99.384534 
1884.000000	99.381716 
1883.000000	99.375685 
1882.000000	99.367947 
1881.000000	99.362864 
1880.000000	99.362563 
1879.000000	99.364719 
1878.000000	99.365815 
1877.000000	99.364355 
1876.000000	99.360993 
1875.000000	99.358052 
1874.000000	99.359049 
1873.000000	99.365572 
1872.000000	99.373754 
1871.000000	99.376743 
1870.000000	99.371905 
1869.000000	99.363674 
1868.000000	99.356387 
1867.000000	99.349272 
1866.000000	99.342231 
1865.000000	99.338705 
1864.000000	99.341422 
1863.000000	99.349048 
1862.000000	99.357942 
1861.000000	99.365160 
1860.000000	99.368713 
1859.000000	99.367765 
1858.000000	99.364692 
1857.000000	99.364215 
1856.000000	99.368702 
1855.000000	99.376319 
1854.000000	99.383781 
1853.000000	99.388637 
1852.000000	99.389210 
1851.000000	99.384777 
1850.000000	99.377370 
1849.000000	99.371261 
1848.000000	99.369424 
1847.000000	99.371104 
1846.000000	99.373570 
1845.000000	99.374291 
1844.000000	99.371553 
1843.000000	99.366017 
1842.000000	99.361665 
1841.000000	99.361858 
1840.000000	99.366128 
1839.000000	99.370949 
1838.000000	99.373238 
1837.000000	99.373223 
1836.000000	99.373339 
1835.000000	99.375112 
1834.000000	99.378363 
1833.000000	99.382560 
1832.000000	99.387738 
1831.000000	99.392926 
1830.000000	99.395294 
1829.000000	99.393200 
1828.000000	99.389147 
1827.000000	99.385933 
1826.000000	99.383406 
1825.000000	99.380573 
1824.000000	99.377510 
1823.000000	99.374520 
1822.000000	99.371050 
1821.000000	99.365904 
1820.000000	99.358303 
1819.000000	99.348876 
1818.000000	99.340723 
1817.000000	99.338198 
1816.000000	99.342248 
1815.000000	99.349100 
1814.000000	99.355654 
1813.000000	99.363348 
1812.000000	99.374647 
1811.000000	99.387102 
1810.000000	99.395773 
1809.000000	99.400162 
1808.000000	99.401996 
1807.000000	99.399910 
1806.000000	99.391835 
1805.000000	99.379746 
1804.000000	99.368343 
1803.000000	99.360477 
1802.000000	99.356733 
1801.000000	99.357885 
1800.000000	99.362566 
1799.000000	99.365973 
1798.000000	99.365875 
1797.000000	99.365778 
1796.000000	99.369458 
1795.000000	99.375842 
1794.000000	99.380432 
1793.000000	99.380695 
1792.000000	99.378580 
1791.000000	99.376200 
1790.000000	99.373997 
1789.000000	99.373132 
1788.000000	99.374967 
1787.000000	99.379023 
1786.000000	99.382665 
1785.000000	99.383279 
1784.000000	99.380471 
1783.000000	99.376771 
1782.000000	99.375305 
1781.000000	99.376513 
1780.000000	99.376935 
1779.000000	99.373347 
1778.000000	99.367316 
1777.000000	99.363516 
1776.000000	99.364997 
1775.000000	99.371671 
1774.000000	99.381470 
1773.000000	99.391264 
1772.000000	99.397827 
1771.000000	99.399481 
1770.000000	99.397160 
1769.000000	99.392897 
1768.000000	99.389205 
1767.000000	99.387439 
1766.000000	99.386790 
1765.000000	99.386331 
1764.000000	99.386171 
1763.000000	99.386737 
1762.000000	99.387175 
1761.000000	99.386369 
1760.000000	99.385220 
1759.000000	99.385445 
1758.000000	99.387313 
1757.000000	99.389884 
1756.000000	99.392320 
1755.000000	99.394140 
1754.000000	99.393600 
1753.000000	99.388585 
1752.000000	99.381707 
1751.000000	99.381967 
1750.000000	99.393338 
1749.000000	99.406780 
1748.000000	99.412010 
1747.000000	99.407797 
1746.000000	99.398974 
1745.000000	99.389682 
1744.000000	99.382161 
1743.000000	99.377750 
1742.000000	99.376188 
1741.000000	99.376632 
1740.000000	99.378941 
1739.000000	99.382348 
1738.000000	99.384540 
1737.000000	99.383994 
1736.000000	99.380061 
1735.000000	99.373235 
1734.000000	99.367929 
1733.000000	99.368232 
1732.000000	99.373729 
1731.000000	99.382744 
1730.000000	99.392387 
1729.000000	99.397832 
1728.000000	99.396905 
1727.000000	99.392354 
1726.000000	99.387532 
1725.000000	99.382998 
1724.000000	99.378460 
1723.000000	99.375864 
1722.000000	99.378005 
1721.000000	99.385597 
1720.000000	99.395775 
1719.000000	99.402435 
1718.000000	99.399454 
1717.000000	99.389367 
1716.000000	99.378985 
1715.000000	99.369108 
1714.000000	99.360599 
1713.000000	99.356651 
1712.000000	99.357487 
1711.000000	99.360196 
1710.000000	99.362060 
1709.000000	99.362576 
1708.000000	99.362696 
1707.000000	99.363264 
1706.000000	99.366226 
1705.000000	99.373160 
1704.000000	99.380403 
1703.000000	99.380526 
1702.000000	99.369607 
1701.000000	99.354264 
1700.000000	99.348959 
1699.000000	99.350879 
1698.000000	99.350688 
1697.000000	99.350714 
1696.000000	99.354854 
1695.000000	99.358289 
1694.000000	99.355392 
1693.000000	99.347613 
1692.000000	99.337830 
1691.000000	99.328206 
1690.000000	99.321063 
1689.000000	99.317842 
1688.000000	99.316983 
1687.000000	99.314839 
1686.000000	99.309800 
1685.000000	99.305528 
1684.000000	99.306219 
1683.000000	99.306295 
1682.000000	99.303124 
1681.000000	99.298163 
1680.000000	99.293976 
1679.000000	99.292359 
1678.000000	99.293204 
1677.000000	99.294378 
1676.000000	99.293635 
1675.000000	99.291551 
1674.000000	99.289721 
1673.000000	99.288844 
1672.000000	99.288872 
1671.000000	99.289750 
1670.000000	99.290875 
1669.000000	99.289922 
1668.000000	99.285690 
1667.000000	99.280051 
1666.000000	99.273432 
1665.000000	99.265205 
1664.000000	99.256786 
1663.000000	99.252183 
1662.000000	99.253494 
1661.000000	99.257472 
1660.000000	99.259484 
1659.000000	99.259172 
1658.000000	99.258995 
1657.000000	99.259789 
1656.000000	99.259128 
1655.000000	99.255973 
1654.000000	99.255589 
1653.000000	99.261206 
1652.000000	99.261732 
1651.000000	99.257490 
1650.000000	99.251066 
1649.000000	99.244338 
1648.000000	99.236587 
1647.000000	99.226838 
1646.000000	99.216627 
1645.000000	99.210846 
1644.000000	99.210983 
1643.000000	99.214245 
1642.000000	99.218014 
1641.000000	99.221424 
1640.000000	99.224101 
1639.000000	99.225679 
1638.000000	99.225831 
1637.000000	99.224198 
1636.000000	99.220442 
1635.000000	99.216016 
1634.000000	99.214592 
1633.000000	99.216523 
1632.000000	99.219628 
1631.000000	99.222717 
1630.000000	99.225410 
1629.000000	99.227112 
1628.000000	99.227174 
1627.000000	99.227024 
1626.000000	99.229596 
1625.000000	99.235952 
1624.000000	99.243827 
1623.000000	99.249720 
1622.000000	99.252200 
1621.000000	99.252332 
1620.000000	99.251465 
1619.000000	99.250922 
1618.000000	99.252232 
1617.000000	99.255267 
1616.000000	99.256604 
1615.000000	99.255536 
1614.000000	99.254507 
1613.000000	99.253969 
1612.000000	99.253339 
1611.000000	99.253041 
1610.000000	99.254402 
1609.000000	99.256925 
1608.000000	99.258516 
1607.000000	99.258946 
1606.000000	99.259523 
1605.000000	99.260727 
1604.000000	99.262757 
1603.000000	99.267017 
1602.000000	99.273622 
1601.000000	99.279477 
1600.000000	99.282324 
1599.000000	99.284425 
1598.000000	99.289125 
1597.000000	99.296066 
1596.000000	99.302422 
1595.000000	99.307172 
1594.000000	99.311331 
1593.000000	99.314511 
1592.000000	99.315223 
1591.000000	99.314366 
1590.000000	99.314732 
1589.000000	99.316699 
1588.000000	99.318208 
1587.000000	99.318982 
1586.000000	99.320489 
1585.000000	99.321908 
1584.000000	99.320609 
1583.000000	99.316914 
1582.000000	99.315031 
1581.000000	99.317246 
1580.000000	99.321837 
1579.000000	99.327077 
1578.000000	99.333063 
1577.000000	99.338320 
1576.000000	99.339236 
1575.000000	99.337301 
1574.000000	99.337573 
1573.000000	99.339388 
1572.000000	99.339837 
1571.000000	99.339129 
1570.000000	99.340876 
1569.000000	99.344943 
1568.000000	99.347326 
1567.000000	99.347612 
1566.000000	99.347579 
1565.000000	99.348151 
1564.000000	99.349848 
1563.000000	99.353584 
1562.000000	99.359066 
1561.000000	99.361159 
1560.000000	99.354291 
1559.000000	99.345705 
1558.000000	99.344450 
1557.000000	99.348177 
1556.000000	99.352515 
1555.000000	99.355627 
1554.000000	99.355784 
1553.000000	99.351317 
1552.000000	99.344065 
1551.000000	99.338955 
1550.000000	99.340040 
1549.000000	99.345599 
1548.000000	99.350132 
1547.000000	99.350183 
1546.000000	99.346446 
1545.000000	99.342566 
1544.000000	99.341146 
1543.000000	99.341085 
1542.000000	99.341492 
1541.000000	99.345035 
1540.000000	99.350667 
1539.000000	99.352293 
1538.000000	99.352050 
1537.000000	99.352962 
1536.000000	99.354658 
1535.000000	99.356158 
1534.000000	99.357327 
1533.000000	99.357279 
1532.000000	99.353527 
1531.000000	99.345692 
1530.000000	99.337123 
1529.000000	99.332086 
1528.000000	99.331685 
1527.000000	99.333532 
1526.000000	99.334979 
1525.000000	99.335610 
1524.000000	99.335298 
1523.000000	99.334121 
1522.000000	99.335602 
1521.000000	99.343328 
1520.000000	99.351990 
1519.000000	99.354889 
1518.000000	99.352189 
1517.000000	99.347561 
1516.000000	99.342353 
1515.000000	99.335800 
1514.000000	99.328660 
1513.000000	99.323516 
1512.000000	99.322459 
1511.000000	99.323887 
1510.000000	99.323757 
1509.000000	99.321635 
1508.000000	99.323843 
1507.000000	99.334772 
1506.000000	99.343070 
1505.000000	99.342986 
1504.000000	99.339775 
1503.000000	99.336574 
1502.000000	99.335077 
1501.000000	99.335951 
1500.000000	99.339000 
1499.000000	99.342265 
1498.000000	99.342532 
1497.000000	99.341231 
1496.000000	99.343341 
1495.000000	99.346671 
1494.000000	99.344553 
1493.000000	99.335606 
1492.000000	99.323990 
1491.000000	99.316102 
1490.000000	99.315758 
1489.000000	99.321031 
1488.000000	99.325949 
1487.000000	99.325992 
1486.000000	99.323487 
1485.000000	99.323068 
1484.000000	99.325623 
1483.000000	99.328824 
1482.000000	99.329491 
1481.000000	99.326173 
1480.000000	99.320073 
1479.000000	99.313411 
1478.000000	99.308358 
1477.000000	99.306250 
1476.000000	99.305617 
1475.000000	99.301773 
1474.000000	99.294602 
1473.000000	99.292385 
1472.000000	99.300134 
1471.000000	99.309326 
1470.000000	99.312089 
1469.000000	99.310144 
1468.000000	99.308307 
1467.000000	99.307904 
1466.000000	99.307034 
1465.000000	99.304761 
1464.000000	99.302148 
1463.000000	99.300749 
1462.000000	99.301101 
1461.000000	99.302946 
1460.000000	99.304514 
1459.000000	99.302401 
1458.000000	99.293553 
1457.000000	99.281565 
1456.000000	99.274944 
1455.000000	99.274134 
1454.000000	99.274668 
1453.000000	99.275812 
1452.000000	99.277642 
1451.000000	99.278272 
1450.000000	99.275852 
1449.000000	99.272291 
1448.000000	99.271682 
1447.000000	99.274275 
1446.000000	99.276938 
1445.000000	99.278794 
1444.000000	99.280712 
1443.000000	99.282411 
1442.000000	99.282201 
1441.000000	99.279378 
1440.000000	99.275495 
1439.000000	99.272293 
1438.000000	99.269142 
1437.000000	99.265848 
1436.000000	99.264414 
1435.000000	99.263887 
1434.000000	99.261422 
1433.000000	99.257502 
1432.000000	99.254480 
1431.000000	99.254360 
1430.000000	99.256360 
1429.000000	99.257988 
1428.000000	99.258544 
1427.000000	99.258707 
1426.000000	99.259050 
1425.000000	99.259653 
1424.000000	99.261082 
1423.000000	99.263395 
1422.000000	99.263846 
1421.000000	99.259970 
1420.000000	99.253553 
1419.000000	99.249330 
1418.000000	99.245644 
1417.000000	99.239244 
1416.000000	99.233568 
1415.000000	99.231315 
1414.000000	99.229707 
1413.000000	99.224653 
1412.000000	99.217000 
1411.000000	99.211157 
1410.000000	99.207991 
1409.000000	99.205429 
1408.000000	99.203963 
1407.000000	99.205633 
1406.000000	99.210258 
1405.000000	99.215990 
1404.000000	99.222594 
1403.000000	99.229726 
1402.000000	99.234083 
1401.000000	99.233819 
1400.000000	99.232456 
1399.000000	99.235375 
1398.000000	99.240614 
1397.000000	99.240819 
1396.000000	99.234161 
1395.000000	99.227303 
1394.000000	99.227465 
1393.000000	99.234810 
1392.000000	99.246842 
1391.000000	99.261257 
1390.000000	99.274519 
1389.000000	99.282655 
1388.000000	99.284431 
1387.000000	99.282420 
1386.000000	99.279347 
1385.000000	99.276173 
1384.000000	99.273765 
1383.000000	99.273411 
1382.000000	99.275369 
1381.000000	99.279127 
1380.000000	99.284305 
1379.000000	99.290441 
1378.000000	99.295839 
1377.000000	99.297950 
1376.000000	99.296389 
1375.000000	99.294710 
1374.000000	99.297107 
1373.000000	99.302922 
1372.000000	99.308340 
1371.000000	99.312342 
1370.000000	99.317527 
1369.000000	99.324942 
1368.000000	99.332658 
1367.000000	99.338597 
1366.000000	99.342069 
1365.000000	99.342917 
1364.000000	99.340950 
1363.000000	99.337469 
1362.000000	99.335603 
1361.000000	99.336712 
1360.000000	99.338783 
1359.000000	99.339887 
1358.000000	99.340790 
1357.000000	99.342993 
1356.000000	99.346213 
1355.000000	99.348905 
1354.000000	99.350456 
1353.000000	99.351505 
1352.000000	99.352078 
1351.000000	99.351475 
1350.000000	99.350889 
1349.000000	99.351516 
1348.000000	99.352898 
1347.000000	99.354232 
1346.000000	99.356153 
1345.000000	99.359172 
1344.000000	99.361690 
1343.000000	99.361464 
1342.000000	99.358652 
1341.000000	99.355556 
1340.000000	99.353801 
1339.000000	99.353298 
1338.000000	99.353677 
1337.000000	99.355227 
1336.000000	99.357859 
1335.000000	99.360331 
1334.000000	99.361685 
1333.000000	99.362657 
1332.000000	99.364553 
1331.000000	99.367251 
1330.000000	99.368941 
1329.000000	99.367495 
1328.000000	99.362397 
1327.000000	99.355545 
1326.000000	99.350155 
1325.000000	99.347888 
1324.000000	99.348666 
1323.000000	99.351782 
1322.000000	99.355792 
1321.000000	99.358103 
1320.000000	99.356589 
1319.000000	99.351986 
1318.000000	99.347502 
1317.000000	99.345533 
1316.000000	99.345221 
1315.000000	99.343646 
1314.000000	99.339056 
1313.000000	99.332994 
1312.000000	99.329029 
1311.000000	99.329223 
1310.000000	99.332208 
1309.000000	99.334831 
1308.000000	99.335076 
1307.000000	99.332935 
1306.000000	99.329655 
1305.000000	99.326674 
1304.000000	99.325869 
1303.000000	99.328565 
1302.000000	99.333612 
1301.000000	99.337463 
1300.000000	99.337058 
1299.000000	99.332098 
1298.000000	99.324469 
1297.000000	99.316577 
1296.000000	99.310510 
1295.000000	99.307793 
1294.000000	99.308514 
1293.000000	99.310978 
1292.000000	99.312831 
1291.000000	99.312441 
1290.000000	99.309566 
1289.000000	99.305363 
1288.000000	99.301445 
1287.000000	99.298097 
1286.000000	99.293681 
1285.000000	99.286992 
1284.000000	99.279750 
1283.000000	99.274887 
1282.000000	99.272477 
1281.000000	99.269489 
1280.000000	99.263935 
1279.000000	99.257240 
1278.000000	99.251361 
1277.000000	99.245819 
1276.000000	99.239128 
1275.000000	99.231811 
1274.000000	99.225951 
1273.000000	99.222572 
1272.000000	99.220999 
1271.000000	99.220082 
1270.000000	99.218628 
1269.000000	99.215329 
1268.000000	99.209694 
1267.000000	99.202591 
1266.000000	99.194798 
1265.000000	99.186145 
1264.000000	99.176956 
1263.000000	99.168779 
1262.000000	99.162336 
1261.000000	99.156175 
1260.000000	99.148987 
1259.000000	99.142148 
1258.000000	99.137750 
1257.000000	99.135363 
1256.000000	99.132762 
1255.000000	99.129050 
1254.000000	99.125064 
1253.000000	99.121177 
1252.000000	99.116571 
1251.000000	99.110752 
1250.000000	99.104191 
1249.000000	99.097503 
1248.000000	99.091325 
1247.000000	99.086606 
1246.000000	99.083224 
1245.000000	99.078670 
1244.000000	99.069939 
1243.000000	99.057137 
1242.000000	99.044073 
1241.000000	99.034866 
1240.000000	99.030501 
1239.000000	99.028405 
1238.000000	99.024592 
1237.000000	99.016460 
1236.000000	99.004288 
1235.000000	98.990117 
1234.000000	98.975152 
1233.000000	98.959028 
1232.000000	98.941793 
1231.000000	98.924967 
1230.000000	98.909489 
1229.000000	98.894107 
1228.000000	98.877458 
1227.000000	98.860670 
1226.000000	98.846016 
1225.000000	98.833304 
1224.000000	98.819247 
1223.000000	98.800368 
1222.000000	98.775471 
1221.000000	98.745731 
1220.000000	98.713760 
1219.000000	98.682370 
1218.000000	98.652558 
1217.000000	98.622453 
1216.000000	98.589177 
1215.000000	98.551784 
1214.000000	98.511786 
1213.000000	98.471313 
1212.000000	98.431606 
1211.000000	98.392720 
1210.000000	98.353806 
1209.000000	98.313990 
1208.000000	98.273360 
1207.000000	98.232606 
1206.000000	98.191788 
1205.000000	98.150549 
1204.000000	98.109310 
1203.000000	98.068388 
1202.000000	98.025850 
1201.000000	97.978889 
1200.000000	97.928466 
1199.000000	97.880098 
1198.000000	97.838138 
1197.000000	97.801173 
1196.000000	97.764684 
1195.000000	97.725983 
1194.000000	97.684683 
1193.000000	97.640503 
1192.000000	97.593516 
1191.000000	97.545690 
1190.000000	97.499832 
1189.000000	97.457268 
1188.000000	97.417588 
1187.000000	97.379397 
1186.000000	97.339997 
1185.000000	97.295864 
1184.000000	97.245095 
1183.000000	97.188781 
1182.000000	97.129546 
1181.000000	97.070059 
1180.000000	97.013074 
1179.000000	96.960136 
1178.000000	96.908835 
1177.000000	96.853886 
1176.000000	96.792751 
1175.000000	96.728217 
1174.000000	96.664146 
1173.000000	96.601118 
1172.000000	96.538116 
1171.000000	96.475637 
1170.000000	96.414551 
1169.000000	96.354096 
1168.000000	96.293686 
1167.000000	96.235191 
1166.000000	96.181781 
1165.000000	96.136733 
1164.000000	96.105143 
1163.000000	96.093574 
1162.000000	96.104416 
1161.000000	96.131482 
1160.000000	96.162984 
1159.000000	96.187868 
1158.000000	96.198942 
1157.000000	96.192858 
1156.000000	96.169720 
1155.000000	96.132132 
1154.000000	96.083285 
1153.000000	96.026345 
1152.000000	95.965750 
1151.000000	95.906843 
1150.000000	95.852741 
1149.000000	95.802755 
1148.000000	95.754257 
1147.000000	95.704244 
1146.000000	95.649268 
1145.000000	95.587366 
1144.000000	95.521443 
1143.000000	95.458038 
1142.000000	95.401021 
1141.000000	95.348396 
1140.000000	95.295885 
1139.000000	95.240807 
1138.000000	95.181877 
1137.000000	95.118884 
1136.000000	95.054290 
1135.000000	94.992257 
1134.000000	94.934271 
1133.000000	94.877844 
1132.000000	94.820227 
1131.000000	94.760735 
1130.000000	94.699104 
1129.000000	94.634759 
1128.000000	94.568194 
1127.000000	94.499916 
1126.000000	94.428213 
1125.000000	94.351964 
1124.000000	94.275368 
1123.000000	94.204735 
1122.000000	94.139905 
1121.000000	94.074082 
1120.000000	94.003194 
1119.000000	93.930029 
1118.000000	93.858059 
1117.000000	93.787189 
1116.000000	93.717656 
1115.000000	93.652238 
1114.000000	93.591751 
1113.000000	93.533303 
1112.000000	93.475442 
1111.000000	93.420168 
1110.000000	93.367641 
1109.000000	93.313797 
1108.000000	93.255791 
1107.000000	93.195211 
1106.000000	93.134389 
1105.000000	93.074038 
1104.000000	93.015502 
1103.000000	92.960235 
1102.000000	92.906210 
1101.000000	92.850083 
1100.000000	92.793873 
1099.000000	92.741672 
1098.000000	92.691573 
1097.000000	92.637181 
1096.000000	92.578765 
1095.000000	92.524496 
1094.000000	92.478512 
1093.000000	92.435734 
1092.000000	92.390961 
1091.000000	92.344700 
1090.000000	92.296916 
1089.000000	92.243672 
1088.000000	92.184888 
1087.000000	92.128410 
1086.000000	92.081429 
1085.000000	92.043209 
1084.000000	92.009426 
1083.000000	91.977156 
1082.000000	91.942451 
1081.000000	91.900205 
1080.000000	91.850862 
1079.000000	91.801531 
1078.000000	91.756780 
1077.000000	91.713787 
1076.000000	91.669331 
1075.000000	91.624831 
1074.000000	91.580798 
1073.000000	91.532379 
1072.000000	91.473783 
1071.000000	91.401605 
1070.000000	91.311878 
1069.000000	91.201305 
1068.000000	91.075360 
1067.000000	90.948745 
1066.000000	90.833014 
1065.000000	90.727985 
1064.000000	90.627578 
1063.000000	90.527461 
1062.000000	90.424306 
1061.000000	90.315186 
1060.000000	90.202557 
1059.000000	90.094401 
1058.000000	89.995387 
1057.000000	89.901746 
1056.000000	89.806097 
1055.000000	89.701923 
1054.000000	89.583409 
1053.000000	89.448928 
1052.000000	89.306477 
1051.000000	89.167617 
1050.000000	89.034268 
1049.000000	88.900632 
1048.000000	88.768136 
1047.000000	88.645568 
1046.000000	88.533096 
1045.000000	88.419160 
1044.000000	88.295737 
1043.000000	88.165908 
1042.000000	88.034570 
1041.000000	87.902807 
1040.000000	87.774667 
1039.000000	87.658451 
1038.000000	87.556306 
1037.000000	87.461687 
1036.000000	87.370793 
1035.000000	87.287263 
1034.000000	87.212871 
1033.000000	87.143772 
1032.000000	87.078917 
1031.000000	87.021970 
1030.000000	86.972398 
1029.000000	86.925579 
1028.000000	86.884203 
1027.000000	86.857554 
1026.000000	86.845610 
1025.000000	86.835417 
1024.000000	86.817409 
1023.000000	86.794228 
1022.000000	86.769762 
1021.000000	86.741504 
1020.000000	86.709093 
1019.000000	86.679044 
1018.000000	86.654397 
1017.000000	86.629136 
1016.000000	86.598795 
1015.000000	86.567972 
1014.000000	86.542038 
1013.000000	86.519637 
1012.000000	86.498342 
1011.000000	86.479900 
1010.000000	86.465516 
1009.000000	86.453253 
1008.000000	86.443433 
1007.000000	86.439158 
1006.000000	86.439150 
1005.000000	86.438334 
1004.000000	86.437681 
1003.000000	86.444622 
1002.000000	86.461411 
1001.000000	86.482196 
1000.000000	86.503850 
999.000000	 86.529947 
998.000000	 86.561121 
997.000000	 86.591338 
996.000000	 86.617808 
995.000000	 86.646225 
994.000000	 86.682467 
993.000000	 86.726270 
992.000000	 86.775358 
991.000000	 86.828201 
990.000000	 86.880989 
989.000000	 86.929867 
988.000000	 86.977613 
987.000000	 87.030483 
986.000000	 87.088417 
985.000000	 87.147341 
984.000000	 87.210909 
983.000000	 87.289208 
982.000000	 87.384552 
981.000000	 87.489014 
980.000000	 87.597243 
979.000000	 87.710834 
978.000000	 87.828699 
977.000000	 87.945025 
976.000000	 88.059845 
975.000000	 88.180785 
974.000000	 88.310929 
973.000000	 88.445003 
972.000000	 88.580438 
971.000000	 88.721317 
970.000000	 88.867401 
969.000000	 89.010050 
968.000000	 89.144410 
967.000000	 89.276278 
966.000000	 89.411220 
965.000000	 89.545242 
964.000000	 89.672426 
963.000000	 89.794607 
962.000000	 89.917096 
961.000000	 90.040133 
960.000000	 90.159893 
959.000000	 90.273336 
958.000000	 90.377939 
957.000000	 90.471569 
956.000000	 90.556992 
955.000000	 90.642313 
954.000000	 90.732722 
953.000000	 90.824894 
952.000000	 90.912011 
951.000000	 90.990164 
950.000000	 91.057742 
949.000000	 91.113995 
948.000000	 91.162218 
947.000000	 91.210418 
946.000000	 91.264622 
945.000000	 91.323730 
944.000000	 91.382994 
943.000000	 91.439058 
942.000000	 91.489411 
941.000000	 91.530956 
940.000000	 91.562681 
939.000000	 91.587780 
938.000000	 91.611119 
937.000000	 91.636463 
936.000000	 91.666926 
935.000000	 91.704686 
934.000000	 91.748322 
933.000000	 91.792927 
932.000000	 91.834304 
931.000000	 91.871545 
930.000000	 91.906020 
929.000000	 91.940547 
928.000000	 91.978779 
927.000000	 92.021816 
926.000000	 92.065700 
925.000000	 92.105529 
924.000000	 92.140871 
923.000000	 92.173271 
922.000000	 92.200261 
921.000000	 92.217260 
920.000000	 92.224929 
919.000000	 92.229525 
918.000000	 92.236168 
917.000000	 92.246470 
916.000000	 92.262020 
915.000000	 92.284537 
914.000000	 92.312723 
913.000000	 92.344440 
912.000000	 92.381547 
911.000000	 92.426970 
910.000000	 92.478391 
909.000000	 92.532161 
908.000000	 92.592913 
907.000000	 92.670786 
906.000000	 92.767680 
905.000000	 92.873805 
904.000000	 92.979776 
903.000000	 93.085558 
902.000000	 93.195865 
901.000000	 93.312907 
900.000000	 93.435732 
899.000000	 93.561271 
898.000000	 93.684216 
897.000000	 93.800032 
896.000000	 93.909034 
895.000000	 94.013788 
894.000000	 94.113244 
893.000000	 94.204338 
892.000000	 94.288522 
891.000000	 94.370722 
890.000000	 94.451882 
889.000000	 94.528947 
888.000000	 94.602743 
887.000000	 94.678373 
886.000000	 94.755014 
885.000000	 94.822190 
884.000000	 94.871384 
883.000000	 94.907765 
882.000000	 94.945856 
881.000000	 94.995467 
880.000000	 95.055333 
879.000000	 95.118547 
878.000000	 95.180345 
877.000000	 95.240544 
876.000000	 95.300518 
875.000000	 95.359051 
874.000000	 95.412135 
873.000000	 95.457928 
872.000000	 95.501024 
871.000000	 95.549890 
870.000000	 95.609776 
869.000000	 95.678764 
868.000000	 95.749856 
867.000000	 95.815744 
866.000000	 95.873166 
865.000000	 95.924758 
864.000000	 95.976284 
863.000000	 96.031103 
862.000000	 96.087791 
861.000000	 96.142874 
860.000000	 96.193753 
859.000000	 96.238959 
858.000000	 96.279127 
857.000000	 96.318833 
856.000000	 96.363434 
855.000000	 96.411701 
854.000000	 96.454846 
853.000000	 96.485631 
852.000000	 96.505794 
851.000000	 96.522482 
850.000000	 96.540814 
849.000000	 96.562350 
848.000000	 96.586611 
847.000000	 96.609997 
846.000000	 96.626369 
845.000000	 96.633057 
844.000000	 96.634027 
843.000000	 96.633555 
842.000000	 96.629307 
841.000000	 96.615443 
840.000000	 96.590365 
839.000000	 96.557557 
838.000000	 96.520652 
837.000000	 96.481063 
836.000000	 96.439074 
835.000000	 96.395416 
834.000000	 96.354402 
833.000000	 96.326072 
832.000000	 96.318360 
831.000000	 96.323201 
830.000000	 96.319433 
829.000000	 96.298844 
828.000000	 96.281518 
827.000000	 96.291870 
826.000000	 96.324393 
825.000000	 96.350489 
824.000000	 96.358189 
823.000000	 96.365022 
822.000000	 96.388401 
821.000000	 96.423115 
820.000000	 96.453712 
819.000000	 96.471510 
818.000000	 96.473081 
817.000000	 96.455750 
816.000000	 96.422367 
815.000000	 96.381736 
814.000000	 96.336817 
813.000000	 96.278173 
812.000000	 96.194607 
811.000000	 96.084280 
810.000000	 95.950023 
809.000000	 95.790016 
808.000000	 95.600127 
807.000000	 95.380955 
806.000000	 95.136227 
805.000000	 94.869005 
804.000000	 94.587185 
803.000000	 94.309506 
802.000000	 94.058473 
801.000000	 93.848875 
800.000000	 93.687132 
799.000000	 93.575922 
798.000000	 93.513040 
797.000000	 93.490863 
796.000000	 93.502986 
795.000000	 93.547719 
794.000000	 93.621541 
793.000000	 93.713431 
792.000000	 93.808085 
791.000000	 93.890455 
790.000000	 93.947238 
789.000000	 93.971417 
788.000000	 93.968081 
787.000000	 93.949423 
786.000000	 93.920030 
785.000000	 93.871696 
784.000000	 93.795848 
783.000000	 93.696469 
782.000000	 93.588330 
781.000000	 93.488388 
780.000000	 93.412143 
779.000000	 93.370997 
778.000000	 93.366465 
777.000000	 93.390947 
776.000000	 93.438233 
775.000000	 93.509138 
774.000000	 93.604028 
773.000000	 93.714739 
772.000000	 93.826671 
771.000000	 93.924665 
770.000000	 93.996228 
769.000000	 94.036127 
768.000000	 94.052116 
767.000000	 94.061864 
766.000000	 94.079292 
765.000000	 94.104922 
764.000000	 94.130529 
763.000000	 94.149426 
762.000000	 94.161170 
761.000000	 94.171441 
760.000000	 94.189838 
759.000000	 94.222773 
758.000000	 94.264735 
757.000000	 94.300497 
756.000000	 94.319720 
755.000000	 94.327478 
754.000000	 94.338833 
753.000000	 94.365699 
752.000000	 94.409689 
751.000000	 94.462119 
750.000000	 94.507728 
749.000000	 94.533874 
748.000000	 94.541933 
747.000000	 94.548789 
746.000000	 94.573691 
745.000000	 94.622474 
744.000000	 94.683991 
743.000000	 94.740199 
742.000000	 94.780493 
741.000000	 94.809682 
740.000000	 94.843405 
739.000000	 94.893804 
738.000000	 94.958521 
737.000000	 95.024655 
736.000000	 95.082185 
735.000000	 95.131330 
734.000000	 95.178954 
733.000000	 95.231622 
732.000000	 95.291008 
731.000000	 95.350000 
730.000000	 95.392100 
729.000000	 95.400136 
728.000000	 95.374148 
727.000000	 95.337919 
726.000000	 95.319394 
725.000000	 95.328115 
724.000000	 95.354595 
723.000000	 95.385879 
722.000000	 95.415531 
721.000000	 95.441976 
720.000000	 95.465307 
719.000000	 95.486856 
718.000000	 95.507625 
717.000000	 95.527465 
716.000000	 95.546809 
715.000000	 95.567858 
714.000000	 95.592422 
713.000000	 95.619255 
712.000000	 95.645793 
711.000000	 95.669052 
710.000000	 95.682584 
709.000000	 95.676166 
708.000000	 95.646367 
707.000000	 95.608708 
706.000000	 95.586533 
705.000000	 95.586539 
704.000000	 95.590643 
703.000000	 95.569886 
702.000000	 95.506456 
701.000000	 95.402017 
700.000000	 95.267002 
699.000000	 95.113255 
698.000000	 94.953004 
697.000000	 94.800692 
696.000000	 94.672748 
695.000000	 94.580259 
694.000000	 94.531081 
693.000000	 94.534313 
692.000000	 94.590954 
691.000000	 94.683564 
690.000000	 94.778950 
689.000000	 94.852990 
688.000000	 94.911859 
687.000000	 94.979594 
686.000000	 95.070892 
685.000000	 95.175674 
684.000000	 95.263441 
683.000000	 95.305477 
682.000000	 95.298382 
681.000000	 95.270601 
680.000000	 95.262179 
679.000000	 95.295288 
678.000000	 95.360427 
677.000000	 95.419869 
676.000000	 95.442128 
675.000000	 95.432235 
674.000000	 95.421032 
673.000000	 95.433951 
672.000000	 95.481627 
671.000000	 95.568481 
670.000000	 95.700391 
669.000000	 95.856885 
668.000000	 95.934879 
667.000000	 95.892920 
666.000000	 95.856914 
665.000000	 95.852689 
664.000000	 95.832599 
663.000000	 95.771915 
662.000000	 95.681480 
661.000000	 95.591675 
660.000000	 95.535348 
659.000000	 95.529487 
658.000000	 95.550359 
657.000000	 95.537405 
656.000000	 95.462449 
655.000000	 95.365095 
654.000000	 95.290600 
653.000000	 95.233540 
652.000000	 95.177082 
651.000000	 95.139919 
650.000000	 95.150598 

