4000.000000	99.406799 
3999.000000	99.405748 
3998.000000	99.405707 
3997.000000	99.405809 
3996.000000	99.404964 
3995.000000	99.402966 
3994.000000	99.401032 
3993.000000	99.400888 
3992.000000	99.402986 
3991.000000	99.405724 
3990.000000	99.406788 
3989.000000	99.405494 
3988.000000	99.403662 
3987.000000	99.403971 
3986.000000	99.407456 
3985.000000	99.412562 
3984.000000	99.416369 
3983.000000	99.416634 
3982.000000	99.413045 
3981.000000	99.407044 
3980.000000	99.400500 
3979.000000	99.394684 
3978.000000	99.390553 
3977.000000	99.389271 
3976.000000	99.391712 
3975.000000	99.397400 
3974.000000	99.404464 
3973.000000	99.410757 
3972.000000	99.414857 
3971.000000	99.416406 
3970.000000	99.415876 
3969.000000	99.414046 
3968.000000	99.411639 
3967.000000	99.409157 
3966.000000	99.407122 
3965.000000	99.406485 
3964.000000	99.407970 
3963.000000	99.410708 
3962.000000	99.412129 
3961.000000	99.409944 
3960.000000	99.404294 
3959.000000	99.398033 
3958.000000	99.394468 
3957.000000	99.394580 
3956.000000	99.396900 
3955.000000	99.399527 
3954.000000	99.401831 
3953.000000	99.404037 
3952.000000	99.405774 
3951.000000	99.406100 
3950.000000	99.404470 
3949.000000	99.401570 
3948.000000	99.398872 
3947.000000	99.397225 
3946.000000	99.396636 
3945.000000	99.397213 
3944.000000	99.399322 
3943.000000	99.401926 
3942.000000	99.402654 
3941.000000	99.400249 
3940.000000	99.395557 
3939.000000	99.390025 
3938.000000	99.384301 
3937.000000	99.378453 
3936.000000	99.373612 
3935.000000	99.372383 
3934.000000	99.377320 
3933.000000	99.388309 
3932.000000	99.401258 
3931.000000	99.409990 
3930.000000	99.410421 
3929.000000	99.403873 
3928.000000	99.396071 
3927.000000	99.392468 
3926.000000	99.394660 
3925.000000	99.399478 
3924.000000	99.401394 
3923.000000	99.397610 
3922.000000	99.390106 
3921.000000	99.383480 
3920.000000	99.381109 
3919.000000	99.383162 
3918.000000	99.387780 
3917.000000	99.392871 
3916.000000	99.396911 
3915.000000	99.399272 
3914.000000	99.400788 
3913.000000	99.403062 
3912.000000	99.406466 
3911.000000	99.410041 
3910.000000	99.413168 
3909.000000	99.416417 
3908.000000	99.420347 
3907.000000	99.423301 
3906.000000	99.421151 
3905.000000	99.410080 
3904.000000	99.390312 
3903.000000	99.368648 
3902.000000	99.355273 
3901.000000	99.356287 
3900.000000	99.369771 
3899.000000	99.387091 
3898.000000	99.399464 
3897.000000	99.404075 
3896.000000	99.403495 
3895.000000	99.401667 
3894.000000	99.400972 
3893.000000	99.400921 
3892.000000	99.399042 
3891.000000	99.393512 
3890.000000	99.384990 
3889.000000	99.375394 
3888.000000	99.367309 
3887.000000	99.364584 
3886.000000	99.368756 
3885.000000	99.375542 
3884.000000	99.379088 
3883.000000	99.379009 
3882.000000	99.379879 
3881.000000	99.384080 
3880.000000	99.388432 
3879.000000	99.388604 
3878.000000	99.384768 
3877.000000	99.381415 
3876.000000	99.383844 
3875.000000	99.392393 
3874.000000	99.399898 
3873.000000	99.397964 
3872.000000	99.386533 
3871.000000	99.374514 
3870.000000	99.370075 
3869.000000	99.372868 
3868.000000	99.377370 
3867.000000	99.381024 
3866.000000	99.386780 
3865.000000	99.396313 
3864.000000	99.403450 
3863.000000	99.401585 
3862.000000	99.392652 
3861.000000	99.384640 
3860.000000	99.383961 
3859.000000	99.391598 
3858.000000	99.402932 
3857.000000	99.410965 
3856.000000	99.410391 
3855.000000	99.404554 
3854.000000	99.401096 
3853.000000	99.400931 
3852.000000	99.400981 
3851.000000	99.400293 
3850.000000	99.398705 
3849.000000	99.397440 
3848.000000	99.396397 
3847.000000	99.394282 
3846.000000	99.390880 
3845.000000	99.387272 
3844.000000	99.385208 
3843.000000	99.386989 
3842.000000	99.392660 
3841.000000	99.399234 
3840.000000	99.403806 
3839.000000	99.405344 
3838.000000	99.404051 
3837.000000	99.400702 
3836.000000	99.396183 
3835.000000	99.392422 
3834.000000	99.391524 
3833.000000	99.394621 
3832.000000	99.400790 
3831.000000	99.406677 
3830.000000	99.409123 
3829.000000	99.407775 
3828.000000	99.404892 
3827.000000	99.403442 
3826.000000	99.404110 
3825.000000	99.404212 
3824.000000	99.401332 
3823.000000	99.398637 
3822.000000	99.401434 
3821.000000	99.407836 
3820.000000	99.410890 
3819.000000	99.408923 
3818.000000	99.405670 
3817.000000	99.406120 
3816.000000	99.410828 
3815.000000	99.413586 
3814.000000	99.409118 
3813.000000	99.400427 
3812.000000	99.395330 
3811.000000	99.397640 
3810.000000	99.404027 
3809.000000	99.409051 
3808.000000	99.411123 
3807.000000	99.411966 
3806.000000	99.411614 
3805.000000	99.408390 
3804.000000	99.403474 
3803.000000	99.402709 
3802.000000	99.409854 
3801.000000	99.418917 
3800.000000	99.420703 
3799.000000	99.413898 
3798.000000	99.404548 
3797.000000	99.399076 
3796.000000	99.398502 
3795.000000	99.399245 
3794.000000	99.398357 
3793.000000	99.396573 
3792.000000	99.396424 
3791.000000	99.398783 
3790.000000	99.402315 
3789.000000	99.405401 
3788.000000	99.407522 
3787.000000	99.408705 
3786.000000	99.408856 
3785.000000	99.407744 
3784.000000	99.405340 
3783.000000	99.401961 
3782.000000	99.399039 
3781.000000	99.399090 
3780.000000	99.402928 
3779.000000	99.407666 
3778.000000	99.409500 
3777.000000	99.407528 
3776.000000	99.403857 
3775.000000	99.401466 
3774.000000	99.401017 
3773.000000	99.400392 
3772.000000	99.398043 
3771.000000	99.395469 
3770.000000	99.394232 
3769.000000	99.393176 
3768.000000	99.391148 
3767.000000	99.388989 
3766.000000	99.388314 
3765.000000	99.389235 
3764.000000	99.389451 
3763.000000	99.386805 
3762.000000	99.382852 
3761.000000	99.382029 
3760.000000	99.385799 
3759.000000	99.390444 
3758.000000	99.392766 
3757.000000	99.393677 
3756.000000	99.394581 
3755.000000	99.395533 
3754.000000	99.396607 
3753.000000	99.398657 
3752.000000	99.400683 
3751.000000	99.398841 
3750.000000	99.394191 
3749.000000	99.393428 
3748.000000	99.397931 
3747.000000	99.401619 
3746.000000	99.399792 
3745.000000	99.394797 
3744.000000	99.391791 
3743.000000	99.390933 
3742.000000	99.388542 
3741.000000	99.383812 
3740.000000	99.378434 
3739.000000	99.371635 
3738.000000	99.363291 
3737.000000	99.359612 
3736.000000	99.367889 
3735.000000	99.385914 
3734.000000	99.402172 
3733.000000	99.408398 
3732.000000	99.405389 
3731.000000	99.396832 
3730.000000	99.383903 
3729.000000	99.367051 
3728.000000	99.350853 
3727.000000	99.342051 
3726.000000	99.341956 
3725.000000	99.345353 
3724.000000	99.348366 
3723.000000	99.352780 
3722.000000	99.360823 
3721.000000	99.371327 
3720.000000	99.380493 
3719.000000	99.384444 
3718.000000	99.382249 
3717.000000	99.375534 
3716.000000	99.366317 
3715.000000	99.355548 
3714.000000	99.343215 
3713.000000	99.329922 
3712.000000	99.316737 
3711.000000	99.306032 
3710.000000	99.300953 
3709.000000	99.302052 
3708.000000	99.306615 
3707.000000	99.310790 
3706.000000	99.312357 
3705.000000	99.312054 
3704.000000	99.312431 
3703.000000	99.314211 
3702.000000	99.313077 
3701.000000	99.303451 
3700.000000	99.285064 
3699.000000	99.263089 
3698.000000	99.243945 
3697.000000	99.231294 
3696.000000	99.223473 
3695.000000	99.215759 
3694.000000	99.206864 
3693.000000	99.201394 
3692.000000	99.204595 
3691.000000	99.215959 
3690.000000	99.227049 
3689.000000	99.228223 
3688.000000	99.217997 
3687.000000	99.201697 
3686.000000	99.184567 
3685.000000	99.171140 
3684.000000	99.164880 
3683.000000	99.165569 
3682.000000	99.168858 
3681.000000	99.168960 
3680.000000	99.161518 
3679.000000	99.144251 
3678.000000	99.119566 
3677.000000	99.099805 
3676.000000	99.098844 
3675.000000	99.111983 
3674.000000	99.121668 
3673.000000	99.119168 
3672.000000	99.109574 
3671.000000	99.106314 
3670.000000	99.114660 
3669.000000	99.125210 
3668.000000	99.129457 
3667.000000	99.128597 
3666.000000	99.127091 
3665.000000	99.127015 
3664.000000	99.127468 
3663.000000	99.127058 
3662.000000	99.125691 
3661.000000	99.123211 
3660.000000	99.118254 
3659.000000	99.110311 
3658.000000	99.102872 
3657.000000	99.101903 
3656.000000	99.109127 
3655.000000	99.119061 
3654.000000	99.124440 
3653.000000	99.122703 
3652.000000	99.116767 
3651.000000	99.111482 
3650.000000	99.108532 
3649.000000	99.107373 
3648.000000	99.109563 
3647.000000	99.116035 
3646.000000	99.124655 
3645.000000	99.133303 
3644.000000	99.142098 
3643.000000	99.152134 
3642.000000	99.164101 
3641.000000	99.176883 
3640.000000	99.188459 
3639.000000	99.197177 
3638.000000	99.201740 
3637.000000	99.201235 
3636.000000	99.196009 
3635.000000	99.188596 
3634.000000	99.181668 
3633.000000	99.175032 
3632.000000	99.166604 
3631.000000	99.157199 
3630.000000	99.152824 
3629.000000	99.156114 
3628.000000	99.160581 
3627.000000	99.161144 
3626.000000	99.160079 
3625.000000	99.163136 
3624.000000	99.174179 
3623.000000	99.192386 
3622.000000	99.213726 
3621.000000	99.234389 
3620.000000	99.249531 
3619.000000	99.252341 
3618.000000	99.240906 
3617.000000	99.222603 
3616.000000	99.207770 
3615.000000	99.202884 
3614.000000	99.206456 
3613.000000	99.210442 
3612.000000	99.208483 
3611.000000	99.201838 
3610.000000	99.196631 
3609.000000	99.197873 
3608.000000	99.204716 
3607.000000	99.212826 
3606.000000	99.220739 
3605.000000	99.230011 
3604.000000	99.241583 
3603.000000	99.254031 
3602.000000	99.265129 
3601.000000	99.274635 
3600.000000	99.282692 
3599.000000	99.287241 
3598.000000	99.285532 
3597.000000	99.277538 
3596.000000	99.266996 
3595.000000	99.259700 
3594.000000	99.258688 
3593.000000	99.262193 
3592.000000	99.266326 
3591.000000	99.268475 
3590.000000	99.269538 
3589.000000	99.272764 
3588.000000	99.278477 
3587.000000	99.281576 
3586.000000	99.278679 
3585.000000	99.272549 
3584.000000	99.268712 
3583.000000	99.270193 
3582.000000	99.276411 
3581.000000	99.284380 
3580.000000	99.290825 
3579.000000	99.293707 
3578.000000	99.292537 
3577.000000	99.288614 
3576.000000	99.284261 
3575.000000	99.281798 
3574.000000	99.281987 
3573.000000	99.283240 
3572.000000	99.283075 
3571.000000	99.280292 
3570.000000	99.275749 
3569.000000	99.272256 
3568.000000	99.272255 
3567.000000	99.274433 
3566.000000	99.275539 
3565.000000	99.275062 
3564.000000	99.275161 
3563.000000	99.278064 
3562.000000	99.284094 
3561.000000	99.291161 
3560.000000	99.296566 
3559.000000	99.299004 
3558.000000	99.299220 
3557.000000	99.298851 
3556.000000	99.299036 
3555.000000	99.299708 
3554.000000	99.299943 
3553.000000	99.298179 
3552.000000	99.293311 
3551.000000	99.286207 
3550.000000	99.279449 
3549.000000	99.275516 
3548.000000	99.275557 
3547.000000	99.278532 
3546.000000	99.281685 
3545.000000	99.281906 
3544.000000	99.278023 
3543.000000	99.272282 
3542.000000	99.269338 
3541.000000	99.272623 
3540.000000	99.281524 
3539.000000	99.291591 
3538.000000	99.298108 
3537.000000	99.299404 
3536.000000	99.297173 
3535.000000	99.294264 
3534.000000	99.292262 
3533.000000	99.291596 
3532.000000	99.292627 
3531.000000	99.295839 
3530.000000	99.300351 
3529.000000	99.303336 
3528.000000	99.302257 
3527.000000	99.297751 
3526.000000	99.293196 
3525.000000	99.291167 
3524.000000	99.291054 
3523.000000	99.290514 
3522.000000	99.288771 
3521.000000	99.287190 
3520.000000	99.287264 
3519.000000	99.289113 
3518.000000	99.292132 
3517.000000	99.295908 
3516.000000	99.299781 
3515.000000	99.302436 
3514.000000	99.302383 
3513.000000	99.299313 
3512.000000	99.294659 
3511.000000	99.290567 
3510.000000	99.287884 
3509.000000	99.285664 
3508.000000	99.282911 
3507.000000	99.280576 
3506.000000	99.281319 
3505.000000	99.286515 
3504.000000	99.293674 
3503.000000	99.298067 
3502.000000	99.297861 
3501.000000	99.296179 
3500.000000	99.297001 
3499.000000	99.300257 
3498.000000	99.302050 
3497.000000	99.299438 
3496.000000	99.293804 
3495.000000	99.289117 
3494.000000	99.287671 
3493.000000	99.288316 
3492.000000	99.288753 
3491.000000	99.288469 
3490.000000	99.289057 
3489.000000	99.291962 
3488.000000	99.296353 
3487.000000	99.299464 
3486.000000	99.299326 
3485.000000	99.296873 
3484.000000	99.294808 
3483.000000	99.294555 
3482.000000	99.294722 
3481.000000	99.293120 
3480.000000	99.289723 
3479.000000	99.286672 
3478.000000	99.285599 
3477.000000	99.286090 
3476.000000	99.287053 
3475.000000	99.288626 
3474.000000	99.291644 
3473.000000	99.295339 
3472.000000	99.297023 
3471.000000	99.295114 
3470.000000	99.291663 
3469.000000	99.290537 
3468.000000	99.293127 
3467.000000	99.296869 
3466.000000	99.298637 
3465.000000	99.298529 
3464.000000	99.299264 
3463.000000	99.302360 
3462.000000	99.306037 
3461.000000	99.307325 
3460.000000	99.305339 
3459.000000	99.302006 
3458.000000	99.299956 
3457.000000	99.299979 
3456.000000	99.300664 
3455.000000	99.300203 
3454.000000	99.298233 
3453.000000	99.296042 
3452.000000	99.294833 
3451.000000	99.294547 
3450.000000	99.294467 
3449.000000	99.294492 
3448.000000	99.294953 
3447.000000	99.295453 
3446.000000	99.294932 
3445.000000	99.293249 
3444.000000	99.291838 
3443.000000	99.292010 
3442.000000	99.292938 
3441.000000	99.291986 
3440.000000	99.287454 
3439.000000	99.280514 
3438.000000	99.274063 
3437.000000	99.269978 
3436.000000	99.268134 
3435.000000	99.267937 
3434.000000	99.269759 
3433.000000	99.274462 
3432.000000	99.281478 
3431.000000	99.288349 
3430.000000	99.292525 
3429.000000	99.293563 
3428.000000	99.293312 
3427.000000	99.293692 
3426.000000	99.294569 
3425.000000	99.294026 
3424.000000	99.290740 
3423.000000	99.285657 
3422.000000	99.281067 
3421.000000	99.278359 
3420.000000	99.277389 
3419.000000	99.277715 
3418.000000	99.279411 
3417.000000	99.282301 
3416.000000	99.285170 
3415.000000	99.286465 
3414.000000	99.285752 
3413.000000	99.284054 
3412.000000	99.282783 
3411.000000	99.282554 
3410.000000	99.282871 
3409.000000	99.282631 
3408.000000	99.280856 
3407.000000	99.277309 
3406.000000	99.272843 
3405.000000	99.269092 
3404.000000	99.267515 
3403.000000	99.268441 
3402.000000	99.270979 
3401.000000	99.274153 
3400.000000	99.277865 
3399.000000	99.282434 
3398.000000	99.287161 
3397.000000	99.290101 
3396.000000	99.289715 
3395.000000	99.286308 
3394.000000	99.281265 
3393.000000	99.275364 
3392.000000	99.268777 
3391.000000	99.262606 
3390.000000	99.259333 
3389.000000	99.260915 
3388.000000	99.266713 
3387.000000	99.273843 
3386.000000	99.279729 
3385.000000	99.284056 
3384.000000	99.288008 
3383.000000	99.291819 
3382.000000	99.293556 
3381.000000	99.290995 
3380.000000	99.284618 
3379.000000	99.278227 
3378.000000	99.275761 
3377.000000	99.277621 
3376.000000	99.280682 
3375.000000	99.281945 
3374.000000	99.281463 
3373.000000	99.281487 
3372.000000	99.283569 
3371.000000	99.287122 
3370.000000	99.290351 
3369.000000	99.291664 
3368.000000	99.290474 
3367.000000	99.287608 
3366.000000	99.285167 
3365.000000	99.285095 
3364.000000	99.287366 
3363.000000	99.290081 
3362.000000	99.291652 
3361.000000	99.292226 
3360.000000	99.292469 
3359.000000	99.291765 
3358.000000	99.288829 
3357.000000	99.284111 
3356.000000	99.280341 
3355.000000	99.279912 
3354.000000	99.282168 
3353.000000	99.284019 
3352.000000	99.283144 
3351.000000	99.280200 
3350.000000	99.277922 
3349.000000	99.278398 
3348.000000	99.281385 
3347.000000	99.284763 
3346.000000	99.286318 
3345.000000	99.285292 
3344.000000	99.282654 
3343.000000	99.280176 
3342.000000	99.278867 
3341.000000	99.278010 
3340.000000	99.275849 
3339.000000	99.271663 
3338.000000	99.267257 
3337.000000	99.265945 
3336.000000	99.269622 
3335.000000	99.276926 
3334.000000	99.284583 
3333.000000	99.290317 
3332.000000	99.294059 
3331.000000	99.296481 
3330.000000	99.297170 
3329.000000	99.294931 
3328.000000	99.289699 
3327.000000	99.283354 
3326.000000	99.278179 
3325.000000	99.274780 
3324.000000	99.272006 
3323.000000	99.269082 
3322.000000	99.267178 
3321.000000	99.268328 
3320.000000	99.272967 
3319.000000	99.279155 
3318.000000	99.284405 
3317.000000	99.287666 
3316.000000	99.289168 
3315.000000	99.289191 
3314.000000	99.287989 
3313.000000	99.286613 
3312.000000	99.286549 
3311.000000	99.288084 
3310.000000	99.289798 
3309.000000	99.290156 
3308.000000	99.289055 
3307.000000	99.287439 
3306.000000	99.286186 
3305.000000	99.286053 
3304.000000	99.287986 
3303.000000	99.292174 
3302.000000	99.296760 
3301.000000	99.298543 
3300.000000	99.295552 
3299.000000	99.288788 
3298.000000	99.281400 
3297.000000	99.276428 
3296.000000	99.274939 
3295.000000	99.275712 
3294.000000	99.276654 
3293.000000	99.277044 
3292.000000	99.278383 
3291.000000	99.282250 
3290.000000	99.287285 
3289.000000	99.289539 
3288.000000	99.286536 
3287.000000	99.280318 
3286.000000	99.275598 
3285.000000	99.275119 
3284.000000	99.277540 
3283.000000	99.279649 
3282.000000	99.279831 
3281.000000	99.279135 
3280.000000	99.279664 
3279.000000	99.282420 
3278.000000	99.286524 
3277.000000	99.290075 
3276.000000	99.291501 
3275.000000	99.290214 
3274.000000	99.286455 
3273.000000	99.281151 
3272.000000	99.276003 
3271.000000	99.272989 
3270.000000	99.272999 
3269.000000	99.274874 
3268.000000	99.276089 
3267.000000	99.274557 
3266.000000	99.270049 
3265.000000	99.264439 
3264.000000	99.260760 
3263.000000	99.261486 
3262.000000	99.266913 
3261.000000	99.274776 
3260.000000	99.281670 
3259.000000	99.285090 
3258.000000	99.284613 
3257.000000	99.281668 
3256.000000	99.278192 
3255.000000	99.275002 
3254.000000	99.271391 
3253.000000	99.266858 
3252.000000	99.263064 
3251.000000	99.263062 
3250.000000	99.267847 
3249.000000	99.274578 
3248.000000	99.279180 
3247.000000	99.280201 
3246.000000	99.279164 
3245.000000	99.277614 
3244.000000	99.275291 
3243.000000	99.271493 
3242.000000	99.266903 
3241.000000	99.263277 
3240.000000	99.262112 
3239.000000	99.264164 
3238.000000	99.269564 
3237.000000	99.277459 
3236.000000	99.285652 
3235.000000	99.291356 
3234.000000	99.292843 
3233.000000	99.290563 
3232.000000	99.286780 
3231.000000	99.284087 
3230.000000	99.283686 
3229.000000	99.284673 
3228.000000	99.285023 
3227.000000	99.283315 
3226.000000	99.279542 
3225.000000	99.274633 
3224.000000	99.269787 
3223.000000	99.266374 
3222.000000	99.265640 
3221.000000	99.267706 
3220.000000	99.270958 
3219.000000	99.273033 
3218.000000	99.272836 
3217.000000	99.271578 
3216.000000	99.271854 
3215.000000	99.275440 
3214.000000	99.281608 
3213.000000	99.287453 
3212.000000	99.290014 
3211.000000	99.288275 
3210.000000	99.283281 
3209.000000	99.276822 
3208.000000	99.270538 
3207.000000	99.265934 
3206.000000	99.264243 
3205.000000	99.265637 
3204.000000	99.268949 
3203.000000	99.272546 
3202.000000	99.275350 
3201.000000	99.276971 
3200.000000	99.277526 
3199.000000	99.277663 
3198.000000	99.278271 
3197.000000	99.279598 
3196.000000	99.280990 
3195.000000	99.281855 
3194.000000	99.282460 
3193.000000	99.283230 
3192.000000	99.283645 
3191.000000	99.282595 
3190.000000	99.279731 
3189.000000	99.275910 
3188.000000	99.272362 
3187.000000	99.269954 
3186.000000	99.269129 
3185.000000	99.269744 
3184.000000	99.270905 
3183.000000	99.271557 
3182.000000	99.271689 
3181.000000	99.272637 
3180.000000	99.275869 
3179.000000	99.281411 
3178.000000	99.287406 
3177.000000	99.291185 
3176.000000	99.291245 
3175.000000	99.288630 
3174.000000	99.286136 
3173.000000	99.285581 
3172.000000	99.285983 
3171.000000	99.285094 
3170.000000	99.282563 
3169.000000	99.280583 
3168.000000	99.281120 
3167.000000	99.283491 
3166.000000	99.285419 
3165.000000	99.285708 
3164.000000	99.285034 
3163.000000	99.284388 
3162.000000	99.283878 
3161.000000	99.283294 
3160.000000	99.283084 
3159.000000	99.284064 
3158.000000	99.286234 
3157.000000	99.288353 
3156.000000	99.288867 
3155.000000	99.287058 
3154.000000	99.283159 
3153.000000	99.277710 
3152.000000	99.271442 
3151.000000	99.265853 
3150.000000	99.263030 
3149.000000	99.264104 
3148.000000	99.267996 
3147.000000	99.272282 
3146.000000	99.275310 
3145.000000	99.277158 
3144.000000	99.278686 
3143.000000	99.280251 
3142.000000	99.281507 
3141.000000	99.281991 
3140.000000	99.281601 
3139.000000	99.280699 
3138.000000	99.279823 
3137.000000	99.279319 
3136.000000	99.279424 
3135.000000	99.280805 
3134.000000	99.284377 
3133.000000	99.289865 
3132.000000	99.294923 
3131.000000	99.296807 
3130.000000	99.295092 
3129.000000	99.292054 
3128.000000	99.290351 
3127.000000	99.291125 
3126.000000	99.294087 
3125.000000	99.297936 
3124.000000	99.300172 
3123.000000	99.298038 
3122.000000	99.291141 
3121.000000	99.282595 
3120.000000	99.276422 
3119.000000	99.274147 
3118.000000	99.274517 
3117.000000	99.275910 
3116.000000	99.277879 
3115.000000	99.280548 
3114.000000	99.283665 
3113.000000	99.286570 
3112.000000	99.288572 
3111.000000	99.289344 
3110.000000	99.289243 
3109.000000	99.289049 
3108.000000	99.288913 
3107.000000	99.288011 
3106.000000	99.285758 
3105.000000	99.283046 
3104.000000	99.281573 
3103.000000	99.282126 
3102.000000	99.284244 
3101.000000	99.287193 
3100.000000	99.290500 
3099.000000	99.293626 
3098.000000	99.296066 
3097.000000	99.297871 
3096.000000	99.299322 
3095.000000	99.299927 
3094.000000	99.298659 
3093.000000	99.295531 
3092.000000	99.292110 
3091.000000	99.290046 
3090.000000	99.289646 
3089.000000	99.290342 
3088.000000	99.291777 
3087.000000	99.293773 
3086.000000	99.295695 
3085.000000	99.296608 
3084.000000	99.295909 
3083.000000	99.293278 
3082.000000	99.288541 
3081.000000	99.282392 
3080.000000	99.277140 
3079.000000	99.275732 
3078.000000	99.279524 
3077.000000	99.287117 
3076.000000	99.295398 
3075.000000	99.301504 
3074.000000	99.304058 
3073.000000	99.303342 
3072.000000	99.300610 
3071.000000	99.296983 
3070.000000	99.292789 
3069.000000	99.287972 
3068.000000	99.283063 
3067.000000	99.279457 
3066.000000	99.278709 
3065.000000	99.281644 
3064.000000	99.287676 
3063.000000	99.294420 
3062.000000	99.298306 
3061.000000	99.296750 
3060.000000	99.290489 
3059.000000	99.283433 
3058.000000	99.279734 
3057.000000	99.280971 
3056.000000	99.285786 
3055.000000	99.291500 
3054.000000	99.295628 
3053.000000	99.296683 
3052.000000	99.294521 
3051.000000	99.290211 
3050.000000	99.285341 
3049.000000	99.281307 
3048.000000	99.278887 
3047.000000	99.277706 
3046.000000	99.275860 
3045.000000	99.271003 
3044.000000	99.262797 
3043.000000	99.254036 
3042.000000	99.248513 
3041.000000	99.247532 
3040.000000	99.248838 
3039.000000	99.248731 
3038.000000	99.244729 
3037.000000	99.236517 
3036.000000	99.225328 
3035.000000	99.213011 
3034.000000	99.201196 
3033.000000	99.190625 
3032.000000	99.181024 
3031.000000	99.171620 
3030.000000	99.161885 
3029.000000	99.151991 
3028.000000	99.142821 
3027.000000	99.135385 
3026.000000	99.129667 
3025.000000	99.123763 
3024.000000	99.114659 
3023.000000	99.100513 
3022.000000	99.082234 
3021.000000	99.062376 
3020.000000	99.042497 
3019.000000	99.022079 
3018.000000	99.000343 
3017.000000	98.978415 
3016.000000	98.958693 
3015.000000	98.941962 
3014.000000	98.926286 
3013.000000	98.909444 
3012.000000	98.891707 
3011.000000	98.875037 
3010.000000	98.859902 
3009.000000	98.844358 
3008.000000	98.826500 
3007.000000	98.806477 
3006.000000	98.785390 
3005.000000	98.763303 
3004.000000	98.739655 
3003.000000	98.715168 
3002.000000	98.692055 
3001.000000	98.672145 
3000.000000	98.655494 
2999.000000	98.640982 
2998.000000	98.627812 
2997.000000	98.616209 
2996.000000	98.606656 
2995.000000	98.597820 
2994.000000	98.584954 
2993.000000	98.561661 
2992.000000	98.525236 
2991.000000	98.480958 
2990.000000	98.440231 
2989.000000	98.413639 
2988.000000	98.405160 
2987.000000	98.411908 
2986.000000	98.427554 
2985.000000	98.445624 
2984.000000	98.461090 
2983.000000	98.471050 
2982.000000	98.474844 
2981.000000	98.473748 
2980.000000	98.470470 
2979.000000	98.468223 
2978.000000	98.468841 
2977.000000	98.471021 
2976.000000	98.471017 
2975.000000	98.466085 
2974.000000	98.457468 
2973.000000	98.449856 
2972.000000	98.448083 
2971.000000	98.454293 
2970.000000	98.467469 
2969.000000	98.484768 
2968.000000	98.503316 
2967.000000	98.521496 
2966.000000	98.539050 
2965.000000	98.556166 
2964.000000	98.572766 
2963.000000	98.588694 
2962.000000	98.604038 
2961.000000	98.618646 
2960.000000	98.631519 
2959.000000	98.641425 
2958.000000	98.648382 
2957.000000	98.654184 
2956.000000	98.661130 
2955.000000	98.670445 
2954.000000	98.682041 
2953.000000	98.695366 
2952.000000	98.709794 
2951.000000	98.724104 
2950.000000	98.736289 
2949.000000	98.744650 
2948.000000	98.749063 
2947.000000	98.750894 
2946.000000	98.751822 
2945.000000	98.753258 
2944.000000	98.756535 
2943.000000	98.762387 
2942.000000	98.769642 
2941.000000	98.775456 
2940.000000	98.778016 
2939.000000	98.778870 
2938.000000	98.781634 
2937.000000	98.788445 
2936.000000	98.798349 
2935.000000	98.808857 
2934.000000	98.817978 
2933.000000	98.824596 
2932.000000	98.828100 
2931.000000	98.828459 
2930.000000	98.826371 
2929.000000	98.822973 
2928.000000	98.819418 
2927.000000	98.816376 
2926.000000	98.813304 
2925.000000	98.808480 
2924.000000	98.800828 
2923.000000	98.791700 
2922.000000	98.783763 
2921.000000	98.777814 
2920.000000	98.771819 
2919.000000	98.763552 
2918.000000	98.753165 
2917.000000	98.742410 
2916.000000	98.732193 
2915.000000	98.721846 
2914.000000	98.710444 
2913.000000	98.698141 
2912.000000	98.686483 
2911.000000	98.677702 
2910.000000	98.673158 
2909.000000	98.672023 
2908.000000	98.671719 
2907.000000	98.669868 
2906.000000	98.664854 
2905.000000	98.654604 
2904.000000	98.636906 
2903.000000	98.613243 
2902.000000	98.591701 
2901.000000	98.583996 
2900.000000	98.596064 
2899.000000	98.623176 
2898.000000	98.652855 
2897.000000	98.673416 
2896.000000	98.680850 
2895.000000	98.679513 
2894.000000	98.677433 
2893.000000	98.680227 
2892.000000	98.688274 
2891.000000	98.698276 
2890.000000	98.706709 
2889.000000	98.711845 
2888.000000	98.713795 
2887.000000	98.714003 
2886.000000	98.714686 
2885.000000	98.717809 
2884.000000	98.724256 
2883.000000	98.734236 
2882.000000	98.748090 
2881.000000	98.765742 
2880.000000	98.785378 
2879.000000	98.803793 
2878.000000	98.818662 
2877.000000	98.830134 
2876.000000	98.839947 
2875.000000	98.849570 
2874.000000	98.859497 
2873.000000	98.869583 
2872.000000	98.879252 
2871.000000	98.887611 
2870.000000	98.894181 
2869.000000	98.899887 
2868.000000	98.907015 
2867.000000	98.917771 
2866.000000	98.932577 
2865.000000	98.949717 
2864.000000	98.966687 
2863.000000	98.981924 
2862.000000	98.995268 
2861.000000	99.007201 
2860.000000	99.018393 
2859.000000	99.030044 
2858.000000	99.043524 
2857.000000	99.058695 
2856.000000	99.073082 
2855.000000	99.083896 
2854.000000	99.090916 
2853.000000	99.096540 
2852.000000	99.103006 
2851.000000	99.110492 
2850.000000	99.118199 
2849.000000	99.126102 
2848.000000	99.134756 
2847.000000	99.143913 
2846.000000	99.152184 
2845.000000	99.157966 
2844.000000	99.160334 
2843.000000	99.159470 
2842.000000	99.156999 
2841.000000	99.155728 
2840.000000	99.158173 
2839.000000	99.164798 
2838.000000	99.173793 
2837.000000	99.182547 
2836.000000	99.189227 
2835.000000	99.193302 
2834.000000	99.195291 
2833.000000	99.196360 
2832.000000	99.197674 
2831.000000	99.199596 
2830.000000	99.201457 
2829.000000	99.202388 
2828.000000	99.202483 
2827.000000	99.202984 
2826.000000	99.205166 
2825.000000	99.208942 
2824.000000	99.212648 
2823.000000	99.214343 
2822.000000	99.213521 
2821.000000	99.211667 
2820.000000	99.211103 
2819.000000	99.213137 
2818.000000	99.217161 
2817.000000	99.221479 
2816.000000	99.224919 
2815.000000	99.227482 
2814.000000	99.229398 
2813.000000	99.230093 
2812.000000	99.228823 
2811.000000	99.226332 
2810.000000	99.224963 
2809.000000	99.226421 
2808.000000	99.229817 
2807.000000	99.232668 
2806.000000	99.233697 
2805.000000	99.233899 
2804.000000	99.234933 
2803.000000	99.237305 
2802.000000	99.240357 
2801.000000	99.243256 
2800.000000	99.245438 
2799.000000	99.246542 
2798.000000	99.246412 
2797.000000	99.244972 
2796.000000	99.242071 
2795.000000	99.237996 
2794.000000	99.234336 
2793.000000	99.233332 
2792.000000	99.235548 
2791.000000	99.238792 
2790.000000	99.240423 
2789.000000	99.240435 
2788.000000	99.241249 
2787.000000	99.244467 
2786.000000	99.248927 
2785.000000	99.252156 
2784.000000	99.252760 
2783.000000	99.250929 
2782.000000	99.247634 
2781.000000	99.244195 
2780.000000	99.242129 
2779.000000	99.242413 
2778.000000	99.244766 
2777.000000	99.248111 
2776.000000	99.251663 
2775.000000	99.255210 
2774.000000	99.258505 
2773.000000	99.261000 
2772.000000	99.262325 
2771.000000	99.262681 
2770.000000	99.262580 
2769.000000	99.262406 
2768.000000	99.262377 
2767.000000	99.262788 
2766.000000	99.263953 
2765.000000	99.265641 
2764.000000	99.266571 
2763.000000	99.264943 
2762.000000	99.260121 
2761.000000	99.253798 
2760.000000	99.248963 
2759.000000	99.247478 
2758.000000	99.249069 
2757.000000	99.252686 
2756.000000	99.257820 
2755.000000	99.263754 
2754.000000	99.268407 
2753.000000	99.269489 
2752.000000	99.267100 
2751.000000	99.264124 
2750.000000	99.263473 
2749.000000	99.265444 
2748.000000	99.268133 
2747.000000	99.269854 
2746.000000	99.270488 
2745.000000	99.270735 
2744.000000	99.270832 
2743.000000	99.270380 
2742.000000	99.269261 
2741.000000	99.268321 
2740.000000	99.268761 
2739.000000	99.270743 
2738.000000	99.273045 
2737.000000	99.274509 
2736.000000	99.275520 
2735.000000	99.277279 
2734.000000	99.279735 
2733.000000	99.281173 
2732.000000	99.280269 
2731.000000	99.277804 
2730.000000	99.275740 
2729.000000	99.275090 
2728.000000	99.275320 
2727.000000	99.275505 
2726.000000	99.275325 
2725.000000	99.275053 
2724.000000	99.275254 
2723.000000	99.276607 
2722.000000	99.279444 
2721.000000	99.283142 
2720.000000	99.286215 
2719.000000	99.287329 
2718.000000	99.286357 
2717.000000	99.284480 
2716.000000	99.283269 
2715.000000	99.283438 
2714.000000	99.284419 
2713.000000	99.285186 
2712.000000	99.285486 
2711.000000	99.286029 
2710.000000	99.287519 
2709.000000	99.289838 
2708.000000	99.292168 
2707.000000	99.293368 
2706.000000	99.292283 
2705.000000	99.288616 
2704.000000	99.284074 
2703.000000	99.281757 
2702.000000	99.283388 
2701.000000	99.287374 
2700.000000	99.290575 
2699.000000	99.291838 
2698.000000	99.292813 
2697.000000	99.295206 
2696.000000	99.298330 
2695.000000	99.299995 
2694.000000	99.299285 
2693.000000	99.297668 
2692.000000	99.297389 
2691.000000	99.299043 
2690.000000	99.300874 
2689.000000	99.300465 
2688.000000	99.297258 
2687.000000	99.293263 
2686.000000	99.291196 
2685.000000	99.292043 
2684.000000	99.294589 
2683.000000	99.296887 
2682.000000	99.297636 
2681.000000	99.296466 
2680.000000	99.293885 
2679.000000	99.291283 
2678.000000	99.290371 
2677.000000	99.292072 
2676.000000	99.295977 
2675.000000	99.300794 
2674.000000	99.304970 
2673.000000	99.306985 
2672.000000	99.305913 
2671.000000	99.302262 
2670.000000	99.297955 
2669.000000	99.294981 
2668.000000	99.294053 
2667.000000	99.294669 
2666.000000	99.296098 
2665.000000	99.297869 
2664.000000	99.299423 
2663.000000	99.299912 
2662.000000	99.298863 
2661.000000	99.297065 
2660.000000	99.296318 
2659.000000	99.297846 
2658.000000	99.301049 
2657.000000	99.304311 
2656.000000	99.306926 
2655.000000	99.309329 
2654.000000	99.311281 
2653.000000	99.311263 
2652.000000	99.308854 
2651.000000	99.306538 
2650.000000	99.307094 
2649.000000	99.309299 
2648.000000	99.308529 
2647.000000	99.302569 
2646.000000	99.295268 
2645.000000	99.292938 
2644.000000	99.297762 
2643.000000	99.305865 
2642.000000	99.311358 
2641.000000	99.311417 
2640.000000	99.307837 
2639.000000	99.304690 
2638.000000	99.304510 
2637.000000	99.306172 
2636.000000	99.306525 
2635.000000	99.304201 
2634.000000	99.301180 
2633.000000	99.300349 
2632.000000	99.302460 
2631.000000	99.306163 
2630.000000	99.309853 
2629.000000	99.312130 
2628.000000	99.311395 
2627.000000	99.307071 
2626.000000	99.301316 
2625.000000	99.297808 
2624.000000	99.298153 
2623.000000	99.300597 
2622.000000	99.302728 
2621.000000	99.304270 
2620.000000	99.306485 
2619.000000	99.309856 
2618.000000	99.313478 
2617.000000	99.316324 
2616.000000	99.318185 
2615.000000	99.319370 
2614.000000	99.320087 
2613.000000	99.320174 
2612.000000	99.319212 
2611.000000	99.316985 
2610.000000	99.313998 
2609.000000	99.311293 
2608.000000	99.309623 
2607.000000	99.309132 
2606.000000	99.310041 
2605.000000	99.313054 
2604.000000	99.318370 
2603.000000	99.324516 
2602.000000	99.329086 
2601.000000	99.331032 
2600.000000	99.331731 
2599.000000	99.333134 
2598.000000	99.335032 
2597.000000	99.334873 
2596.000000	99.330606 
2595.000000	99.323172 
2594.000000	99.315592 
2593.000000	99.309918 
2592.000000	99.306029 
2591.000000	99.303567 
2590.000000	99.303779 
2589.000000	99.308088 
2588.000000	99.315056 
2587.000000	99.320184 
2586.000000	99.319687 
2585.000000	99.314200 
2584.000000	99.308194 
2583.000000	99.305804 
2582.000000	99.307583 
2581.000000	99.311096 
2580.000000	99.313847 
2579.000000	99.315114 
2578.000000	99.315374 
2577.000000	99.314864 
2576.000000	99.313126 
2575.000000	99.309739 
2574.000000	99.305253 
2573.000000	99.301471 
2572.000000	99.300600 
2571.000000	99.303467 
2570.000000	99.308286 
2569.000000	99.311776 
2568.000000	99.312072 
2567.000000	99.310176 
2566.000000	99.308172 
2565.000000	99.306783 
2564.000000	99.305648 
2563.000000	99.305366 
2562.000000	99.307532 
2561.000000	99.312245 
2560.000000	99.316768 
2559.000000	99.317585 
2558.000000	99.313582 
2557.000000	99.307036 
2556.000000	99.302052 
2555.000000	99.302030 
2554.000000	99.307602 
2553.000000	99.316174 
2552.000000	99.323736 
2551.000000	99.327590 
2550.000000	99.327376 
2549.000000	99.323963 
2548.000000	99.318384 
2547.000000	99.311943 
2546.000000	99.306224 
2545.000000	99.302317 
2544.000000	99.300464 
2543.000000	99.300397 
2542.000000	99.301087 
2541.000000	99.300326 
2540.000000	99.296386 
2539.000000	99.290807 
2538.000000	99.287778 
2537.000000	99.289494 
2536.000000	99.293572 
2535.000000	99.296489 
2534.000000	99.297831 
2533.000000	99.298829 
2532.000000	99.298148 
2531.000000	99.292706 
2530.000000	99.283061 
2529.000000	99.274704 
2528.000000	99.272158 
2527.000000	99.273764 
2526.000000	99.274291 
2525.000000	99.271570 
2524.000000	99.268566 
2523.000000	99.269422 
2522.000000	99.275326 
2521.000000	99.284293 
2520.000000	99.293161 
2519.000000	99.298980 
2518.000000	99.299803 
2517.000000	99.295713 
2516.000000	99.289103 
2515.000000	99.283059 
2514.000000	99.279395 
2513.000000	99.278715 
2512.000000	99.281747 
2511.000000	99.288944 
2510.000000	99.298253 
2509.000000	99.305238 
2508.000000	99.307440 
2507.000000	99.307701 
2506.000000	99.310705 
2505.000000	99.316080 
2504.000000	99.317583 
2503.000000	99.310519 
2502.000000	99.298086 
2501.000000	99.288542 
2500.000000	99.287161 
2499.000000	99.292593 
2498.000000	99.299862 
2497.000000	99.304708 
2496.000000	99.305120 
2495.000000	99.301395 
2494.000000	99.295750 
2493.000000	99.290845 
2492.000000	99.287997 
2491.000000	99.287447 
2490.000000	99.290157 
2489.000000	99.297861 
2488.000000	99.310618 
2487.000000	99.325031 
2486.000000	99.335415 
2485.000000	99.336855 
2484.000000	99.328139 
2483.000000	99.313160 
2482.000000	99.299224 
2481.000000	99.292132 
2480.000000	99.291985 
2479.000000	99.294470 
2478.000000	99.296171 
2477.000000	99.297432 
2476.000000	99.300121 
2475.000000	99.304564 
2474.000000	99.309532 
2473.000000	99.313600 
2472.000000	99.315351 
2471.000000	99.313516 
2470.000000	99.308404 
2469.000000	99.302468 
2468.000000	99.298164 
2467.000000	99.295713 
2466.000000	99.293936 
2465.000000	99.292596 
2464.000000	99.292722 
2463.000000	99.294987 
2462.000000	99.298872 
2461.000000	99.303145 
2460.000000	99.306252 
2459.000000	99.306691 
2458.000000	99.304238 
2457.000000	99.300730 
2456.000000	99.298600 
2455.000000	99.298544 
2454.000000	99.299314 
2453.000000	99.299532 
2452.000000	99.298714 
2451.000000	99.296734 
2450.000000	99.293537 
2449.000000	99.289783 
2448.000000	99.286952 
2447.000000	99.286472 
2446.000000	99.289039 
2445.000000	99.294326 
2444.000000	99.300338 
2443.000000	99.303358 
2442.000000	99.300277 
2441.000000	99.291999 
2440.000000	99.283757 
2439.000000	99.281085 
2438.000000	99.285348 
2437.000000	99.293175 
2436.000000	99.299577 
2435.000000	99.301464 
2434.000000	99.299130 
2433.000000	99.295485 
2432.000000	99.293895 
2431.000000	99.295923 
2430.000000	99.300360 
2429.000000	99.304077 
2428.000000	99.304103 
2427.000000	99.299694 
2426.000000	99.293008 
2425.000000	99.287540 
2424.000000	99.285519 
2423.000000	99.286956 
2422.000000	99.291060 
2421.000000	99.297319 
2420.000000	99.304248 
2419.000000	99.308287 
2418.000000	99.306085 
2417.000000	99.298119 
2416.000000	99.288689 
2415.000000	99.281922 
2414.000000	99.278775 
2413.000000	99.277824 
2412.000000	99.277386 
2411.000000	99.276382 
2410.000000	99.274652 
2409.000000	99.273354 
2408.000000	99.274030 
2407.000000	99.276538 
2406.000000	99.278982 
2405.000000	99.280365 
2404.000000	99.282033 
2403.000000	99.285350 
2402.000000	99.289043 
2401.000000	99.290168 
2400.000000	99.287113 
2399.000000	99.280620 
2398.000000	99.272732 
2397.000000	99.266036 
2396.000000	99.263155 
2395.000000	99.265041 
2394.000000	99.269582 
2393.000000	99.273191 
2392.000000	99.274010 
2391.000000	99.272752 
2390.000000	99.270617 
2389.000000	99.267894 
2388.000000	99.264900 
2387.000000	99.262664 
2386.000000	99.261549 
2385.000000	99.259862 
2384.000000	99.255362 
2383.000000	99.248455 
2382.000000	99.243186 
2381.000000	99.244031 
2380.000000	99.251473 
2379.000000	99.261536 
2378.000000	99.270641 
2377.000000	99.278981 
2376.000000	99.286740 
2375.000000	99.289306 
2374.000000	99.281501 
2373.000000	99.265513 
2372.000000	99.249663 
2371.000000	99.239092 
2370.000000	99.232960 
2369.000000	99.229995 
2368.000000	99.229612 
2367.000000	99.228178 
2366.000000	99.222549 
2365.000000	99.216206 
2364.000000	99.213768 
2363.000000	99.210337 
2362.000000	99.197231 
2361.000000	99.177056 
2360.000000	99.158711 
2359.000000	99.145009 
2358.000000	99.135887 
2357.000000	99.134153 
2356.000000	99.142704 
2355.000000	99.157114 
2354.000000	99.180085 
2353.000000	99.209613 
2352.000000	99.232114 
2351.000000	99.234828 
2350.000000	99.216583 
2349.000000	99.188879 
2348.000000	99.164440 
2347.000000	99.156162 
2346.000000	99.164937 
2345.000000	99.174008 
2344.000000	99.173333 
2343.000000	99.166046 
2342.000000	99.165412 
2341.000000	99.172564 
2340.000000	99.182162 
2339.000000	99.191504 
2338.000000	99.203067 
2337.000000	99.217160 
2336.000000	99.221995 
2335.000000	99.212588 
2334.000000	99.198485 
2333.000000	99.196222 
2332.000000	99.202084 
2331.000000	99.209485 
2330.000000	99.211102 
2329.000000	99.212397 
2328.000000	99.208466 
2327.000000	99.203623 
2326.000000	99.202110 
2325.000000	99.204939 
2324.000000	99.204398 
2323.000000	99.197770 
2322.000000	99.193788 
2321.000000	99.198155 
2320.000000	99.203296 
2319.000000	99.202859 
2318.000000	99.198113 
2317.000000	99.199493 
2316.000000	99.206536 
2315.000000	99.217879 
2314.000000	99.227429 
2313.000000	99.236509 
2312.000000	99.240441 
2311.000000	99.240408 
2310.000000	99.236413 
2309.000000	99.233371 
2308.000000	99.230794 
2307.000000	99.230993 
2306.000000	99.234222 
2305.000000	99.241712 
2304.000000	99.250492 
2303.000000	99.260362 
2302.000000	99.269612 
2301.000000	99.277344 
2300.000000	99.280452 
2299.000000	99.282565 
2298.000000	99.287710 
2297.000000	99.297838 
2296.000000	99.305971 
2295.000000	99.307565 
2294.000000	99.304050 
2293.000000	99.302696 
2292.000000	99.306651 
2291.000000	99.314198 
2290.000000	99.321474 
2289.000000	99.325827 
2288.000000	99.326930 
2287.000000	99.326626 
2286.000000	99.327281 
2285.000000	99.327323 
2284.000000	99.323112 
2283.000000	99.314943 
2282.000000	99.310221 
2281.000000	99.314843 
2280.000000	99.325236 
2279.000000	99.331739 
2278.000000	99.330253 
2277.000000	99.325711 
2276.000000	99.324254 
2275.000000	99.326804 
2274.000000	99.330501 
2273.000000	99.333148 
2272.000000	99.333538 
2271.000000	99.331700 
2270.000000	99.329860 
2269.000000	99.331602 
2268.000000	99.337728 
2267.000000	99.344869 
2266.000000	99.348465 
2265.000000	99.346181 
2264.000000	99.338092 
2263.000000	99.326205 
2262.000000	99.314979 
2261.000000	99.310052 
2260.000000	99.314727 
2259.000000	99.326945 
2258.000000	99.340469 
2257.000000	99.348050 
2256.000000	99.345262 
2255.000000	99.333245 
2254.000000	99.318814 
2253.000000	99.310828 
2252.000000	99.314005 
2251.000000	99.325838 
2250.000000	99.338472 
2249.000000	99.344958 
2248.000000	99.343760 
2247.000000	99.339238 
2246.000000	99.335875 
2245.000000	99.333909 
2244.000000	99.330876 
2243.000000	99.326670 
2242.000000	99.324570 
2241.000000	99.327492 
2240.000000	99.335838 
2239.000000	99.349092 
2238.000000	99.365863 
2237.000000	99.380797 
2236.000000	99.385671 
2235.000000	99.377200 
2234.000000	99.362130 
2233.000000	99.351308 
2232.000000	99.349365 
2231.000000	99.352154 
2230.000000	99.352827 
2229.000000	99.347838 
2228.000000	99.338215 
2227.000000	99.328041 
2226.000000	99.321789 
2225.000000	99.321395 
2224.000000	99.325802 
2223.000000	99.333510 
2222.000000	99.342988 
2221.000000	99.349526 
2220.000000	99.346244 
2219.000000	99.333009 
2218.000000	99.321703 
2217.000000	99.326340 
2216.000000	99.347065 
2215.000000	99.368843 
2214.000000	99.377347 
2213.000000	99.372480 
2212.000000	99.364933 
2211.000000	99.363619 
2210.000000	99.369741 
2209.000000	99.379934 
2208.000000	99.389824 
2207.000000	99.394034 
2206.000000	99.387240 
2205.000000	99.369584 
2204.000000	99.350874 
2203.000000	99.345494 
2202.000000	99.359851 
2201.000000	99.384735 
2200.000000	99.402394 
2199.000000	99.401974 
2198.000000	99.386617 
2197.000000	99.366546 
2196.000000	99.349410 
2195.000000	99.339078 
2194.000000	99.339135 
2193.000000	99.351328 
2192.000000	99.370753 
2191.000000	99.387833 
2190.000000	99.397321 
2189.000000	99.402771 
2188.000000	99.409792 
2187.000000	99.416463 
2186.000000	99.413783 
2185.000000	99.396536 
2184.000000	99.371362 
2183.000000	99.351279 
2182.000000	99.342684 
2181.000000	99.340268 
2180.000000	99.335413 
2179.000000	99.326793 
2178.000000	99.320604 
2177.000000	99.322802 
2176.000000	99.333626 
2175.000000	99.347779 
2174.000000	99.357315 
2173.000000	99.357144 
2172.000000	99.352322 
2171.000000	99.357513 
2170.000000	99.382738 
2169.000000	99.419123 
2168.000000	99.444964 
2167.000000	99.448151 
2166.000000	99.437420 
2165.000000	99.430052 
2164.000000	99.434423 
2163.000000	99.447365 
2162.000000	99.461001 
2161.000000	99.465259 
2160.000000	99.449688 
2159.000000	99.412798 
2158.000000	99.368276 
2157.000000	99.333833 
2156.000000	99.315349 
2155.000000	99.308305 
2154.000000	99.309701 
2153.000000	99.320152 
2152.000000	99.336338 
2151.000000	99.349035 
2150.000000	99.351319 
2149.000000	99.346326 
2148.000000	99.344958 
2147.000000	99.355411 
2146.000000	99.374188 
2145.000000	99.387194 
2144.000000	99.381943 
2143.000000	99.359938 
2142.000000	99.335408 
2141.000000	99.321303 
2140.000000	99.318512 
2139.000000	99.319660 
2138.000000	99.319747 
2137.000000	99.319528 
2136.000000	99.320739 
2135.000000	99.322706 
2134.000000	99.324395 
2133.000000	99.326921 
2132.000000	99.332255 
2131.000000	99.339943 
2130.000000	99.345887 
2129.000000	99.345105 
2128.000000	99.336453 
2127.000000	99.324155 
2126.000000	99.313665 
2125.000000	99.306954 
2124.000000	99.303685 
2123.000000	99.305783 
2122.000000	99.316718 
2121.000000	99.335159 
2120.000000	99.353261 
2119.000000	99.363943 
2118.000000	99.367542 
2117.000000	99.369243 
2116.000000	99.372203 
2115.000000	99.375622 
2114.000000	99.377561 
2113.000000	99.376589 
2112.000000	99.371836 
2111.000000	99.364456 
2110.000000	99.358712 
2109.000000	99.358808 
2108.000000	99.364038 
2107.000000	99.368604 
2106.000000	99.366620 
2105.000000	99.356995 
2104.000000	99.344348 
2103.000000	99.335929 
2102.000000	99.336271 
2101.000000	99.343232 
2100.000000	99.349889 
2099.000000	99.351285 
2098.000000	99.348451 
2097.000000	99.345572 
2096.000000	99.345336 
2095.000000	99.348229 
2094.000000	99.353813 
2093.000000	99.360233 
2092.000000	99.364376 
2091.000000	99.365148 
2090.000000	99.365516 
2089.000000	99.369068 
2088.000000	99.375202 
2087.000000	99.379600 
2086.000000	99.378860 
2085.000000	99.373588 
2084.000000	99.368180 
2083.000000	99.368494 
2082.000000	99.377655 
2081.000000	99.391961 
2080.000000	99.402790 
2079.000000	99.405413 
2078.000000	99.404716 
2077.000000	99.409249 
2076.000000	99.420116 
2075.000000	99.428680 
2074.000000	99.425452 
2073.000000	99.409369 
2072.000000	99.388504 
2071.000000	99.373053 
2070.000000	99.367567 
2069.000000	99.368356 
2068.000000	99.367694 
2067.000000	99.361105 
2066.000000	99.350927 
2065.000000	99.344088 
2064.000000	99.347446 
2063.000000	99.363492 
2062.000000	99.386338 
2061.000000	99.401866 
2060.000000	99.398342 
2059.000000	99.380227 
2058.000000	99.366578 
2057.000000	99.371561 
2056.000000	99.390169 
2055.000000	99.407301 
2054.000000	99.416468 
2053.000000	99.423178 
2052.000000	99.432794 
2051.000000	99.442893 
2050.000000	99.448198 
2049.000000	99.447371 
2048.000000	99.443188 
2047.000000	99.439654 
2046.000000	99.440410 
2045.000000	99.445975 
2044.000000	99.450904 
2043.000000	99.448037 
2042.000000	99.437869 
2041.000000	99.429983 
2040.000000	99.432200 
2039.000000	99.441447 
2038.000000	99.448358 
2037.000000	99.448206 
2036.000000	99.444063 
2035.000000	99.439903 
2034.000000	99.434341 
2033.000000	99.424108 
2032.000000	99.413198 
2031.000000	99.414068 
2030.000000	99.435028 
2029.000000	99.466721 
2028.000000	99.486763 
2027.000000	99.481001 
2026.000000	99.456222 
2025.000000	99.430504 
2024.000000	99.415894 
2023.000000	99.413967 
2022.000000	99.422290 
2021.000000	99.437046 
2020.000000	99.451225 
2019.000000	99.458026 
2018.000000	99.457053 
2017.000000	99.452909 
2016.000000	99.447885 
2015.000000	99.440770 
2014.000000	99.431695 
2013.000000	99.422179 
2012.000000	99.411447 
2011.000000	99.398929 
2010.000000	99.390549 
2009.000000	99.395469 
2008.000000	99.413535 
2007.000000	99.431953 
2006.000000	99.438426 
2005.000000	99.433948 
2004.000000	99.429260 
2003.000000	99.431262 
2002.000000	99.435730 
2001.000000	99.431515 
2000.000000	99.411047 
1999.000000	99.378175 
1998.000000	99.346272 
1997.000000	99.328268 
1996.000000	99.328486 
1995.000000	99.342998 
1994.000000	99.364327 
1993.000000	99.384140 
1992.000000	99.395393 
1991.000000	99.396369 
1990.000000	99.391771 
1989.000000	99.387571 
1988.000000	99.387162 
1987.000000	99.393402 
1986.000000	99.409680 
1985.000000	99.434861 
1984.000000	99.459755 
1983.000000	99.473426 
1982.000000	99.472561 
1981.000000	99.462210 
1980.000000	99.449595 
1979.000000	99.440114 
1978.000000	99.436223 
1977.000000	99.434814 
1976.000000	99.428059 
1975.000000	99.412550 
1974.000000	99.396435 
1973.000000	99.392155 
1972.000000	99.402186 
1971.000000	99.416840 
1970.000000	99.426195 
1969.000000	99.429219 
1968.000000	99.430095 
1967.000000	99.430593 
1966.000000	99.430045 
1965.000000	99.429143 
1964.000000	99.428718 
1963.000000	99.426600 
1962.000000	99.420137 
1961.000000	99.411700 
1960.000000	99.407429 
1959.000000	99.408854 
1958.000000	99.409472 
1957.000000	99.402162 
1956.000000	99.387566 
1955.000000	99.372074 
1954.000000	99.359194 
1953.000000	99.346771 
1952.000000	99.332790 
1951.000000	99.320501 
1950.000000	99.315661 
1949.000000	99.320080 
1948.000000	99.330099 
1947.000000	99.341162 
1946.000000	99.350852 
1945.000000	99.357095 
1944.000000	99.356735 
1943.000000	99.348135 
1942.000000	99.333919 
1941.000000	99.318820 
1940.000000	99.306130 
1939.000000	99.297700 
1938.000000	99.294621 
1937.000000	99.296149 
1936.000000	99.299780 
1935.000000	99.303699 
1934.000000	99.307922 
1933.000000	99.312651 
1932.000000	99.316988 
1931.000000	99.321038 
1930.000000	99.327407 
1929.000000	99.336856 
1928.000000	99.343946 
1927.000000	99.341448 
1926.000000	99.328696 
1925.000000	99.312078 
1924.000000	99.298696 
1923.000000	99.291979 
1922.000000	99.292830 
1921.000000	99.299782 
1920.000000	99.307650 
1919.000000	99.310326 
1918.000000	99.306656 
1917.000000	99.301123 
1916.000000	99.297439 
1915.000000	99.296172 
1914.000000	99.298212 
1913.000000	99.305305 
1912.000000	99.316214 
1911.000000	99.325556 
1910.000000	99.328370 
1909.000000	99.324310 
1908.000000	99.317468 
1907.000000	99.314132 
1906.000000	99.319632 
1905.000000	99.332862 
1904.000000	99.344077 
1903.000000	99.342415 
1902.000000	99.327016 
1901.000000	99.307698 
1900.000000	99.295230 
1899.000000	99.293045 
1898.000000	99.297405 
1897.000000	99.302000 
1896.000000	99.302002 
1895.000000	99.297201 
1894.000000	99.292681 
1893.000000	99.293371 
1892.000000	99.298271 
1891.000000	99.302220 
1890.000000	99.301885 
1889.000000	99.298477 
1888.000000	99.295123 
1887.000000	99.294695 
1886.000000	99.298896 
1885.000000	99.306116 
1884.000000	99.310888 
1883.000000	99.308630 
1882.000000	99.300698 
1881.000000	99.292526 
1880.000000	99.288409 
1879.000000	99.288982 
1878.000000	99.291382 
1877.000000	99.290679 
1876.000000	99.284026 
1875.000000	99.275347 
1874.000000	99.273180 
1873.000000	99.280877 
1872.000000	99.291264 
1871.000000	99.294403 
1870.000000	99.288857 
1869.000000	99.281729 
1868.000000	99.276321 
1867.000000	99.269060 
1866.000000	99.259816 
1865.000000	99.252837 
1864.000000	99.250570 
1863.000000	99.252647 
1862.000000	99.258856 
1861.000000	99.268522 
1860.000000	99.277413 
1859.000000	99.280932 
1858.000000	99.280916 
1857.000000	99.283602 
1856.000000	99.291023 
1855.000000	99.299747 
1854.000000	99.306342 
1853.000000	99.309402 
1852.000000	99.307945 
1851.000000	99.301796 
1850.000000	99.294174 
1849.000000	99.289840 
1848.000000	99.290036 
1847.000000	99.291638 
1846.000000	99.291858 
1845.000000	99.290151 
1844.000000	99.285606 
1843.000000	99.277518 
1842.000000	99.269339 
1841.000000	99.265735 
1840.000000	99.268872 
1839.000000	99.277754 
1838.000000	99.288863 
1837.000000	99.297813 
1836.000000	99.301840 
1835.000000	99.301791 
1834.000000	99.301201 
1833.000000	99.303077 
1832.000000	99.308214 
1831.000000	99.314204 
1830.000000	99.316696 
1829.000000	99.313948 
1828.000000	99.309163 
1827.000000	99.304905 
1826.000000	99.300294 
1825.000000	99.295308 
1824.000000	99.292365 
1823.000000	99.292857 
1822.000000	99.295051 
1821.000000	99.295331 
1820.000000	99.290935 
1819.000000	99.282195 
1818.000000	99.273718 
1817.000000	99.271197 
1816.000000	99.274693 
1815.000000	99.278653 
1814.000000	99.280026 
1813.000000	99.282376 
1812.000000	99.290429 
1811.000000	99.302287 
1810.000000	99.312684 
1809.000000	99.320509 
1808.000000	99.325335 
1807.000000	99.323884 
1806.000000	99.315542 
1805.000000	99.305409 
1804.000000	99.298400 
1803.000000	99.294197 
1802.000000	99.290968 
1801.000000	99.290882 
1800.000000	99.294769 
1799.000000	99.297522 
1798.000000	99.295773 
1797.000000	99.292321 
1796.000000	99.290569 
1795.000000	99.290793 
1794.000000	99.291949 
1793.000000	99.293904 
1792.000000	99.295976 
1791.000000	99.295264 
1790.000000	99.292073 
1789.000000	99.290407 
1788.000000	99.292055 
1787.000000	99.295556 
1786.000000	99.299365 
1785.000000	99.302892 
1784.000000	99.304175 
1783.000000	99.301984 
1782.000000	99.298665 
1781.000000	99.297725 
1780.000000	99.298283 
1779.000000	99.296666 
1778.000000	99.293460 
1777.000000	99.292681 
1776.000000	99.295674 
1775.000000	99.300700 
1774.000000	99.306516 
1773.000000	99.312836 
1772.000000	99.317586 
1771.000000	99.316708 
1770.000000	99.310038 
1769.000000	99.301918 
1768.000000	99.297671 
1767.000000	99.298116 
1766.000000	99.299913 
1765.000000	99.301683 
1764.000000	99.304750 
1763.000000	99.309816 
1762.000000	99.314517 
1761.000000	99.316782 
1760.000000	99.317852 
1759.000000	99.318818 
1758.000000	99.318362 
1757.000000	99.315388 
1756.000000	99.311397 
1755.000000	99.308180 
1754.000000	99.304240 
1753.000000	99.297271 
1752.000000	99.290234 
1751.000000	99.291229 
1750.000000	99.302241 
1749.000000	99.315542 
1748.000000	99.325449 
1747.000000	99.331621 
1746.000000	99.333677 
1745.000000	99.330856 
1744.000000	99.325914 
1743.000000	99.323228 
1742.000000	99.322980 
1741.000000	99.322873 
1740.000000	99.322922 
1739.000000	99.324205 
1738.000000	99.324865 
1737.000000	99.321620 
1736.000000	99.311985 
1735.000000	99.296540 
1734.000000	99.282957 
1733.000000	99.279454 
1732.000000	99.286884 
1731.000000	99.300574 
1730.000000	99.314032 
1729.000000	99.321030 
1728.000000	99.320768 
1727.000000	99.317867 
1726.000000	99.315709 
1725.000000	99.313719 
1724.000000	99.310890 
1723.000000	99.309318 
1722.000000	99.311743 
1721.000000	99.318025 
1720.000000	99.324301 
1719.000000	99.324500 
1718.000000	99.314696 
1717.000000	99.302524 
1716.000000	99.296276 
1715.000000	99.293230 
1714.000000	99.291813 
1713.000000	99.293986 
1712.000000	99.298314 
1711.000000	99.301875 
1710.000000	99.303777 
1709.000000	99.305108 
1708.000000	99.306502 
1707.000000	99.307367 
1706.000000	99.310196 
1705.000000	99.318358 
1704.000000	99.326721 
1703.000000	99.323907 
1702.000000	99.306008 
1701.000000	99.285788 
1700.000000	99.282415 
1699.000000	99.286587 
1698.000000	99.286508 
1697.000000	99.287177 
1696.000000	99.293976 
1695.000000	99.299676 
1694.000000	99.299148 
1693.000000	99.296197 
1692.000000	99.291939 
1691.000000	99.286309 
1690.000000	99.281325 
1689.000000	99.279371 
1688.000000	99.279068 
1687.000000	99.275376 
1686.000000	99.267479 
1685.000000	99.262763 
1684.000000	99.267514 
1683.000000	99.272132 
1682.000000	99.272695 
1681.000000	99.270436 
1680.000000	99.268882 
1679.000000	99.269720 
1678.000000	99.271028 
1677.000000	99.269692 
1676.000000	99.266033 
1675.000000	99.264661 
1674.000000	99.266212 
1673.000000	99.267871 
1672.000000	99.268328 
1671.000000	99.269589 
1670.000000	99.273930 
1669.000000	99.278326 
1668.000000	99.279295 
1667.000000	99.278657 
1666.000000	99.276266 
1665.000000	99.270463 
1664.000000	99.262732 
1663.000000	99.258165 
1662.000000	99.259251 
1661.000000	99.262246 
1660.000000	99.262898 
1659.000000	99.262891 
1658.000000	99.265839 
1657.000000	99.270663 
1656.000000	99.270322 
1655.000000	99.262833 
1654.000000	99.257738 
1653.000000	99.261893 
1652.000000	99.259398 
1651.000000	99.256234 
1650.000000	99.252392 
1649.000000	99.245155 
1648.000000	99.234548 
1647.000000	99.224863 
1646.000000	99.218585 
1645.000000	99.217470 
1644.000000	99.221013 
1643.000000	99.225572 
1642.000000	99.228692 
1641.000000	99.230523 
1640.000000	99.231188 
1639.000000	99.230167 
1638.000000	99.228057 
1637.000000	99.226947 
1636.000000	99.227349 
1635.000000	99.227835 
1634.000000	99.230124 
1633.000000	99.234676 
1632.000000	99.237867 
1631.000000	99.238665 
1630.000000	99.239260 
1629.000000	99.240972 
1628.000000	99.241889 
1627.000000	99.241131 
1626.000000	99.240792 
1625.000000	99.242739 
1624.000000	99.246536 
1623.000000	99.251381 
1622.000000	99.256813 
1621.000000	99.261116 
1620.000000	99.261852 
1619.000000	99.259241 
1618.000000	99.257700 
1617.000000	99.260335 
1616.000000	99.262732 
1615.000000	99.262264 
1614.000000	99.260521 
1613.000000	99.256677 
1612.000000	99.250818 
1611.000000	99.246009 
1610.000000	99.245223 
1609.000000	99.246582 
1608.000000	99.246392 
1607.000000	99.245530 
1606.000000	99.246612 
1605.000000	99.248856 
1604.000000	99.250284 
1603.000000	99.252131 
1602.000000	99.256140 
1601.000000	99.260029 
1600.000000	99.260909 
1599.000000	99.260482 
1598.000000	99.262226 
1597.000000	99.266415 
1596.000000	99.271183 
1595.000000	99.276349 
1594.000000	99.282445 
1593.000000	99.286810 
1592.000000	99.286210 
1591.000000	99.282681 
1590.000000	99.281694 
1589.000000	99.284407 
1588.000000	99.287404 
1587.000000	99.289539 
1586.000000	99.292356 
1585.000000	99.294448 
1584.000000	99.292524 
1583.000000	99.287459 
1582.000000	99.284829 
1581.000000	99.287103 
1580.000000	99.291452 
1579.000000	99.295295 
1578.000000	99.299361 
1577.000000	99.302862 
1576.000000	99.301042 
1575.000000	99.295456 
1574.000000	99.293251 
1573.000000	99.292895 
1572.000000	99.290790 
1571.000000	99.289442 
1570.000000	99.294042 
1569.000000	99.300797 
1568.000000	99.302650 
1567.000000	99.301207 
1566.000000	99.300097 
1565.000000	99.300438 
1564.000000	99.302581 
1563.000000	99.306900 
1562.000000	99.311603 
1561.000000	99.309803 
1560.000000	99.296217 
1559.000000	99.284489 
1558.000000	99.285686 
1557.000000	99.291620 
1556.000000	99.295569 
1555.000000	99.296257 
1554.000000	99.294874 
1553.000000	99.292700 
1552.000000	99.291433 
1551.000000	99.292555 
1550.000000	99.296609 
1549.000000	99.300572 
1548.000000	99.300939 
1547.000000	99.297174 
1546.000000	99.291254 
1545.000000	99.286909 
1544.000000	99.285892 
1543.000000	99.284917 
1542.000000	99.281812 
1541.000000	99.280596 
1540.000000	99.280593 
1539.000000	99.275369 
1538.000000	99.271112 
1537.000000	99.271640 
1536.000000	99.272827 
1535.000000	99.273140 
1534.000000	99.276401 
1533.000000	99.283921 
1532.000000	99.288674 
1531.000000	99.285687 
1530.000000	99.278563 
1529.000000	99.273356 
1528.000000	99.270964 
1527.000000	99.268651 
1526.000000	99.265708 
1525.000000	99.264806 
1524.000000	99.265651 
1523.000000	99.265170 
1522.000000	99.264895 
1521.000000	99.269393 
1520.000000	99.274175 
1519.000000	99.272346 
1518.000000	99.263541 
1517.000000	99.253752 
1516.000000	99.247575 
1515.000000	99.244011 
1514.000000	99.240829 
1513.000000	99.238083 
1512.000000	99.236970 
1511.000000	99.235842 
1510.000000	99.230830 
1509.000000	99.222269 
1508.000000	99.219693 
1507.000000	99.230612 
1506.000000	99.240113 
1505.000000	99.239904 
1504.000000	99.238024 
1503.000000	99.236372 
1502.000000	99.235983 
1501.000000	99.239337 
1500.000000	99.247429 
1499.000000	99.255661 
1498.000000	99.256973 
1497.000000	99.253920 
1496.000000	99.255661 
1495.000000	99.259827 
1494.000000	99.257214 
1493.000000	99.246073 
1492.000000	99.231761 
1491.000000	99.221285 
1490.000000	99.217895 
1489.000000	99.220147 
1488.000000	99.222563 
1487.000000	99.219889 
1486.000000	99.215006 
1485.000000	99.212583 
1484.000000	99.212487 
1483.000000	99.212225 
1482.000000	99.209781 
1481.000000	99.205551 
1480.000000	99.200899 
1479.000000	99.196079 
1478.000000	99.191514 
1477.000000	99.188832 
1476.000000	99.187902 
1475.000000	99.183882 
1474.000000	99.175971 
1473.000000	99.172977 
1472.000000	99.180801 
1471.000000	99.190426 
1470.000000	99.194582 
1469.000000	99.195808 
1468.000000	99.198277 
1467.000000	99.201335 
1466.000000	99.201856 
1465.000000	99.199848 
1464.000000	99.197288 
1463.000000	99.194971 
1462.000000	99.193118 
1461.000000	99.192996 
1460.000000	99.194583 
1459.000000	99.194550 
1458.000000	99.185598 
1457.000000	99.165877 
1456.000000	99.146542 
1455.000000	99.136370 
1454.000000	99.132540 
1453.000000	99.131834 
1452.000000	99.133049 
1451.000000	99.134240 
1450.000000	99.134028 
1449.000000	99.135574 
1448.000000	99.143012 
1447.000000	99.153239 
1446.000000	99.159551 
1445.000000	99.161450 
1444.000000	99.162017 
1443.000000	99.162055 
1442.000000	99.160522 
1441.000000	99.158103 
1440.000000	99.157693 
1439.000000	99.160236 
1438.000000	99.161290 
1437.000000	99.156372 
1436.000000	99.147927 
1435.000000	99.139823 
1434.000000	99.132892 
1433.000000	99.128741 
1432.000000	99.129501 
1431.000000	99.135678 
1430.000000	99.143192 
1429.000000	99.146802 
1428.000000	99.145669 
1427.000000	99.141254 
1426.000000	99.133605 
1425.000000	99.122145 
1424.000000	99.110550 
1423.000000	99.103804 
1422.000000	99.099324 
1421.000000	99.090628 
1420.000000	99.076157 
1419.000000	99.060626 
1418.000000	99.043675 
1417.000000	99.023462 
1416.000000	99.004442 
1415.000000	98.988971 
1414.000000	98.973385 
1413.000000	98.953505 
1412.000000	98.931853 
1411.000000	98.914664 
1410.000000	98.902383 
1409.000000	98.892038 
1408.000000	98.884755 
1407.000000	98.882861 
1406.000000	98.884920 
1405.000000	98.889213 
1404.000000	98.899222 
1403.000000	98.916377 
1402.000000	98.933350 
1401.000000	98.943611 
1400.000000	98.949736 
1399.000000	98.957723 
1398.000000	98.961391 
1397.000000	98.945563 
1396.000000	98.906641 
1395.000000	98.863975 
1394.000000	98.846034 
1393.000000	98.862982 
1392.000000	98.904679 
1391.000000	98.953323 
1390.000000	98.992343 
1389.000000	99.011857 
1388.000000	99.011955 
1387.000000	99.001161 
1386.000000	98.988306 
1385.000000	98.977731 
1384.000000	98.971165 
1383.000000	98.969163 
1382.000000	98.970676 
1381.000000	98.974895 
1380.000000	98.982162 
1379.000000	98.992693 
1378.000000	99.004916 
1377.000000	99.016270 
1376.000000	99.026428 
1375.000000	99.038025 
1374.000000	99.052531 
1373.000000	99.066797 
1372.000000	99.077915 
1371.000000	99.088243 
1370.000000	99.102563 
1369.000000	99.120617 
1368.000000	99.138137 
1367.000000	99.152480 
1366.000000	99.164007 
1365.000000	99.173458 
1364.000000	99.180035 
1363.000000	99.183482 
1362.000000	99.186347 
1361.000000	99.190946 
1360.000000	99.196619 
1359.000000	99.202171 
1358.000000	99.208419 
1357.000000	99.216436 
1356.000000	99.225418 
1355.000000	99.233423 
1354.000000	99.239588 
1353.000000	99.244168 
1352.000000	99.245919 
1351.000000	99.243025 
1350.000000	99.238398 
1349.000000	99.236629 
1348.000000	99.239472 
1347.000000	99.245128 
1346.000000	99.251483 
1345.000000	99.257409 
1344.000000	99.262061 
1343.000000	99.264701 
1342.000000	99.265518 
1341.000000	99.265004 
1340.000000	99.263082 
1339.000000	99.259979 
1338.000000	99.256964 
1337.000000	99.255684 
1336.000000	99.256930 
1335.000000	99.259959 
1334.000000	99.263535 
1333.000000	99.267145 
1332.000000	99.270632 
1331.000000	99.273487 
1330.000000	99.274867 
1329.000000	99.273827 
1328.000000	99.270368 
1327.000000	99.266231 
1326.000000	99.263826 
1325.000000	99.263072 
1324.000000	99.262888 
1323.000000	99.263526 
1322.000000	99.265331 
1321.000000	99.266477 
1320.000000	99.264733 
1319.000000	99.261013 
1318.000000	99.258705 
1317.000000	99.259442 
1316.000000	99.261244 
1315.000000	99.261230 
1314.000000	99.258691 
1313.000000	99.255505 
1312.000000	99.254049 
1311.000000	99.255006 
1310.000000	99.257054 
1309.000000	99.258315 
1308.000000	99.257904 
1307.000000	99.255960 
1306.000000	99.253209 
1305.000000	99.250168 
1304.000000	99.248206 
1303.000000	99.249147 
1302.000000	99.253370 
1301.000000	99.258725 
1300.000000	99.262017 
1299.000000	99.261106 
1298.000000	99.255928 
1297.000000	99.248634 
1296.000000	99.242556 
1295.000000	99.240228 
1294.000000	99.241403 
1293.000000	99.243598 
1292.000000	99.244447 
1291.000000	99.242748 
1290.000000	99.238148 
1289.000000	99.231528 
1288.000000	99.225372 
1287.000000	99.221826 
1286.000000	99.219951 
1285.000000	99.216757 
1284.000000	99.211182 
1283.000000	99.204947 
1282.000000	99.199406 
1281.000000	99.193900 
1280.000000	99.187800 
1279.000000	99.182010 
1278.000000	99.176795 
1277.000000	99.170381 
1276.000000	99.161275 
1275.000000	99.150890 
1274.000000	99.142011 
1273.000000	99.135721 
1272.000000	99.131150 
1271.000000	99.126815 
1270.000000	99.120715 
1269.000000	99.110802 
1268.000000	99.097449 
1267.000000	99.084091 
1266.000000	99.073135 
1265.000000	99.062897 
1264.000000	99.050442 
1263.000000	99.035665 
1262.000000	99.020474 
1261.000000	99.005729 
1260.000000	98.991632 
1259.000000	98.979920 
1258.000000	98.972127 
1257.000000	98.966879 
1256.000000	98.961609 
1255.000000	98.956212 
1254.000000	98.952212 
1253.000000	98.948979 
1252.000000	98.943896 
1251.000000	98.936893 
1250.000000	98.932004 
1249.000000	98.933436 
1248.000000	98.941844 
1247.000000	98.954265 
1246.000000	98.964800 
1245.000000	98.965752 
1244.000000	98.952348 
1243.000000	98.929383 
1242.000000	98.911039 
1241.000000	98.910042 
1240.000000	98.926049 
1239.000000	98.945882 
1238.000000	98.955484 
1237.000000	98.950872 
1236.000000	98.937654 
1235.000000	98.922577 
1234.000000	98.907813 
1233.000000	98.892558 
1232.000000	98.877141 
1231.000000	98.863559 
1230.000000	98.852935 
1229.000000	98.844533 
1228.000000	98.837409 
1227.000000	98.831690 
1226.000000	98.827839 
1225.000000	98.825452 
1224.000000	98.823072 
1223.000000	98.818847 
1222.000000	98.811641 
1221.000000	98.802205 
1220.000000	98.793043 
1219.000000	98.786273 
1218.000000	98.781412 
1217.000000	98.775859 
1216.000000	98.767310 
1215.000000	98.755056 
1214.000000	98.739674 
1213.000000	98.722697 
1212.000000	98.706110 
1211.000000	98.690494 
1210.000000	98.673973 
1209.000000	98.654458 
1208.000000	98.632404 
1207.000000	98.609750 
1206.000000	98.586902 
1205.000000	98.562984 
1204.000000	98.538563 
1203.000000	98.515403 
1202.000000	98.493241 
1201.000000	98.469512 
1200.000000	98.443164 
1199.000000	98.416368 
1198.000000	98.391262 
1197.000000	98.367342 
1196.000000	98.343266 
1195.000000	98.318904 
1194.000000	98.294195 
1193.000000	98.267870 
1192.000000	98.239140 
1191.000000	98.209316 
1190.000000	98.180380 
1189.000000	98.153136 
1188.000000	98.127635 
1187.000000	98.103648 
1186.000000	98.079568 
1185.000000	98.052658 
1184.000000	98.021594 
1183.000000	97.987419 
1182.000000	97.951390 
1181.000000	97.913814 
1180.000000	97.875841 
1179.000000	97.839896 
1178.000000	97.806403 
1177.000000	97.772076 
1176.000000	97.733616 
1175.000000	97.691644 
1174.000000	97.649211 
1173.000000	97.607780 
1172.000000	97.566985 
1171.000000	97.527155 
1170.000000	97.489635 
1169.000000	97.454949 
1168.000000	97.422336 
1167.000000	97.391019 
1166.000000	97.361402 
1165.000000	97.336042 
1164.000000	97.319969 
1163.000000	97.318133 
1162.000000	97.330975 
1161.000000	97.353205 
1160.000000	97.377364 
1159.000000	97.397447 
1158.000000	97.409093 
1157.000000	97.408699 
1156.000000	97.394203 
1155.000000	97.366249 
1154.000000	97.327980 
1153.000000	97.284180 
1152.000000	97.240357 
1151.000000	97.200688 
1150.000000	97.165676 
1149.000000	97.132826 
1148.000000	97.099937 
1147.000000	97.066375 
1146.000000	97.031423 
1145.000000	96.994031 
1144.000000	96.955073 
1143.000000	96.917706 
1142.000000	96.884156 
1141.000000	96.853616 
1140.000000	96.823845 
1139.000000	96.792964 
1138.000000	96.759360 
1137.000000	96.722329 
1136.000000	96.683684 
1135.000000	96.646571 
1134.000000	96.611824 
1133.000000	96.577360 
1132.000000	96.541385 
1131.000000	96.503755 
1130.000000	96.464086 
1129.000000	96.421627 
1128.000000	96.377636 
1127.000000	96.334750 
1126.000000	96.293223 
1125.000000	96.251001 
1124.000000	96.208241 
1123.000000	96.167970 
1122.000000	96.130817 
1121.000000	96.092887 
1120.000000	96.050843 
1119.000000	96.005764 
1118.000000	95.960053 
1117.000000	95.913993 
1116.000000	95.867660 
1115.000000	95.822917 
1114.000000	95.780631 
1113.000000	95.738482 
1112.000000	95.694313 
1111.000000	95.649702 
1110.000000	95.607814 
1109.000000	95.569290 
1108.000000	95.532442 
1107.000000	95.495428 
1106.000000	95.457070 
1105.000000	95.417127 
1104.000000	95.376629 
1103.000000	95.336663 
1102.000000	95.297155 
1101.000000	95.258580 
1100.000000	95.224858 
1099.000000	95.198200 
1098.000000	95.175057 
1097.000000	95.149171 
1096.000000	95.119285 
1095.000000	95.088682 
1094.000000	95.057005 
1093.000000	95.018303 
1092.000000	94.968733 
1091.000000	94.911158 
1090.000000	94.850181 
1089.000000	94.787298 
1088.000000	94.723446 
1087.000000	94.662051 
1086.000000	94.606399 
1085.000000	94.556531 
1084.000000	94.510197 
1083.000000	94.464143 
1082.000000	94.414467 
1081.000000	94.359972 
1080.000000	94.305530 
1079.000000	94.257681 
1078.000000	94.216795 
1077.000000	94.178739 
1076.000000	94.143921 
1075.000000	94.117662 
1074.000000	94.100434 
1073.000000	94.084306 
1072.000000	94.059799 
1071.000000	94.018921 
1070.000000	93.951493 
1069.000000	93.850025 
1068.000000	93.724663 
1067.000000	93.605508 
1066.000000	93.520926 
1065.000000	93.475095 
1064.000000	93.450128 
1063.000000	93.423826 
1062.000000	93.380041 
1061.000000	93.309478 
1060.000000	93.212218 
1059.000000	93.101306 
1058.000000	92.997178 
1057.000000	92.913850 
1056.000000	92.849861 
1055.000000	92.791293 
1054.000000	92.723318 
1053.000000	92.641898 
1052.000000	92.555894 
1051.000000	92.476122 
1050.000000	92.403272 
1049.000000	92.330731 
1048.000000	92.256874 
1047.000000	92.186576 
1046.000000	92.121083 
1045.000000	92.055054 
1044.000000	91.985502 
1043.000000	91.916947 
1042.000000	91.854719 
1041.000000	91.797795 
1040.000000	91.741603 
1039.000000	91.685310 
1038.000000	91.634372 
1037.000000	91.597383 
1036.000000	91.580091 
1035.000000	91.579912 
1034.000000	91.586879 
1033.000000	91.591601 
1032.000000	91.589262 
1031.000000	91.574569 
1030.000000	91.541416 
1029.000000	91.495644 
1028.000000	91.461493 
1027.000000	91.462770 
1026.000000	91.497660 
1025.000000	91.541459 
1024.000000	91.572929 
1023.000000	91.588139 
1022.000000	91.590959 
1021.000000	91.583767 
1020.000000	91.570814 
1019.000000	91.559642 
1018.000000	91.553336 
1017.000000	91.547960 
1016.000000	91.540978 
1015.000000	91.535739 
1014.000000	91.535147 
1013.000000	91.537364 
1012.000000	91.540129 
1011.000000	91.543308 
1010.000000	91.545668 
1009.000000	91.545710 
1008.000000	91.547306 
1007.000000	91.557883 
1006.000000	91.579001 
1005.000000	91.604544 
1004.000000	91.629388 
1003.000000	91.653643 
1002.000000	91.677796 
1001.000000	91.700903 
1000.000000	91.724997 
999.000000	 91.754108 
998.000000	 91.787036 
997.000000	 91.817929 
996.000000	 91.846054 
995.000000	 91.878241 
994.000000	 91.919070 
993.000000	 91.964556 
992.000000	 92.007938 
991.000000	 92.046411 
990.000000	 92.080508 
989.000000	 92.112338 
988.000000	 92.146204 
987.000000	 92.185861 
986.000000	 92.229849 
985.000000	 92.274530 
984.000000	 92.322010 
983.000000	 92.378821 
982.000000	 92.445979 
981.000000	 92.516936 
980.000000	 92.586729 
979.000000	 92.656692 
978.000000	 92.728700 
977.000000	 92.801500 
976.000000	 92.875047 
975.000000	 92.952327 
974.000000	 93.034103 
973.000000	 93.116985 
972.000000	 93.198951 
971.000000	 93.281877 
970.000000	 93.366721 
969.000000	 93.451189 
968.000000	 93.534160 
967.000000	 93.617500 
966.000000	 93.701244 
965.000000	 93.781495 
964.000000	 93.855440 
963.000000	 93.924497 
962.000000	 93.990641 
961.000000	 94.053670 
960.000000	 94.114121 
959.000000	 94.174707 
958.000000	 94.236258 
957.000000	 94.295665 
956.000000	 94.350474 
955.000000	 94.402689 
954.000000	 94.455586 
953.000000	 94.508973 
952.000000	 94.559556 
951.000000	 94.604162 
950.000000	 94.641410 
949.000000	 94.672284 
948.000000	 94.700312 
947.000000	 94.729515 
946.000000	 94.761188 
945.000000	 94.793817 
944.000000	 94.825718 
943.000000	 94.855527 
942.000000	 94.880741 
941.000000	 94.899006 
940.000000	 94.911301 
939.000000	 94.921458 
938.000000	 94.932573 
937.000000	 94.945992 
936.000000	 94.962751 
935.000000	 94.982508 
934.000000	 95.001635 
933.000000	 95.016429 
932.000000	 95.028398 
931.000000	 95.042839 
930.000000	 95.062113 
929.000000	 95.083872 
928.000000	 95.105691 
927.000000	 95.127233 
926.000000	 95.147577 
925.000000	 95.164636 
924.000000	 95.177920 
923.000000	 95.188147 
922.000000	 95.193748 
921.000000	 95.191943 
920.000000	 95.184217 
919.000000	 95.176748 
918.000000	 95.173932 
917.000000	 95.174676 
916.000000	 95.176029 
915.000000	 95.177132 
914.000000	 95.178978 
913.000000	 95.183879 
912.000000	 95.195977 
911.000000	 95.218418 
910.000000	 95.248892 
909.000000	 95.281484 
908.000000	 95.313758 
907.000000	 95.348480 
906.000000	 95.388004 
905.000000	 95.431207 
904.000000	 95.477175 
903.000000	 95.528078 
902.000000	 95.586585 
901.000000	 95.652719 
900.000000	 95.723864 
899.000000	 95.795454 
898.000000	 95.862052 
897.000000	 95.920313 
896.000000	 95.970987 
895.000000	 96.016480 
894.000000	 96.058401 
893.000000	 96.099902 
892.000000	 96.147228 
891.000000	 96.203955 
890.000000	 96.265202 
889.000000	 96.322573 
888.000000	 96.373391 
887.000000	 96.419700 
886.000000	 96.459948 
885.000000	 96.489110 
884.000000	 96.507808 
883.000000	 96.524395 
882.000000	 96.545534 
881.000000	 96.570378 
880.000000	 96.596868 
879.000000	 96.628081 
878.000000	 96.667806 
877.000000	 96.713214 
876.000000	 96.755899 
875.000000	 96.788635 
874.000000	 96.810002 
873.000000	 96.825324 
872.000000	 96.844401 
871.000000	 96.874800 
870.000000	 96.914838 
869.000000	 96.955241 
868.000000	 96.988995 
867.000000	 97.017608 
866.000000	 97.047637 
865.000000	 97.083998 
864.000000	 97.127336 
863.000000	 97.174601 
862.000000	 97.220410 
861.000000	 97.259964 
860.000000	 97.292284 
859.000000	 97.320150 
858.000000	 97.347483 
857.000000	 97.378195 
856.000000	 97.415460 
855.000000	 97.457846 
854.000000	 97.496595 
853.000000	 97.521811 
852.000000	 97.532925 
851.000000	 97.539454 
850.000000	 97.550115 
849.000000	 97.564888 
848.000000	 97.579487 
847.000000	 97.593040 
846.000000	 97.607447 
845.000000	 97.622015 
844.000000	 97.633240 
843.000000	 97.639113 
842.000000	 97.640262 
841.000000	 97.637187 
840.000000	 97.629608 
839.000000	 97.619094 
838.000000	 97.609527 
837.000000	 97.603131 
836.000000	 97.597269 
835.000000	 97.587220 
834.000000	 97.572401 
833.000000	 97.557932 
832.000000	 97.548203 
831.000000	 97.540335 
830.000000	 97.528313 
829.000000	 97.514856 
828.000000	 97.513298 
827.000000	 97.531623 
826.000000	 97.558223 
825.000000	 97.572867 
824.000000	 97.571700 
823.000000	 97.571008 
822.000000	 97.583840 
821.000000	 97.603695 
820.000000	 97.616096 
819.000000	 97.616722 
818.000000	 97.612027 
817.000000	 97.607772 
816.000000	 97.602786 
815.000000	 97.591253 
814.000000	 97.566206 
813.000000	 97.522245 
812.000000	 97.459245 
811.000000	 97.383134 
810.000000	 97.299169 
809.000000	 97.203986 
808.000000	 97.087367 
807.000000	 96.942318 
806.000000	 96.771648 
805.000000	 96.585486 
804.000000	 96.395982 
803.000000	 96.214959 
802.000000	 96.052907 
801.000000	 95.918173 
800.000000	 95.816837 
799.000000	 95.751446 
798.000000	 95.718693 
797.000000	 95.710953 
796.000000	 95.721876 
795.000000	 95.748750 
794.000000	 95.789156 
793.000000	 95.837920 
792.000000	 95.887365 
791.000000	 95.927849 
790.000000	 95.949134 
789.000000	 95.945920 
788.000000	 95.922892 
787.000000	 95.890671 
786.000000	 95.855727 
785.000000	 95.817132 
784.000000	 95.773186 
783.000000	 95.726101 
782.000000	 95.678352 
781.000000	 95.630037 
780.000000	 95.583411 
779.000000	 95.546005 
778.000000	 95.525776 
777.000000	 95.526571 
776.000000	 95.550418 
775.000000	 95.598412 
774.000000	 95.664815 
773.000000	 95.735349 
772.000000	 95.797342 
771.000000	 95.849199 
770.000000	 95.895470 
769.000000	 95.935600 
768.000000	 95.963776 
767.000000	 95.978882 
766.000000	 95.987919 
765.000000	 95.997698 
764.000000	 96.007910 
763.000000	 96.014672 
762.000000	 96.017528 
761.000000	 96.020510 
760.000000	 96.028481 
759.000000	 96.044193 
758.000000	 96.066780 
757.000000	 96.091479 
756.000000	 96.112748 
755.000000	 96.129817 
754.000000	 96.148017 
753.000000	 96.172799 
752.000000	 96.203827 
751.000000	 96.236082 
750.000000	 96.264383 
749.000000	 96.284992 
748.000000	 96.295777 
747.000000	 96.299430 
746.000000	 96.306003 
745.000000	 96.326311 
744.000000	 96.360177 
743.000000	 96.395409 
742.000000	 96.421450 
741.000000	 96.440700 
740.000000	 96.463524 
739.000000	 96.495557 
738.000000	 96.533727 
737.000000	 96.572152 
736.000000	 96.607124 
735.000000	 96.637979 
734.000000	 96.667751 
733.000000	 96.701714 
732.000000	 96.741295 
731.000000	 96.779753 
730.000000	 96.806867 
729.000000	 96.815903 
728.000000	 96.808928 
727.000000	 96.796363 
726.000000	 96.788206 
725.000000	 96.788843 
724.000000	 96.798297 
723.000000	 96.814261 
722.000000	 96.832233 
721.000000	 96.846615 
720.000000	 96.854498 
719.000000	 96.857933 
718.000000	 96.861454 
717.000000	 96.869088 
716.000000	 96.881944 
715.000000	 96.897280 
714.000000	 96.910963 
713.000000	 96.920930 
712.000000	 96.929059 
711.000000	 96.938144 
710.000000	 96.948078 
709.000000	 96.954604 
708.000000	 96.952941 
707.000000	 96.944374 
706.000000	 96.932001 
705.000000	 96.916145 
704.000000	 96.897488 
703.000000	 96.875882 
702.000000	 96.847466 
701.000000	 96.804837 
700.000000	 96.737130 
699.000000	 96.638368 
698.000000	 96.512604 
697.000000	 96.375954 
696.000000	 96.255137 
695.000000	 96.171416 
694.000000	 96.132722 
693.000000	 96.136989 
692.000000	 96.175053 
691.000000	 96.236183 
690.000000	 96.306078 
689.000000	 96.370085 
688.000000	 96.421896 
687.000000	 96.463230 
686.000000	 96.501949 
685.000000	 96.544034 
684.000000	 96.583302 
683.000000	 96.608890 
682.000000	 96.621054 
681.000000	 96.633665 
680.000000	 96.657907 
679.000000	 96.692553 
678.000000	 96.728597 
677.000000	 96.744767 
676.000000	 96.730359 
675.000000	 96.709906 
674.000000	 96.722824 
673.000000	 96.781909 
672.000000	 96.879205 
671.000000	 97.023575 
670.000000	 97.247831 
669.000000	 97.527773 
668.000000	 97.655639 
667.000000	 97.485325 
666.000000	 97.231118 
665.000000	 97.046635 
664.000000	 96.941927 
663.000000	 96.898609 
662.000000	 96.892505 
661.000000	 96.896852 
660.000000	 96.904108 
659.000000	 96.921156 
658.000000	 96.936102 
657.000000	 96.909686 
656.000000	 96.838788 
655.000000	 96.778245 
654.000000	 96.760087 
653.000000	 96.748227 
652.000000	 96.710106 
651.000000	 96.668210 
650.000000	 96.655252 

