4000.000000	99.279378 
3999.000000	99.281752 
3998.000000	99.283535 
3997.000000	99.283212 
3996.000000	99.280407 
3995.000000	99.276264 
3994.000000	99.272856 
3993.000000	99.271954 
3992.000000	99.273919 
3991.000000	99.277555 
3990.000000	99.281084 
3989.000000	99.283430 
3988.000000	99.284640 
3987.000000	99.285254 
3986.000000	99.285555 
3985.000000	99.285479 
3984.000000	99.284918 
3983.000000	99.283797 
3982.000000	99.282002 
3981.000000	99.279461 
3980.000000	99.276191 
3979.000000	99.272423 
3978.000000	99.269059 
3977.000000	99.267845 
3976.000000	99.270441 
3975.000000	99.276808 
3974.000000	99.284650 
3973.000000	99.290724 
3972.000000	99.292856 
3971.000000	99.291027 
3970.000000	99.286859 
3969.000000	99.282235 
3968.000000	99.278377 
3967.000000	99.275828 
3966.000000	99.274973 
3965.000000	99.276304 
3964.000000	99.279660 
3963.000000	99.283289 
3962.000000	99.284433 
3961.000000	99.281557 
3960.000000	99.275897 
3959.000000	99.270624 
3958.000000	99.268278 
3957.000000	99.268903 
3956.000000	99.270786 
3955.000000	99.272414 
3954.000000	99.273493 
3953.000000	99.274213 
3952.000000	99.274197 
3951.000000	99.272993 
3950.000000	99.271128 
3949.000000	99.270162 
3948.000000	99.271185 
3947.000000	99.273428 
3946.000000	99.275062 
3945.000000	99.275140 
3944.000000	99.274331 
3943.000000	99.273494 
3942.000000	99.272663 
3941.000000	99.271605 
3940.000000	99.270299 
3939.000000	99.268466 
3938.000000	99.265390 
3937.000000	99.260746 
3936.000000	99.255926 
3935.000000	99.253821 
3934.000000	99.256997 
3933.000000	99.265438 
3932.000000	99.275721 
3931.000000	99.282816 
3930.000000	99.283418 
3929.000000	99.278239 
3928.000000	99.271199 
3927.000000	99.266287 
3926.000000	99.265037 
3925.000000	99.265878 
3924.000000	99.265873 
3923.000000	99.263801 
3922.000000	99.260918 
3921.000000	99.259451 
3920.000000	99.260793 
3919.000000	99.264890 
3918.000000	99.270835 
3917.000000	99.277380 
3916.000000	99.283135 
3915.000000	99.286944 
3914.000000	99.288620 
3913.000000	99.289003 
3912.000000	99.289146 
3911.000000	99.289769 
3910.000000	99.291223 
3909.000000	99.293450 
3908.000000	99.295962 
3907.000000	99.297292 
3906.000000	99.295031 
3905.000000	99.286878 
3904.000000	99.272561 
3903.000000	99.255820 
3902.000000	99.243153 
3901.000000	99.239453 
3900.000000	99.245071 
3899.000000	99.255999 
3898.000000	99.267099 
3897.000000	99.275121 
3896.000000	99.278935 
3895.000000	99.278824 
3894.000000	99.276308 
3893.000000	99.273538 
3892.000000	99.271915 
3891.000000	99.270978 
3890.000000	99.269566 
3889.000000	99.267194 
3888.000000	99.264746 
3887.000000	99.264243 
3886.000000	99.266554 
3885.000000	99.269594 
3884.000000	99.270568 
3883.000000	99.269376 
3882.000000	99.268532 
3881.000000	99.269898 
3880.000000	99.272469 
3879.000000	99.273586 
3878.000000	99.271983 
3877.000000	99.269002 
3876.000000	99.267818 
3875.000000	99.270055 
3874.000000	99.273241 
3873.000000	99.273445 
3872.000000	99.270446 
3871.000000	99.268124 
3870.000000	99.269558 
3869.000000	99.273571 
3868.000000	99.276794 
3867.000000	99.277493 
3866.000000	99.277052 
3865.000000	99.277644 
3864.000000	99.278686 
3863.000000	99.278067 
3862.000000	99.275601 
3861.000000	99.273636 
3860.000000	99.274799 
3859.000000	99.279542 
3858.000000	99.285455 
3857.000000	99.288773 
3856.000000	99.287060 
3855.000000	99.283340 
3854.000000	99.283509 
3853.000000	99.287688 
3852.000000	99.291865 
3851.000000	99.294213 
3850.000000	99.294672 
3849.000000	99.294234 
3848.000000	99.293251 
3847.000000	99.291326 
3846.000000	99.288374 
3845.000000	99.285304 
3844.000000	99.283917 
3843.000000	99.285958 
3842.000000	99.291222 
3841.000000	99.297313 
3840.000000	99.301545 
3839.000000	99.302398 
3838.000000	99.299751 
3837.000000	99.294265 
3836.000000	99.287057 
3835.000000	99.280449 
3834.000000	99.277713 
3833.000000	99.281224 
3832.000000	99.290233 
3831.000000	99.300360 
3830.000000	99.306439 
3829.000000	99.306040 
3828.000000	99.300756 
3827.000000	99.294622 
3826.000000	99.290827 
3825.000000	99.289596 
3824.000000	99.289497 
3823.000000	99.290582 
3822.000000	99.294054 
3821.000000	99.298645 
3820.000000	99.301986 
3819.000000	99.304120 
3818.000000	99.305758 
3817.000000	99.306921 
3816.000000	99.306465 
3815.000000	99.302598 
3814.000000	99.295385 
3813.000000	99.287968 
3812.000000	99.284510 
3811.000000	99.286764 
3810.000000	99.292738 
3809.000000	99.298801 
3808.000000	99.302734 
3807.000000	99.304469 
3806.000000	99.304683 
3805.000000	99.303917 
3804.000000	99.303183 
3803.000000	99.304310 
3802.000000	99.307497 
3801.000000	99.309470 
3800.000000	99.307172 
3799.000000	99.301027 
3798.000000	99.293882 
3797.000000	99.288621 
3796.000000	99.285972 
3795.000000	99.284615 
3794.000000	99.283006 
3793.000000	99.280871 
3792.000000	99.279147 
3791.000000	99.278757 
3790.000000	99.279741 
3789.000000	99.281511 
3788.000000	99.283528 
3787.000000	99.285504 
3786.000000	99.287314 
3785.000000	99.288806 
3784.000000	99.289766 
3783.000000	99.290005 
3782.000000	99.289877 
3781.000000	99.290685 
3780.000000	99.293472 
3779.000000	99.297198 
3778.000000	99.299297 
3777.000000	99.297968 
3776.000000	99.293477 
3775.000000	99.287875 
3774.000000	99.283287 
3773.000000	99.280632 
3772.000000	99.280035 
3771.000000	99.281217 
3770.000000	99.282775 
3769.000000	99.282799 
3768.000000	99.281272 
3767.000000	99.280286 
3766.000000	99.281615 
3765.000000	99.284530 
3764.000000	99.286300 
3763.000000	99.285133 
3762.000000	99.282308 
3761.000000	99.280957 
3760.000000	99.282457 
3759.000000	99.285079 
3758.000000	99.287013 
3757.000000	99.288682 
3756.000000	99.291083 
3755.000000	99.294100 
3754.000000	99.297018 
3753.000000	99.299987 
3752.000000	99.303475 
3751.000000	99.306070 
3750.000000	99.306496 
3749.000000	99.306287 
3748.000000	99.306910 
3747.000000	99.307678 
3746.000000	99.307047 
3745.000000	99.304213 
3744.000000	99.299705 
3743.000000	99.294667 
3742.000000	99.289630 
3741.000000	99.284865 
3740.000000	99.280416 
3739.000000	99.275624 
3738.000000	99.271257 
3737.000000	99.270509 
3736.000000	99.275034 
3735.000000	99.281406 
3734.000000	99.284553 
3733.000000	99.283639 
3732.000000	99.281435 
3731.000000	99.279711 
3730.000000	99.277628 
3729.000000	99.274012 
3728.000000	99.269731 
3727.000000	99.266785 
3726.000000	99.265794 
3725.000000	99.266044 
3724.000000	99.267479 
3723.000000	99.270874 
3722.000000	99.275625 
3721.000000	99.279551 
3720.000000	99.280505 
3719.000000	99.277822 
3718.000000	99.272769 
3717.000000	99.267358 
3716.000000	99.262891 
3715.000000	99.259611 
3714.000000	99.257575 
3713.000000	99.257573 
3712.000000	99.259690 
3711.000000	99.262578 
3710.000000	99.264903 
3709.000000	99.265576 
3708.000000	99.263309 
3707.000000	99.257500 
3706.000000	99.249539 
3705.000000	99.242525 
3704.000000	99.239103 
3703.000000	99.238825 
3702.000000	99.237575 
3701.000000	99.231413 
3700.000000	99.220695 
3699.000000	99.208959 
3698.000000	99.199425 
3697.000000	99.193222 
3696.000000	99.189394 
3695.000000	99.186501 
3694.000000	99.184596 
3693.000000	99.185277 
3692.000000	99.189350 
3691.000000	99.194800 
3690.000000	99.197389 
3689.000000	99.194658 
3688.000000	99.188391 
3687.000000	99.181157 
3686.000000	99.173974 
3685.000000	99.168264 
3684.000000	99.165722 
3683.000000	99.166148 
3682.000000	99.167010 
3681.000000	99.165211 
3680.000000	99.159042 
3679.000000	99.148587 
3678.000000	99.136269 
3677.000000	99.128297 
3676.000000	99.130389 
3675.000000	99.139279 
3674.000000	99.146300 
3673.000000	99.146657 
3672.000000	99.141563 
3671.000000	99.137152 
3670.000000	99.137584 
3669.000000	99.140578 
3668.000000	99.142934 
3667.000000	99.144702 
3666.000000	99.147243 
3665.000000	99.150773 
3664.000000	99.153781 
3663.000000	99.154560 
3662.000000	99.152783 
3661.000000	99.149055 
3660.000000	99.143862 
3659.000000	99.137874 
3658.000000	99.133172 
3657.000000	99.132500 
3656.000000	99.136246 
3655.000000	99.141602 
3654.000000	99.145258 
3653.000000	99.145954 
3652.000000	99.144268 
3651.000000	99.141139 
3650.000000	99.136526 
3649.000000	99.131167 
3648.000000	99.128365 
3647.000000	99.130120 
3646.000000	99.134756 
3645.000000	99.139824 
3644.000000	99.144536 
3643.000000	99.149485 
3642.000000	99.155719 
3641.000000	99.163564 
3640.000000	99.172328 
3639.000000	99.180346 
3638.000000	99.185559 
3637.000000	99.186824 
3636.000000	99.184621 
3635.000000	99.180414 
3634.000000	99.175010 
3633.000000	99.168337 
3632.000000	99.161132 
3631.000000	99.156397 
3630.000000	99.157777 
3629.000000	99.163187 
3628.000000	99.165339 
3627.000000	99.162635 
3626.000000	99.159889 
3625.000000	99.161556 
3624.000000	99.168175 
3623.000000	99.176749 
3622.000000	99.183954 
3621.000000	99.189375 
3620.000000	99.194385 
3619.000000	99.198420 
3618.000000	99.199385 
3617.000000	99.197259 
3616.000000	99.194480 
3615.000000	99.193727 
3614.000000	99.194820 
3613.000000	99.194579 
3612.000000	99.191005 
3611.000000	99.186373 
3610.000000	99.184888 
3609.000000	99.188112 
3608.000000	99.193043 
3607.000000	99.196106 
3606.000000	99.197827 
3605.000000	99.201250 
3604.000000	99.207912 
3603.000000	99.216627 
3602.000000	99.225001 
3601.000000	99.231387 
3600.000000	99.234768 
3599.000000	99.234232 
3598.000000	99.229811 
3597.000000	99.223316 
3596.000000	99.217623 
3595.000000	99.215243 
3594.000000	99.216456 
3593.000000	99.219432 
3592.000000	99.221756 
3591.000000	99.221791 
3590.000000	99.220148 
3589.000000	99.219626 
3588.000000	99.222062 
3587.000000	99.225259 
3586.000000	99.226386 
3585.000000	99.226035 
3584.000000	99.227152 
3583.000000	99.231181 
3582.000000	99.236442 
3581.000000	99.239536 
3580.000000	99.238518 
3579.000000	99.234570 
3578.000000	99.230343 
3577.000000	99.227715 
3576.000000	99.227040 
3575.000000	99.228050 
3574.000000	99.230243 
3573.000000	99.232424 
3572.000000	99.233123 
3571.000000	99.231861 
3570.000000	99.229722 
3569.000000	99.228864 
3568.000000	99.230577 
3567.000000	99.233185 
3566.000000	99.233903 
3565.000000	99.232663 
3564.000000	99.232126 
3563.000000	99.235062 
3562.000000	99.241869 
3561.000000	99.249643 
3560.000000	99.254321 
3559.000000	99.254252 
3558.000000	99.251559 
3557.000000	99.249656 
3556.000000	99.249929 
3555.000000	99.250833 
3554.000000	99.249874 
3553.000000	99.245674 
3552.000000	99.238833 
3551.000000	99.231494 
3550.000000	99.225860 
3549.000000	99.222998 
3548.000000	99.222992 
3547.000000	99.225231 
3546.000000	99.228445 
3545.000000	99.230546 
3544.000000	99.229789 
3543.000000	99.226630 
3542.000000	99.224066 
3541.000000	99.225084 
3540.000000	99.230001 
3539.000000	99.236280 
3538.000000	99.241195 
3537.000000	99.244162 
3536.000000	99.246440 
3535.000000	99.249127 
3534.000000	99.251790 
3533.000000	99.253274 
3532.000000	99.253046 
3531.000000	99.251755 
3530.000000	99.250348 
3529.000000	99.249067 
3528.000000	99.247658 
3527.000000	99.246429 
3526.000000	99.246301 
3525.000000	99.247461 
3524.000000	99.248436 
3523.000000	99.247197 
3522.000000	99.243410 
3521.000000	99.238930 
3520.000000	99.236360 
3519.000000	99.237441 
3518.000000	99.242466 
3517.000000	99.250030 
3516.000000	99.257021 
3515.000000	99.260013 
3514.000000	99.257575 
3513.000000	99.251423 
3512.000000	99.244872 
3511.000000	99.240206 
3510.000000	99.237595 
3509.000000	99.236438 
3508.000000	99.236923 
3507.000000	99.239783 
3506.000000	99.244881 
3505.000000	99.250322 
3504.000000	99.253280 
3503.000000	99.252375 
3502.000000	99.249494 
3501.000000	99.248383 
3500.000000	99.250856 
3499.000000	99.254829 
3498.000000	99.256295 
3497.000000	99.253213 
3496.000000	99.247209 
3495.000000	99.241747 
3494.000000	99.239266 
3493.000000	99.240016 
3492.000000	99.242817 
3491.000000	99.246224 
3490.000000	99.249377 
3489.000000	99.252283 
3488.000000	99.255173 
3487.000000	99.257484 
3486.000000	99.258104 
3485.000000	99.256925 
3484.000000	99.255445 
3483.000000	99.255199 
3482.000000	99.255795 
3481.000000	99.255460 
3480.000000	99.253478 
3479.000000	99.251102 
3478.000000	99.249791 
3477.000000	99.249595 
3476.000000	99.249969 
3475.000000	99.251462 
3474.000000	99.255313 
3473.000000	99.261072 
3472.000000	99.265901 
3471.000000	99.267320 
3470.000000	99.266258 
3469.000000	99.266167 
3468.000000	99.268988 
3467.000000	99.272884 
3466.000000	99.274609 
3465.000000	99.273275 
3464.000000	99.270863 
3463.000000	99.269555 
3462.000000	99.269717 
3461.000000	99.270657 
3460.000000	99.272108 
3459.000000	99.274192 
3458.000000	99.276413 
3457.000000	99.277414 
3456.000000	99.275963 
3455.000000	99.272140 
3454.000000	99.267595 
3453.000000	99.264747 
3452.000000	99.265114 
3451.000000	99.268182 
3450.000000	99.271847 
3449.000000	99.274142 
3448.000000	99.274321 
3447.000000	99.272459 
3446.000000	99.268720 
3445.000000	99.263645 
3444.000000	99.258819 
3443.000000	99.256208 
3442.000000	99.256457 
3441.000000	99.258201 
3440.000000	99.259586 
3439.000000	99.260057 
3438.000000	99.260154 
3437.000000	99.259911 
3436.000000	99.258483 
3435.000000	99.255667 
3434.000000	99.253046 
3433.000000	99.252962 
3432.000000	99.256080 
3431.000000	99.260502 
3430.000000	99.263551 
3429.000000	99.264433 
3428.000000	99.264884 
3427.000000	99.266908 
3426.000000	99.270047 
3425.000000	99.271344 
3424.000000	99.268281 
3423.000000	99.261498 
3422.000000	99.254340 
3421.000000	99.249953 
3420.000000	99.249321 
3419.000000	99.251715 
3418.000000	99.255893 
3417.000000	99.260341 
3416.000000	99.263204 
3415.000000	99.263089 
3414.000000	99.260233 
3413.000000	99.256508 
3412.000000	99.254151 
3411.000000	99.254486 
3410.000000	99.257404 
3409.000000	99.261403 
3408.000000	99.264013 
3407.000000	99.262996 
3406.000000	99.258149 
3405.000000	99.252047 
3404.000000	99.248416 
3403.000000	99.249078 
3402.000000	99.252430 
3401.000000	99.255299 
3400.000000	99.256194 
3399.000000	99.256366 
3398.000000	99.257733 
3397.000000	99.260419 
3396.000000	99.262638 
3395.000000	99.262483 
3394.000000	99.259220 
3393.000000	99.253341 
3392.000000	99.246370 
3391.000000	99.240804 
3390.000000	99.239378 
3389.000000	99.243402 
3388.000000	99.251510 
3387.000000	99.260280 
3386.000000	99.266485 
3385.000000	99.269160 
3384.000000	99.269581 
3383.000000	99.269245 
3382.000000	99.267942 
3381.000000	99.264192 
3380.000000	99.257593 
3379.000000	99.250384 
3378.000000	99.246021 
3377.000000	99.246067 
3376.000000	99.248842 
3375.000000	99.251314 
3374.000000	99.252082 
3373.000000	99.252383 
3372.000000	99.254464 
3371.000000	99.259160 
3370.000000	99.264840 
3369.000000	99.268415 
3368.000000	99.267720 
3367.000000	99.263430 
3366.000000	99.258690 
3365.000000	99.256404 
3364.000000	99.256787 
3363.000000	99.257818 
3362.000000	99.257874 
3361.000000	99.257181 
3360.000000	99.256502 
3359.000000	99.255440 
3358.000000	99.253090 
3357.000000	99.250150 
3356.000000	99.249062 
3355.000000	99.251282 
3354.000000	99.254903 
3353.000000	99.255983 
3352.000000	99.252400 
3351.000000	99.246138 
3350.000000	99.241653 
3349.000000	99.242096 
3348.000000	99.247033 
3347.000000	99.253229 
3346.000000	99.257290 
3345.000000	99.257923 
3344.000000	99.256398 
3343.000000	99.255180 
3342.000000	99.255629 
3341.000000	99.256637 
3340.000000	99.255622 
3339.000000	99.251269 
3338.000000	99.245292 
3337.000000	99.241114 
3336.000000	99.240700 
3335.000000	99.242987 
3334.000000	99.245576 
3333.000000	99.247411 
3332.000000	99.249324 
3331.000000	99.252169 
3330.000000	99.255126 
3329.000000	99.256236 
3328.000000	99.254409 
3327.000000	99.250521 
3326.000000	99.246387 
3325.000000	99.242903 
3324.000000	99.239478 
3323.000000	99.235475 
3322.000000	99.231744 
3321.000000	99.230188 
3320.000000	99.231757 
3319.000000	99.235437 
3318.000000	99.239466 
3317.000000	99.242883 
3316.000000	99.245337 
3315.000000	99.246166 
3314.000000	99.244997 
3313.000000	99.243243 
3312.000000	99.243563 
3311.000000	99.247029 
3310.000000	99.251506 
3309.000000	99.253649 
3308.000000	99.252086 
3307.000000	99.248113 
3306.000000	99.244015 
3305.000000	99.241776 
3304.000000	99.242922 
3303.000000	99.247750 
3302.000000	99.253959 
3301.000000	99.257174 
3300.000000	99.254290 
3299.000000	99.246538 
3298.000000	99.238749 
3297.000000	99.235330 
3296.000000	99.236851 
3295.000000	99.240341 
3294.000000	99.242512 
3293.000000	99.242581 
3292.000000	99.242192 
3291.000000	99.242879 
3290.000000	99.243982 
3289.000000	99.243379 
3288.000000	99.240019 
3287.000000	99.235208 
3286.000000	99.231229 
3285.000000	99.229091 
3284.000000	99.227977 
3283.000000	99.226654 
3282.000000	99.225025 
3281.000000	99.224305 
3280.000000	99.225917 
3279.000000	99.230189 
3278.000000	99.235864 
3277.000000	99.240767 
3276.000000	99.243039 
3275.000000	99.241968 
3274.000000	99.238047 
3273.000000	99.232645 
3272.000000	99.227564 
3271.000000	99.224282 
3270.000000	99.223058 
3269.000000	99.222801 
3268.000000	99.222052 
3267.000000	99.220073 
3266.000000	99.217010 
3265.000000	99.213546 
3264.000000	99.210965 
3263.000000	99.211291 
3262.000000	99.216312 
3261.000000	99.225596 
3260.000000	99.235616 
3259.000000	99.241545 
3258.000000	99.240587 
3257.000000	99.233858 
3256.000000	99.225126 
3255.000000	99.217815 
3254.000000	99.213262 
3253.000000	99.211449 
3252.000000	99.212523 
3251.000000	99.216883 
3250.000000	99.223840 
3249.000000	99.230927 
3248.000000	99.235066 
3247.000000	99.234559 
3246.000000	99.230192 
3245.000000	99.224719 
3244.000000	99.221108 
3243.000000	99.220552 
3242.000000	99.221717 
3241.000000	99.222128 
3240.000000	99.220747 
3239.000000	99.219230 
3238.000000	99.220541 
3237.000000	99.226328 
3236.000000	99.235559 
3235.000000	99.245126 
3234.000000	99.251457 
3233.000000	99.252205 
3232.000000	99.247483 
3231.000000	99.239971 
3230.000000	99.233337 
3229.000000	99.229911 
3228.000000	99.229475 
3227.000000	99.229994 
3226.000000	99.229370 
3225.000000	99.226837 
3224.000000	99.223247 
3223.000000	99.220307 
3222.000000	99.219233 
3221.000000	99.219727 
3220.000000	99.220150 
3219.000000	99.218923 
3218.000000	99.216144 
3217.000000	99.214018 
3216.000000	99.215445 
3215.000000	99.221589 
3214.000000	99.230463 
3213.000000	99.238111 
3212.000000	99.241411 
3211.000000	99.239818 
3210.000000	99.234825 
3209.000000	99.228620 
3208.000000	99.223390 
3207.000000	99.220769 
3206.000000	99.220780 
3205.000000	99.221618 
3204.000000	99.221475 
3203.000000	99.220646 
3202.000000	99.221015 
3201.000000	99.223480 
3200.000000	99.226866 
3199.000000	99.229580 
3198.000000	99.231389 
3197.000000	99.232999 
3196.000000	99.234718 
3195.000000	99.236283 
3194.000000	99.237394 
3193.000000	99.237560 
3192.000000	99.235828 
3191.000000	99.231646 
3190.000000	99.226020 
3189.000000	99.221137 
3188.000000	99.218677 
3187.000000	99.218893 
3186.000000	99.221147 
3185.000000	99.224543 
3184.000000	99.227939 
3183.000000	99.230086 
3182.000000	99.230417 
3181.000000	99.229643 
3180.000000	99.229278 
3179.000000	99.230443 
3178.000000	99.232930 
3177.000000	99.235269 
3176.000000	99.235949 
3175.000000	99.234921 
3174.000000	99.233718 
3173.000000	99.233637 
3172.000000	99.233945 
3171.000000	99.232643 
3170.000000	99.229164 
3169.000000	99.225538 
3168.000000	99.224345 
3167.000000	99.226032 
3166.000000	99.228865 
3165.000000	99.231117 
3164.000000	99.232477 
3163.000000	99.233350 
3162.000000	99.233736 
3161.000000	99.233368 
3160.000000	99.232513 
3159.000000	99.231904 
3158.000000	99.231767 
3157.000000	99.231326 
3156.000000	99.229544 
3155.000000	99.226131 
3154.000000	99.221589 
3153.000000	99.216476 
3152.000000	99.211232 
3151.000000	99.206860 
3150.000000	99.205059 
3149.000000	99.206903 
3148.000000	99.211432 
3147.000000	99.216212 
3146.000000	99.219533 
3145.000000	99.221660 
3144.000000	99.223769 
3143.000000	99.226162 
3142.000000	99.228024 
3141.000000	99.228634 
3140.000000	99.228156 
3139.000000	99.227123 
3138.000000	99.225644 
3137.000000	99.223578 
3136.000000	99.221411 
3135.000000	99.220533 
3134.000000	99.222137 
3133.000000	99.225645 
3132.000000	99.228571 
3131.000000	99.228549 
3130.000000	99.225599 
3129.000000	99.222118 
3128.000000	99.220636 
3127.000000	99.221951 
3126.000000	99.225304 
3125.000000	99.229401 
3124.000000	99.232706 
3123.000000	99.233572 
3122.000000	99.231369 
3121.000000	99.227536 
3120.000000	99.224675 
3119.000000	99.224351 
3118.000000	99.226147 
3117.000000	99.228743 
3116.000000	99.231168 
3115.000000	99.232806 
3114.000000	99.233021 
3113.000000	99.231460 
3112.000000	99.228483 
3111.000000	99.224963 
3110.000000	99.221835 
3109.000000	99.219972 
3108.000000	99.219977 
3107.000000	99.221596 
3106.000000	99.223603 
3105.000000	99.224858 
3104.000000	99.225492 
3103.000000	99.226607 
3102.000000	99.228822 
3101.000000	99.231523 
3100.000000	99.233750 
3099.000000	99.235434 
3098.000000	99.237363 
3097.000000	99.240000 
3096.000000	99.242560 
3095.000000	99.243315 
3094.000000	99.240889 
3093.000000	99.235395 
3092.000000	99.228519 
3091.000000	99.222565 
3090.000000	99.219253 
3089.000000	99.219058 
3088.000000	99.221234 
3087.000000	99.224324 
3086.000000	99.226880 
3085.000000	99.228052 
3084.000000	99.227593 
3083.000000	99.225466 
3082.000000	99.221862 
3081.000000	99.217784 
3080.000000	99.215155 
3079.000000	99.215687 
3078.000000	99.219522 
3077.000000	99.225150 
3076.000000	99.230547 
3075.000000	99.234180 
3074.000000	99.235281 
3073.000000	99.233969 
3072.000000	99.231243 
3071.000000	99.228242 
3070.000000	99.225157 
3069.000000	99.221268 
3068.000000	99.216461 
3067.000000	99.212435 
3066.000000	99.211837 
3065.000000	99.216025 
3064.000000	99.223596 
3063.000000	99.230930 
3062.000000	99.234243 
3061.000000	99.231841 
3060.000000	99.225252 
3059.000000	99.218318 
3058.000000	99.214716 
3057.000000	99.215794 
3056.000000	99.220202 
3055.000000	99.225183 
3054.000000	99.228277 
3053.000000	99.228466 
3052.000000	99.226357 
3051.000000	99.223464 
3050.000000	99.221203 
3049.000000	99.220452 
3048.000000	99.221492 
3047.000000	99.223510 
3046.000000	99.224116 
3045.000000	99.220595 
3044.000000	99.212849 
3043.000000	99.204759 
3042.000000	99.201391 
3041.000000	99.204328 
3040.000000	99.210174 
3039.000000	99.213825 
3038.000000	99.212658 
3037.000000	99.207458 
3036.000000	99.200174 
3035.000000	99.191893 
3034.000000	99.182970 
3033.000000	99.174084 
3032.000000	99.166206 
3031.000000	99.159504 
3030.000000	99.152982 
3029.000000	99.145816 
3028.000000	99.138927 
3027.000000	99.134591 
3026.000000	99.133986 
3025.000000	99.135228 
3024.000000	99.134402 
3023.000000	99.128873 
3022.000000	99.119391 
3021.000000	99.108630 
3020.000000	99.098009 
3019.000000	99.086569 
3018.000000	99.073176 
3017.000000	99.058969 
3016.000000	99.046593 
3015.000000	99.037003 
3014.000000	99.028203 
3013.000000	99.017829 
3012.000000	99.006255 
3011.000000	98.996014 
3010.000000	98.988360 
3009.000000	98.981594 
3008.000000	98.973088 
3007.000000	98.962021 
3006.000000	98.949610 
3005.000000	98.937310 
3004.000000	98.925630 
3003.000000	98.914427 
3002.000000	98.903617 
3001.000000	98.893411 
3000.000000	98.884180 
2999.000000	98.876210 
2998.000000	98.869587 
2997.000000	98.864271 
2996.000000	98.860036 
2995.000000	98.855769 
2994.000000	98.848811 
2993.000000	98.835984 
2992.000000	98.816215 
2991.000000	98.792239 
2990.000000	98.769458 
2989.000000	98.753153 
2988.000000	98.746475 
2987.000000	98.749816 
2986.000000	98.760659 
2985.000000	98.774058 
2984.000000	98.784495 
2983.000000	98.788541 
2982.000000	98.786323 
2981.000000	98.780911 
2980.000000	98.776387 
2979.000000	98.775721 
2978.000000	98.779171 
2977.000000	98.784152 
2976.000000	98.787035 
2975.000000	98.785736 
2974.000000	98.780948 
2973.000000	98.775354 
2972.000000	98.771980 
2971.000000	98.772938 
2970.000000	98.778696 
2969.000000	98.787934 
2968.000000	98.798366 
2967.000000	98.808285 
2966.000000	98.817521 
2965.000000	98.826888 
2964.000000	98.836842 
2963.000000	98.846838 
2962.000000	98.855856 
2961.000000	98.863304 
2960.000000	98.869277 
2959.000000	98.874151 
2958.000000	98.878270 
2957.000000	98.882047 
2956.000000	98.885976 
2955.000000	98.890218 
2954.000000	98.894464 
2953.000000	98.898671 
2952.000000	98.903686 
2951.000000	98.910398 
2950.000000	98.918128 
2949.000000	98.924639 
2948.000000	98.928199 
2947.000000	98.929277 
2946.000000	98.929956 
2945.000000	98.932110 
2944.000000	98.936323 
2943.000000	98.941707 
2942.000000	98.946067 
2941.000000	98.946989 
2940.000000	98.944014 
2939.000000	98.939954 
2938.000000	98.939142 
2937.000000	98.943871 
2936.000000	98.952592 
2935.000000	98.961433 
2934.000000	98.967151 
2933.000000	98.968802 
2932.000000	98.967412 
2931.000000	98.964535 
2930.000000	98.961227 
2929.000000	98.958209 
2928.000000	98.956334 
2927.000000	98.955910 
2926.000000	98.955527 
2925.000000	98.952843 
2924.000000	98.947383 
2923.000000	98.941627 
2922.000000	98.938206 
2921.000000	98.936595 
2920.000000	98.933861 
2919.000000	98.928261 
2918.000000	98.920930 
2917.000000	98.914117 
2916.000000	98.909035 
2915.000000	98.905551 
2914.000000	98.902847 
2913.000000	98.899973 
2912.000000	98.896552 
2911.000000	98.893238 
2910.000000	98.890819 
2909.000000	98.888855 
2908.000000	98.885856 
2907.000000	98.880937 
2906.000000	98.874288 
2905.000000	98.866030 
2904.000000	98.855848 
2903.000000	98.844678 
2902.000000	98.835968 
2901.000000	98.834577 
2900.000000	98.842913 
2899.000000	98.859039 
2898.000000	98.877022 
2897.000000	98.890087 
2896.000000	98.894939 
2895.000000	98.893943 
2894.000000	98.892626 
2893.000000	98.894457 
2892.000000	98.898524 
2891.000000	98.902058 
2890.000000	98.903899 
2889.000000	98.904745 
2888.000000	98.905279 
2887.000000	98.905515 
2886.000000	98.905660 
2885.000000	98.906432 
2884.000000	98.908480 
2883.000000	98.912301 
2882.000000	98.918667 
2881.000000	98.928226 
2880.000000	98.940392 
2879.000000	98.953111 
2878.000000	98.964100 
2877.000000	98.972341 
2876.000000	98.978490 
2875.000000	98.984065 
2874.000000	98.990081 
2873.000000	98.996257 
2872.000000	99.001540 
2871.000000	99.005377 
2870.000000	99.008207 
2869.000000	99.010945 
2868.000000	99.014597 
2867.000000	99.020349 
2866.000000	99.028895 
2865.000000	99.039143 
2864.000000	99.048443 
2863.000000	99.054953 
2862.000000	99.059191 
2861.000000	99.062657 
2860.000000	99.065831 
2859.000000	99.068720 
2858.000000	99.072425 
2857.000000	99.078345 
2856.000000	99.085853 
2855.000000	99.092431 
2854.000000	99.096586 
2853.000000	99.099487 
2852.000000	99.103191 
2851.000000	99.108284 
2850.000000	99.114029 
2849.000000	99.119972 
2848.000000	99.126369 
2847.000000	99.133262 
2846.000000	99.139934 
2845.000000	99.145323 
2844.000000	99.148579 
2843.000000	99.149371 
2842.000000	99.148261 
2841.000000	99.146927 
2840.000000	99.147540 
2839.000000	99.151322 
2838.000000	99.157534 
2837.000000	99.163961 
2836.000000	99.168653 
2835.000000	99.171305 
2834.000000	99.172899 
2833.000000	99.174099 
2832.000000	99.174388 
2831.000000	99.172976 
2830.000000	99.170199 
2829.000000	99.167501 
2828.000000	99.166169 
2827.000000	99.166582 
2826.000000	99.168603 
2825.000000	99.172022 
2824.000000	99.176321 
2823.000000	99.180520 
2822.000000	99.183755 
2821.000000	99.185860 
2820.000000	99.187096 
2819.000000	99.187470 
2818.000000	99.186715 
2817.000000	99.184989 
2816.000000	99.183286 
2815.000000	99.182880 
2814.000000	99.184224 
2813.000000	99.186442 
2812.000000	99.188146 
2811.000000	99.188875 
2810.000000	99.189568 
2809.000000	99.191349 
2808.000000	99.194032 
2807.000000	99.196140 
2806.000000	99.196321 
2805.000000	99.194405 
2804.000000	99.191284 
2803.000000	99.188403 
2802.000000	99.187326 
2801.000000	99.188888 
2800.000000	99.192171 
2799.000000	99.194860 
2798.000000	99.195267 
2797.000000	99.193764 
2796.000000	99.191843 
2795.000000	99.190270 
2794.000000	99.188958 
2793.000000	99.188264 
2792.000000	99.189147 
2791.000000	99.191723 
2790.000000	99.194620 
2789.000000	99.196452 
2788.000000	99.197394 
2787.000000	99.198581 
2786.000000	99.200257 
2785.000000	99.201254 
2784.000000	99.200326 
2783.000000	99.197496 
2782.000000	99.194015 
2781.000000	99.191405 
2780.000000	99.190587 
2779.000000	99.191512 
2778.000000	99.193415 
2777.000000	99.195645 
2776.000000	99.198321 
2775.000000	99.201874 
2774.000000	99.205874 
2773.000000	99.208842 
2772.000000	99.209656 
2771.000000	99.208842 
2770.000000	99.207914 
2769.000000	99.207559 
2768.000000	99.207178 
2767.000000	99.206362 
2766.000000	99.205973 
2765.000000	99.206918 
2764.000000	99.208201 
2763.000000	99.207300 
2762.000000	99.203021 
2761.000000	99.197300 
2760.000000	99.193556 
2759.000000	99.193459 
2758.000000	99.195932 
2757.000000	99.199016 
2756.000000	99.201716 
2755.000000	99.203751 
2754.000000	99.204482 
2753.000000	99.203146 
2752.000000	99.200107 
2751.000000	99.197131 
2750.000000	99.196099 
2749.000000	99.197568 
2748.000000	99.200562 
2747.000000	99.203562 
2746.000000	99.205652 
2745.000000	99.206918 
2744.000000	99.207862 
2743.000000	99.208540 
2742.000000	99.208544 
2741.000000	99.207843 
2740.000000	99.207143 
2739.000000	99.207090 
2738.000000	99.207579 
2737.000000	99.208339 
2736.000000	99.209731 
2735.000000	99.212051 
2734.000000	99.214227 
2733.000000	99.214353 
2732.000000	99.211970 
2731.000000	99.209000 
2730.000000	99.207791 
2729.000000	99.208692 
2728.000000	99.210084 
2727.000000	99.210359 
2726.000000	99.209266 
2725.000000	99.207646 
2724.000000	99.206671 
2723.000000	99.207387 
2722.000000	99.210299 
2721.000000	99.214839 
2720.000000	99.219333 
2719.000000	99.221784 
2718.000000	99.221052 
2717.000000	99.217607 
2716.000000	99.213288 
2715.000000	99.210104 
2714.000000	99.209025 
2713.000000	99.209776 
2712.000000	99.211593 
2711.000000	99.213912 
2710.000000	99.216432 
2709.000000	99.218924 
2708.000000	99.221061 
2707.000000	99.222213 
2706.000000	99.221588 
2705.000000	99.219188 
2704.000000	99.216595 
2703.000000	99.215967 
2702.000000	99.217809 
2701.000000	99.220283 
2700.000000	99.221280 
2699.000000	99.220750 
2698.000000	99.220495 
2697.000000	99.222005 
2696.000000	99.224990 
2695.000000	99.227809 
2694.000000	99.228960 
2693.000000	99.228280 
2692.000000	99.226979 
2691.000000	99.226238 
2690.000000	99.225684 
2689.000000	99.223792 
2688.000000	99.220145 
2687.000000	99.216610 
2686.000000	99.215689 
2685.000000	99.218076 
2684.000000	99.222295 
2683.000000	99.226121 
2682.000000	99.227746 
2681.000000	99.226265 
2680.000000	99.222233 
2679.000000	99.217707 
2678.000000	99.214934 
2677.000000	99.214916 
2676.000000	99.217469 
2675.000000	99.221934 
2674.000000	99.226875 
2673.000000	99.229817 
2672.000000	99.228919 
2671.000000	99.225135 
2670.000000	99.221545 
2669.000000	99.220220 
2668.000000	99.220559 
2667.000000	99.220866 
2666.000000	99.220457 
2665.000000	99.219784 
2664.000000	99.219424 
2663.000000	99.219623 
2662.000000	99.220417 
2661.000000	99.221739 
2660.000000	99.223575 
2659.000000	99.225984 
2658.000000	99.228623 
2657.000000	99.230541 
2656.000000	99.231214 
2655.000000	99.231430 
2654.000000	99.232187 
2653.000000	99.233071 
2652.000000	99.233240 
2651.000000	99.233752 
2650.000000	99.236684 
2649.000000	99.241291 
2648.000000	99.243451 
2647.000000	99.240746 
2646.000000	99.236437 
2645.000000	99.236059 
2644.000000	99.240686 
2643.000000	99.245779 
2642.000000	99.246621 
2641.000000	99.243070 
2640.000000	99.238644 
2639.000000	99.236583 
2638.000000	99.237523 
2637.000000	99.239885 
2636.000000	99.241577 
2635.000000	99.241572 
2634.000000	99.240226 
2633.000000	99.238228 
2632.000000	99.235817 
2631.000000	99.233447 
2630.000000	99.232283 
2629.000000	99.232823 
2628.000000	99.233670 
2627.000000	99.233285 
2626.000000	99.232802 
2625.000000	99.235195 
2624.000000	99.241182 
2623.000000	99.247559 
2622.000000	99.250508 
2621.000000	99.249358 
2620.000000	99.246221 
2619.000000	99.243157 
2618.000000	99.240978 
2617.000000	99.239896 
2616.000000	99.239727 
2615.000000	99.239640 
2614.000000	99.239025 
2613.000000	99.238748 
2612.000000	99.240465 
2611.000000	99.244332 
2610.000000	99.248133 
2609.000000	99.249182 
2608.000000	99.246882 
2607.000000	99.243403 
2606.000000	99.242165 
2605.000000	99.245428 
2604.000000	99.252438 
2603.000000	99.259566 
2602.000000	99.262938 
2601.000000	99.261730 
2600.000000	99.258861 
2599.000000	99.257980 
2598.000000	99.259667 
2597.000000	99.260822 
2596.000000	99.257788 
2595.000000	99.249948 
2594.000000	99.240344 
2593.000000	99.233102 
2592.000000	99.230425 
2591.000000	99.231880 
2590.000000	99.235963 
2589.000000	99.241566 
2588.000000	99.247620 
2587.000000	99.252046 
2586.000000	99.252442 
2585.000000	99.248450 
2584.000000	99.242823 
2583.000000	99.239250 
2582.000000	99.239211 
2581.000000	99.241368 
2580.000000	99.243575 
2579.000000	99.244519 
2578.000000	99.243570 
2577.000000	99.240445 
2576.000000	99.235818 
2575.000000	99.231569 
2574.000000	99.229633 
2573.000000	99.230749 
2572.000000	99.234444 
2571.000000	99.239467 
2570.000000	99.243765 
2569.000000	99.245056 
2568.000000	99.242666 
2567.000000	99.238555 
2566.000000	99.235603 
2565.000000	99.234960 
2564.000000	99.235718 
2563.000000	99.236763 
2562.000000	99.237817 
2561.000000	99.238651 
2560.000000	99.238334 
2559.000000	99.235796 
2558.000000	99.230939 
2557.000000	99.225393 
2556.000000	99.222447 
2555.000000	99.225348 
2554.000000	99.234280 
2553.000000	99.245111 
2552.000000	99.252417 
2551.000000	99.254054 
2550.000000	99.251874 
2549.000000	99.248135 
2548.000000	99.242858 
2547.000000	99.235283 
2546.000000	99.226488 
2545.000000	99.219297 
2544.000000	99.216000 
2543.000000	99.216730 
2542.000000	99.219528 
2541.000000	99.221668 
2540.000000	99.221805 
2539.000000	99.221347 
2538.000000	99.222794 
2537.000000	99.226183 
2536.000000	99.228359 
2535.000000	99.226773 
2534.000000	99.222704 
2533.000000	99.219148 
2532.000000	99.216536 
2531.000000	99.212922 
2530.000000	99.208345 
2529.000000	99.206180 
2528.000000	99.208536 
2527.000000	99.212159 
2526.000000	99.211567 
2525.000000	99.206149 
2524.000000	99.201911 
2523.000000	99.205119 
2522.000000	99.215549 
2521.000000	99.227170 
2520.000000	99.234324 
2519.000000	99.235415 
2518.000000	99.231264 
2517.000000	99.222859 
2516.000000	99.212050 
2515.000000	99.202451 
2514.000000	99.197422 
2513.000000	99.197525 
2512.000000	99.201172 
2511.000000	99.206898 
2510.000000	99.213516 
2509.000000	99.219044 
2508.000000	99.221924 
2507.000000	99.223192 
2506.000000	99.225120 
2505.000000	99.227324 
2504.000000	99.226499 
2503.000000	99.221025 
2502.000000	99.213976 
2501.000000	99.210335 
2500.000000	99.212527 
2499.000000	99.219479 
2498.000000	99.228210 
2497.000000	99.234890 
2496.000000	99.236082 
2495.000000	99.231414 
2494.000000	99.224583 
2493.000000	99.219952 
2492.000000	99.218351 
2491.000000	99.217608 
2490.000000	99.216817 
2489.000000	99.218342 
2488.000000	99.225178 
2487.000000	99.237102 
2486.000000	99.249441 
2485.000000	99.255362 
2484.000000	99.250552 
2483.000000	99.237187 
2482.000000	99.223034 
2481.000000	99.215216 
2480.000000	99.214615 
2479.000000	99.216862 
2478.000000	99.217883 
2477.000000	99.217067 
2476.000000	99.215928 
2475.000000	99.216068 
2474.000000	99.218713 
2473.000000	99.223992 
2472.000000	99.229675 
2471.000000	99.232164 
2470.000000	99.229971 
2469.000000	99.225368 
2468.000000	99.221776 
2467.000000	99.220369 
2466.000000	99.220039 
2465.000000	99.219734 
2464.000000	99.219674 
2463.000000	99.220615 
2462.000000	99.222783 
2461.000000	99.225376 
2460.000000	99.226741 
2459.000000	99.225493 
2458.000000	99.221964 
2457.000000	99.218060 
2456.000000	99.215300 
2455.000000	99.213648 
2454.000000	99.212714 
2453.000000	99.212947 
2452.000000	99.214406 
2451.000000	99.215071 
2450.000000	99.212208 
2449.000000	99.205781 
2448.000000	99.199371 
2447.000000	99.197057 
2446.000000	99.199886 
2445.000000	99.205492 
2444.000000	99.210262 
2443.000000	99.211516 
2442.000000	99.208584 
2441.000000	99.203103 
2440.000000	99.198314 
2439.000000	99.197154 
2438.000000	99.200185 
2437.000000	99.205155 
2436.000000	99.208703 
2435.000000	99.208911 
2434.000000	99.206677 
2433.000000	99.204947 
2432.000000	99.206440 
2431.000000	99.211598 
2430.000000	99.218074 
2429.000000	99.222012 
2428.000000	99.220477 
2427.000000	99.213788 
2426.000000	99.205879 
2425.000000	99.201658 
2424.000000	99.203264 
2423.000000	99.209113 
2422.000000	99.216700 
2421.000000	99.225118 
2420.000000	99.233658 
2419.000000	99.239121 
2418.000000	99.237232 
2417.000000	99.227618 
2416.000000	99.215566 
2415.000000	99.207356 
2414.000000	99.204727 
2413.000000	99.204907 
2412.000000	99.204935 
2411.000000	99.204265 
2410.000000	99.203716 
2409.000000	99.203753 
2408.000000	99.204156 
2407.000000	99.204213 
2406.000000	99.203087 
2405.000000	99.200924 
2404.000000	99.199490 
2403.000000	99.200426 
2402.000000	99.202744 
2401.000000	99.203329 
2400.000000	99.200306 
2399.000000	99.194899 
2398.000000	99.189733 
2397.000000	99.186506 
2396.000000	99.185643 
2395.000000	99.186722 
2394.000000	99.188356 
2393.000000	99.188809 
2392.000000	99.187740 
2391.000000	99.186433 
2390.000000	99.185571 
2389.000000	99.184072 
2388.000000	99.181384 
2387.000000	99.179643 
2386.000000	99.181559 
2385.000000	99.186604 
2384.000000	99.191131 
2383.000000	99.192337 
2382.000000	99.190420 
2381.000000	99.186582 
2380.000000	99.180905 
2379.000000	99.173655 
2378.000000	99.167631 
2377.000000	99.166925 
2376.000000	99.172701 
2375.000000	99.181301 
2374.000000	99.187349 
2373.000000	99.188015 
2372.000000	99.183797 
2371.000000	99.176638 
2370.000000	99.168823 
2369.000000	99.163052 
2368.000000	99.161471 
2367.000000	99.164372 
2366.000000	99.170920 
2365.000000	99.180303 
2364.000000	99.190464 
2363.000000	99.196897 
2362.000000	99.195211 
2361.000000	99.186068 
2360.000000	99.175388 
2359.000000	99.168331 
2358.000000	99.165767 
2357.000000	99.165890 
2356.000000	99.167791 
2355.000000	99.172146 
2354.000000	99.179468 
2353.000000	99.186962 
2352.000000	99.190235 
2351.000000	99.188322 
2350.000000	99.183781 
2349.000000	99.179112 
2348.000000	99.176191 
2347.000000	99.177280 
2346.000000	99.182356 
2345.000000	99.186818 
2344.000000	99.186520 
2343.000000	99.182851 
2342.000000	99.179241 
2341.000000	99.176409 
2340.000000	99.174931 
2339.000000	99.178356 
2338.000000	99.189603 
2337.000000	99.203843 
2336.000000	99.210025 
2335.000000	99.203003 
2334.000000	99.189951 
2333.000000	99.182334 
2332.000000	99.183251 
2331.000000	99.187401 
2330.000000	99.188733 
2329.000000	99.186588 
2328.000000	99.184799 
2327.000000	99.189030 
2326.000000	99.200660 
2325.000000	99.213377 
2324.000000	99.217462 
2323.000000	99.211219 
2322.000000	99.203130 
2321.000000	99.201241 
2320.000000	99.203032 
2319.000000	99.201437 
2318.000000	99.195138 
2317.000000	99.189758 
2316.000000	99.188884 
2315.000000	99.190939 
2314.000000	99.192805 
2313.000000	99.194706 
2312.000000	99.198180 
2311.000000	99.203337 
2310.000000	99.208004 
2309.000000	99.210174 
2308.000000	99.209493 
2307.000000	99.207653 
2306.000000	99.206718 
2305.000000	99.207906 
2304.000000	99.211355 
2303.000000	99.216978 
2302.000000	99.223745 
2301.000000	99.229543 
2300.000000	99.232800 
2299.000000	99.235077 
2298.000000	99.239041 
2297.000000	99.244503 
2296.000000	99.247535 
2295.000000	99.245846 
2294.000000	99.242187 
2293.000000	99.241676 
2292.000000	99.246178 
2291.000000	99.253484 
2290.000000	99.260172 
2289.000000	99.263770 
2288.000000	99.263243 
2287.000000	99.259621 
2286.000000	99.255784 
2285.000000	99.253648 
2284.000000	99.252234 
2283.000000	99.249809 
2282.000000	99.247328 
2281.000000	99.247269 
2280.000000	99.249656 
2279.000000	99.251459 
2278.000000	99.250388 
2277.000000	99.247344 
2276.000000	99.244868 
2275.000000	99.244829 
2274.000000	99.247635 
2273.000000	99.251942 
2272.000000	99.254944 
2271.000000	99.254898 
2270.000000	99.253407 
2269.000000	99.253530 
2268.000000	99.255658 
2267.000000	99.257401 
2266.000000	99.257302 
2265.000000	99.255851 
2264.000000	99.252317 
2263.000000	99.244136 
2262.000000	99.231749 
2261.000000	99.221505 
2260.000000	99.220384 
2259.000000	99.228371 
2258.000000	99.238546 
2257.000000	99.244591 
2256.000000	99.246108 
2255.000000	99.246205 
2254.000000	99.246471 
2253.000000	99.246384 
2252.000000	99.246191 
2251.000000	99.247373 
2250.000000	99.249742 
2249.000000	99.250540 
2248.000000	99.247623 
2247.000000	99.242797 
2246.000000	99.239437 
2245.000000	99.238509 
2244.000000	99.238761 
2243.000000	99.240026 
2242.000000	99.243526 
2241.000000	99.249102 
2240.000000	99.255238 
2239.000000	99.262167 
2238.000000	99.271235 
2237.000000	99.279799 
2236.000000	99.280734 
2235.000000	99.270226 
2234.000000	99.253689 
2233.000000	99.240647 
2232.000000	99.235185 
2231.000000	99.234259 
2230.000000	99.233593 
2229.000000	99.231486 
2228.000000	99.227726 
2227.000000	99.222831 
2226.000000	99.218980 
2225.000000	99.219083 
2224.000000	99.224372 
2223.000000	99.234129 
2222.000000	99.246208 
2221.000000	99.255510 
2220.000000	99.254716 
2219.000000	99.241867 
2218.000000	99.226770 
2217.000000	99.224101 
2216.000000	99.237969 
2215.000000	99.257398 
2214.000000	99.268880 
2213.000000	99.269397 
2212.000000	99.265097 
2211.000000	99.262006 
2210.000000	99.262810 
2209.000000	99.269388 
2208.000000	99.281706 
2207.000000	99.293575 
2206.000000	99.294811 
2205.000000	99.281171 
2204.000000	99.260836 
2203.000000	99.248448 
2202.000000	99.252219 
2201.000000	99.266806 
2200.000000	99.278481 
2199.000000	99.277515 
2198.000000	99.266021 
2197.000000	99.254451 
2196.000000	99.251394 
2195.000000	99.257656 
2194.000000	99.269052 
2193.000000	99.281557 
2192.000000	99.292563 
2191.000000	99.300250 
2190.000000	99.304979 
2189.000000	99.309868 
2188.000000	99.316150 
2187.000000	99.318098 
2186.000000	99.306851 
2185.000000	99.281233 
2184.000000	99.251701 
2183.000000	99.230973 
2182.000000	99.223023 
2181.000000	99.223279 
2180.000000	99.226733 
2179.000000	99.232079 
2178.000000	99.239306 
2177.000000	99.247754 
2176.000000	99.256928 
2175.000000	99.265882 
2174.000000	99.271707 
2173.000000	99.272624 
2172.000000	99.273210 
2171.000000	99.281756 
2170.000000	99.300260 
2169.000000	99.320986 
2168.000000	99.335959 
2167.000000	99.345975 
2166.000000	99.355867 
2165.000000	99.364876 
2164.000000	99.368567 
2163.000000	99.368046 
2162.000000	99.368354 
2161.000000	99.366373 
2160.000000	99.349065 
2159.000000	99.309727 
2158.000000	99.260173 
2157.000000	99.219202 
2156.000000	99.194012 
2155.000000	99.180972 
2154.000000	99.178502 
2153.000000	99.189327 
2152.000000	99.211284 
2151.000000	99.233645 
2150.000000	99.245901 
2149.000000	99.247864 
2148.000000	99.248548 
2147.000000	99.255135 
2146.000000	99.264653 
2145.000000	99.267250 
2144.000000	99.257272 
2143.000000	99.239929 
2142.000000	99.226218 
2141.000000	99.221922 
2140.000000	99.222917 
2139.000000	99.221768 
2138.000000	99.217228 
2137.000000	99.215252 
2136.000000	99.220739 
2135.000000	99.230524 
2134.000000	99.236485 
2133.000000	99.234984 
2132.000000	99.230534 
2131.000000	99.228775 
2130.000000	99.228309 
2129.000000	99.222589 
2128.000000	99.209451 
2127.000000	99.195289 
2126.000000	99.188384 
2125.000000	99.190964 
2124.000000	99.200142 
2123.000000	99.213904 
2122.000000	99.231657 
2121.000000	99.249640 
2120.000000	99.261021 
2119.000000	99.262686 
2118.000000	99.258989 
2117.000000	99.256858 
2116.000000	99.258985 
2115.000000	99.263220 
2114.000000	99.266458 
2113.000000	99.266887 
2112.000000	99.263979 
2111.000000	99.259084 
2110.000000	99.255756 
2109.000000	99.256857 
2108.000000	99.260306 
2107.000000	99.259314 
2106.000000	99.248658 
2105.000000	99.231174 
2104.000000	99.217177 
2103.000000	99.216075 
2102.000000	99.227743 
2101.000000	99.242326 
2100.000000	99.249177 
2099.000000	99.245746 
2098.000000	99.237709 
2097.000000	99.232269 
2096.000000	99.232915 
2095.000000	99.239126 
2094.000000	99.247863 
2093.000000	99.254824 
2092.000000	99.257173 
2091.000000	99.256475 
2090.000000	99.257354 
2089.000000	99.261982 
2088.000000	99.266873 
2087.000000	99.266198 
2086.000000	99.257724 
2085.000000	99.245430 
2084.000000	99.237316 
2083.000000	99.240250 
2082.000000	99.254799 
2081.000000	99.274050 
2080.000000	99.289250 
2079.000000	99.297814 
2078.000000	99.304466 
2077.000000	99.313822 
2076.000000	99.323445 
2075.000000	99.325641 
2074.000000	99.315237 
2073.000000	99.294906 
2072.000000	99.273614 
2071.000000	99.259951 
2070.000000	99.255807 
2069.000000	99.255565 
2068.000000	99.251884 
2067.000000	99.242639 
2066.000000	99.232148 
2065.000000	99.226930 
2064.000000	99.231400 
2063.000000	99.245872 
2062.000000	99.265076 
2061.000000	99.278967 
2060.000000	99.280155 
2059.000000	99.272390 
2058.000000	99.267803 
2057.000000	99.273607 
2056.000000	99.284780 
2055.000000	99.292205 
2054.000000	99.294506 
2053.000000	99.298004 
2052.000000	99.306981 
2051.000000	99.318081 
2050.000000	99.324092 
2049.000000	99.320927 
2048.000000	99.311175 
2047.000000	99.302125 
2046.000000	99.300310 
2045.000000	99.306523 
2044.000000	99.315198 
2043.000000	99.319152 
2042.000000	99.315394 
2041.000000	99.306765 
2040.000000	99.298607 
2039.000000	99.293986 
2038.000000	99.291747 
2037.000000	99.288790 
2036.000000	99.284041 
2035.000000	99.279069 
2034.000000	99.274454 
2033.000000	99.268547 
2032.000000	99.262469 
2031.000000	99.262850 
2030.000000	99.274041 
2029.000000	99.288770 
2028.000000	99.292616 
2027.000000	99.278682 
2026.000000	99.253293 
2025.000000	99.228429 
2024.000000	99.214329 
2023.000000	99.218412 
2022.000000	99.241896 
2021.000000	99.273113 
2020.000000	99.292071 
2019.000000	99.288593 
2018.000000	99.272226 
2017.000000	99.259962 
2016.000000	99.257294 
2015.000000	99.256573 
2014.000000	99.250166 
2013.000000	99.238132 
2012.000000	99.225472 
2011.000000	99.217518 
2010.000000	99.217358 
2009.000000	99.223988 
2008.000000	99.233478 
2007.000000	99.244106 
2006.000000	99.257649 
2005.000000	99.273616 
2004.000000	99.286663 
2003.000000	99.292708 
2002.000000	99.293016 
2001.000000	99.288972 
2000.000000	99.277895 
1999.000000	99.258921 
1998.000000	99.239141 
1997.000000	99.228118 
1996.000000	99.228246 
1995.000000	99.235159 
1994.000000	99.244982 
1993.000000	99.255492 
1992.000000	99.261873 
1991.000000	99.258571 
1990.000000	99.247055 
1989.000000	99.236621 
1988.000000	99.236449 
1987.000000	99.249528 
1986.000000	99.273072 
1985.000000	99.300699 
1984.000000	99.324037 
1983.000000	99.336306 
1982.000000	99.336383 
1981.000000	99.328339 
1980.000000	99.317109 
1979.000000	99.305497 
1978.000000	99.293636 
1977.000000	99.278973 
1976.000000	99.258893 
1975.000000	99.236480 
1974.000000	99.221608 
1973.000000	99.221982 
1972.000000	99.233745 
1971.000000	99.245685 
1970.000000	99.252551 
1969.000000	99.259589 
1968.000000	99.272671 
1967.000000	99.288021 
1966.000000	99.295924 
1965.000000	99.292541 
1964.000000	99.283293 
1963.000000	99.275254 
1962.000000	99.270508 
1961.000000	99.267460 
1960.000000	99.265305 
1959.000000	99.264581 
1958.000000	99.264567 
1957.000000	99.263315 
1956.000000	99.260609 
1955.000000	99.258171 
1954.000000	99.255669 
1953.000000	99.249012 
1952.000000	99.235091 
1951.000000	99.217220 
1950.000000	99.203434 
1949.000000	99.199393 
1948.000000	99.204608 
1947.000000	99.215077 
1946.000000	99.226111 
1945.000000	99.232322 
1944.000000	99.229350 
1943.000000	99.218607 
1942.000000	99.207636 
1941.000000	99.201954 
1940.000000	99.199574 
1939.000000	99.196355 
1938.000000	99.192717 
1937.000000	99.192565 
1936.000000	99.197499 
1935.000000	99.204666 
1934.000000	99.209933 
1933.000000	99.211134 
1932.000000	99.208515 
1931.000000	99.204612 
1930.000000	99.204029 
1929.000000	99.210225 
1928.000000	99.221226 
1927.000000	99.230263 
1926.000000	99.231161 
1925.000000	99.222292 
1924.000000	99.207298 
1923.000000	99.193966 
1922.000000	99.190468 
1921.000000	99.198719 
1920.000000	99.211809 
1919.000000	99.219282 
1918.000000	99.215839 
1917.000000	99.205618 
1916.000000	99.196803 
1915.000000	99.194327 
1914.000000	99.198548 
1913.000000	99.206684 
1912.000000	99.214124 
1911.000000	99.216760 
1910.000000	99.213809 
1909.000000	99.208216 
1908.000000	99.204320 
1907.000000	99.205422 
1906.000000	99.212171 
1905.000000	99.220907 
1904.000000	99.224629 
1903.000000	99.218111 
1902.000000	99.202511 
1901.000000	99.184374 
1900.000000	99.171388 
1899.000000	99.168986 
1898.000000	99.177974 
1897.000000	99.192754 
1896.000000	99.203726 
1895.000000	99.205177 
1894.000000	99.200575 
1893.000000	99.197262 
1892.000000	99.197588 
1891.000000	99.198227 
1890.000000	99.196428 
1889.000000	99.193854 
1888.000000	99.193814 
1887.000000	99.197947 
1886.000000	99.205709 
1885.000000	99.214212 
1884.000000	99.218940 
1883.000000	99.216909 
1882.000000	99.209212 
1881.000000	99.199556 
1880.000000	99.191217 
1879.000000	99.185585 
1878.000000	99.182228 
1877.000000	99.179664 
1876.000000	99.177515 
1875.000000	99.178475 
1874.000000	99.185975 
1873.000000	99.198580 
1872.000000	99.209049 
1871.000000	99.210768 
1870.000000	99.203829 
1869.000000	99.193680 
1868.000000	99.183683 
1867.000000	99.173351 
1866.000000	99.163584 
1865.000000	99.156926 
1864.000000	99.154921 
1863.000000	99.158704 
1862.000000	99.169587 
1861.000000	99.185520 
1860.000000	99.198999 
1859.000000	99.203453 
1858.000000	99.200807 
1857.000000	99.198269 
1856.000000	99.199232 
1855.000000	99.201867 
1854.000000	99.204556 
1853.000000	99.207612 
1852.000000	99.210191 
1851.000000	99.209542 
1850.000000	99.204679 
1849.000000	99.197998 
1848.000000	99.192374 
1847.000000	99.188633 
1846.000000	99.186644 
1845.000000	99.185673 
1844.000000	99.183207 
1843.000000	99.177865 
1842.000000	99.173295 
1841.000000	99.174219 
1840.000000	99.181131 
1839.000000	99.190174 
1838.000000	99.197328 
1837.000000	99.201859 
1836.000000	99.204910 
1835.000000	99.206606 
1834.000000	99.206225 
1833.000000	99.204386 
1832.000000	99.203437 
1831.000000	99.204604 
1830.000000	99.206488 
1829.000000	99.207242 
1828.000000	99.207225 
1827.000000	99.207493 
1826.000000	99.207824 
1825.000000	99.207987 
1824.000000	99.208285 
1823.000000	99.208462 
1822.000000	99.207670 
1821.000000	99.204814 
1820.000000	99.199037 
1819.000000	99.190615 
1818.000000	99.182113 
1817.000000	99.177250 
1816.000000	99.176964 
1815.000000	99.178653 
1814.000000	99.180259 
1813.000000	99.183148 
1812.000000	99.190024 
1811.000000	99.200456 
1810.000000	99.211312 
1809.000000	99.220184 
1808.000000	99.224584 
1807.000000	99.221143 
1806.000000	99.209667 
1805.000000	99.195841 
1804.000000	99.186880 
1803.000000	99.185084 
1802.000000	99.187732 
1801.000000	99.192338 
1800.000000	99.197606 
1799.000000	99.201767 
1798.000000	99.203939 
1797.000000	99.204790 
1796.000000	99.205251 
1795.000000	99.205971 
1794.000000	99.207024 
1793.000000	99.207476 
1792.000000	99.206481 
1791.000000	99.204341 
1790.000000	99.202635 
1789.000000	99.203463 
1788.000000	99.207848 
1787.000000	99.214810 
1786.000000	99.221680 
1785.000000	99.225080 
1784.000000	99.222652 
1783.000000	99.216072 
1782.000000	99.210406 
1781.000000	99.209287 
1780.000000	99.210290 
1779.000000	99.207821 
1778.000000	99.201074 
1777.000000	99.194651 
1776.000000	99.192908 
1775.000000	99.197421 
1774.000000	99.207806 
1773.000000	99.221245 
1772.000000	99.231491 
1771.000000	99.233421 
1770.000000	99.228251 
1769.000000	99.220551 
1768.000000	99.214995 
1767.000000	99.213367 
1766.000000	99.213935 
1765.000000	99.214839 
1764.000000	99.215649 
1763.000000	99.216877 
1762.000000	99.218907 
1761.000000	99.221519 
1760.000000	99.223974 
1759.000000	99.225612 
1758.000000	99.226150 
1757.000000	99.225682 
1756.000000	99.224183 
1755.000000	99.221181 
1754.000000	99.216203 
1753.000000	99.210110 
1752.000000	99.207063 
1751.000000	99.212523 
1750.000000	99.224687 
1749.000000	99.233970 
1748.000000	99.234822 
1747.000000	99.230140 
1746.000000	99.225257 
1745.000000	99.222451 
1744.000000	99.221437 
1743.000000	99.221553 
1742.000000	99.222034 
1741.000000	99.222374 
1740.000000	99.222379 
1739.000000	99.222204 
1738.000000	99.222173 
1737.000000	99.221996 
1736.000000	99.220303 
1735.000000	99.215278 
1734.000000	99.207874 
1733.000000	99.203237 
1732.000000	99.205212 
1731.000000	99.212209 
1730.000000	99.219725 
1729.000000	99.223430 
1728.000000	99.222284 
1727.000000	99.218884 
1726.000000	99.216002 
1725.000000	99.214151 
1724.000000	99.212862 
1723.000000	99.213489 
1722.000000	99.218297 
1721.000000	99.227204 
1720.000000	99.236445 
1719.000000	99.240482 
1718.000000	99.236129 
1717.000000	99.227505 
1716.000000	99.219843 
1715.000000	99.213264 
1714.000000	99.208335 
1713.000000	99.206863 
1712.000000	99.207862 
1711.000000	99.208890 
1710.000000	99.209191 
1709.000000	99.209690 
1708.000000	99.210589 
1707.000000	99.211036 
1706.000000	99.212706 
1705.000000	99.218117 
1704.000000	99.223540 
1703.000000	99.220905 
1702.000000	99.208084 
1701.000000	99.194621 
1700.000000	99.193112 
1699.000000	99.198471 
1698.000000	99.201708 
1697.000000	99.203363 
1696.000000	99.206467 
1695.000000	99.208735 
1694.000000	99.208266 
1693.000000	99.206403 
1692.000000	99.202422 
1691.000000	99.195631 
1690.000000	99.187743 
1689.000000	99.181501 
1688.000000	99.176972 
1687.000000	99.171441 
1686.000000	99.165035 
1685.000000	99.162455 
1684.000000	99.166905 
1683.000000	99.172769 
1682.000000	99.175220 
1681.000000	99.173745 
1680.000000	99.170843 
1679.000000	99.168672 
1678.000000	99.167536 
1677.000000	99.167077 
1676.000000	99.167367 
1675.000000	99.168140 
1674.000000	99.167353 
1673.000000	99.164526 
1672.000000	99.160884 
1671.000000	99.158302 
1670.000000	99.157751 
1669.000000	99.157833 
1668.000000	99.157535 
1667.000000	99.157098 
1666.000000	99.154656 
1665.000000	99.148271 
1664.000000	99.139709 
1663.000000	99.134403 
1662.000000	99.135616 
1661.000000	99.140593 
1660.000000	99.144938 
1659.000000	99.147857 
1658.000000	99.150729 
1657.000000	99.152950 
1656.000000	99.150819 
1655.000000	99.143808 
1654.000000	99.138849 
1653.000000	99.139209 
1652.000000	99.136322 
1651.000000	99.135412 
1650.000000	99.135225 
1649.000000	99.130900 
1648.000000	99.122765 
1647.000000	99.115479 
1646.000000	99.111785 
1645.000000	99.112535 
1644.000000	99.117654 
1643.000000	99.124624 
1642.000000	99.130289 
1641.000000	99.133663 
1640.000000	99.135359 
1639.000000	99.135863 
1638.000000	99.135590 
1637.000000	99.135766 
1636.000000	99.136649 
1635.000000	99.136111 
1634.000000	99.135360 
1633.000000	99.136716 
1632.000000	99.139516 
1631.000000	99.142729 
1630.000000	99.145515 
1629.000000	99.146737 
1628.000000	99.146209 
1627.000000	99.145814 
1626.000000	99.147316 
1625.000000	99.150737 
1624.000000	99.154990 
1623.000000	99.159122 
1622.000000	99.162551 
1621.000000	99.164835 
1620.000000	99.165334 
1619.000000	99.164486 
1618.000000	99.164756 
1617.000000	99.167422 
1616.000000	99.170036 
1615.000000	99.171240 
1614.000000	99.171027 
1613.000000	99.168713 
1612.000000	99.165266 
1611.000000	99.162531 
1610.000000	99.160660 
1609.000000	99.158325 
1608.000000	99.155500 
1607.000000	99.153875 
1606.000000	99.153798 
1605.000000	99.153987 
1604.000000	99.154025 
1603.000000	99.155109 
1602.000000	99.157609 
1601.000000	99.159847 
1600.000000	99.160961 
1599.000000	99.162731 
1598.000000	99.166806 
1597.000000	99.172096 
1596.000000	99.176254 
1595.000000	99.178520 
1594.000000	99.179744 
1593.000000	99.180300 
1592.000000	99.180110 
1591.000000	99.180133 
1590.000000	99.181770 
1589.000000	99.184818 
1588.000000	99.187911 
1587.000000	99.190331 
1586.000000	99.191322 
1585.000000	99.189114 
1584.000000	99.183181 
1583.000000	99.176024 
1582.000000	99.171725 
1581.000000	99.171766 
1580.000000	99.174017 
1579.000000	99.175785 
1578.000000	99.176675 
1577.000000	99.177232 
1576.000000	99.176610 
1575.000000	99.175927 
1574.000000	99.177575 
1573.000000	99.178657 
1572.000000	99.175930 
1571.000000	99.171738 
1570.000000	99.171697 
1569.000000	99.176308 
1568.000000	99.180599 
1567.000000	99.181858 
1566.000000	99.180925 
1565.000000	99.179847 
1564.000000	99.180021 
1563.000000	99.180939 
1562.000000	99.181249 
1561.000000	99.179991 
1560.000000	99.177484 
1559.000000	99.176342 
1558.000000	99.174222 
1557.000000	99.172425 
1556.000000	99.172769 
1555.000000	99.172622 
1554.000000	99.170213 
1553.000000	99.166269 
1552.000000	99.162797 
1551.000000	99.161281 
1550.000000	99.162966 
1549.000000	99.167096 
1548.000000	99.170875 
1547.000000	99.171980 
1546.000000	99.169283 
1545.000000	99.163770 
1544.000000	99.157797 
1543.000000	99.152242 
1542.000000	99.148475 
1541.000000	99.150177 
1540.000000	99.154838 
1539.000000	99.154751 
1538.000000	99.153053 
1537.000000	99.154190 
1536.000000	99.155938 
1535.000000	99.156441 
1534.000000	99.157302 
1533.000000	99.159402 
1532.000000	99.159756 
1531.000000	99.156492 
1530.000000	99.152414 
1529.000000	99.151122 
1528.000000	99.152688 
1527.000000	99.155119 
1526.000000	99.157388 
1525.000000	99.159813 
1524.000000	99.161942 
1523.000000	99.163597 
1522.000000	99.167509 
1521.000000	99.175141 
1520.000000	99.180345 
1519.000000	99.177914 
1518.000000	99.169211 
1517.000000	99.159754 
1516.000000	99.153737 
1515.000000	99.150862 
1514.000000	99.149860 
1513.000000	99.150381 
1512.000000	99.151547 
1511.000000	99.151432 
1510.000000	99.148291 
1509.000000	99.143238 
1508.000000	99.143159 
1507.000000	99.154980 
1506.000000	99.166229 
1505.000000	99.166054 
1504.000000	99.163118 
1503.000000	99.162248 
1502.000000	99.163671 
1501.000000	99.167362 
1500.000000	99.172396 
1499.000000	99.176727 
1498.000000	99.179497 
1497.000000	99.183765 
1496.000000	99.191067 
1495.000000	99.195778 
1494.000000	99.192423 
1493.000000	99.181562 
1492.000000	99.167185 
1491.000000	99.154436 
1490.000000	99.147796 
1489.000000	99.148030 
1488.000000	99.150448 
1487.000000	99.151011 
1486.000000	99.151301 
1485.000000	99.153205 
1484.000000	99.155695 
1483.000000	99.156766 
1482.000000	99.154948 
1481.000000	99.150634 
1480.000000	99.145828 
1479.000000	99.142610 
1478.000000	99.141932 
1477.000000	99.143005 
1476.000000	99.143377 
1475.000000	99.139933 
1474.000000	99.133703 
1473.000000	99.131153 
1472.000000	99.135150 
1471.000000	99.139087 
1470.000000	99.138810 
1469.000000	99.137315 
1468.000000	99.138358 
1467.000000	99.142175 
1466.000000	99.146499 
1465.000000	99.149198 
1464.000000	99.149143 
1463.000000	99.146994 
1462.000000	99.144972 
1461.000000	99.144929 
1460.000000	99.146125 
1459.000000	99.145562 
1458.000000	99.140018 
1457.000000	99.130852 
1456.000000	99.122985 
1455.000000	99.118357 
1454.000000	99.116202 
1453.000000	99.115588 
1452.000000	99.115378 
1451.000000	99.114063 
1450.000000	99.111869 
1449.000000	99.111942 
1448.000000	99.116292 
1447.000000	99.121683 
1446.000000	99.124058 
1445.000000	99.124425 
1444.000000	99.125640 
1443.000000	99.127573 
1442.000000	99.128088 
1441.000000	99.126703 
1440.000000	99.125552 
1439.000000	99.126609 
1438.000000	99.128714 
1437.000000	99.128992 
1436.000000	99.126196 
1435.000000	99.120745 
1434.000000	99.114941 
1433.000000	99.111959 
1432.000000	99.112837 
1431.000000	99.115962 
1430.000000	99.118173 
1429.000000	99.118106 
1428.000000	99.117125 
1427.000000	99.116227 
1426.000000	99.114455 
1425.000000	99.110624 
1424.000000	99.106446 
1423.000000	99.104086 
1422.000000	99.101475 
1421.000000	99.095373 
1420.000000	99.086169 
1419.000000	99.078212 
1418.000000	99.071894 
1417.000000	99.063483 
1416.000000	99.053072 
1415.000000	99.042420 
1414.000000	99.030996 
1413.000000	99.017424 
1412.000000	99.003582 
1411.000000	98.993666 
1410.000000	98.988409 
1409.000000	98.985373 
1408.000000	98.983526 
1407.000000	98.983132 
1406.000000	98.983715 
1405.000000	98.985576 
1404.000000	98.991328 
1403.000000	99.001197 
1402.000000	99.010822 
1401.000000	99.017054 
1400.000000	99.021413 
1399.000000	99.026612 
1398.000000	99.028835 
1397.000000	99.020020 
1396.000000	98.998558 
1395.000000	98.974649 
1394.000000	98.962973 
1393.000000	98.969260 
1392.000000	98.989796 
1391.000000	99.016736 
1390.000000	99.041419 
1389.000000	99.057152 
1388.000000	99.061672 
1387.000000	99.057611 
1386.000000	99.049338 
1385.000000	99.040831 
1384.000000	99.035253 
1383.000000	99.033785 
1382.000000	99.035123 
1381.000000	99.037886 
1380.000000	99.041903 
1379.000000	99.047135 
1378.000000	99.052422 
1377.000000	99.056380 
1376.000000	99.059696 
1375.000000	99.065336 
1374.000000	99.075055 
1373.000000	99.085809 
1372.000000	99.093311 
1371.000000	99.098077 
1370.000000	99.104654 
1369.000000	99.115149 
1368.000000	99.127483 
1367.000000	99.138100 
1366.000000	99.145092 
1365.000000	99.148764 
1364.000000	99.150042 
1363.000000	99.150498 
1362.000000	99.152296 
1361.000000	99.155693 
1360.000000	99.158751 
1359.000000	99.160358 
1358.000000	99.161963 
1357.000000	99.165900 
1356.000000	99.172641 
1355.000000	99.180063 
1354.000000	99.185571 
1353.000000	99.188202 
1352.000000	99.187797 
1351.000000	99.184374 
1350.000000	99.180079 
1349.000000	99.177323 
1348.000000	99.177182 
1347.000000	99.179303 
1346.000000	99.183175 
1345.000000	99.187888 
1344.000000	99.191714 
1343.000000	99.193193 
1342.000000	99.192626 
1341.000000	99.191377 
1340.000000	99.190226 
1339.000000	99.189157 
1338.000000	99.188127 
1337.000000	99.187692 
1336.000000	99.188528 
1335.000000	99.190620 
1334.000000	99.193768 
1333.000000	99.198007 
1332.000000	99.202635 
1331.000000	99.205920 
1330.000000	99.206534 
1329.000000	99.204456 
1328.000000	99.200594 
1327.000000	99.196204 
1326.000000	99.192862 
1325.000000	99.191256 
1324.000000	99.191290 
1323.000000	99.192261 
1322.000000	99.192978 
1321.000000	99.192426 
1320.000000	99.190913 
1319.000000	99.189984 
1318.000000	99.190638 
1317.000000	99.192169 
1316.000000	99.192845 
1315.000000	99.191393 
1314.000000	99.187955 
1313.000000	99.184448 
1312.000000	99.183460 
1311.000000	99.185918 
1310.000000	99.190029 
1309.000000	99.192986 
1308.000000	99.193517 
1307.000000	99.192107 
1306.000000	99.189627 
1305.000000	99.186382 
1304.000000	99.183640 
1303.000000	99.183811 
1302.000000	99.188240 
1301.000000	99.195050 
1300.000000	99.200024 
1299.000000	99.199713 
1298.000000	99.194065 
1297.000000	99.186620 
1296.000000	99.181782 
1295.000000	99.181566 
1294.000000	99.184501 
1293.000000	99.187779 
1292.000000	99.189767 
1291.000000	99.190031 
1290.000000	99.188334 
1289.000000	99.185029 
1288.000000	99.181643 
1287.000000	99.179354 
1286.000000	99.177089 
1285.000000	99.172937 
1284.000000	99.167355 
1283.000000	99.162955 
1282.000000	99.160957 
1281.000000	99.159792 
1280.000000	99.157620 
1279.000000	99.154444 
1278.000000	99.150741 
1277.000000	99.145959 
1276.000000	99.139619 
1275.000000	99.133033 
1274.000000	99.128311 
1273.000000	99.126091 
1272.000000	99.125069 
1271.000000	99.123153 
1270.000000	99.118498 
1269.000000	99.110498 
1268.000000	99.100740 
1267.000000	99.092077 
1266.000000	99.085597 
1265.000000	99.079602 
1264.000000	99.072238 
1263.000000	99.063712 
1262.000000	99.055067 
1261.000000	99.046530 
1260.000000	99.038605 
1259.000000	99.033384 
1258.000000	99.032375 
1257.000000	99.034105 
1256.000000	99.035614 
1255.000000	99.035810 
1254.000000	99.035743 
1253.000000	99.036049 
1252.000000	99.035829 
1251.000000	99.034390 
1250.000000	99.032686 
1249.000000	99.032599 
1248.000000	99.035514 
1247.000000	99.041192 
1246.000000	99.046674 
1245.000000	99.046923 
1244.000000	99.038657 
1243.000000	99.024584 
1242.000000	99.012796 
1241.000000	99.010631 
1240.000000	99.018814 
1239.000000	99.031270 
1238.000000	99.040189 
1237.000000	99.041515 
1236.000000	99.036500 
1235.000000	99.028972 
1234.000000	99.021550 
1233.000000	99.014315 
1232.000000	99.006385 
1231.000000	98.997612 
1230.000000	98.988437 
1229.000000	98.979185 
1228.000000	98.970507 
1227.000000	98.964067 
1226.000000	98.961662 
1225.000000	98.963263 
1224.000000	98.966341 
1223.000000	98.967424 
1222.000000	98.964514 
1221.000000	98.958343 
1220.000000	98.951539 
1219.000000	98.946400 
1218.000000	98.943011 
1217.000000	98.939444 
1216.000000	98.933727 
1215.000000	98.925486 
1214.000000	98.915992 
1213.000000	98.907097 
1212.000000	98.899883 
1211.000000	98.893448 
1210.000000	98.885201 
1209.000000	98.873262 
1208.000000	98.858601 
1207.000000	98.844023 
1206.000000	98.831245 
1205.000000	98.819927 
1204.000000	98.809170 
1203.000000	98.798258 
1202.000000	98.785726 
1201.000000	98.769769 
1200.000000	98.750802 
1199.000000	98.732240 
1198.000000	98.717265 
1197.000000	98.705710 
1196.000000	98.695152 
1195.000000	98.683862 
1194.000000	98.671425 
1193.000000	98.657408 
1192.000000	98.641222 
1191.000000	98.623182 
1190.000000	98.604586 
1189.000000	98.586887 
1188.000000	98.571389 
1187.000000	98.558924 
1186.000000	98.548596 
1185.000000	98.537307 
1184.000000	98.521695 
1183.000000	98.500593 
1182.000000	98.475459 
1181.000000	98.449166 
1180.000000	98.424922 
1179.000000	98.405091 
1178.000000	98.389329 
1177.000000	98.374219 
1176.000000	98.356126 
1175.000000	98.334451 
1174.000000	98.311533 
1173.000000	98.289857 
1172.000000	98.270458 
1171.000000	98.253395 
1170.000000	98.238105 
1169.000000	98.223232 
1168.000000	98.207326 
1167.000000	98.190108 
1166.000000	98.172738 
1165.000000	98.157357 
1164.000000	98.146998 
1163.000000	98.144819 
1162.000000	98.151540 
1161.000000	98.163480 
1160.000000	98.174439 
1159.000000	98.180173 
1158.000000	98.180535 
1157.000000	98.177172 
1156.000000	98.170191 
1155.000000	98.157898 
1154.000000	98.139244 
1153.000000	98.115602 
1152.000000	98.090132 
1151.000000	98.065968 
1150.000000	98.044912 
1149.000000	98.026953 
1148.000000	98.010231 
1147.000000	97.991621 
1146.000000	97.968580 
1145.000000	97.941527 
1144.000000	97.914247 
1143.000000	97.891154 
1142.000000	97.873709 
1141.000000	97.859559 
1140.000000	97.844773 
1139.000000	97.826379 
1138.000000	97.803526 
1137.000000	97.777603 
1136.000000	97.751415 
1135.000000	97.727204 
1134.000000	97.705033 
1133.000000	97.683536 
1132.000000	97.661981 
1131.000000	97.640706 
1130.000000	97.619805 
1129.000000	97.598561 
1128.000000	97.576196 
1127.000000	97.552245 
1126.000000	97.526475 
1125.000000	97.499538 
1124.000000	97.473225 
1123.000000	97.448640 
1122.000000	97.424391 
1121.000000	97.398274 
1120.000000	97.370540 
1119.000000	97.343542 
1118.000000	97.318167 
1117.000000	97.292809 
1116.000000	97.266235 
1115.000000	97.239188 
1114.000000	97.212393 
1113.000000	97.185118 
1112.000000	97.157049 
1111.000000	97.130021 
1110.000000	97.106315 
1109.000000	97.085871 
1108.000000	97.066198 
1107.000000	97.044319 
1106.000000	97.018948 
1105.000000	96.991526 
1104.000000	96.964905 
1103.000000	96.940431 
1102.000000	96.917142 
1101.000000	96.894561 
1100.000000	96.875090 
1099.000000	96.860010 
1098.000000	96.846763 
1097.000000	96.831956 
1096.000000	96.816260 
1095.000000	96.802470 
1094.000000	96.789478 
1093.000000	96.772338 
1092.000000	96.748426 
1091.000000	96.719519 
1090.000000	96.687252 
1089.000000	96.650622 
1088.000000	96.609572 
1087.000000	96.567703 
1086.000000	96.529522 
1085.000000	96.497080 
1084.000000	96.469985 
1083.000000	96.445897 
1082.000000	96.420498 
1081.000000	96.390330 
1080.000000	96.356751 
1079.000000	96.324446 
1078.000000	96.295686 
1077.000000	96.269251 
1076.000000	96.244966 
1075.000000	96.224820 
1074.000000	96.208648 
1073.000000	96.192813 
1072.000000	96.173745 
1071.000000	96.147971 
1070.000000	96.108421 
1069.000000	96.048127 
1068.000000	95.971804 
1067.000000	95.898557 
1066.000000	95.847068 
1065.000000	95.819563 
1064.000000	95.803262 
1063.000000	95.783532 
1062.000000	95.751506 
1061.000000	95.703497 
1060.000000	95.641059 
1059.000000	95.572936 
1058.000000	95.511731 
1057.000000	95.464981 
1056.000000	95.429563 
1055.000000	95.394797 
1054.000000	95.350890 
1053.000000	95.296054 
1052.000000	95.236655 
1051.000000	95.179796 
1050.000000	95.126171 
1049.000000	95.072414 
1048.000000	95.018899 
1047.000000	94.969996 
1046.000000	94.926464 
1045.000000	94.883155 
1044.000000	94.836260 
1043.000000	94.788790 
1042.000000	94.746279 
1041.000000	94.709606 
1040.000000	94.674881 
1039.000000	94.639179 
1038.000000	94.604328 
1037.000000	94.575643 
1036.000000	94.557889 
1035.000000	94.551815 
1034.000000	94.553923 
1033.000000	94.559309 
1032.000000	94.563161 
1031.000000	94.559507 
1030.000000	94.543323 
1029.000000	94.518191 
1028.000000	94.498817 
1027.000000	94.499820 
1026.000000	94.521693 
1025.000000	94.551797 
1024.000000	94.577927 
1023.000000	94.595672 
1022.000000	94.604196 
1021.000000	94.602785 
1020.000000	94.594138 
1019.000000	94.585477 
1018.000000	94.582459 
1017.000000	94.584491 
1016.000000	94.587965 
1015.000000	94.591341 
1014.000000	94.595430 
1013.000000	94.601119 
1012.000000	94.608402 
1011.000000	94.616188 
1010.000000	94.622817 
1009.000000	94.628569 
1008.000000	94.636991 
1007.000000	94.651245 
1006.000000	94.670019 
1005.000000	94.690030 
1004.000000	94.711345 
1003.000000	94.736344 
1002.000000	94.764397 
1001.000000	94.792191 
1000.000000	94.819116 
999.000000	 94.847573 
998.000000	 94.877558 
997.000000	 94.905679 
996.000000	 94.930908 
995.000000	 94.957295 
994.000000	 94.989244 
993.000000	 95.026750 
992.000000	 95.066176 
991.000000	 95.103072 
990.000000	 95.134107 
989.000000	 95.159565 
988.000000	 95.184538 
987.000000	 95.214764 
986.000000	 95.250795 
985.000000	 95.289061 
984.000000	 95.328401 
983.000000	 95.371780 
982.000000	 95.421161 
981.000000	 95.474557 
980.000000	 95.529242 
979.000000	 95.584600 
978.000000	 95.640740 
977.000000	 95.697235 
976.000000	 95.754303 
975.000000	 95.812638 
974.000000	 95.871303 
973.000000	 95.928209 
972.000000	 95.983279 
971.000000	 96.038584 
970.000000	 96.094795 
969.000000	 96.150078 
968.000000	 96.203164 
967.000000	 96.254840 
966.000000	 96.305370 
965.000000	 96.352882 
964.000000	 96.395809 
963.000000	 96.435292 
962.000000	 96.473916 
961.000000	 96.513171 
960.000000	 96.552847 
959.000000	 96.591636 
958.000000	 96.627726 
957.000000	 96.660108 
956.000000	 96.689994 
955.000000	 96.720001 
954.000000	 96.751487 
953.000000	 96.783384 
952.000000	 96.813585 
951.000000	 96.840435 
950.000000	 96.863015 
949.000000	 96.881364 
948.000000	 96.896816 
947.000000	 96.911349 
946.000000	 96.926456 
945.000000	 96.942940 
944.000000	 96.960834 
943.000000	 96.978365 
942.000000	 96.992085 
941.000000	 96.999993 
940.000000	 97.004204 
939.000000	 97.008920 
938.000000	 97.016179 
937.000000	 97.025161 
936.000000	 97.034884 
935.000000	 97.045066 
934.000000	 97.054353 
933.000000	 97.060391 
932.000000	 97.062693 
931.000000	 97.063979 
930.000000	 97.068066 
929.000000	 97.077406 
928.000000	 97.092298 
927.000000	 97.110424 
926.000000	 97.126919 
925.000000	 97.137058 
924.000000	 97.139839 
923.000000	 97.137878 
922.000000	 97.133755 
921.000000	 97.128113 
920.000000	 97.121523 
919.000000	 97.115993 
918.000000	 97.113259 
917.000000	 97.112893 
916.000000	 97.113382 
915.000000	 97.114351 
914.000000	 97.116941 
913.000000	 97.122628 
912.000000	 97.132220 
911.000000	 97.145420 
910.000000	 97.161000 
909.000000	 97.177912 
908.000000	 97.196268 
907.000000	 97.216725 
906.000000	 97.239243 
905.000000	 97.263283 
904.000000	 97.289101 
903.000000	 97.318099 
902.000000	 97.351834 
901.000000	 97.390746 
900.000000	 97.433181 
899.000000	 97.475421 
898.000000	 97.513720 
897.000000	 97.546777 
896.000000	 97.575191 
895.000000	 97.598945 
894.000000	 97.617933 
893.000000	 97.635525 
892.000000	 97.658509 
891.000000	 97.691024 
890.000000	 97.730019 
889.000000	 97.768709 
888.000000	 97.802756 
887.000000	 97.830664 
886.000000	 97.850278 
885.000000	 97.859396 
884.000000	 97.860700 
883.000000	 97.862774 
882.000000	 97.873496 
881.000000	 97.892893 
880.000000	 97.914151 
879.000000	 97.931675 
878.000000	 97.946744 
877.000000	 97.963987 
876.000000	 97.983196 
875.000000	 97.997723 
874.000000	 98.002783 
873.000000	 98.003233 
872.000000	 98.009897 
871.000000	 98.028683 
870.000000	 98.055460 
869.000000	 98.080785 
868.000000	 98.097270 
867.000000	 98.104141 
866.000000	 98.109049 
865.000000	 98.124558 
864.000000	 98.157206 
863.000000	 98.198333 
862.000000	 98.230096 
861.000000	 98.242735 
860.000000	 98.242500 
859.000000	 98.242033 
858.000000	 98.248617 
857.000000	 98.263987 
856.000000	 98.288491 
855.000000	 98.318643 
854.000000	 98.344371 
853.000000	 98.356238 
852.000000	 98.355116 
851.000000	 98.350261 
850.000000	 98.348870 
849.000000	 98.351841 
848.000000	 98.358241 
847.000000	 98.367986 
846.000000	 98.379371 
845.000000	 98.388923 
844.000000	 98.395366 
843.000000	 98.400355 
842.000000	 98.404006 
841.000000	 98.402990 
840.000000	 98.395109 
839.000000	 98.383564 
838.000000	 98.374279 
837.000000	 98.369483 
836.000000	 98.365580 
835.000000	 98.358077 
834.000000	 98.348258 
833.000000	 98.342987 
832.000000	 98.345288 
831.000000	 98.346409 
830.000000	 98.333330 
829.000000	 98.307297 
828.000000	 98.288523 
827.000000	 98.294903 
826.000000	 98.319193 
825.000000	 98.337319 
824.000000	 98.338940 
823.000000	 98.337776 
822.000000	 98.348623 
821.000000	 98.366576 
820.000000	 98.375947 
819.000000	 98.370513 
818.000000	 98.357377 
817.000000	 98.345370 
816.000000	 98.336044 
815.000000	 98.325041 
814.000000	 98.307652 
813.000000	 98.282173 
812.000000	 98.250075 
811.000000	 98.213866 
810.000000	 98.173889 
809.000000	 98.126907 
808.000000	 98.068211 
807.000000	 97.994837 
806.000000	 97.907031 
805.000000	 97.808315 
804.000000	 97.705714 
803.000000	 97.609109 
802.000000	 97.527769 
801.000000	 97.466135 
800.000000	 97.422569 
799.000000	 97.392150 
798.000000	 97.371833 
797.000000	 97.364004 
796.000000	 97.373660 
795.000000	 97.400648 
794.000000	 97.436603 
793.000000	 97.471393 
792.000000	 97.499689 
791.000000	 97.518797 
790.000000	 97.524633 
789.000000	 97.515791 
788.000000	 97.499334 
787.000000	 97.485607 
786.000000	 97.476599 
785.000000	 97.464567 
784.000000	 97.443173 
783.000000	 97.414952 
782.000000	 97.386455 
781.000000	 97.361239 
780.000000	 97.340273 
779.000000	 97.325131 
778.000000	 97.317788 
777.000000	 97.320000 
776.000000	 97.334355 
775.000000	 97.362279 
774.000000	 97.399332 
773.000000	 97.436462 
772.000000	 97.468041 
771.000000	 97.494957 
770.000000	 97.517808 
769.000000	 97.531845 
768.000000	 97.533281 
767.000000	 97.528048 
766.000000	 97.528729 
765.000000	 97.541998 
764.000000	 97.562057 
763.000000	 97.577094 
762.000000	 97.580633 
761.000000	 97.576478 
760.000000	 97.573921 
759.000000	 97.578726 
758.000000	 97.588332 
757.000000	 97.595924 
756.000000	 97.598783 
755.000000	 97.601189 
754.000000	 97.608851 
753.000000	 97.622431 
752.000000	 97.638194 
751.000000	 97.653114 
750.000000	 97.666510 
749.000000	 97.677150 
748.000000	 97.682435 
747.000000	 97.683021 
746.000000	 97.686411 
745.000000	 97.701330 
744.000000	 97.726635 
743.000000	 97.749384 
742.000000	 97.758190 
741.000000	 97.756958 
740.000000	 97.760536 
739.000000	 97.776965 
738.000000	 97.799262 
737.000000	 97.816105 
736.000000	 97.825004 
735.000000	 97.831841 
734.000000	 97.842599 
733.000000	 97.860074 
732.000000	 97.884455 
731.000000	 97.910500 
730.000000	 97.926583 
729.000000	 97.923615 
728.000000	 97.906161 
727.000000	 97.889300 
726.000000	 97.882903 
725.000000	 97.884871 
724.000000	 97.890468 
723.000000	 97.901132 
722.000000	 97.920285 
721.000000	 97.944927 
720.000000	 97.965707 
719.000000	 97.974237 
718.000000	 97.968840 
717.000000	 97.955267 
716.000000	 97.943104 
715.000000	 97.938923 
714.000000	 97.940902 
713.000000	 97.942008 
712.000000	 97.939443 
711.000000	 97.937652 
710.000000	 97.941256 
709.000000	 97.948449 
708.000000	 97.953347 
707.000000	 97.952091 
706.000000	 97.943542 
705.000000	 97.928345 
704.000000	 97.910024 
703.000000	 97.892402 
702.000000	 97.873567 
701.000000	 97.845607 
700.000000	 97.802426 
699.000000	 97.747051 
698.000000	 97.687997 
697.000000	 97.631284 
696.000000	 97.579681 
695.000000	 97.536602 
694.000000	 97.509222 
693.000000	 97.506524 
692.000000	 97.532298 
691.000000	 97.578834 
690.000000	 97.627326 
689.000000	 97.660411 
688.000000	 97.676917 
687.000000	 97.690019 
686.000000	 97.710126 
685.000000	 97.733630 
684.000000	 97.750107 
683.000000	 97.756559 
682.000000	 97.760616 
681.000000	 97.772206 
680.000000	 97.794334 
679.000000	 97.820709 
678.000000	 97.839204 
677.000000	 97.838303 
676.000000	 97.820785 
675.000000	 97.806876 
674.000000	 97.814906 
673.000000	 97.841967 
672.000000	 97.870672 
671.000000	 97.891289 
670.000000	 97.909154 
669.000000	 97.925785 
668.000000	 97.912191 
667.000000	 97.861520 
666.000000	 97.828516 
665.000000	 97.829155 
664.000000	 97.843813 
663.000000	 97.853957 
662.000000	 97.852019 
661.000000	 97.844731 
660.000000	 97.845705 
659.000000	 97.858797 
658.000000	 97.869979 
657.000000	 97.860102 
656.000000	 97.830465 
655.000000	 97.804176 
654.000000	 97.795429 
653.000000	 97.790222 
652.000000	 97.767063 
651.000000	 97.725590 
650.000000	 97.687569 

