4000.000000	99.526158  
3999.000000	99.530155  
3998.000000	99.532140  
3997.000000	99.530824  
3996.000000	99.526670  
3995.000000	99.521728  
3994.000000	99.518565  
3993.000000	99.518671  
3992.000000	99.521336  
3991.000000	99.524045  
3990.000000	99.524379  
3989.000000	99.522045  
3988.000000	99.519204  
3987.000000	99.518620  
3986.000000	99.521367  
3985.000000	99.526125  
3984.000000	99.530305  
3983.000000	99.531656  
3982.000000	99.529314  
3981.000000	99.524056  
3980.000000	99.517628  
3979.000000	99.511739  
3978.000000	99.507716  
3977.000000	99.506613  
3976.000000	99.509064  
3975.000000	99.514748  
3974.000000	99.522186  
3973.000000	99.529258  
3972.000000	99.534016  
3971.000000	99.535488  
3970.000000	99.533923  
3969.000000	99.530425  
3968.000000	99.526533  
3967.000000	99.523684  
3966.000000	99.522728  
3965.000000	99.523681  
3964.000000	99.525406  
3963.000000	99.525704  
3962.000000	99.522706  
3961.000000	99.516669  
3960.000000	99.510107  
3959.000000	99.506131  
3958.000000	99.506129  
3957.000000	99.508872  
3956.000000	99.512298  
3955.000000	99.515495  
3954.000000	99.518796  
3953.000000	99.522171  
3952.000000	99.524280  
3951.000000	99.523851  
3950.000000	99.521114  
3949.000000	99.517985  
3948.000000	99.516685  
3947.000000	99.517900  
3946.000000	99.520787  
3945.000000	99.524260  
3944.000000	99.527634  
3943.000000	99.529661  
3942.000000	99.528913  
3941.000000	99.525405  
3940.000000	99.520536  
3939.000000	99.515522  
3938.000000	99.510565  
3937.000000	99.505503  
3936.000000	99.501366  
3935.000000	99.500316  
3934.000000	99.504061  
3933.000000	99.511965  
3932.000000	99.520690  
3931.000000	99.525918  
3930.000000	99.525039  
3929.000000	99.519492  
3928.000000	99.513911  
3927.000000	99.512099  
3926.000000	99.514348  
3925.000000	99.517514  
3924.000000	99.517670  
3923.000000	99.514019  
3922.000000	99.509218  
3921.000000	99.506649  
3920.000000	99.507500  
3919.000000	99.510337  
3918.000000	99.513349  
3917.000000	99.515805  
3916.000000	99.517797  
3915.000000	99.519704  
3914.000000	99.522374  
3913.000000	99.526411  
3912.000000	99.530809  
3911.000000	99.533889  
3910.000000	99.535576  
3909.000000	99.537510  
3908.000000	99.540979  
3907.000000	99.544355  
3906.000000	99.543020  
3905.000000	99.532506  
3904.000000	99.512630  
3903.000000	99.490299  
3902.000000	99.475797  
3901.000000	99.474823  
3900.000000	99.485032  
3899.000000	99.498155  
3898.000000	99.506780  
3897.000000	99.509598  
3896.000000	99.509685  
3895.000000	99.510221  
3894.000000	99.512257  
3893.000000	99.514116  
3892.000000	99.513054  
3891.000000	99.507857  
3890.000000	99.499870  
3889.000000	99.491517  
3888.000000	99.485765  
3887.000000	99.485726  
3886.000000	99.490946  
3885.000000	99.496507  
3884.000000	99.498334  
3883.000000	99.497910  
3882.000000	99.499694  
3881.000000	99.504290  
3880.000000	99.507431  
3879.000000	99.505449  
3878.000000	99.500017  
3877.000000	99.496731  
3876.000000	99.500431  
3875.000000	99.509374  
3874.000000	99.515104  
3873.000000	99.510683  
3872.000000	99.498773  
3871.000000	99.488983  
3870.000000	99.487020  
3869.000000	99.489855  
3868.000000	99.491949  
3867.000000	99.492559  
3866.000000	99.495782  
3865.000000	99.502781  
3864.000000	99.506993  
3863.000000	99.503222  
3862.000000	99.494834  
3861.000000	99.489160  
3860.000000	99.490574  
3859.000000	99.497993  
3858.000000	99.506063  
3857.000000	99.509666  
3856.000000	99.507302  
3855.000000	99.503844  
3854.000000	99.501953  
3853.000000	99.499896  
3852.000000	99.498820  
3851.000000	99.500194  
3850.000000	99.502727  
3849.000000	99.506070  
3848.000000	99.509515  
3847.000000	99.511924  
3846.000000	99.513059  
3845.000000	99.512887  
3844.000000	99.511377  
3843.000000	99.509752  
3842.000000	99.508274  
3841.000000	99.505203  
3840.000000	99.500196  
3839.000000	99.495641  
3838.000000	99.494141  
3837.000000	99.495628  
3836.000000	99.497557  
3835.000000	99.499143  
3834.000000	99.502143  
3833.000000	99.508756  
3832.000000	99.518628  
3831.000000	99.527646  
3830.000000	99.531685  
3829.000000	99.530202  
3828.000000	99.525591  
3827.000000	99.520774  
3826.000000	99.516795  
3825.000000	99.512292  
3824.000000	99.506989  
3823.000000	99.505205  
3822.000000	99.509904  
3821.000000	99.515488  
3820.000000	99.514205  
3819.000000	99.506319  
3818.000000	99.498958  
3817.000000	99.500183  
3816.000000	99.510637  
3815.000000	99.521509  
3814.000000	99.524581  
3813.000000	99.521070  
3812.000000	99.518181  
3811.000000	99.520015  
3810.000000	99.524527  
3809.000000	99.528123  
3808.000000	99.529935  
3807.000000	99.530715  
3806.000000	99.529199  
3805.000000	99.523453  
3804.000000	99.515617  
3803.000000	99.512643  
3802.000000	99.518398  
3801.000000	99.526839  
3800.000000	99.529267  
3799.000000	99.524496  
3798.000000	99.518047  
3797.000000	99.515474  
3796.000000	99.517113  
3795.000000	99.519482  
3794.000000	99.520153  
3793.000000	99.520141  
3792.000000	99.521699  
3791.000000	99.525178  
3790.000000	99.528978  
3789.000000	99.531570  
3788.000000	99.532595  
3787.000000	99.532310  
3786.000000	99.531065  
3785.000000	99.529273  
3784.000000	99.527379  
3783.000000	99.525580  
3782.000000	99.524471  
3781.000000	99.525065  
3780.000000	99.526988  
3779.000000	99.528177  
3778.000000	99.527375  
3777.000000	99.525299  
3776.000000	99.523419  
3775.000000	99.522811  
3774.000000	99.522854  
3773.000000	99.521828  
3772.000000	99.519381  
3771.000000	99.517283  
3770.000000	99.516190  
3769.000000	99.514439  
3768.000000	99.511772  
3767.000000	99.510102  
3766.000000	99.510862  
3765.000000	99.512854  
3764.000000	99.512753  
3763.000000	99.508712  
3762.000000	99.503174  
3761.000000	99.500609  
3760.000000	99.502073  
3759.000000	99.504556  
3758.000000	99.506379  
3757.000000	99.508305  
3756.000000	99.509538  
3755.000000	99.508100  
3754.000000	99.503578  
3753.000000	99.497906  
3752.000000	99.492348  
3751.000000	99.485999  
3750.000000	99.481187  
3749.000000	99.481864  
3748.000000	99.486768  
3747.000000	99.490746  
3746.000000	99.491374  
3745.000000	99.490051  
3744.000000	99.489190  
3743.000000	99.489328  
3742.000000	99.488277  
3741.000000	99.484509  
3740.000000	99.478586  
3739.000000	99.470267  
3738.000000	99.461697  
3737.000000	99.460837  
3736.000000	99.474757  
3735.000000	99.500461  
3734.000000	99.524998  
3733.000000	99.537508  
3732.000000	99.536869  
3731.000000	99.526925  
3730.000000	99.510774  
3729.000000	99.491034  
3728.000000	99.473512  
3727.000000	99.464652  
3726.000000	99.464763  
3725.000000	99.468504  
3724.000000	99.472722  
3723.000000	99.479578  
3722.000000	99.490602  
3721.000000	99.503566  
3720.000000	99.514260  
3719.000000	99.518932  
3718.000000	99.516693  
3717.000000	99.508611  
3716.000000	99.496255  
3715.000000	99.480954  
3714.000000	99.463669  
3713.000000	99.445939  
3712.000000	99.430368  
3711.000000	99.421622  
3710.000000	99.423040  
3709.000000	99.432063  
3708.000000	99.443230  
3707.000000	99.452604  
3706.000000	99.459482  
3705.000000	99.466117  
3704.000000	99.474673  
3703.000000	99.483727  
3702.000000	99.486834  
3701.000000	99.478777  
3700.000000	99.461189  
3699.000000	99.440233  
3698.000000	99.421293  
3697.000000	99.405935  
3696.000000	99.391520  
3695.000000	99.374770  
3694.000000	99.357582  
3693.000000	99.347089  
3692.000000	99.349058  
3691.000000	99.361484  
3690.000000	99.373781  
3689.000000	99.374856  
3688.000000	99.363710  
3687.000000	99.347449  
3686.000000	99.332535  
3685.000000	99.322910  
3684.000000	99.320024  
3683.000000	99.322244  
3682.000000	99.325239  
3681.000000	99.324275  
3680.000000	99.315352  
3679.000000	99.295940  
3678.000000	99.268173  
3677.000000	99.244162  
3676.000000	99.237606  
3675.000000	99.246063  
3674.000000	99.254605  
3673.000000	99.254822  
3672.000000	99.251476  
3671.000000	99.256480  
3670.000000	99.272316  
3669.000000	99.289132  
3668.000000	99.299631  
3667.000000	99.304989  
3666.000000	99.308839  
3665.000000	99.312404  
3664.000000	99.314563  
3663.000000	99.314510  
3662.000000	99.313137  
3661.000000	99.311160  
3660.000000	99.308052  
3659.000000	99.304320  
3658.000000	99.303614  
3657.000000	99.309960  
3656.000000	99.322164  
3655.000000	99.334026  
3654.000000	99.340450  
3653.000000	99.341551  
3652.000000	99.340147  
3651.000000	99.336950  
3650.000000	99.329837  
3649.000000	99.322180  
3648.000000	99.323343  
3647.000000	99.335853  
3646.000000	99.353273  
3645.000000	99.369359  
3644.000000	99.382813  
3643.000000	99.395162  
3642.000000	99.408545  
3641.000000	99.423569  
3640.000000	99.439297  
3639.000000	99.453548  
3638.000000	99.463314  
3637.000000	99.466590  
3636.000000	99.464199  
3635.000000	99.460021  
3634.000000	99.457374  
3633.000000	99.455734  
3632.000000	99.452322  
3631.000000	99.446692  
3630.000000	99.442540  
3629.000000	99.442497  
3628.000000	99.445462  
3627.000000	99.449771  
3626.000000	99.455972  
3625.000000	99.467104  
3624.000000	99.485748  
3623.000000	99.511509  
3622.000000	99.541042  
3621.000000	99.568842  
3620.000000	99.585193  
3619.000000	99.579639  
3618.000000	99.552815  
3617.000000	99.518853  
3616.000000	99.493559  
3615.000000	99.484298  
3614.000000	99.486117  
3613.000000	99.486933  
3612.000000	99.479710  
3611.000000	99.468051  
3610.000000	99.460153  
3609.000000	99.461007  
3608.000000	99.468775  
3607.000000	99.478801  
3606.000000	99.489531  
3605.000000	99.501738  
3604.000000	99.514941  
3603.000000	99.526468  
3602.000000	99.533686  
3601.000000	99.537480  
3600.000000	99.540052  
3599.000000	99.540977  
3598.000000	99.537843  
3597.000000	99.529742  
3596.000000	99.519335  
3595.000000	99.512067  
3594.000000	99.511495  
3593.000000	99.516234  
3592.000000	99.522254  
3591.000000	99.526385  
3590.000000	99.528751  
3589.000000	99.531446  
3588.000000	99.534479  
3587.000000	99.534421  
3586.000000	99.529706  
3585.000000	99.523184  
3584.000000	99.519825  
3583.000000	99.522137  
3582.000000	99.528733  
3581.000000	99.535767  
3580.000000	99.539761  
3579.000000	99.539469  
3578.000000	99.535731  
3577.000000	99.530899  
3576.000000	99.527544  
3575.000000	99.527240  
3574.000000	99.529359  
3573.000000	99.530962  
3572.000000	99.529424  
3571.000000	99.524697  
3570.000000	99.519036  
3569.000000	99.515372  
3568.000000	99.515095  
3567.000000	99.516461  
3566.000000	99.516862  
3565.000000	99.516003  
3564.000000	99.516081  
3563.000000	99.519937  
3562.000000	99.528318  
3561.000000	99.538435  
3560.000000	99.546132  
3559.000000	99.549165  
3558.000000	99.548683  
3557.000000	99.547525  
3556.000000	99.547676  
3555.000000	99.548887  
3554.000000	99.549409  
3553.000000	99.547101  
3552.000000	99.541331  
3551.000000	99.534159  
3550.000000	99.528721  
3549.000000	99.526456  
3548.000000	99.526537  
3547.000000	99.527210  
3546.000000	99.527774  
3545.000000	99.528089  
3544.000000	99.527507  
3543.000000	99.525969  
3542.000000	99.525684  
3541.000000	99.529606  
3540.000000	99.538225  
3539.000000	99.548097  
3538.000000	99.554694  
3537.000000	99.556207  
3536.000000	99.554495  
3535.000000	99.552681  
3534.000000	99.552214  
3533.000000	99.552884  
3532.000000	99.554277  
3531.000000	99.556427  
3530.000000	99.558650  
3529.000000	99.558820  
3528.000000	99.555004  
3527.000000	99.547831  
3526.000000	99.540420  
3525.000000	99.535769  
3524.000000	99.534526  
3523.000000	99.535284  
3522.000000	99.536678  
3521.000000	99.538297  
3520.000000	99.540334  
3519.000000	99.542965  
3518.000000	99.546336  
3517.000000	99.550240  
3516.000000	99.553492  
3515.000000	99.554461  
3514.000000	99.552299  
3513.000000	99.547828  
3512.000000	99.542936  
3511.000000	99.539146  
3510.000000	99.536630  
3509.000000	99.535014  
3508.000000	99.534690  
3507.000000	99.536713  
3506.000000	99.541281  
3505.000000	99.546208  
3504.000000	99.547854  
3503.000000	99.544664  
3502.000000	99.539776  
3501.000000	99.538680  
3500.000000	99.544038  
3499.000000	99.553454  
3498.000000	99.561789  
3497.000000	99.565113  
3496.000000	99.562497  
3495.000000	99.555417  
3494.000000	99.546682  
3493.000000	99.539578  
3492.000000	99.536690  
3491.000000	99.538534  
3490.000000	99.543397  
3489.000000	99.548899  
3488.000000	99.553443  
3487.000000	99.556177  
3486.000000	99.556618  
3485.000000	99.555077  
3484.000000	99.552938  
3483.000000	99.551728  
3482.000000	99.551614  
3481.000000	99.551410  
3480.000000	99.550126  
3479.000000	99.547908  
3478.000000	99.545452  
3477.000000	99.543285  
3476.000000	99.542132  
3475.000000	99.543441  
3474.000000	99.548433  
3473.000000	99.556117  
3472.000000	99.562981  
3471.000000	99.565737  
3470.000000	99.564378  
3469.000000	99.561880  
3468.000000	99.560865  
3467.000000	99.561083  
3466.000000	99.560714  
3465.000000	99.559350  
3464.000000	99.558598  
3463.000000	99.559838  
3462.000000	99.562414  
3461.000000	99.564768  
3460.000000	99.566557  
3459.000000	99.568827  
3458.000000	99.572193  
3457.000000	99.575393  
3456.000000	99.576278  
3455.000000	99.574036  
3454.000000	99.569987  
3453.000000	99.566439  
3452.000000	99.564670  
3451.000000	99.564370  
3450.000000	99.564555  
3449.000000	99.564599  
3448.000000	99.564217  
3447.000000	99.563059  
3446.000000	99.560936  
3445.000000	99.558502  
3444.000000	99.557258  
3443.000000	99.558330  
3442.000000	99.561137  
3441.000000	99.563438  
3440.000000	99.563151  
3439.000000	99.560145  
3438.000000	99.556099  
3437.000000	99.552825  
3436.000000	99.551246  
3435.000000	99.551735  
3434.000000	99.554442  
3433.000000	99.558951  
3432.000000	99.563761  
3431.000000	99.567085  
3430.000000	99.568249  
3429.000000	99.568161  
3428.000000	99.568371  
3427.000000	99.569483  
3426.000000	99.570459  
3425.000000	99.569420  
3424.000000	99.565503  
3423.000000	99.559925  
3422.000000	99.554976  
3421.000000	99.552055  
3420.000000	99.551308  
3419.000000	99.552866  
3418.000000	99.557119  
3417.000000	99.563272  
3416.000000	99.568598  
3415.000000	99.570225  
3414.000000	99.567620  
3413.000000	99.562836  
3412.000000	99.558585  
3411.000000	99.556540  
3410.000000	99.556844  
3409.000000	99.558141  
3408.000000	99.558037  
3407.000000	99.554667  
3406.000000	99.548654  
3405.000000	99.543098  
3404.000000	99.541131  
3403.000000	99.543402  
3402.000000	99.547939  
3401.000000	99.552331  
3400.000000	99.555708  
3399.000000	99.558850  
3398.000000	99.562707  
3397.000000	99.566919  
3396.000000	99.569589  
3395.000000	99.568423  
3394.000000	99.562330  
3393.000000	99.552351  
3392.000000	99.541445  
3391.000000	99.533254  
3390.000000	99.530682  
3389.000000	99.534815  
3388.000000	99.544395  
3387.000000	99.556147  
3386.000000	99.566385  
3385.000000	99.573114  
3384.000000	99.576702  
3383.000000	99.578274  
3382.000000	99.577539  
3381.000000	99.573033  
3380.000000	99.564797  
3379.000000	99.556306  
3378.000000	99.552475  
3377.000000	99.555208  
3376.000000	99.561355  
3375.000000	99.565636  
3374.000000	99.565462  
3373.000000	99.562544  
3372.000000	99.560192  
3371.000000	99.559907  
3370.000000	99.560722  
3369.000000	99.560853  
3368.000000	99.559360  
3367.000000	99.556694  
3366.000000	99.554420  
3365.000000	99.554166  
3364.000000	99.556169  
3363.000000	99.558927  
3362.000000	99.560704  
3361.000000	99.561085  
3360.000000	99.560458  
3359.000000	99.558566  
3358.000000	99.554894  
3357.000000	99.550678  
3356.000000	99.548933  
3355.000000	99.551216  
3354.000000	99.555020  
3353.000000	99.555797  
3352.000000	99.551650  
3351.000000	99.545353  
3350.000000	99.541636  
3349.000000	99.543052  
3348.000000	99.548537  
3347.000000	99.554864  
3346.000000	99.558843  
3345.000000	99.558827  
3344.000000	99.555409  
3343.000000	99.551132  
3342.000000	99.548581  
3341.000000	99.548019  
3340.000000	99.547086  
3339.000000	99.543566  
3338.000000	99.538525  
3337.000000	99.535881  
3336.000000	99.538334  
3335.000000	99.544224  
3334.000000	99.549281  
3333.000000	99.551158  
3332.000000	99.551272  
3331.000000	99.552094  
3330.000000	99.553764  
3329.000000	99.554288  
3328.000000	99.552505  
3327.000000	99.549566  
3326.000000	99.547205  
3325.000000	99.545489  
3324.000000	99.543015  
3323.000000	99.539243  
3322.000000	99.535776  
3321.000000	99.534939  
3320.000000	99.537355  
3319.000000	99.541407  
3318.000000	99.545111  
3317.000000	99.547909  
3316.000000	99.550174  
3315.000000	99.551688  
3314.000000	99.551752  
3313.000000	99.550803  
3312.000000	99.550643  
3311.000000	99.552292  
3310.000000	99.554319  
3309.000000	99.554255  
3308.000000	99.551352  
3307.000000	99.547194  
3306.000000	99.543933  
3305.000000	99.542738  
3304.000000	99.543770  
3303.000000	99.546451  
3302.000000	99.549323  
3301.000000	99.550387  
3300.000000	99.548305  
3299.000000	99.543395  
3298.000000	99.537513  
3297.000000	99.533115  
3296.000000	99.531875  
3295.000000	99.533474  
3294.000000	99.535747  
3293.000000	99.536741  
3292.000000	99.536737  
3291.000000	99.537455  
3290.000000	99.539213  
3289.000000	99.540085  
3288.000000	99.538382  
3287.000000	99.534944  
3286.000000	99.531929  
3285.000000	99.529956  
3284.000000	99.527641  
3283.000000	99.523947  
3282.000000	99.520047  
3281.000000	99.518439  
3280.000000	99.520707  
3279.000000	99.526214  
3278.000000	99.532448  
3277.000000	99.536479  
3276.000000	99.536511  
3275.000000	99.532667  
3274.000000	99.526598  
3273.000000	99.520419  
3272.000000	99.515837  
3271.000000	99.513705  
3270.000000	99.513828  
3269.000000	99.515143  
3268.000000	99.516286  
3267.000000	99.516141  
3266.000000	99.514129  
3265.000000	99.510573  
3264.000000	99.507019  
3263.000000	99.505787  
3262.000000	99.508495  
3261.000000	99.514579  
3260.000000	99.521361  
3259.000000	99.525643  
3258.000000	99.525693  
3257.000000	99.522247  
3256.000000	99.517702  
3255.000000	99.514025  
3254.000000	99.511477  
3253.000000	99.509669  
3252.000000	99.509345  
3251.000000	99.511983  
3250.000000	99.517171  
3249.000000	99.521602  
3248.000000	99.521821  
3247.000000	99.517641  
3246.000000	99.512139  
3245.000000	99.508527  
3244.000000	99.507651  
3243.000000	99.508185  
3242.000000	99.508129  
3241.000000	99.506140  
3240.000000	99.502673  
3239.000000	99.500343  
3238.000000	99.502326  
3237.000000	99.509487  
3236.000000	99.519100  
3235.000000	99.526659  
3234.000000	99.529087  
3233.000000	99.526534  
3232.000000	99.521729  
3231.000000	99.517934  
3230.000000	99.516853  
3229.000000	99.517730  
3228.000000	99.518307  
3227.000000	99.516799  
3226.000000	99.513121  
3225.000000	99.508499  
3224.000000	99.504273  
3223.000000	99.501228  
3222.000000	99.499608  
3221.000000	99.499176  
3220.000000	99.499188  
3219.000000	99.498646  
3218.000000	99.497147  
3217.000000	99.495677  
3216.000000	99.496366  
3215.000000	99.500732  
3214.000000	99.507758  
3213.000000	99.513972  
3212.000000	99.515949  
3211.000000	99.512934  
3210.000000	99.507089  
3209.000000	99.501549  
3208.000000	99.498440  
3207.000000	99.498078  
3206.000000	99.499142  
3205.000000	99.499595  
3204.000000	99.498355  
3203.000000	99.496432  
3202.000000	99.495901  
3201.000000	99.497394  
3200.000000	99.499192  
3199.000000	99.499098  
3198.000000	99.496876  
3197.000000	99.494443  
3196.000000	99.494085  
3195.000000	99.496778  
3194.000000	99.501702  
3193.000000	99.506656  
3192.000000	99.509113  
3191.000000	99.507667  
3190.000000	99.502849  
3189.000000	99.496618  
3188.000000	99.491109  
3187.000000	99.487791  
3186.000000	99.487188  
3185.000000	99.488710  
3184.000000	99.491029  
3183.000000	99.493093  
3182.000000	99.494990  
3181.000000	99.497623  
3180.000000	99.501586  
3179.000000	99.506322  
3178.000000	99.510023  
3177.000000	99.510448  
3176.000000	99.506805  
3175.000000	99.501438  
3174.000000	99.498685  
3173.000000	99.500690  
3172.000000	99.504537  
3171.000000	99.504968  
3170.000000	99.500289  
3169.000000	99.494367  
3168.000000	99.492111  
3167.000000	99.494103  
3166.000000	99.496776  
3165.000000	99.497114  
3164.000000	99.495749  
3163.000000	99.495307  
3162.000000	99.497039  
3161.000000	99.499862  
3160.000000	99.502089  
3159.000000	99.503014  
3158.000000	99.502624  
3157.000000	99.500644  
3156.000000	99.496805  
3155.000000	99.491859  
3154.000000	99.487282  
3153.000000	99.483541  
3152.000000	99.479501  
3151.000000	99.474436  
3150.000000	99.470022  
3149.000000	99.469124  
3148.000000	99.472569  
3147.000000	99.478166  
3146.000000	99.483134  
3145.000000	99.486481  
3144.000000	99.488561  
3143.000000	99.489388  
3142.000000	99.488558  
3141.000000	99.486496  
3140.000000	99.484668  
3139.000000	99.484312  
3138.000000	99.485383  
3137.000000	99.486891  
3136.000000	99.487925  
3135.000000	99.488285  
3134.000000	99.488371  
3133.000000	99.488545  
3132.000000	99.488543  
3131.000000	99.487761  
3130.000000	99.486207  
3129.000000	99.484881  
3128.000000	99.484911  
3127.000000	99.486563  
3126.000000	99.489150  
3125.000000	99.491425  
3124.000000	99.491903  
3123.000000	99.489551  
3122.000000	99.485004  
3121.000000	99.480660  
3120.000000	99.478685  
3119.000000	99.478948  
3118.000000	99.479511  
3117.000000	99.479148  
3116.000000	99.478751  
3115.000000	99.479956  
3114.000000	99.482880  
3113.000000	99.485630  
3112.000000	99.486014  
3111.000000	99.483695  
3110.000000	99.480534  
3109.000000	99.478664  
3108.000000	99.478211  
3107.000000	99.477421  
3106.000000	99.475086  
3105.000000	99.472266  
3104.000000	99.471126  
3103.000000	99.472485  
3102.000000	99.475246  
3101.000000	99.477918  
3100.000000	99.480065  
3099.000000	99.482123  
3098.000000	99.484450  
3097.000000	99.486798  
3096.000000	99.488460  
3095.000000	99.488707  
3094.000000	99.487310  
3093.000000	99.484691  
3092.000000	99.481446  
3091.000000	99.478026  
3090.000000	99.475122  
3089.000000	99.473869  
3088.000000	99.474729  
3087.000000	99.476364  
3086.000000	99.476645  
3085.000000	99.475073  
3084.000000	99.473145  
3083.000000	99.471851  
3082.000000	99.470065  
3081.000000	99.466498  
3080.000000	99.462489  
3079.000000	99.461250  
3078.000000	99.464421  
3077.000000	99.470500  
3076.000000	99.476799  
3075.000000	99.481719  
3074.000000	99.484676  
3073.000000	99.485214  
3072.000000	99.483279  
3071.000000	99.479901  
3070.000000	99.476447  
3069.000000	99.473140  
3068.000000	99.469142  
3067.000000	99.464439  
3066.000000	99.461126  
3065.000000	99.462112  
3064.000000	99.468155  
3063.000000	99.476137  
3062.000000	99.480719  
3061.000000	99.478261  
3060.000000	99.469683  
3059.000000	99.459604  
3058.000000	99.452894  
3057.000000	99.451984  
3056.000000	99.456512  
3055.000000	99.464150  
3054.000000	99.471336  
3053.000000	99.474474  
3052.000000	99.471846  
3051.000000	99.464789  
3050.000000	99.456772  
3049.000000	99.451211  
3048.000000	99.449673  
3047.000000	99.451097  
3046.000000	99.452229  
3045.000000	99.449721  
3044.000000	99.443047  
3043.000000	99.435233  
3042.000000	99.429943  
3041.000000	99.427794  
3040.000000	99.426163  
3039.000000	99.422308  
3038.000000	99.415735  
3037.000000	99.407451  
3036.000000	99.398010  
3035.000000	99.387115  
3034.000000	99.374682  
3033.000000	99.361489  
3032.000000	99.348670  
3031.000000	99.336873  
3030.000000	99.325986  
3029.000000	99.315573  
3028.000000	99.305560  
3027.000000	99.296399  
3026.000000	99.288241  
3025.000000	99.279734  
3024.000000	99.268196  
3023.000000	99.251728  
3022.000000	99.231204  
3021.000000	99.209448  
3020.000000	99.188207  
3019.000000	99.166490  
3018.000000	99.142603  
3017.000000	99.117243  
3016.000000	99.093406  
3015.000000	99.072914  
3014.000000	99.054329  
3013.000000	99.035122  
3012.000000	99.015038  
3011.000000	98.995874  
3010.000000	98.978255  
3009.000000	98.960295  
3008.000000	98.939912  
3007.000000	98.917219  
3006.000000	98.893882  
3005.000000	98.870981  
3004.000000	98.848499  
3003.000000	98.826393  
3002.000000	98.805114  
3001.000000	98.785107  
3000.000000	98.766427  
2999.000000	98.748970  
2998.000000	98.732880  
2997.000000	98.718795  
2996.000000	98.707345  
2995.000000	98.697209  
2994.000000	98.683260  
2993.000000	98.658449  
2992.000000	98.619849  
2991.000000	98.573247  
2990.000000	98.530623  
2989.000000	98.502420  
2988.000000	98.491976  
2987.000000	98.496118  
2986.000000	98.508879  
2985.000000	98.524186  
2984.000000	98.536836  
2983.000000	98.543352  
2982.000000	98.542819  
2981.000000	98.536952  
2980.000000	98.529194  
2979.000000	98.523046  
2978.000000	98.519951  
2977.000000	98.518053  
2976.000000	98.513455  
2975.000000	98.503431  
2974.000000	98.488742  
2973.000000	98.473181  
2972.000000	98.461320  
2971.000000	98.456263  
2970.000000	98.458272  
2969.000000	98.464682  
2968.000000	98.471708  
2967.000000	98.477225  
2966.000000	98.481942  
2965.000000	98.487670  
2964.000000	98.494816  
2963.000000	98.501908  
2962.000000	98.507228  
2961.000000	98.510445  
2960.000000	98.512745  
2959.000000	98.515848  
2958.000000	98.520882  
2957.000000	98.527923  
2956.000000	98.536516  
2955.000000	98.546677  
2954.000000	98.559179  
2953.000000	98.574539  
2952.000000	98.591755  
2951.000000	98.608264  
2950.000000	98.621240  
2949.000000	98.628937  
2948.000000	98.630941  
2947.000000	98.627615  
2946.000000	98.619876  
2945.000000	98.609572  
2944.000000	98.599227  
2943.000000	98.590235  
2942.000000	98.581048  
2941.000000	98.568119  
2940.000000	98.549404  
2939.000000	98.526706  
2938.000000	98.503947  
2937.000000	98.483490  
2936.000000	98.464644  
2935.000000	98.445151  
2934.000000	98.423008  
2933.000000	98.396988  
2932.000000	98.366781  
2931.000000	98.333337  
2930.000000	98.298663  
2929.000000	98.264995  
2928.000000	98.234207  
2927.000000	98.207517  
2926.000000	98.184993  
2925.000000	98.165736  
2924.000000	98.149724  
2923.000000	98.139340  
2922.000000	98.137737  
2921.000000	98.145388  
2920.000000	98.159571  
2919.000000	98.177498  
2918.000000	98.198614  
2917.000000	98.223053  
2916.000000	98.249287  
2915.000000	98.274603  
2914.000000	98.297506  
2913.000000	98.318673  
2912.000000	98.339840  
2911.000000	98.362133  
2910.000000	98.384949  
2909.000000	98.405910  
2908.000000	98.422228  
2907.000000	98.432609  
2906.000000	98.437244  
2905.000000	98.436058  
2904.000000	98.428517  
2903.000000	98.416721  
2902.000000	98.407815  
2901.000000	98.411779  
2900.000000	98.433596  
2899.000000	98.469404  
2898.000000	98.508534  
2897.000000	98.540298  
2896.000000	98.560017  
2895.000000	98.570312  
2894.000000	98.577580  
2893.000000	98.586934  
2892.000000	98.599836  
2891.000000	98.615059  
2890.000000	98.630449  
2889.000000	98.643573  
2888.000000	98.652438  
2887.000000	98.657253  
2886.000000	98.661163  
2885.000000	98.668049  
2884.000000	98.679510  
2883.000000	98.694503  
2882.000000	98.711460  
2881.000000	98.729616  
2880.000000	98.748281  
2879.000000	98.765998  
2878.000000	98.781052  
2877.000000	98.792494  
2876.000000	98.800556  
2875.000000	98.806479  
2874.000000	98.811961  
2873.000000	98.818132  
2872.000000	98.824769  
2871.000000	98.830754  
2870.000000	98.835433  
2869.000000	98.839430  
2868.000000	98.844147  
2867.000000	98.850561  
2866.000000	98.858121  
2865.000000	98.864507  
2864.000000	98.866879  
2863.000000	98.863961  
2862.000000	98.856803  
2861.000000	98.847246  
2860.000000	98.836170  
2859.000000	98.823856  
2858.000000	98.811271  
2857.000000	98.799789  
2856.000000	98.789891  
2855.000000	98.781613  
2854.000000	98.776615  
2853.000000	98.778640  
2852.000000	98.791151  
2851.000000	98.814836  
2850.000000	98.847743  
2849.000000	98.887033  
2848.000000	98.929990  
2847.000000	98.973820  
2846.000000	99.015537  
2845.000000	99.052517  
2844.000000	99.083342  
2843.000000	99.108281  
2842.000000	99.129186  
2841.000000	99.148617  
2840.000000	99.168442  
2839.000000	99.188795  
2838.000000	99.208252  
2837.000000	99.225140  
2836.000000	99.238918  
2835.000000	99.250463  
2834.000000	99.261047  
2833.000000	99.271078  
2832.000000	99.279883  
2831.000000	99.286567  
2830.000000	99.290805  
2829.000000	99.292973  
2828.000000	99.294157  
2827.000000	99.296160  
2826.000000	99.300726  
2825.000000	99.307972  
2824.000000	99.315883  
2823.000000	99.322015  
2822.000000	99.325670  
2821.000000	99.328129  
2820.000000	99.331063  
2819.000000	99.335262  
2818.000000	99.340559  
2817.000000	99.346146  
2816.000000	99.350917  
2815.000000	99.354125  
2814.000000	99.355863  
2813.000000	99.356667  
2812.000000	99.356878  
2811.000000	99.356963  
2810.000000	99.358109  
2809.000000	99.361457  
2808.000000	99.366528  
2807.000000	99.371156  
2806.000000	99.373370  
2805.000000	99.373012  
2804.000000	99.371543  
2803.000000	99.370857  
2802.000000	99.372220  
2801.000000	99.375500  
2800.000000	99.379059  
2799.000000	99.381051  
2798.000000	99.381100  
2797.000000	99.380204  
2796.000000	99.379067  
2795.000000	99.377602  
2794.000000	99.376342  
2793.000000	99.376959  
2792.000000	99.380273  
2791.000000	99.384589  
2790.000000	99.387364  
2789.000000	99.388212  
2788.000000	99.389152  
2787.000000	99.391896  
2786.000000	99.395892  
2785.000000	99.399153  
2784.000000	99.400168  
2783.000000	99.398818  
2782.000000	99.396238  
2781.000000	99.394208  
2780.000000	99.394148  
2779.000000	99.396163  
2778.000000	99.399178  
2777.000000	99.402114  
2776.000000	99.404705  
2775.000000	99.407164  
2774.000000	99.409561  
2773.000000	99.411833  
2772.000000	99.414090  
2771.000000	99.416461  
2770.000000	99.418623  
2769.000000	99.419789  
2768.000000	99.419405  
2767.000000	99.417992  
2766.000000	99.417102  
2765.000000	99.417982  
2764.000000	99.420068  
2763.000000	99.421170  
2762.000000	99.419596  
2761.000000	99.415821  
2760.000000	99.411660  
2759.000000	99.408255  
2758.000000	99.405763  
2757.000000	99.404791  
2756.000000	99.406600  
2755.000000	99.411067  
2754.000000	99.415442  
2753.000000	99.416548  
2752.000000	99.414276  
2751.000000	99.411909  
2750.000000	99.412676  
2749.000000	99.416607  
2748.000000	99.421057  
2747.000000	99.423684  
2746.000000	99.424275  
2745.000000	99.423923  
2744.000000	99.423306  
2743.000000	99.422243  
2742.000000	99.420720  
2741.000000	99.419694  
2740.000000	99.420433  
2739.000000	99.423125  
2738.000000	99.426638  
2737.000000	99.429851  
2736.000000	99.432757  
2735.000000	99.435700  
2734.000000	99.437893  
2733.000000	99.437702  
2732.000000	99.434663  
2731.000000	99.430421  
2730.000000	99.427109  
2729.000000	99.425397  
2728.000000	99.424791  
2727.000000	99.425191  
2726.000000	99.426916  
2725.000000	99.429333  
2724.000000	99.430883  
2723.000000	99.431170  
2722.000000	99.431963  
2721.000000	99.435116  
2720.000000	99.439869  
2719.000000	99.443264  
2718.000000	99.443211  
2717.000000	99.440426  
2716.000000	99.437411  
2715.000000	99.436272  
2714.000000	99.437675  
2713.000000	99.440956  
2712.000000	99.444585  
2711.000000	99.447007  
2710.000000	99.447828  
2709.000000	99.448090  
2708.000000	99.448864  
2707.000000	99.449653  
2706.000000	99.448861  
2705.000000	99.446049  
2704.000000	99.443142  
2703.000000	99.442728  
2702.000000	99.445290  
2701.000000	99.448641  
2700.000000	99.450322  
2699.000000	99.450120  
2698.000000	99.449853  
2697.000000	99.450929  
2696.000000	99.452737  
2695.000000	99.453588  
2694.000000	99.452776  
2693.000000	99.451227  
2692.000000	99.450327  
2691.000000	99.450586  
2690.000000	99.451552  
2689.000000	99.452587  
2688.000000	99.453464  
2687.000000	99.454329  
2686.000000	99.455389  
2685.000000	99.456670  
2684.000000	99.457907  
2683.000000	99.458539  
2682.000000	99.457856  
2681.000000	99.455400  
2680.000000	99.451524  
2679.000000	99.447723  
2678.000000	99.446163  
2677.000000	99.448385  
2676.000000	99.454044  
2675.000000	99.460766  
2674.000000	99.465450  
2673.000000	99.466150  
2672.000000	99.463232  
2671.000000	99.458892  
2670.000000	99.455341  
2669.000000	99.453225  
2668.000000	99.451837  
2667.000000	99.450753  
2666.000000	99.450788  
2665.000000	99.452923  
2664.000000	99.456674  
2663.000000	99.460244  
2662.000000	99.462393  
2661.000000	99.463489  
2660.000000	99.464375  
2659.000000	99.464924  
2658.000000	99.464558  
2657.000000	99.463984  
2656.000000	99.465194  
2655.000000	99.469020  
2654.000000	99.473219  
2653.000000	99.474209  
2652.000000	99.471140  
2651.000000	99.467438  
2650.000000	99.467382  
2649.000000	99.471234  
2648.000000	99.474902  
2647.000000	99.474922  
2646.000000	99.472847  
2645.000000	99.473403  
2644.000000	99.478469  
2643.000000	99.484355  
2642.000000	99.485803  
2641.000000	99.481798  
2640.000000	99.476274  
2639.000000	99.473433  
2638.000000	99.473641  
2637.000000	99.474165  
2636.000000	99.472790  
2635.000000	99.469801  
2634.000000	99.466933  
2633.000000	99.465520  
2632.000000	99.465889  
2631.000000	99.467732  
2630.000000	99.470306  
2629.000000	99.472398  
2628.000000	99.472859  
2627.000000	99.471652  
2626.000000	99.470232  
2625.000000	99.470412  
2624.000000	99.472617  
2623.000000	99.475447  
2622.000000	99.477186  
2621.000000	99.477629  
2620.000000	99.478081  
2619.000000	99.479569  
2618.000000	99.481565  
2617.000000	99.482910  
2616.000000	99.483684  
2615.000000	99.485307  
2614.000000	99.488385  
2613.000000	99.491130  
2612.000000	99.490863  
2611.000000	99.487239  
2610.000000	99.483167  
2609.000000	99.481994  
2608.000000	99.484238  
2607.000000	99.487768  
2606.000000	99.490881  
2605.000000	99.494102  
2604.000000	99.498566  
2603.000000	99.503478  
2602.000000	99.506279  
2601.000000	99.505428  
2600.000000	99.502343  
2599.000000	99.499976  
2598.000000	99.499483  
2597.000000	99.498720  
2596.000000	99.494471  
2595.000000	99.486280  
2594.000000	99.477642  
2593.000000	99.472920  
2592.000000	99.473267  
2591.000000	99.476243  
2590.000000	99.479311  
2589.000000	99.482446  
2588.000000	99.486555  
2587.000000	99.490522  
2586.000000	99.491641  
2585.000000	99.489061  
2584.000000	99.485225  
2583.000000	99.483092  
2582.000000	99.483003  
2581.000000	99.483283  
2580.000000	99.483077  
2579.000000	99.483099  
2578.000000	99.483717  
2577.000000	99.483792  
2576.000000	99.482033  
2575.000000	99.478632  
2574.000000	99.474861  
2573.000000	99.471688  
2572.000000	99.469563  
2571.000000	99.469138  
2570.000000	99.471116  
2569.000000	99.475166  
2568.000000	99.479658  
2567.000000	99.482877  
2566.000000	99.484253  
2565.000000	99.484315  
2564.000000	99.483949  
2563.000000	99.484052  
2562.000000	99.485391  
2561.000000	99.487930  
2560.000000	99.490102  
2559.000000	99.489497  
2558.000000	99.485133  
2557.000000	99.479249  
2556.000000	99.476315  
2555.000000	99.479535  
2554.000000	99.487883  
2553.000000	99.496520  
2552.000000	99.500352  
2551.000000	99.497554  
2550.000000	99.490168  
2549.000000	99.481802  
2548.000000	99.474952  
2547.000000	99.470200  
2546.000000	99.467390  
2545.000000	99.466989  
2544.000000	99.469841  
2543.000000	99.475399  
2542.000000	99.480646  
2541.000000	99.481836  
2540.000000	99.478075  
2539.000000	99.472744  
2538.000000	99.470276  
2537.000000	99.471401  
2536.000000	99.472593  
2535.000000	99.470633  
2534.000000	99.466514  
2533.000000	99.463690  
2532.000000	99.463447  
2531.000000	99.463943  
2530.000000	99.463759  
2529.000000	99.464025  
2528.000000	99.465729  
2527.000000	99.466771  
2526.000000	99.464191  
2525.000000	99.458998  
2524.000000	99.456399  
2523.000000	99.460352  
2522.000000	99.469304  
2521.000000	99.478090  
2520.000000	99.482677  
2519.000000	99.482041  
2518.000000	99.476927  
2517.000000	99.469014  
2516.000000	99.461006  
2515.000000	99.455527  
2514.000000	99.453333  
2513.000000	99.453742  
2512.000000	99.456806  
2511.000000	99.463369  
2510.000000	99.472429  
2509.000000	99.480374  
2508.000000	99.484391  
2507.000000	99.485425  
2506.000000	99.486012  
2505.000000	99.485953  
2504.000000	99.482224  
2503.000000	99.473310  
2502.000000	99.461969  
2501.000000	99.453296  
2500.000000	99.451166  
2499.000000	99.456518  
2498.000000	99.467104  
2497.000000	99.478131  
2496.000000	99.484416  
2495.000000	99.483850  
2494.000000	99.478624  
2493.000000	99.472617  
2492.000000	99.468214  
2491.000000	99.466128  
2490.000000	99.467244  
2489.000000	99.473378  
2488.000000	99.486379  
2487.000000	99.506537  
2486.000000	99.530403  
2485.000000	99.549421  
2484.000000	99.553259  
2483.000000	99.537940  
2482.000000	99.511043  
2481.000000	99.486684  
2480.000000	99.474289  
2479.000000	99.472970  
2478.000000	99.476003  
2477.000000	99.478061  
2476.000000	99.477679  
2475.000000	99.475866  
2474.000000	99.474845  
2473.000000	99.476777  
2472.000000	99.481385  
2471.000000	99.485316  
2470.000000	99.485485  
2469.000000	99.482602  
2468.000000	99.479921  
2467.000000	99.479066  
2466.000000	99.478871  
2465.000000	99.478072  
2464.000000	99.477155  
2463.000000	99.477063  
2462.000000	99.477602  
2461.000000	99.477887  
2460.000000	99.477444  
2459.000000	99.476330  
2458.000000	99.474955  
2457.000000	99.474122  
2456.000000	99.474465  
2455.000000	99.475474  
2454.000000	99.475860  
2453.000000	99.475177  
2452.000000	99.474231  
2451.000000	99.473410  
2450.000000	99.471566  
2449.000000	99.467557  
2448.000000	99.462570  
2447.000000	99.459988  
2446.000000	99.462537  
2445.000000	99.469461  
2444.000000	99.476439  
2443.000000	99.478647  
2442.000000	99.474616  
2441.000000	99.467480  
2440.000000	99.462308  
2439.000000	99.462200  
2438.000000	99.466725  
2437.000000	99.473133  
2436.000000	99.478149  
2435.000000	99.479388  
2434.000000	99.476804  
2433.000000	99.473304  
2432.000000	99.472796  
2431.000000	99.476761  
2430.000000	99.482939  
2429.000000	99.487435  
2428.000000	99.487799  
2427.000000	99.484346  
2426.000000	99.479365  
2425.000000	99.475249  
2424.000000	99.472986  
2423.000000	99.472543  
2422.000000	99.474656  
2421.000000	99.480715  
2420.000000	99.489607  
2419.000000	99.496167  
2418.000000	99.495423  
2417.000000	99.488224  
2416.000000	99.480294  
2415.000000	99.475514  
2414.000000	99.472640  
2413.000000	99.469046  
2412.000000	99.464826  
2411.000000	99.461743  
2410.000000	99.460474  
2409.000000	99.460677  
2408.000000	99.462045  
2407.000000	99.463655  
2406.000000	99.463920  
2405.000000	99.462995  
2404.000000	99.463631  
2403.000000	99.467666  
2402.000000	99.472913  
2401.000000	99.475476  
2400.000000	99.474127  
2399.000000	99.470553  
2398.000000	99.466483  
2397.000000	99.462788  
2396.000000	99.460594  
2395.000000	99.460688  
2394.000000	99.461794  
2393.000000	99.461445  
2392.000000	99.458693  
2391.000000	99.454651  
2390.000000	99.450550  
2389.000000	99.446903  
2388.000000	99.444325  
2387.000000	99.443162  
2386.000000	99.442082  
2385.000000	99.438579  
2384.000000	99.431970  
2383.000000	99.425204  
2382.000000	99.423388  
2381.000000	99.430119  
2380.000000	99.444467  
2379.000000	99.461133  
2378.000000	99.474800  
2377.000000	99.483956  
2376.000000	99.487915  
2375.000000	99.481949  
2374.000000	99.461991  
2373.000000	99.432711  
2372.000000	99.405727  
2371.000000	99.387443  
2370.000000	99.375575  
2369.000000	99.368420  
2368.000000	99.369018  
2367.000000	99.376511  
2366.000000	99.384593  
2365.000000	99.392596  
2364.000000	99.406647  
2363.000000	99.421299  
2362.000000	99.423085  
2361.000000	99.412257  
2360.000000	99.396322  
2359.000000	99.379546  
2358.000000	99.363515  
2357.000000	99.352840  
2356.000000	99.358168  
2355.000000	99.376810  
2354.000000	99.415611  
2353.000000	99.472153  
2352.000000	99.531734  
2351.000000	99.574261  
2350.000000	99.574101  
2349.000000	99.522712  
2348.000000	99.431643  
2347.000000	99.346156  
2346.000000	99.308677  
2345.000000	99.310016  
2344.000000	99.323153  
2343.000000	99.325338  
2342.000000	99.331458  
2341.000000	99.347006  
2340.000000	99.364770  
2339.000000	99.380312  
2338.000000	99.396671  
2337.000000	99.418899  
2336.000000	99.429702  
2335.000000	99.422335  
2334.000000	99.406099  
2333.000000	99.405451  
2332.000000	99.410898  
2331.000000	99.416679  
2330.000000	99.407638  
2329.000000	99.400956  
2328.000000	99.387210  
2327.000000	99.372743  
2326.000000	99.359525  
2325.000000	99.352070  
2324.000000	99.347499  
2323.000000	99.341456  
2322.000000	99.341725  
2321.000000	99.350799  
2320.000000	99.358290  
2319.000000	99.359817  
2318.000000	99.355474  
2317.000000	99.360428  
2316.000000	99.369660  
2315.000000	99.385287  
2314.000000	99.396876  
2313.000000	99.411137  
2312.000000	99.419550  
2311.000000	99.426872  
2310.000000	99.428004  
2309.000000	99.428948  
2308.000000	99.425285  
2307.000000	99.423613  
2306.000000	99.425062  
2305.000000	99.433851  
2304.000000	99.443535  
2303.000000	99.453960  
2302.000000	99.461391  
2301.000000	99.467774  
2300.000000	99.469042  
2299.000000	99.471139  
2298.000000	99.475704  
2297.000000	99.484490  
2296.000000	99.487983  
2295.000000	99.484808  
2294.000000	99.479742  
2293.000000	99.482771  
2292.000000	99.494091  
2291.000000	99.507541  
2290.000000	99.516943  
2289.000000	99.520423  
2288.000000	99.519550  
2287.000000	99.516856  
2286.000000	99.515935  
2285.000000	99.516761  
2284.000000	99.517062  
2283.000000	99.514886  
2282.000000	99.513098  
2281.000000	99.514210  
2280.000000	99.516816  
2279.000000	99.516769  
2278.000000	99.513199  
2277.000000	99.509227  
2276.000000	99.507499  
2275.000000	99.508810  
2274.000000	99.512052  
2273.000000	99.515285  
2272.000000	99.515575  
2271.000000	99.513218  
2270.000000	99.512658  
2269.000000	99.517423  
2268.000000	99.524317  
2267.000000	99.527106  
2266.000000	99.523874  
2265.000000	99.518063  
2264.000000	99.512416  
2263.000000	99.506722  
2262.000000	99.501306  
2261.000000	99.498136  
2260.000000	99.498531  
2259.000000	99.500657  
2258.000000	99.502508  
2257.000000	99.504054  
2256.000000	99.507481  
2255.000000	99.514926  
2254.000000	99.525495  
2253.000000	99.534908  
2252.000000	99.538305  
2251.000000	99.535837  
2250.000000	99.531730  
2249.000000	99.529227  
2248.000000	99.526606  
2247.000000	99.522060  
2246.000000	99.517073  
2245.000000	99.514447  
2244.000000	99.514428  
2243.000000	99.515816  
2242.000000	99.518597  
2241.000000	99.522916  
2240.000000	99.527678  
2239.000000	99.532549  
2238.000000	99.538971  
2237.000000	99.545921  
2236.000000	99.547699  
2235.000000	99.540016  
2234.000000	99.527015  
2233.000000	99.517904  
2232.000000	99.517207  
2231.000000	99.521366  
2230.000000	99.523944  
2229.000000	99.521015  
2228.000000	99.512604  
2227.000000	99.502522  
2226.000000	99.496312  
2225.000000	99.496835  
2224.000000	99.502338  
2223.000000	99.510325  
2222.000000	99.519857  
2221.000000	99.527267  
2220.000000	99.524651  
2219.000000	99.509535  
2218.000000	99.493260  
2217.000000	99.491532  
2216.000000	99.506089  
2215.000000	99.522920  
2214.000000	99.529540  
2213.000000	99.526806  
2212.000000	99.521818  
2211.000000	99.517332  
2210.000000	99.513666  
2209.000000	99.514743  
2208.000000	99.523933  
2207.000000	99.535499  
2206.000000	99.537394  
2205.000000	99.524678  
2204.000000	99.506729  
2203.000000	99.498826  
2202.000000	99.507665  
2201.000000	99.525560  
2200.000000	99.537921  
2199.000000	99.536168  
2198.000000	99.524152  
2197.000000	99.513250  
2196.000000	99.512230  
2195.000000	99.521800  
2194.000000	99.536700  
2193.000000	99.550001  
2192.000000	99.556048  
2191.000000	99.553349  
2190.000000	99.546947  
2189.000000	99.545498  
2188.000000	99.552387  
2187.000000	99.560192  
2186.000000	99.557193  
2185.000000	99.540349  
2184.000000	99.519510  
2183.000000	99.507105  
2182.000000	99.505723  
2181.000000	99.507993  
2180.000000	99.507113  
2179.000000	99.503930  
2178.000000	99.503526  
2177.000000	99.508523  
2176.000000	99.517176  
2175.000000	99.525472  
2174.000000	99.529587  
2173.000000	99.529141  
2172.000000	99.530222  
2171.000000	99.542010  
2170.000000	99.566720  
2169.000000	99.594617  
2168.000000	99.612806  
2167.000000	99.617698  
2166.000000	99.615099  
2165.000000	99.610719  
2164.000000	99.606621  
2163.000000	99.605396  
2162.000000	99.609030  
2161.000000	99.610876  
2160.000000	99.596530  
2159.000000	99.559111  
2158.000000	99.509565  
2157.000000	99.466383  
2156.000000	99.439784  
2155.000000	99.430651  
2154.000000	99.437283  
2153.000000	99.455788  
2152.000000	99.478128  
2151.000000	99.496120  
2150.000000	99.507025  
2149.000000	99.513494  
2148.000000	99.519701  
2147.000000	99.528205  
2146.000000	99.537346  
2145.000000	99.540270  
2144.000000	99.530602  
2143.000000	99.511556  
2142.000000	99.495521  
2141.000000	99.491257  
2140.000000	99.494476  
2139.000000	99.495020  
2138.000000	99.490448  
2137.000000	99.487259  
2136.000000	99.489841  
2135.000000	99.494206  
2134.000000	99.494664  
2133.000000	99.492514  
2132.000000	99.494372  
2131.000000	99.502823  
2130.000000	99.511699  
2129.000000	99.511682  
2128.000000	99.499895  
2127.000000	99.482770  
2126.000000	99.469494  
2125.000000	99.464397  
2124.000000	99.466653  
2123.000000	99.474984  
2122.000000	99.488898  
2121.000000	99.505539  
2120.000000	99.519547  
2119.000000	99.527859  
2118.000000	99.532058  
2117.000000	99.534591  
2116.000000	99.535264  
2115.000000	99.533365  
2114.000000	99.530805  
2113.000000	99.530206  
2112.000000	99.530992  
2111.000000	99.530117  
2110.000000	99.526275  
2109.000000	99.521096  
2108.000000	99.516065  
2107.000000	99.510240  
2106.000000	99.502012  
2105.000000	99.492484  
2104.000000	99.486269  
2103.000000	99.488102  
2102.000000	99.497815  
2101.000000	99.508866  
2100.000000	99.513397  
2099.000000	99.509224  
2098.000000	99.501214  
2097.000000	99.496295  
2096.000000	99.498371  
2095.000000	99.507259  
2094.000000	99.519562  
2093.000000	99.529724  
2092.000000	99.533235  
2091.000000	99.530835  
2090.000000	99.528306  
2089.000000	99.530547  
2088.000000	99.536123  
2087.000000	99.538360  
2086.000000	99.531407  
2085.000000	99.515963  
2084.000000	99.500548  
2083.000000	99.496268  
2082.000000	99.507577  
2081.000000	99.527604  
2080.000000	99.544783  
2079.000000	99.554478  
2078.000000	99.561521  
2077.000000	99.571290  
2076.000000	99.581734  
2075.000000	99.585569  
2074.000000	99.577453  
2073.000000	99.558114  
2072.000000	99.534610  
2071.000000	99.517297  
2070.000000	99.513117  
2069.000000	99.519431  
2068.000000	99.526113  
2067.000000	99.525209  
2066.000000	99.517270  
2065.000000	99.509174  
2064.000000	99.508659  
2063.000000	99.519931  
2062.000000	99.539144  
2061.000000	99.553382  
2060.000000	99.550945  
2059.000000	99.535536  
2058.000000	99.524234  
2057.000000	99.527863  
2056.000000	99.539308  
2055.000000	99.545946  
2054.000000	99.547486  
2053.000000	99.554069  
2052.000000	99.570209  
2051.000000	99.588434  
2050.000000	99.598225  
2049.000000	99.596044  
2048.000000	99.586609  
2047.000000	99.577980  
2046.000000	99.576212  
2045.000000	99.581164  
2044.000000	99.586036  
2043.000000	99.583816  
2042.000000	99.575158  
2041.000000	99.567695  
2040.000000	99.566916  
2039.000000	99.570111  
2038.000000	99.570158  
2037.000000	99.563486  
2036.000000	99.553212  
2035.000000	99.544044  
2034.000000	99.534927  
2033.000000	99.520366  
2032.000000	99.501970  
2031.000000	99.494080  
2030.000000	99.509778  
2029.000000	99.541623  
2028.000000	99.564976  
2027.000000	99.563446  
2026.000000	99.543393  
2025.000000	99.521700  
2024.000000	99.508251  
2023.000000	99.504467  
2022.000000	99.509515  
2021.000000	99.519403  
2020.000000	99.525825  
2019.000000	99.524471  
2018.000000	99.521153  
2017.000000	99.523125  
2016.000000	99.527912  
2015.000000	99.528345  
2014.000000	99.524454  
2013.000000	99.522212  
2012.000000	99.524003  
2011.000000	99.527452  
2010.000000	99.531454  
2009.000000	99.536617  
2008.000000	99.541233  
2007.000000	99.543159  
2006.000000	99.544032  
2005.000000	99.546000  
2004.000000	99.546725  
2003.000000	99.543056  
2002.000000	99.536904  
2001.000000	99.531825  
2000.000000	99.526421  
1999.000000	99.516908  
1998.000000	99.503795  
1997.000000	99.491456  
1996.000000	99.483644  
1995.000000	99.482899  
1994.000000	99.490913  
1993.000000	99.504622  
1992.000000	99.514595  
1991.000000	99.513620  
1990.000000	99.505060  
1989.000000	99.497329  
1988.000000	99.494595  
1987.000000	99.498109  
1986.000000	99.511605  
1985.000000	99.537326  
1984.000000	99.568266  
1983.000000	99.591638  
1982.000000	99.600229  
1981.000000	99.595640  
1980.000000	99.582304  
1979.000000	99.564487  
1978.000000	99.547764  
1977.000000	99.536338  
1976.000000	99.528039  
1975.000000	99.517601  
1974.000000	99.505224  
1973.000000	99.496666  
1972.000000	99.495169  
1971.000000	99.498797  
1970.000000	99.506219  
1969.000000	99.519572  
1968.000000	99.538787  
1967.000000	99.556557  
1966.000000	99.563602  
1965.000000	99.558119  
1964.000000	99.547313  
1963.000000	99.540314  
1962.000000	99.540858  
1961.000000	99.545738  
1960.000000	99.549117  
1959.000000	99.547639  
1958.000000	99.541308  
1957.000000	99.531250  
1956.000000	99.518377  
1955.000000	99.503597  
1954.000000	99.487478  
1953.000000	99.470135  
1952.000000	99.453286  
1951.000000	99.442176  
1950.000000	99.442843  
1949.000000	99.455402  
1948.000000	99.472212  
1947.000000	99.485166  
1946.000000	99.492133  
1945.000000	99.494293  
1944.000000	99.490845  
1943.000000	99.480479  
1942.000000	99.466395  
1941.000000	99.454425  
1940.000000	99.446989  
1939.000000	99.443247  
1938.000000	99.443234  
1937.000000	99.448416  
1936.000000	99.458821  
1935.000000	99.471491  
1934.000000	99.481831  
1933.000000	99.486338  
1932.000000	99.484816  
1931.000000	99.481419  
1930.000000	99.482940  
1929.000000	99.492002  
1928.000000	99.502525  
1927.000000	99.505618  
1926.000000	99.498603  
1925.000000	99.485796  
1924.000000	99.472438  
1923.000000	99.461934  
1922.000000	99.458012  
1921.000000	99.462747  
1920.000000	99.472142  
1919.000000	99.478293  
1918.000000	99.476693  
1917.000000	99.469978  
1916.000000	99.463725  
1915.000000	99.462794  
1914.000000	99.470474  
1913.000000	99.485593  
1912.000000	99.500566  
1911.000000	99.506803  
1910.000000	99.503104  
1909.000000	99.495361  
1908.000000	99.489099  
1907.000000	99.486529  
1906.000000	99.488741  
1905.000000	99.494857  
1904.000000	99.498906  
1903.000000	99.493695  
1902.000000	99.478846  
1901.000000	99.460749  
1900.000000	99.446523  
1899.000000	99.440993  
1898.000000	99.446346  
1897.000000	99.460112  
1896.000000	99.473949  
1895.000000	99.480136  
1894.000000	99.479796  
1893.000000	99.479256  
1892.000000	99.480442  
1891.000000	99.480638  
1890.000000	99.479124  
1889.000000	99.478559  
1888.000000	99.479787  
1887.000000	99.481773  
1886.000000	99.485141  
1885.000000	99.490243  
1884.000000	99.493405  
1883.000000	99.490422  
1882.000000	99.483153  
1881.000000	99.477225  
1880.000000	99.475064  
1879.000000	99.475086  
1878.000000	99.475489  
1877.000000	99.475343  
1876.000000	99.473499  
1875.000000	99.470425  
1874.000000	99.470286  
1873.000000	99.476401  
1872.000000	99.485109  
1871.000000	99.489080  
1870.000000	99.486292  
1869.000000	99.481146  
1868.000000	99.474639  
1867.000000	99.463402  
1866.000000	99.450260  
1865.000000	99.443370  
1864.000000	99.447277  
1863.000000	99.459690  
1862.000000	99.475093  
1861.000000	99.487893  
1860.000000	99.493287  
1859.000000	99.490632  
1858.000000	99.486198  
1857.000000	99.487049  
1856.000000	99.492764  
1855.000000	99.498275  
1854.000000	99.501523  
1853.000000	99.502825  
1852.000000	99.500044  
1851.000000	99.490830  
1850.000000	99.477903  
1849.000000	99.467600  
1848.000000	99.463307  
1847.000000	99.463975  
1846.000000	99.468440  
1845.000000	99.474974  
1844.000000	99.477475  
1843.000000	99.471509  
1842.000000	99.463130  
1841.000000	99.460897  
1840.000000	99.466643  
1839.000000	99.475790  
1838.000000	99.482806  
1837.000000	99.485676  
1836.000000	99.484913  
1835.000000	99.482098  
1834.000000	99.480137  
1833.000000	99.482085  
1832.000000	99.488923  
1831.000000	99.496936  
1830.000000	99.499216  
1829.000000	99.494243  
1828.000000	99.488520  
1827.000000	99.486579  
1826.000000	99.486644  
1825.000000	99.486378  
1824.000000	99.486271  
1823.000000	99.487040  
1822.000000	99.487587  
1821.000000	99.485708  
1820.000000	99.479677  
1819.000000	99.469460  
1818.000000	99.459085  
1817.000000	99.455444  
1816.000000	99.459849  
1815.000000	99.465812  
1814.000000	99.468401  
1813.000000	99.470696  
1812.000000	99.478427  
1811.000000	99.489724  
1810.000000	99.498862  
1809.000000	99.505787  
1808.000000	99.511148  
1807.000000	99.510846  
1806.000000	99.502523  
1805.000000	99.490472  
1804.000000	99.479916  
1803.000000	99.471531  
1802.000000	99.465352  
1801.000000	99.465306  
1800.000000	99.472125  
1799.000000	99.478012  
1798.000000	99.477899  
1797.000000	99.475706  
1796.000000	99.476301  
1795.000000	99.479448  
1794.000000	99.482391  
1793.000000	99.484119  
1792.000000	99.485033  
1791.000000	99.483321  
1790.000000	99.479481  
1789.000000	99.477557  
1788.000000	99.479533  
1787.000000	99.483638  
1786.000000	99.487259  
1785.000000	99.488951  
1784.000000	99.487116  
1783.000000	99.482048  
1782.000000	99.477375  
1781.000000	99.475764  
1780.000000	99.475118  
1779.000000	99.471264  
1778.000000	99.465144  
1777.000000	99.461256  
1776.000000	99.462059  
1775.000000	99.467996  
1774.000000	99.478593  
1773.000000	99.490095  
1772.000000	99.495579  
1771.000000	99.491160  
1770.000000	99.480572  
1769.000000	99.470423  
1768.000000	99.465627  
1767.000000	99.465809  
1766.000000	99.467202  
1765.000000	99.468287  
1764.000000	99.469943  
1763.000000	99.471841  
1762.000000	99.471102  
1761.000000	99.467135  
1760.000000	99.463669  
1759.000000	99.461835  
1758.000000	99.458412  
1757.000000	99.449538  
1756.000000	99.436055  
1755.000000	99.421911  
1754.000000	99.406878  
1753.000000	99.388061  
1752.000000	99.368453  
1751.000000	99.358562  
1750.000000	99.361821  
1749.000000	99.368270  
1748.000000	99.369212  
1747.000000	99.365203  
1746.000000	99.358997  
1745.000000	99.351210  
1744.000000	99.344050  
1743.000000	99.340447  
1742.000000	99.339798  
1741.000000	99.340114  
1740.000000	99.341431  
1739.000000	99.343675  
1738.000000	99.345253  
1737.000000	99.345622  
1736.000000	99.345394  
1735.000000	99.344318  
1734.000000	99.343612  
1733.000000	99.347430  
1732.000000	99.359754  
1731.000000	99.378886  
1730.000000	99.398345  
1729.000000	99.410449  
1728.000000	99.413834  
1727.000000	99.413673  
1726.000000	99.413422  
1725.000000	99.412343  
1724.000000	99.410213  
1723.000000	99.409171  
1722.000000	99.411429  
1721.000000	99.417497  
1720.000000	99.425231  
1719.000000	99.428036  
1718.000000	99.417290  
1717.000000	99.399010  
1716.000000	99.385092  
1715.000000	99.374412  
1714.000000	99.365874  
1713.000000	99.363617  
1712.000000	99.367584  
1711.000000	99.373847  
1710.000000	99.379417  
1709.000000	99.384304  
1708.000000	99.390215  
1707.000000	99.398219  
1706.000000	99.409562  
1705.000000	99.424232  
1704.000000	99.435831  
1703.000000	99.435674  
1702.000000	99.423959  
1701.000000	99.413959  
1700.000000	99.419228  
1699.000000	99.425902  
1698.000000	99.426673  
1697.000000	99.431943  
1696.000000	99.445627  
1695.000000	99.455205  
1694.000000	99.455453  
1693.000000	99.453889  
1692.000000	99.453626  
1691.000000	99.453172  
1690.000000	99.452080  
1689.000000	99.451988  
1688.000000	99.453063  
1687.000000	99.452461  
1686.000000	99.449945  
1685.000000	99.450757  
1684.000000	99.456299  
1683.000000	99.458121  
1682.000000	99.458394  
1681.000000	99.457911  
1680.000000	99.457231  
1679.000000	99.457131  
1678.000000	99.458066  
1677.000000	99.459183  
1676.000000	99.459612  
1675.000000	99.460258  
1674.000000	99.460658  
1673.000000	99.460400  
1672.000000	99.461137  
1671.000000	99.465317  
1670.000000	99.472955  
1669.000000	99.477876  
1668.000000	99.476542  
1667.000000	99.473591  
1666.000000	99.471169  
1665.000000	99.468835  
1664.000000	99.467445  
1663.000000	99.468665  
1662.000000	99.472574  
1661.000000	99.476309  
1660.000000	99.477521  
1659.000000	99.478227  
1658.000000	99.480425  
1657.000000	99.482152  
1656.000000	99.478665  
1655.000000	99.473483  
1654.000000	99.477584  
1653.000000	99.490065  
1652.000000	99.488797  
1651.000000	99.482968  
1650.000000	99.476289  
1649.000000	99.470880  
1648.000000	99.465683  
1647.000000	99.458689  
1646.000000	99.449280  
1645.000000	99.444511  
1644.000000	99.447417  
1643.000000	99.453660  
1642.000000	99.459758  
1641.000000	99.464345  
1640.000000	99.466361  
1639.000000	99.465739  
1638.000000	99.464599  
1637.000000	99.465424  
1636.000000	99.465441  
1635.000000	99.461968  
1634.000000	99.459749  
1633.000000	99.461699  
1632.000000	99.464323  
1631.000000	99.466160  
1630.000000	99.468607  
1629.000000	99.471910  
1628.000000	99.473244  
1627.000000	99.472452  
1626.000000	99.473519  
1625.000000	99.478474  
1624.000000	99.484482  
1623.000000	99.487916  
1622.000000	99.489184  
1621.000000	99.489458  
1620.000000	99.488106  
1619.000000	99.485816  
1618.000000	99.485487  
1617.000000	99.486533  
1616.000000	99.482904  
1615.000000	99.476124  
1614.000000	99.471950  
1613.000000	99.469705  
1612.000000	99.467054  
1611.000000	99.464664  
1610.000000	99.464856  
1609.000000	99.465479  
1608.000000	99.462400  
1607.000000	99.457420  
1606.000000	99.455514  
1605.000000	99.456810  
1604.000000	99.458580  
1603.000000	99.460851  
1602.000000	99.464062  
1601.000000	99.465107  
1600.000000	99.461751  
1599.000000	99.457773  
1598.000000	99.458080  
1597.000000	99.462338  
1596.000000	99.467120  
1595.000000	99.471478  
1594.000000	99.476358  
1593.000000	99.479486  
1592.000000	99.477597  
1591.000000	99.472891  
1590.000000	99.471199  
1589.000000	99.473390  
1588.000000	99.475284  
1587.000000	99.475301  
1586.000000	99.474951  
1585.000000	99.472609  
1584.000000	99.464908  
1583.000000	99.454373  
1582.000000	99.448137  
1581.000000	99.448177  
1580.000000	99.450730  
1579.000000	99.454372  
1578.000000	99.460905  
1577.000000	99.467075  
1576.000000	99.464249  
1575.000000	99.455687  
1574.000000	99.452639  
1573.000000	99.453579  
1572.000000	99.453245  
1571.000000	99.452195  
1570.000000	99.454278  
1569.000000	99.456255  
1568.000000	99.453783  
1567.000000	99.451105  
1566.000000	99.451225  
1565.000000	99.452486  
1564.000000	99.452860  
1563.000000	99.454179  
1562.000000	99.457809  
1561.000000	99.458318  
1560.000000	99.448739  
1559.000000	99.435166  
1558.000000	99.428920  
1557.000000	99.430522  
1556.000000	99.432863  
1555.000000	99.433306  
1554.000000	99.431901  
1553.000000	99.428655  
1552.000000	99.425842  
1551.000000	99.426111  
1550.000000	99.429617  
1549.000000	99.432430  
1548.000000	99.431089  
1547.000000	99.426419  
1546.000000	99.421566  
1545.000000	99.419666  
1544.000000	99.420059  
1543.000000	99.418263  
1542.000000	99.414020  
1541.000000	99.415252  
1540.000000	99.421167  
1539.000000	99.421899  
1538.000000	99.421966  
1537.000000	99.425349  
1536.000000	99.429941  
1535.000000	99.434788  
1534.000000	99.440461  
1533.000000	99.445562  
1532.000000	99.447140  
1531.000000	99.444668  
1530.000000	99.441465  
1529.000000	99.441590  
1528.000000	99.444107  
1527.000000	99.445042  
1526.000000	99.443266  
1525.000000	99.442246  
1524.000000	99.443506  
1523.000000	99.445146  
1522.000000	99.447168  
1521.000000	99.452123  
1520.000000	99.457166  
1519.000000	99.458297  
1518.000000	99.454844  
1517.000000	99.449093  
1516.000000	99.442446  
1515.000000	99.435570  
1514.000000	99.429525  
1513.000000	99.425813  
1512.000000	99.426261  
1511.000000	99.428535  
1510.000000	99.427581  
1509.000000	99.422703  
1508.000000	99.421878  
1507.000000	99.428050  
1506.000000	99.430025  
1505.000000	99.428897  
1504.000000	99.430604  
1503.000000	99.433272  
1502.000000	99.436856  
1501.000000	99.442284  
1500.000000	99.449824  
1499.000000	99.456404  
1498.000000	99.456514  
1497.000000	99.452563  
1496.000000	99.452688  
1495.000000	99.453626  
1494.000000	99.447093  
1493.000000	99.433381  
1492.000000	99.419331  
1491.000000	99.411228  
1490.000000	99.409639  
1489.000000	99.412098  
1488.000000	99.414805  
1487.000000	99.412930  
1486.000000	99.409411  
1485.000000	99.409055  
1484.000000	99.410751  
1483.000000	99.411006  
1482.000000	99.406434  
1481.000000	99.397279  
1480.000000	99.386430  
1479.000000	99.375867  
1478.000000	99.366330  
1477.000000	99.358921  
1476.000000	99.353063  
1475.000000	99.343579  
1474.000000	99.329395  
1473.000000	99.317378  
1472.000000	99.312416  
1471.000000	99.307409  
1470.000000	99.297637  
1469.000000	99.287085  
1468.000000	99.281291  
1467.000000	99.280591  
1466.000000	99.282296  
1465.000000	99.285009  
1464.000000	99.288002  
1463.000000	99.290172  
1462.000000	99.290857  
1461.000000	99.291506  
1460.000000	99.292658  
1459.000000	99.291856  
1458.000000	99.281506  
1457.000000	99.260007  
1456.000000	99.241736  
1455.000000	99.235953  
1454.000000	99.237030  
1453.000000	99.240982  
1452.000000	99.246980  
1451.000000	99.253494  
1450.000000	99.259716  
1449.000000	99.268920  
1448.000000	99.283512  
1447.000000	99.297731  
1446.000000	99.305069  
1445.000000	99.307062  
1444.000000	99.308682  
1443.000000	99.310843  
1442.000000	99.311008  
1441.000000	99.308353  
1440.000000	99.305795  
1439.000000	99.305957  
1438.000000	99.306583  
1437.000000	99.305398  
1436.000000	99.304872  
1435.000000	99.305391  
1434.000000	99.304071  
1433.000000	99.301968  
1432.000000	99.302355  
1431.000000	99.306930  
1430.000000	99.312213  
1429.000000	99.313913  
1428.000000	99.312724  
1427.000000	99.310781  
1426.000000	99.307692  
1425.000000	99.300856  
1424.000000	99.292075  
1423.000000	99.286056  
1422.000000	99.280609  
1421.000000	99.269261  
1420.000000	99.250600  
1419.000000	99.230489  
1418.000000	99.209716  
1417.000000	99.187409  
1416.000000	99.168381  
1415.000000	99.154378  
1414.000000	99.140544  
1413.000000	99.121728  
1412.000000	99.100675  
1411.000000	99.084300  
1410.000000	99.072558  
1409.000000	99.061563  
1408.000000	99.052485  
1407.000000	99.048251  
1406.000000	99.047984  
1405.000000	99.049773  
1404.000000	99.057667  
1403.000000	99.074527  
1402.000000	99.093275  
1401.000000	99.106102  
1400.000000	99.113463  
1399.000000	99.119943  
1398.000000	99.120040  
1397.000000	99.100701  
1396.000000	99.059781  
1395.000000	99.016866  
1394.000000	98.999847  
1393.000000	99.017646  
1392.000000	99.059340  
1391.000000	99.106935  
1390.000000	99.144113  
1389.000000	99.161320  
1388.000000	99.158644  
1387.000000	99.144365  
1386.000000	99.127741  
1385.000000	99.113901  
1384.000000	99.104823  
1383.000000	99.100669  
1382.000000	99.099794  
1381.000000	99.101541  
1380.000000	99.106938  
1379.000000	99.116656  
1378.000000	99.128827  
1377.000000	99.140279  
1376.000000	99.150765  
1375.000000	99.164025  
1374.000000	99.182437  
1373.000000	99.201919  
1372.000000	99.217267  
1371.000000	99.229048  
1370.000000	99.242356  
1369.000000	99.258602  
1368.000000	99.275324  
1367.000000	99.290468  
1366.000000	99.303490  
1365.000000	99.313954  
1364.000000	99.320624  
1363.000000	99.323450  
1362.000000	99.325691  
1361.000000	99.330510  
1360.000000	99.337394  
1359.000000	99.344530  
1358.000000	99.351964  
1357.000000	99.360193  
1356.000000	99.368366  
1355.000000	99.375062  
1354.000000	99.380232  
1353.000000	99.385006  
1352.000000	99.388575  
1351.000000	99.388345  
1350.000000	99.385543  
1349.000000	99.382952  
1348.000000	99.382517  
1347.000000	99.384960  
1346.000000	99.390751  
1345.000000	99.398913  
1344.000000	99.406722  
1343.000000	99.411799  
1342.000000	99.414111  
1341.000000	99.414548  
1340.000000	99.413239  
1339.000000	99.410741  
1338.000000	99.408730  
1337.000000	99.408463  
1336.000000	99.409711  
1335.000000	99.411390  
1334.000000	99.413055  
1333.000000	99.415096  
1332.000000	99.417421  
1331.000000	99.419150  
1330.000000	99.419515  
1329.000000	99.418032  
1328.000000	99.414915  
1327.000000	99.411636  
1326.000000	99.410167  
1325.000000	99.409967  
1324.000000	99.409909  
1323.000000	99.410678  
1322.000000	99.413016  
1321.000000	99.414983  
1320.000000	99.413994  
1319.000000	99.410901  
1318.000000	99.409289  
1317.000000	99.410758  
1316.000000	99.412888  
1315.000000	99.412328  
1314.000000	99.408331  
1313.000000	99.403330  
1312.000000	99.400514  
1311.000000	99.401021  
1310.000000	99.403368  
1309.000000	99.405408  
1308.000000	99.406394  
1307.000000	99.406634  
1306.000000	99.406457  
1305.000000	99.405532  
1304.000000	99.404929  
1303.000000	99.406831  
1302.000000	99.411680  
1301.000000	99.416766  
1300.000000	99.418725  
1299.000000	99.416207  
1298.000000	99.409910  
1297.000000	99.401754  
1296.000000	99.394559  
1295.000000	99.391339  
1294.000000	99.392985  
1293.000000	99.397366  
1292.000000	99.401283  
1291.000000	99.402549  
1290.000000	99.400560  
1289.000000	99.396423  
1288.000000	99.392584  
1287.000000	99.390633  
1286.000000	99.389109  
1285.000000	99.385389  
1284.000000	99.379849  
1283.000000	99.375529  
1282.000000	99.373385  
1281.000000	99.370774  
1280.000000	99.365609  
1279.000000	99.359492  
1278.000000	99.354531  
1277.000000	99.349812  
1276.000000	99.343252  
1275.000000	99.335502  
1274.000000	99.329155  
1273.000000	99.325158  
1272.000000	99.322137  
1271.000000	99.318197  
1270.000000	99.311464  
1269.000000	99.300377  
1268.000000	99.285929  
1267.000000	99.272346  
1266.000000	99.262697  
1265.000000	99.255272  
1264.000000	99.246289  
1263.000000	99.234418  
1262.000000	99.220609  
1261.000000	99.205655  
1260.000000	99.190893  
1259.000000	99.179805  
1258.000000	99.174719  
1257.000000	99.173269  
1256.000000	99.171096  
1255.000000	99.167123  
1254.000000	99.163234  
1253.000000	99.159972  
1252.000000	99.156123  
1251.000000	99.152506  
1250.000000	99.152411  
1249.000000	99.157746  
1248.000000	99.167656  
1247.000000	99.180642  
1246.000000	99.193870  
1245.000000	99.200659  
1244.000000	99.193997  
1243.000000	99.175981  
1242.000000	99.160562  
1241.000000	99.162179  
1240.000000	99.181651  
1239.000000	99.205553  
1238.000000	99.219340  
1237.000000	99.219111  
1236.000000	99.210576  
1235.000000	99.200120  
1234.000000	99.189692  
1233.000000	99.179132  
1232.000000	99.169793  
1231.000000	99.163720  
1230.000000	99.160622  
1229.000000	99.158280  
1228.000000	99.156162  
1227.000000	99.156822  
1226.000000	99.162966  
1225.000000	99.174063  
1224.000000	99.186510  
1223.000000	99.196555  
1222.000000	99.202875  
1221.000000	99.207143  
1220.000000	99.212661  
1219.000000	99.221854  
1218.000000	99.234241  
1217.000000	99.246990  
1216.000000	99.257551  
1215.000000	99.265487  
1214.000000	99.272165  
1213.000000	99.279377  
1212.000000	99.287945  
1211.000000	99.296380  
1210.000000	99.301350  
1209.000000	99.300957  
1208.000000	99.297493  
1207.000000	99.295559  
1206.000000	99.297479  
1205.000000	99.301963  
1204.000000	99.307039  
1203.000000	99.312010  
1202.000000	99.315868  
1201.000000	99.316233  
1200.000000	99.311979  
1199.000000	99.305803  
1198.000000	99.302024  
1197.000000	99.302232  
1196.000000	99.304424  
1195.000000	99.305755  
1194.000000	99.304830  
1193.000000	99.301599  
1192.000000	99.296714  
1191.000000	99.291504  
1190.000000	99.287741  
1189.000000	99.286980  
1188.000000	99.290041  
1187.000000	99.296439  
1186.000000	99.303730  
1185.000000	99.308156  
1184.000000	99.306865  
1183.000000	99.299759  
1182.000000	99.289408  
1181.000000	99.279566  
1180.000000	99.273630  
1179.000000	99.273219  
1178.000000	99.276935  
1177.000000	99.280865  
1176.000000	99.281404  
1175.000000	99.277951  
1174.000000	99.272881  
1173.000000	99.269116  
1172.000000	99.268088  
1171.000000	99.269374  
1170.000000	99.271464  
1169.000000	99.272933  
1168.000000	99.273135  
1167.000000	99.271571  
1166.000000	99.267016  
1165.000000	99.258747  
1164.000000	99.249035  
1163.000000	99.242670  
1162.000000	99.242500  
1161.000000	99.246318  
1160.000000	99.249612  
1159.000000	99.250789  
1158.000000	99.251985  
1157.000000	99.255037  
1156.000000	99.258642  
1155.000000	99.259996  
1154.000000	99.257840  
1153.000000	99.253159  
1152.000000	99.247797  
1151.000000	99.243207  
1150.000000	99.240045  
1149.000000	99.238171  
1148.000000	99.236749  
1147.000000	99.234400  
1146.000000	99.229686  
1145.000000	99.222331  
1144.000000	99.214388  
1143.000000	99.209435  
1142.000000	99.209493  
1141.000000	99.212832  
1140.000000	99.215491  
1139.000000	99.214668  
1138.000000	99.210266  
1137.000000	99.203966  
1136.000000	99.197899  
1135.000000	99.193736  
1134.000000	99.191659  
1133.000000	99.190063  
1132.000000	99.187136  
1131.000000	99.182761  
1130.000000	99.178107  
1129.000000	99.173568  
1128.000000	99.168156  
1127.000000	99.160951  
1126.000000	99.152196  
1125.000000	99.142749  
1124.000000	99.133258  
1123.000000	99.124048  
1122.000000	99.114978  
1121.000000	99.105285  
1120.000000	99.094366  
1119.000000	99.082744  
1118.000000	99.071321  
1117.000000	99.059630  
1116.000000	99.045978  
1115.000000	99.029627  
1114.000000	99.011636  
1113.000000	98.992951  
1112.000000	98.973055  
1111.000000	98.951868  
1110.000000	98.931887  
1109.000000	98.916286  
1108.000000	98.905017  
1107.000000	98.893790  
1106.000000	98.878261  
1105.000000	98.858432  
1104.000000	98.837736  
1103.000000	98.818710  
1102.000000	98.801529  
1101.000000	98.786288  
1100.000000	98.775339  
1099.000000	98.768741  
1098.000000	98.763389  
1097.000000	98.756361  
1096.000000	98.748728  
1095.000000	98.742642  
1094.000000	98.735219  
1093.000000	98.718981  
1092.000000	98.689388  
1091.000000	98.649316  
1090.000000	98.604913  
1089.000000	98.559432  
1088.000000	98.512982  
1087.000000	98.466124  
1086.000000	98.420796  
1085.000000	98.378274  
1084.000000	98.338174  
1083.000000	98.299228  
1082.000000	98.260123  
1081.000000	98.220420  
1080.000000	98.181641  
1079.000000	98.146652  
1078.000000	98.117437  
1077.000000	98.094609  
1076.000000	98.079295  
1075.000000	98.073509  
1074.000000	98.078013  
1073.000000	98.091199  
1072.000000	98.108823  
1071.000000	98.121151  
1070.000000	98.112048  
1069.000000	98.069542  
1068.000000	98.002862  
1067.000000	97.944633  
1066.000000	97.928021  
1065.000000	97.959825  
1064.000000	98.018117  
1063.000000	98.072669  
1062.000000	98.102687  
1061.000000	98.099396  
1060.000000	98.064253  
1059.000000	98.011774  
1058.000000	97.967352  
1057.000000	97.951279  
1056.000000	97.962279  
1055.000000	97.980035  
1054.000000	97.985080  
1053.000000	97.974879  
1052.000000	97.960976  
1051.000000	97.954317  
1050.000000	97.956447  
1049.000000	97.963282  
1048.000000	97.972440  
1047.000000	97.984497  
1046.000000	97.999487  
1045.000000	98.015252  
1044.000000	98.029898  
1043.000000	98.044875  
1042.000000	98.064094  
1041.000000	98.088914  
1040.000000	98.115091  
1039.000000	98.137353  
1038.000000	98.157480  
1037.000000	98.184655  
1036.000000	98.225702  
1035.000000	98.277435  
1034.000000	98.330743  
1033.000000	98.378390  
1032.000000	98.414086  
1031.000000	98.428218  
1030.000000	98.414944  
1029.000000	98.386149  
1028.000000	98.370122  
1027.000000	98.389192  
1026.000000	98.439986  
1025.000000	98.499189  
1024.000000	98.545749  
1023.000000	98.573455  
1022.000000	98.586424  
1021.000000	98.590799  
1020.000000	98.592309  
1019.000000	98.595930  
1018.000000	98.603425  
1017.000000	98.612524  
1016.000000	98.620748  
1015.000000	98.629287  
1014.000000	98.641803  
1013.000000	98.659809  
1012.000000	98.680179  
1011.000000	98.697404  
1010.000000	98.708612  
1009.000000	98.716522  
1008.000000	98.726875  
1007.000000	98.742831  
1006.000000	98.762908  
1005.000000	98.784456  
1004.000000	98.806800  
1003.000000	98.829443  
1002.000000	98.849611  
1001.000000	98.864737  
1000.000000	98.876376  
999.000000	 98.888502  
998.000000	 98.901920  
997.000000	 98.913367  
996.000000	 98.920923  
995.000000	 98.927811  
994.000000	 98.939197  
993.000000	 98.956334  
992.000000	 98.974939  
991.000000	 98.988687  
990.000000	 98.994088  
989.000000	 98.992993  
988.000000	 98.990812  
987.000000	 98.991755  
986.000000	 98.995848  
985.000000	 99.001201  
984.000000	 99.008147  
983.000000	 99.019027  
982.000000	 99.034015  
981.000000	 99.049508  
980.000000	 99.061365  
979.000000	 99.068071  
978.000000	 99.070469  
977.000000	 99.070644  
976.000000	 99.071949  
975.000000	 99.077742  
974.000000	 99.088144  
973.000000	 99.099492  
972.000000	 99.108573  
971.000000	 99.116048  
970.000000	 99.124257  
969.000000	 99.133442  
968.000000	 99.142349  
967.000000	 99.151077  
966.000000	 99.160383  
965.000000	 99.168787  
964.000000	 99.173577  
963.000000	 99.175124  
962.000000	 99.177321  
961.000000	 99.182560  
960.000000	 99.188694  
959.000000	 99.192521  
958.000000	 99.194315  
957.000000	 99.196845  
956.000000	 99.201267  
955.000000	 99.206367  
954.000000	 99.211292  
953.000000	 99.216530  
952.000000	 99.221725  
951.000000	 99.224577  
950.000000	 99.223284  
949.000000	 99.219257  
948.000000	 99.216352  
947.000000	 99.217812  
946.000000	 99.224479  
945.000000	 99.235264  
944.000000	 99.247910  
943.000000	 99.259034  
942.000000	 99.264913  
941.000000	 99.263888  
940.000000	 99.258235  
939.000000	 99.252843  
938.000000	 99.251341  
937.000000	 99.253507  
936.000000	 99.256355  
935.000000	 99.256975  
934.000000	 99.253916  
933.000000	 99.247066  
932.000000	 99.238013  
931.000000	 99.230560  
930.000000	 99.228898  
929.000000	 99.233911  
928.000000	 99.242046  
927.000000	 99.248815  
926.000000	 99.252849  
925.000000	 99.255512  
924.000000	 99.257133  
923.000000	 99.255429  
922.000000	 99.248233  
921.000000	 99.236675  
920.000000	 99.224862  
919.000000	 99.216835  
918.000000	 99.213980  
917.000000	 99.214559  
916.000000	 99.215036  
915.000000	 99.212419  
914.000000	 99.206526  
913.000000	 99.200186  
912.000000	 99.196429  
911.000000	 99.194996  
910.000000	 99.192076  
909.000000	 99.184182  
908.000000	 99.172013  
907.000000	 99.159666  
906.000000	 99.149902  
905.000000	 99.141223  
904.000000	 99.130586  
903.000000	 99.118498  
902.000000	 99.109903  
901.000000	 99.109474  
900.000000	 99.117007  
899.000000	 99.128028  
898.000000	 99.138198  
897.000000	 99.145328  
896.000000	 99.147540  
895.000000	 99.142257  
894.000000	 99.129707  
893.000000	 99.116743  
892.000000	 99.114033  
891.000000	 99.127308  
890.000000	 99.151866  
889.000000	 99.177019  
888.000000	 99.195236  
887.000000	 99.205517  
886.000000	 99.209346  
885.000000	 99.207041  
884.000000	 99.199439  
883.000000	 99.190302  
882.000000	 99.183931  
881.000000	 99.181553  
880.000000	 99.183052  
879.000000	 99.191103  
878.000000	 99.208885  
877.000000	 99.232412  
876.000000	 99.249429  
875.000000	 99.249556  
874.000000	 99.234402  
873.000000	 99.215532  
872.000000	 99.204048  
871.000000	 99.203991  
870.000000	 99.212706  
869.000000	 99.223368  
868.000000	 99.228247  
867.000000	 99.224220  
866.000000	 99.216660  
865.000000	 99.215375  
864.000000	 99.225640  
863.000000	 99.244640  
862.000000	 99.266199  
861.000000	 99.285878  
860.000000	 99.300921  
859.000000	 99.309360  
858.000000	 99.312555  
857.000000	 99.316501  
856.000000	 99.326927  
855.000000	 99.343003  
854.000000	 99.357840  
853.000000	 99.365231  
852.000000	 99.364690  
851.000000	 99.360362  
850.000000	 99.356680  
849.000000	 99.355216  
848.000000	 99.354716  
847.000000	 99.353768  
846.000000	 99.353305  
845.000000	 99.356036  
844.000000	 99.363556  
843.000000	 99.374634  
842.000000	 99.385960  
841.000000	 99.393586  
840.000000	 99.394697  
839.000000	 99.390373  
838.000000	 99.386143  
837.000000	 99.386516  
836.000000	 99.388837  
835.000000	 99.386743  
834.000000	 99.380648  
833.000000	 99.379145  
832.000000	 99.386019  
831.000000	 99.391160  
830.000000	 99.382173  
829.000000	 99.363520  
828.000000	 99.354807  
827.000000	 99.366817  
826.000000	 99.386573  
825.000000	 99.392747  
824.000000	 99.381242  
823.000000	 99.367351  
822.000000	 99.364714  
821.000000	 99.370998  
820.000000	 99.375415  
819.000000	 99.372911  
818.000000	 99.367707  
817.000000	 99.366411  
816.000000	 99.370554  
815.000000	 99.375179  
814.000000	 99.373424  
813.000000	 99.362907  
812.000000	 99.348310  
811.000000	 99.337502  
810.000000	 99.334634  
809.000000	 99.337221  
808.000000	 99.339983  
807.000000	 99.339863  
806.000000	 99.335911  
805.000000	 99.325557  
804.000000	 99.304942  
803.000000	 99.275190  
802.000000	 99.245653  
801.000000	 99.227209  
800.000000	 99.222360  
799.000000	 99.224474  
798.000000	 99.226461  
797.000000	 99.227189  
796.000000	 99.228750  
795.000000	 99.231552  
794.000000	 99.235630  
793.000000	 99.244186  
792.000000	 99.260189  
791.000000	 99.278482  
790.000000	 99.286155  
789.000000	 99.275087  
788.000000	 99.252629  
787.000000	 99.235870  
786.000000	 99.234715  
785.000000	 99.243327  
784.000000	 99.249365  
783.000000	 99.248288  
782.000000	 99.245529  
781.000000	 99.247036  
780.000000	 99.252245  
779.000000	 99.256399  
778.000000	 99.255850  
777.000000	 99.250343  
776.000000	 99.243332  
775.000000	 99.241039  
774.000000	 99.247728  
773.000000	 99.260411  
772.000000	 99.271333  
771.000000	 99.276725  
770.000000	 99.279444  
769.000000	 99.281897  
768.000000	 99.281898  
767.000000	 99.279042  
766.000000	 99.279560  
765.000000	 99.288723  
764.000000	 99.301929  
763.000000	 99.309527  
762.000000	 99.308394  
761.000000	 99.302992  
760.000000	 99.297127  
759.000000	 99.291199  
758.000000	 99.286147  
757.000000	 99.283529  
756.000000	 99.282333  
755.000000	 99.281795  
754.000000	 99.286176  
753.000000	 99.299810  
752.000000	 99.318448  
751.000000	 99.332300  
750.000000	 99.336989  
749.000000	 99.335257  
748.000000	 99.329424  
747.000000	 99.320488  
746.000000	 99.314184  
745.000000	 99.317147  
744.000000	 99.324767  
743.000000	 99.323649  
742.000000	 99.310101  
741.000000	 99.296153  
740.000000	 99.292757  
739.000000	 99.296397  
738.000000	 99.297600  
737.000000	 99.293968  
736.000000	 99.288304  
735.000000	 99.282381  
734.000000	 99.279939  
733.000000	 99.287736  
732.000000	 99.305705  
731.000000	 99.321983  
730.000000	 99.324937  
729.000000	 99.313253  
728.000000	 99.295344  
727.000000	 99.282746  
726.000000	 99.280726  
725.000000	 99.286689  
724.000000	 99.295022  
723.000000	 99.302196  
722.000000	 99.307814  
721.000000	 99.311346  
720.000000	 99.310202  
719.000000	 99.302662  
718.000000	 99.291146  
717.000000	 99.281665  
716.000000	 99.278517  
715.000000	 99.281380  
714.000000	 99.287209  
713.000000	 99.290785  
712.000000	 99.287145  
711.000000	 99.277032  
710.000000	 99.268896  
709.000000	 99.268568  
708.000000	 99.270751  
707.000000	 99.270233  
706.000000	 99.268932  
705.000000	 99.270714  
704.000000	 99.275439  
703.000000	 99.277293  
702.000000	 99.273714  
701.000000	 99.270030  
700.000000	 99.268161  
699.000000	 99.266958  
698.000000	 99.266008  
697.000000	 99.264684  
696.000000	 99.260289  
695.000000	 99.245182  
694.000000	 99.222304  
693.000000	 99.209746  
692.000000	 99.217617  
691.000000	 99.240156  
690.000000	 99.264796  
689.000000	 99.286308  
688.000000	 99.306759  
687.000000	 99.323556  
686.000000	 99.337087  
685.000000	 99.353246  
684.000000	 99.365897  
683.000000	 99.360896  
682.000000	 99.341451  
681.000000	 99.331108  
680.000000	 99.341006  
679.000000	 99.357205  
678.000000	 99.366052  
677.000000	 99.354799  
676.000000	 99.326363  
675.000000	 99.301048  
674.000000	 99.306543  
673.000000	 99.357958  
672.000000	 99.460930  
671.000000	 99.631082  
670.000000	 99.906753  
669.000000	 100.268335 
668.000000	 100.438095 
667.000000	 100.191221 
666.000000	 99.834267  
665.000000	 99.572080  
664.000000	 99.398259  
663.000000	 99.298435  
662.000000	 99.262431  
661.000000	 99.260178  
660.000000	 99.270369  
659.000000	 99.292453  
658.000000	 99.313311  
657.000000	 99.288538  
656.000000	 99.220554  
655.000000	 99.175467  
654.000000	 99.186317  
653.000000	 99.206406  
652.000000	 99.193890  
651.000000	 99.164786  
650.000000	 99.144594  

