4000.000000	99.682101 
3999.000000	99.682297 
3998.000000	99.682332 
3997.000000	99.681969 
3996.000000	99.681165 
3995.000000	99.680182 
3994.000000	99.679476 
3993.000000	99.679411 
3992.000000	99.679986 
3991.000000	99.680818 
3990.000000	99.681417 
3989.000000	99.681574 
3988.000000	99.681465 
3987.000000	99.681427 
3986.000000	99.681624 
3985.000000	99.681908 
3984.000000	99.681976 
3983.000000	99.681625 
3982.000000	99.680883 
3981.000000	99.679928 
3980.000000	99.678906 
3979.000000	99.677880 
3978.000000	99.677005 
3977.000000	99.676665 
3976.000000	99.677259 
3975.000000	99.678845 
3974.000000	99.680967 
3973.000000	99.682807 
3972.000000	99.683708 
3971.000000	99.683573 
3970.000000	99.682791 
3969.000000	99.681929 
3968.000000	99.681380 
3967.000000	99.681188 
3966.000000	99.681200 
3965.000000	99.681287 
3964.000000	99.681386 
3963.000000	99.681356 
3962.000000	99.680957 
3961.000000	99.680077 
3960.000000	99.678939 
3959.000000	99.678003 
3958.000000	99.677611 
3957.000000	99.677726 
3956.000000	99.678055 
3955.000000	99.678338 
3954.000000	99.678520 
3953.000000	99.678649 
3952.000000	99.678703 
3951.000000	99.678628 
3950.000000	99.678454 
3949.000000	99.678307 
3948.000000	99.678268 
3947.000000	99.678275 
3946.000000	99.678234 
3945.000000	99.678183 
3944.000000	99.678245 
3943.000000	99.678413 
3942.000000	99.678500 
3941.000000	99.678342 
3940.000000	99.677919 
3939.000000	99.677267 
3938.000000	99.676410 
3937.000000	99.675442 
3936.000000	99.674662 
3935.000000	99.674461 
3934.000000	99.675029 
3933.000000	99.676191 
3932.000000	99.677429 
3931.000000	99.678174 
3930.000000	99.678141 
3929.000000	99.677446 
3928.000000	99.676560 
3927.000000	99.676012 
3926.000000	99.676014 
3925.000000	99.676313 
3924.000000	99.676426 
3923.000000	99.676134 
3922.000000	99.675624 
3921.000000	99.675240 
3920.000000	99.675225 
3919.000000	99.675628 
3918.000000	99.676298 
3917.000000	99.676937 
3916.000000	99.677280 
3915.000000	99.677306 
3914.000000	99.677222 
3913.000000	99.677211 
3912.000000	99.677268 
3911.000000	99.677274 
3910.000000	99.677200 
3909.000000	99.677144 
3908.000000	99.677205 
3907.000000	99.677271 
3906.000000	99.676984 
3905.000000	99.675974 
3904.000000	99.674195 
3903.000000	99.672162 
3902.000000	99.670720 
3901.000000	99.670344 
3900.000000	99.670868 
3899.000000	99.671690 
3898.000000	99.672256 
3897.000000	99.672421 
3896.000000	99.672275 
3895.000000	99.671939 
3894.000000	99.671537 
3893.000000	99.671164 
3892.000000	99.670813 
3891.000000	99.670393 
3890.000000	99.669928 
3889.000000	99.669599 
3888.000000	99.669524 
3887.000000	99.669633 
3886.000000	99.669698 
3885.000000	99.669575 
3884.000000	99.669381 
3883.000000	99.669333 
3882.000000	99.669479 
3881.000000	99.669659 
3880.000000	99.669689 
3879.000000	99.669572 
3878.000000	99.669474 
3877.000000	99.669517 
3876.000000	99.669686 
3875.000000	99.669857 
3874.000000	99.669910 
3873.000000	99.669855 
3872.000000	99.669782 
3871.000000	99.669768 
3870.000000	99.669819 
3869.000000	99.669909 
3868.000000	99.670035 
3867.000000	99.670205 
3866.000000	99.670409 
3865.000000	99.670632 
3864.000000	99.670868 
3863.000000	99.671122 
3862.000000	99.671401 
3861.000000	99.671707 
3860.000000	99.672032 
3859.000000	99.672360 
3858.000000	99.672674 
3857.000000	99.672961 
3856.000000	99.673221 
3855.000000	99.673465 
3854.000000	99.673719 
3853.000000	99.673988 
3852.000000	99.674287 
3851.000000	99.674628 
3850.000000	99.674995 
3849.000000	99.675361 
3848.000000	99.675707 
3847.000000	99.676025 
3846.000000	99.676323 
3845.000000	99.676611 
3844.000000	99.676895 
3843.000000	99.677178 
3842.000000	99.677460 
3841.000000	99.677736 
3840.000000	99.677997 
3839.000000	99.678237 
3838.000000	99.678457 
3837.000000	99.678666 
3836.000000	99.678880 
3835.000000	99.679108 
3834.000000	99.679356 
3833.000000	99.679615 
3832.000000	99.679871 
3831.000000	99.680110 
3830.000000	99.680321 
3829.000000	99.680505 
3828.000000	99.680667 
3827.000000	99.680814 
3826.000000	99.680949 
3825.000000	99.681071 
3824.000000	99.681185 
3823.000000	99.681297 
3822.000000	99.681407 
3821.000000	99.681514 
3820.000000	99.681614 
3819.000000	99.681709 
3818.000000	99.681797 
3817.000000	99.681875 
3816.000000	99.681937 
3815.000000	99.681979 
3814.000000	99.682009 
3813.000000	99.682035 
3812.000000	99.682063 
3811.000000	99.682092 
3810.000000	99.682116 
3809.000000	99.682125 
3808.000000	99.682113 
3807.000000	99.682080 
3806.000000	99.682027 
3805.000000	99.681960 
3804.000000	99.681887 
3803.000000	99.681808 
3802.000000	99.681721 
3801.000000	99.681622 
3800.000000	99.681511 
3799.000000	99.681394 
3798.000000	99.681275 
3797.000000	99.681154 
3796.000000	99.681027 
3795.000000	99.680895 
3794.000000	99.680759 
3793.000000	99.680619 
3792.000000	99.680477 
3791.000000	99.680332 
3790.000000	99.680183 
3789.000000	99.680038 
3788.000000	99.679908 
3787.000000	99.679802 
3786.000000	99.679717 
3785.000000	99.679633 
3784.000000	99.679522 
3783.000000	99.679378 
3782.000000	99.679236 
3781.000000	99.679139 
3780.000000	99.679070 
3779.000000	99.678943 
3778.000000	99.678713 
3777.000000	99.678426 
3776.000000	99.678115 
3775.000000	99.677766 
3774.000000	99.677383 
3773.000000	99.677047 
3772.000000	99.676866 
3771.000000	99.676824 
3770.000000	99.676747 
3769.000000	99.676485 
3768.000000	99.676105 
3767.000000	99.675764 
3766.000000	99.675497 
3765.000000	99.675208 
3764.000000	99.674840 
3763.000000	99.674469 
3762.000000	99.674195 
3761.000000	99.674035 
3760.000000	99.673937 
3759.000000	99.673872 
3758.000000	99.673896 
3757.000000	99.674051 
3756.000000	99.674269 
3755.000000	99.674407 
3754.000000	99.674337 
3753.000000	99.674036 
3752.000000	99.673610 
3751.000000	99.673108 
3750.000000	99.672476 
3749.000000	99.671789 
3748.000000	99.671268 
3747.000000	99.671046 
3746.000000	99.670957 
3745.000000	99.670543 
3744.000000	99.669503 
3743.000000	99.668359 
3742.000000	99.667808 
3741.000000	99.667657 
3740.000000	99.667150 
3739.000000	99.665812 
3738.000000	99.664033 
3737.000000	99.662916 
3736.000000	99.663250 
3735.000000	99.664701 
3734.000000	99.665940 
3733.000000	99.665882 
3732.000000	99.664388 
3731.000000	99.662099 
3730.000000	99.659849 
3729.000000	99.658145 
3728.000000	99.657128 
3727.000000	99.656583 
3726.000000	99.655938 
3725.000000	99.654756 
3724.000000	99.653203 
3723.000000	99.652012 
3722.000000	99.651771 
3721.000000	99.652398 
3720.000000	99.653123 
3719.000000	99.652815 
3718.000000	99.650726 
3717.000000	99.646951 
3716.000000	99.642476 
3715.000000	99.638398 
3714.000000	99.635001 
3713.000000	99.631948 
3712.000000	99.629031 
3711.000000	99.626686 
3710.000000	99.625498 
3709.000000	99.625264 
3708.000000	99.625017 
3707.000000	99.623894 
3706.000000	99.621978 
3705.000000	99.620188 
3704.000000	99.619245 
3703.000000	99.618545 
3702.000000	99.616180 
3701.000000	99.610851 
3700.000000	99.603620 
3699.000000	99.596953 
3698.000000	99.592223 
3697.000000	99.588801 
3696.000000	99.585271 
3695.000000	99.581076 
3694.000000	99.576924 
3693.000000	99.573942 
3692.000000	99.572640 
3691.000000	99.572536 
3690.000000	99.572047 
3689.000000	99.569327 
3688.000000	99.564195 
3687.000000	99.558461 
3686.000000	99.553975 
3685.000000	99.551306 
3684.000000	99.549903 
3683.000000	99.548815 
3682.000000	99.547260 
3681.000000	99.544330 
3680.000000	99.538765 
3679.000000	99.530236 
3678.000000	99.520811 
3677.000000	99.514624 
3676.000000	99.513700 
3675.000000	99.514354 
3674.000000	99.512702 
3673.000000	99.509718 
3672.000000	99.507920 
3671.000000	99.509010 
3670.000000	99.512179 
3669.000000	99.514837 
3668.000000	99.516547 
3667.000000	99.518910 
3666.000000	99.522636 
3665.000000	99.526700 
3664.000000	99.529338 
3663.000000	99.529461 
3662.000000	99.527347 
3661.000000	99.524035 
3660.000000	99.520626 
3659.000000	99.518400 
3658.000000	99.518679 
3657.000000	99.521487 
3656.000000	99.524452 
3655.000000	99.525181 
3654.000000	99.523828 
3653.000000	99.522184 
3652.000000	99.521435 
3651.000000	99.521496 
3650.000000	99.521568 
3649.000000	99.521597 
3648.000000	99.522729 
3647.000000	99.525561 
3646.000000	99.529539 
3645.000000	99.534195 
3644.000000	99.539728 
3643.000000	99.546265 
3642.000000	99.553585 
3641.000000	99.561056 
3640.000000	99.567807 
3639.000000	99.572775 
3638.000000	99.575172 
3637.000000	99.575380 
3636.000000	99.574687 
3635.000000	99.573893 
3634.000000	99.572558 
3633.000000	99.570283 
3632.000000	99.567991 
3631.000000	99.567335 
3630.000000	99.568926 
3629.000000	99.570696 
3628.000000	99.570219 
3627.000000	99.568840 
3626.000000	99.569356 
3625.000000	99.572361 
3624.000000	99.576626 
3623.000000	99.580820 
3622.000000	99.584490 
3621.000000	99.587839 
3620.000000	99.590552 
3619.000000	99.591343 
3618.000000	99.589589 
3617.000000	99.586786 
3616.000000	99.585327 
3615.000000	99.586368 
3614.000000	99.588913 
3613.000000	99.590789 
3612.000000	99.590947 
3611.000000	99.590425 
3610.000000	99.590801 
3609.000000	99.592478 
3608.000000	99.594522 
3607.000000	99.596034 
3606.000000	99.597279 
3605.000000	99.599011 
3604.000000	99.601480 
3603.000000	99.604345 
3602.000000	99.607112 
3601.000000	99.609482 
3600.000000	99.611226 
3599.000000	99.612091 
3598.000000	99.611991 
3597.000000	99.611296 
3596.000000	99.610700 
3595.000000	99.610814 
3594.000000	99.611732 
3593.000000	99.613101 
3592.000000	99.614433 
3591.000000	99.615384 
3590.000000	99.615942 
3589.000000	99.616416 
3588.000000	99.617100 
3587.000000	99.617833 
3586.000000	99.618322 
3585.000000	99.618641 
3584.000000	99.619158 
3583.000000	99.620101 
3582.000000	99.621361 
3581.000000	99.622565 
3580.000000	99.623336 
3579.000000	99.623560 
3578.000000	99.623380 
3577.000000	99.623114 
3576.000000	99.623125 
3575.000000	99.623643 
3574.000000	99.624624 
3573.000000	99.625753 
3572.000000	99.626660 
3571.000000	99.627194 
3570.000000	99.627430 
3569.000000	99.627542 
3568.000000	99.627701 
3567.000000	99.627947 
3566.000000	99.628221 
3565.000000	99.628505 
3564.000000	99.628866 
3563.000000	99.629404 
3562.000000	99.630183 
3561.000000	99.631081 
3560.000000	99.631779 
3559.000000	99.632010 
3558.000000	99.631823 
3557.000000	99.631546 
3556.000000	99.631520 
3555.000000	99.631835 
3554.000000	99.632306 
3553.000000	99.632615 
3552.000000	99.632549 
3551.000000	99.632166 
3550.000000	99.631711 
3549.000000	99.631357 
3548.000000	99.631147 
3547.000000	99.631043 
3546.000000	99.630966 
3545.000000	99.630752 
3544.000000	99.630290 
3543.000000	99.629800 
3542.000000	99.629813 
3541.000000	99.630685 
3540.000000	99.632214 
3539.000000	99.633666 
3538.000000	99.634405 
3537.000000	99.634380 
3536.000000	99.634005 
3535.000000	99.633715 
3534.000000	99.633593 
3533.000000	99.633501 
3532.000000	99.633398 
3531.000000	99.633421 
3530.000000	99.633630 
3529.000000	99.633813 
3528.000000	99.633666 
3527.000000	99.633167 
3526.000000	99.632626 
3525.000000	99.632322 
3524.000000	99.632213 
3523.000000	99.632069 
3522.000000	99.631838 
3521.000000	99.631717 
3520.000000	99.631875 
3519.000000	99.632253 
3518.000000	99.632670 
3517.000000	99.633009 
3516.000000	99.633217 
3515.000000	99.633202 
3514.000000	99.632857 
3513.000000	99.632214 
3512.000000	99.631479 
3511.000000	99.630866 
3510.000000	99.630444 
3509.000000	99.630179 
3508.000000	99.630073 
3507.000000	99.630195 
3506.000000	99.630576 
3505.000000	99.631073 
3504.000000	99.631387 
3503.000000	99.631295 
3502.000000	99.630898 
3501.000000	99.630606 
3500.000000	99.630754 
3499.000000	99.631281 
3498.000000	99.631735 
3497.000000	99.631688 
3496.000000	99.631110 
3495.000000	99.630354 
3494.000000	99.629807 
3493.000000	99.629608 
3492.000000	99.629737 
3491.000000	99.630149 
3490.000000	99.630772 
3489.000000	99.631475 
3488.000000	99.632137 
3487.000000	99.632711 
3486.000000	99.633156 
3485.000000	99.633400 
3484.000000	99.633396 
3483.000000	99.633196 
3482.000000	99.632888 
3481.000000	99.632497 
3480.000000	99.632017 
3479.000000	99.631500 
3478.000000	99.631012 
3477.000000	99.630574 
3476.000000	99.630281 
3475.000000	99.630439 
3474.000000	99.631368 
3473.000000	99.632955 
3472.000000	99.634513 
3471.000000	99.635364 
3470.000000	99.635497 
3469.000000	99.635492 
3468.000000	99.635799 
3467.000000	99.636230 
3466.000000	99.636349 
3465.000000	99.636110 
3464.000000	99.635835 
3463.000000	99.635708 
3462.000000	99.635601 
3461.000000	99.635457 
3460.000000	99.635546 
3459.000000	99.636117 
3458.000000	99.636966 
3457.000000	99.637510 
3456.000000	99.637332 
3455.000000	99.636501 
3454.000000	99.635441 
3453.000000	99.634618 
3452.000000	99.634214 
3451.000000	99.634126 
3450.000000	99.634166 
3449.000000	99.634246 
3448.000000	99.634355 
3447.000000	99.634447 
3446.000000	99.634432 
3445.000000	99.634315 
3444.000000	99.634211 
3443.000000	99.634200 
3442.000000	99.634198 
3441.000000	99.634050 
3440.000000	99.633706 
3439.000000	99.633242 
3438.000000	99.632720 
3437.000000	99.632138 
3436.000000	99.631526 
3435.000000	99.631047 
3434.000000	99.630876 
3433.000000	99.631034 
3432.000000	99.631329 
3431.000000	99.631470 
3430.000000	99.631299 
3429.000000	99.630914 
3428.000000	99.630564 
3427.000000	99.630389 
3426.000000	99.630272 
3425.000000	99.629983 
3424.000000	99.629421 
3423.000000	99.628731 
3422.000000	99.628155 
3421.000000	99.627802 
3420.000000	99.627632 
3419.000000	99.627624 
3418.000000	99.627843 
3417.000000	99.628279 
3416.000000	99.628729 
3415.000000	99.628919 
3414.000000	99.628727 
3413.000000	99.628244 
3412.000000	99.627692 
3411.000000	99.627307 
3410.000000	99.627227 
3409.000000	99.627407 
3408.000000	99.627583 
3407.000000	99.627430 
3406.000000	99.626831 
3405.000000	99.626000 
3404.000000	99.625332 
3403.000000	99.625067 
3402.000000	99.625139 
3401.000000	99.625343 
3400.000000	99.625627 
3399.000000	99.626141 
3398.000000	99.626974 
3397.000000	99.627906 
3396.000000	99.628476 
3395.000000	99.628323 
3394.000000	99.627421 
3393.000000	99.626059 
3392.000000	99.624683 
3391.000000	99.623746 
3390.000000	99.623603 
3389.000000	99.624393 
3388.000000	99.625931 
3387.000000	99.627709 
3386.000000	99.629180 
3385.000000	99.630094 
3384.000000	99.630524 
3383.000000	99.630611 
3382.000000	99.630325 
3381.000000	99.629554 
3380.000000	99.628400 
3379.000000	99.627282 
3378.000000	99.626682 
3377.000000	99.626752 
3376.000000	99.627203 
3375.000000	99.627582 
3374.000000	99.627691 
3373.000000	99.627714 
3372.000000	99.627913 
3371.000000	99.628275 
3370.000000	99.628536 
3369.000000	99.628521 
3368.000000	99.628360 
3367.000000	99.628365 
3366.000000	99.628727 
3365.000000	99.629331 
3364.000000	99.629825 
3363.000000	99.629897 
3362.000000	99.629535 
3361.000000	99.629026 
3360.000000	99.628680 
3359.000000	99.628548 
3358.000000	99.628482 
3357.000000	99.628401 
3356.000000	99.628400 
3355.000000	99.628550 
3354.000000	99.628716 
3353.000000	99.628690 
3352.000000	99.628450 
3351.000000	99.628202 
3350.000000	99.628170 
3349.000000	99.628383 
3348.000000	99.628711 
3347.000000	99.628993 
3346.000000	99.629146 
3345.000000	99.629191 
3344.000000	99.629203 
3343.000000	99.629243 
3342.000000	99.629324 
3341.000000	99.629423 
3340.000000	99.629513 
3339.000000	99.629579 
3338.000000	99.629622 
3337.000000	99.629663 
3336.000000	99.629728 
3335.000000	99.629821 
3334.000000	99.629919 
3333.000000	99.630009 
3332.000000	99.630102 
3331.000000	99.630217 
3330.000000	99.630339 
3329.000000	99.630430 
3328.000000	99.630469 
3327.000000	99.630477 
3326.000000	99.630486 
3325.000000	99.630501 
3324.000000	99.630504 
3323.000000	99.630485 
3322.000000	99.630456 
3321.000000	99.630445 
3320.000000	99.630463 
3319.000000	99.630507 
3318.000000	99.630561 
3317.000000	99.630611 
3316.000000	99.630649 
3315.000000	99.630669 
3314.000000	99.630669 
3313.000000	99.630653 
3312.000000	99.630631 
3311.000000	99.630609 
3310.000000	99.630583 
3309.000000	99.630542 
3308.000000	99.630473 
3307.000000	99.630375 
3306.000000	99.630256 
3305.000000	99.630124 
3304.000000	99.629988 
3303.000000	99.629854 
3302.000000	99.629720 
3301.000000	99.629567 
3300.000000	99.629380 
3299.000000	99.629158 
3298.000000	99.628920 
3297.000000	99.628687 
3296.000000	99.628468 
3295.000000	99.628258 
3294.000000	99.628045 
3293.000000	99.627817 
3292.000000	99.627585 
3291.000000	99.627365 
3290.000000	99.627159 
3289.000000	99.626947 
3288.000000	99.626706 
3287.000000	99.626439 
3286.000000	99.626177 
3285.000000	99.625949 
3284.000000	99.625751 
3283.000000	99.625555 
3282.000000	99.625336 
3281.000000	99.625105 
3280.000000	99.624904 
3279.000000	99.624768 
3278.000000	99.624679 
3277.000000	99.624572 
3276.000000	99.624377 
3275.000000	99.624064 
3274.000000	99.623620 
3273.000000	99.623080 
3272.000000	99.622581 
3271.000000	99.622306 
3270.000000	99.622300 
3269.000000	99.622394 
3268.000000	99.622354 
3267.000000	99.622105 
3266.000000	99.621743 
3265.000000	99.621378 
3264.000000	99.621094 
3263.000000	99.621014 
3262.000000	99.621272 
3261.000000	99.621834 
3260.000000	99.622445 
3259.000000	99.622793 
3258.000000	99.622729 
3257.000000	99.622316 
3256.000000	99.621740 
3255.000000	99.621179 
3254.000000	99.620752 
3253.000000	99.620532 
3252.000000	99.620606 
3251.000000	99.621050 
3250.000000	99.621811 
3249.000000	99.622651 
3248.000000	99.623281 
3247.000000	99.623551 
3246.000000	99.623489 
3245.000000	99.623173 
3244.000000	99.622649 
3243.000000	99.621973 
3242.000000	99.621278 
3241.000000	99.620749 
3240.000000	99.620548 
3239.000000	99.620793 
3238.000000	99.621573 
3237.000000	99.622906 
3236.000000	99.624600 
3235.000000	99.626170 
3234.000000	99.627045 
3233.000000	99.626964 
3232.000000	99.626185 
3231.000000	99.625332 
3230.000000	99.624917 
3229.000000	99.625009 
3228.000000	99.625344 
3227.000000	99.625588 
3226.000000	99.625534 
3225.000000	99.625183 
3224.000000	99.624732 
3223.000000	99.624454 
3222.000000	99.624487 
3221.000000	99.624727 
3220.000000	99.624951 
3219.000000	99.625032 
3218.000000	99.625065 
3217.000000	99.625296 
3216.000000	99.625964 
3215.000000	99.627077 
3214.000000	99.628282 
3213.000000	99.629015 
3212.000000	99.628935 
3211.000000	99.628169 
3210.000000	99.627188 
3209.000000	99.626440 
3208.000000	99.626110 
3207.000000	99.626181 
3206.000000	99.626516 
3205.000000	99.626883 
3204.000000	99.627089 
3203.000000	99.627160 
3202.000000	99.627308 
3201.000000	99.627660 
3200.000000	99.628102 
3199.000000	99.628438 
3198.000000	99.628620 
3197.000000	99.628728 
3196.000000	99.628811 
3195.000000	99.628844 
3194.000000	99.628812 
3193.000000	99.628720 
3192.000000	99.628518 
3191.000000	99.628142 
3190.000000	99.627630 
3189.000000	99.627081 
3188.000000	99.626506 
3187.000000	99.625840 
3186.000000	99.625155 
3185.000000	99.624757 
3184.000000	99.624913 
3183.000000	99.625537 
3182.000000	99.626239 
3181.000000	99.626764 
3180.000000	99.627289 
3179.000000	99.628183 
3178.000000	99.629416 
3177.000000	99.630303 
3176.000000	99.630104 
3175.000000	99.628868 
3174.000000	99.627583 
3173.000000	99.627212 
3172.000000	99.627586 
3171.000000	99.627612 
3170.000000	99.626584 
3169.000000	99.625015 
3168.000000	99.624003 
3167.000000	99.623960 
3166.000000	99.624345 
3165.000000	99.624461 
3164.000000	99.624225 
3163.000000	99.624028 
3162.000000	99.624143 
3161.000000	99.624483 
3160.000000	99.624831 
3159.000000	99.625066 
3158.000000	99.625115 
3157.000000	99.624863 
3156.000000	99.624221 
3155.000000	99.623253 
3154.000000	99.622116 
3153.000000	99.620833 
3152.000000	99.619286 
3151.000000	99.617551 
3150.000000	99.616192 
3149.000000	99.615944 
3148.000000	99.617022 
3147.000000	99.618829 
3146.000000	99.620436 
3145.000000	99.621348 
3144.000000	99.621723 
3143.000000	99.621974 
3142.000000	99.622324 
3141.000000	99.622703 
3140.000000	99.622888 
3139.000000	99.622743 
3138.000000	99.622372 
3137.000000	99.622089 
3136.000000	99.622176 
3135.000000	99.622662 
3134.000000	99.623347 
3133.000000	99.623963 
3132.000000	99.624292 
3131.000000	99.624223 
3130.000000	99.623836 
3129.000000	99.623439 
3128.000000	99.623368 
3127.000000	99.623710 
3126.000000	99.624249 
3125.000000	99.624654 
3124.000000	99.624721 
3123.000000	99.624458 
3122.000000	99.624041 
3121.000000	99.623727 
3120.000000	99.623688 
3119.000000	99.623898 
3118.000000	99.624187 
3117.000000	99.624425 
3116.000000	99.624623 
3115.000000	99.624849 
3114.000000	99.625106 
3113.000000	99.625322 
3112.000000	99.625444 
3111.000000	99.625502 
3110.000000	99.625572 
3109.000000	99.625694 
3108.000000	99.625843 
3107.000000	99.625971 
3106.000000	99.626048 
3105.000000	99.626074 
3104.000000	99.626062 
3103.000000	99.626055 
3102.000000	99.626087 
3101.000000	99.626149 
3100.000000	99.626207 
3099.000000	99.626282 
3098.000000	99.626451 
3097.000000	99.626767 
3096.000000	99.627171 
3095.000000	99.627478 
3094.000000	99.627482 
3093.000000	99.627099 
3092.000000	99.626459 
3091.000000	99.625829 
3090.000000	99.625455 
3089.000000	99.625485 
3088.000000	99.625918 
3087.000000	99.626515 
3086.000000	99.626889 
3085.000000	99.626846 
3084.000000	99.626566 
3083.000000	99.626314 
3082.000000	99.626081 
3081.000000	99.625713 
3080.000000	99.625326 
3079.000000	99.625342 
3078.000000	99.626110 
3077.000000	99.627630 
3076.000000	99.629537 
3075.000000	99.631109 
3074.000000	99.631422 
3073.000000	99.629894 
3072.000000	99.626818 
3071.000000	99.623192 
3070.000000	99.619986 
3069.000000	99.617702 
3068.000000	99.616485 
3067.000000	99.616362 
3066.000000	99.617368 
3065.000000	99.619636 
3064.000000	99.623137 
3063.000000	99.626943 
3062.000000	99.629068 
3061.000000	99.627777 
3060.000000	99.623253 
3059.000000	99.617699 
3058.000000	99.613693 
3057.000000	99.612672 
3056.000000	99.614624 
3055.000000	99.618302 
3054.000000	99.621510 
3053.000000	99.622067 
3052.000000	99.619277 
3051.000000	99.614384 
3050.000000	99.609489 
3049.000000	99.606225 
3048.000000	99.605302 
3047.000000	99.606323 
3046.000000	99.607467 
3045.000000	99.606207 
3044.000000	99.601521 
3043.000000	99.595340 
3042.000000	99.591044 
3041.000000	99.590265 
3040.000000	99.591507 
3039.000000	99.591879 
3038.000000	99.589581 
3037.000000	99.584685 
3036.000000	99.578278 
3035.000000	99.571421 
3034.000000	99.564723 
3033.000000	99.558296 
3032.000000	99.551814 
3031.000000	99.544726 
3030.000000	99.536721 
3029.000000	99.528241 
3028.000000	99.520502 
3027.000000	99.514693 
3026.000000	99.510739 
3025.000000	99.506872 
3024.000000	99.500827 
3023.000000	99.491743 
3022.000000	99.480783 
3021.000000	99.469638 
3020.000000	99.458489 
3019.000000	99.445873 
3018.000000	99.430881 
3017.000000	99.415002 
3016.000000	99.401030 
3015.000000	99.390041 
3014.000000	99.380321 
3013.000000	99.369704 
3012.000000	99.358260 
3011.000000	99.347824 
3010.000000	99.339226 
3009.000000	99.331057 
3008.000000	99.321252 
3007.000000	99.309041 
3006.000000	99.295085 
3005.000000	99.280473 
3004.000000	99.266100 
3003.000000	99.252593 
3002.000000	99.240240 
3001.000000	99.229063 
3000.000000	99.219143 
2999.000000	99.210700 
2998.000000	99.203755 
2997.000000	99.197992 
2996.000000	99.192913 
2995.000000	99.187447 
2994.000000	99.179210 
2993.000000	99.165114 
2992.000000	99.143926 
2991.000000	99.118460 
2990.000000	99.094763 
2989.000000	99.078674 
2988.000000	99.072850 
2987.000000	99.076150 
2986.000000	99.084761 
2985.000000	99.094121 
2984.000000	99.100784 
2983.000000	99.103396 
2982.000000	99.102418 
2981.000000	99.099299 
2980.000000	99.095894 
2979.000000	99.093965 
2978.000000	99.094308 
2977.000000	99.095979 
2976.000000	99.096676 
2975.000000	99.094423 
2974.000000	99.089335 
2973.000000	99.083943 
2972.000000	99.081604 
2971.000000	99.084069 
2970.000000	99.090256 
2969.000000	99.097418 
2968.000000	99.103643 
2967.000000	99.109137 
2966.000000	99.115112 
2965.000000	99.121954 
2964.000000	99.128835 
2963.000000	99.134795 
2962.000000	99.139744 
2961.000000	99.144388 
2960.000000	99.149405 
2959.000000	99.154727 
2958.000000	99.159622 
2957.000000	99.163590 
2956.000000	99.167135 
2955.000000	99.171439 
2954.000000	99.177344 
2953.000000	99.184911 
2952.000000	99.193746 
2951.000000	99.203019 
2950.000000	99.211130 
2949.000000	99.216324 
2948.000000	99.218195 
2947.000000	99.218084 
2946.000000	99.217652 
2945.000000	99.217617 
2944.000000	99.218161 
2943.000000	99.219656 
2942.000000	99.221955 
2941.000000	99.223520 
2940.000000	99.222580 
2939.000000	99.219417 
2938.000000	99.216573 
2937.000000	99.216416 
2936.000000	99.219009 
2935.000000	99.222400 
2934.000000	99.224353 
2933.000000	99.223544 
2932.000000	99.219821 
2931.000000	99.213972 
2930.000000	99.207377 
2929.000000	99.201679 
2928.000000	99.198296 
2927.000000	99.197503 
2926.000000	99.197753 
2925.000000	99.196638 
2924.000000	99.193248 
2923.000000	99.189251 
2922.000000	99.186963 
2921.000000	99.186619 
2920.000000	99.186398 
2919.000000	99.184859 
2918.000000	99.182412 
2917.000000	99.180230 
2916.000000	99.178656 
2915.000000	99.177105 
2914.000000	99.175011 
2913.000000	99.172534 
2912.000000	99.170612 
2911.000000	99.170396 
2910.000000	99.172147 
2909.000000	99.174583 
2908.000000	99.175769 
2907.000000	99.174761 
2906.000000	99.171823 
2905.000000	99.167088 
2904.000000	99.160104 
2903.000000	99.151545 
2902.000000	99.144673 
2901.000000	99.143987 
2900.000000	99.151543 
2899.000000	99.165222 
2898.000000	99.179765 
2897.000000	99.190102 
2896.000000	99.194396 
2895.000000	99.194577 
2894.000000	99.194391 
2893.000000	99.196542 
2892.000000	99.201337 
2891.000000	99.207438 
2890.000000	99.213291 
2889.000000	99.217826 
2888.000000	99.220647 
2887.000000	99.222345 
2886.000000	99.224404 
2885.000000	99.228085 
2884.000000	99.233424 
2883.000000	99.239748 
2882.000000	99.246976 
2881.000000	99.255651 
2880.000000	99.265607 
2879.000000	99.275368 
2878.000000	99.283426 
2877.000000	99.289764 
2876.000000	99.295583 
2875.000000	99.301698 
2874.000000	99.307707 
2873.000000	99.312789 
2872.000000	99.316823 
2871.000000	99.320386 
2870.000000	99.323949 
2869.000000	99.327664 
2868.000000	99.332013 
2867.000000	99.338040 
2866.000000	99.346326 
2865.000000	99.355897 
2864.000000	99.364767 
2863.000000	99.371775 
2862.000000	99.377366 
2861.000000	99.382456 
2860.000000	99.387203 
2859.000000	99.391476 
2858.000000	99.395911 
2857.000000	99.401550 
2856.000000	99.408462 
2855.000000	99.415626 
2854.000000	99.422263 
2853.000000	99.428624 
2852.000000	99.435235 
2851.000000	99.442041 
2850.000000	99.448779 
2849.000000	99.455653 
2848.000000	99.463071 
2847.000000	99.470956 
2846.000000	99.478778 
2845.000000	99.486034 
2844.000000	99.492261 
2843.000000	99.496881 
2842.000000	99.499782 
2841.000000	99.502104 
2840.000000	99.505729 
2839.000000	99.511507 
2838.000000	99.518307 
2837.000000	99.524189 
2836.000000	99.528272 
2835.000000	99.531224 
2834.000000	99.534230 
2833.000000	99.537881 
2832.000000	99.541858 
2831.000000	99.545181 
2830.000000	99.546644 
2829.000000	99.545632 
2828.000000	99.542954 
2827.000000	99.540718 
2826.000000	99.540902 
2825.000000	99.543831 
2824.000000	99.548118 
2823.000000	99.551931 
2822.000000	99.554306 
2821.000000	99.555489 
2820.000000	99.556408 
2819.000000	99.557805 
2818.000000	99.559579 
2817.000000	99.560966 
2816.000000	99.561514 
2815.000000	99.561749 
2814.000000	99.562538 
2813.000000	99.563879 
2812.000000	99.564877 
2811.000000	99.565122 
2810.000000	99.565510 
2809.000000	99.567177 
2808.000000	99.569909 
2807.000000	99.572189 
2806.000000	99.572840 
2805.000000	99.572153 
2804.000000	99.571396 
2803.000000	99.571587 
2802.000000	99.572833 
2801.000000	99.574472 
2800.000000	99.575652 
2799.000000	99.576017 
2798.000000	99.575991 
2797.000000	99.576216 
2796.000000	99.576680 
2795.000000	99.576761 
2794.000000	99.576213 
2793.000000	99.575683 
2792.000000	99.575910 
2791.000000	99.576765 
2790.000000	99.577519 
2789.000000	99.577886 
2788.000000	99.578325 
2787.000000	99.579293 
2786.000000	99.580526 
2785.000000	99.581245 
2784.000000	99.580959 
2783.000000	99.579915 
2782.000000	99.578904 
2781.000000	99.578619 
2780.000000	99.579247 
2779.000000	99.580506 
2778.000000	99.581911 
2777.000000	99.583116 
2776.000000	99.584069 
2775.000000	99.584912 
2774.000000	99.585770 
2773.000000	99.586641 
2772.000000	99.587455 
2771.000000	99.588171 
2770.000000	99.588788 
2769.000000	99.589257 
2768.000000	99.589455 
2767.000000	99.589337 
2766.000000	99.589080 
2765.000000	99.588938 
2764.000000	99.588915 
2763.000000	99.588723 
2762.000000	99.588167 
2761.000000	99.587450 
2760.000000	99.586999 
2759.000000	99.587038 
2758.000000	99.587495 
2757.000000	99.588246 
2756.000000	99.589197 
2755.000000	99.590107 
2754.000000	99.590578 
2753.000000	99.590404 
2752.000000	99.589844 
2751.000000	99.589458 
2750.000000	99.589600 
2749.000000	99.590198 
2748.000000	99.590963 
2747.000000	99.591684 
2746.000000	99.592306 
2745.000000	99.592793 
2744.000000	99.593055 
2743.000000	99.593038 
2742.000000	99.592840 
2741.000000	99.592722 
2740.000000	99.592910 
2739.000000	99.593391 
2738.000000	99.593956 
2737.000000	99.594423 
2736.000000	99.594793 
2735.000000	99.595153 
2734.000000	99.595521 
2733.000000	99.595841 
2732.000000	99.596092 
2731.000000	99.596314 
2730.000000	99.596558 
2729.000000	99.596840 
2728.000000	99.597159 
2727.000000	99.597508 
2726.000000	99.597868 
2725.000000	99.598227 
2724.000000	99.598586 
2723.000000	99.598954 
2722.000000	99.599343 
2721.000000	99.599750 
2720.000000	99.600156 
2719.000000	99.600535 
2718.000000	99.600873 
2717.000000	99.601180 
2716.000000	99.601478 
2715.000000	99.601778 
2714.000000	99.602082 
2713.000000	99.602388 
2712.000000	99.602696 
2711.000000	99.603008 
2710.000000	99.603322 
2709.000000	99.603634 
2708.000000	99.603941 
2707.000000	99.604240 
2706.000000	99.604529 
2705.000000	99.604812 
2704.000000	99.605089 
2703.000000	99.605365 
2702.000000	99.605641 
2701.000000	99.605915 
2700.000000	99.606182 
2699.000000	99.606442 
2698.000000	99.606693 
2697.000000	99.606937 
2696.000000	99.607175 
2695.000000	99.607407 
2694.000000	99.607631 
2693.000000	99.607846 
2692.000000	99.608057 
2691.000000	99.608264 
2690.000000	99.608470 
2689.000000	99.608675 
2688.000000	99.608877 
2687.000000	99.609079 
2686.000000	99.609282 
2685.000000	99.609488 
2684.000000	99.609696 
2683.000000	99.609902 
2682.000000	99.610098 
2681.000000	99.610280 
2680.000000	99.610447 
2679.000000	99.610605 
2678.000000	99.610763 
2677.000000	99.610930 
2676.000000	99.611111 
2675.000000	99.611305 
2674.000000	99.611507 
2673.000000	99.611711 
2672.000000	99.611910 
2671.000000	99.612104 
2670.000000	99.612294 
2669.000000	99.612483 
2668.000000	99.612670 
2667.000000	99.612858 
2666.000000	99.613047 
2665.000000	99.613239 
2664.000000	99.613431 
2663.000000	99.613622 
2662.000000	99.613809 
2661.000000	99.613996 
2660.000000	99.614184 
2659.000000	99.614375 
2658.000000	99.614570 
2657.000000	99.614772 
2656.000000	99.614979 
2655.000000	99.615194 
2654.000000	99.615417 
2653.000000	99.615646 
2652.000000	99.615883 
2651.000000	99.616132 
2650.000000	99.616393 
2649.000000	99.616665 
2648.000000	99.616941 
2647.000000	99.617216 
2646.000000	99.617491 
2645.000000	99.617772 
2644.000000	99.618058 
2643.000000	99.618354 
2642.000000	99.618660 
2641.000000	99.618952 
2640.000000	99.619207 
2639.000000	99.619447 
2638.000000	99.619734 
2637.000000	99.620112 
2636.000000	99.620535 
2635.000000	99.620907 
2634.000000	99.621162 
2633.000000	99.621289 
2632.000000	99.621315 
2631.000000	99.621345 
2630.000000	99.621570 
2629.000000	99.622070 
2628.000000	99.622631 
2627.000000	99.622923 
2626.000000	99.622881 
2625.000000	99.622750 
2624.000000	99.622737 
2623.000000	99.622810 
2622.000000	99.622891 
2621.000000	99.623034 
2620.000000	99.623276 
2619.000000	99.623511 
2618.000000	99.623682 
2617.000000	99.623995 
2616.000000	99.624743 
2615.000000	99.625978 
2614.000000	99.627449 
2613.000000	99.628798 
2612.000000	99.629766 
2611.000000	99.630267 
2610.000000	99.630378 
2609.000000	99.630234 
2608.000000	99.629908 
2607.000000	99.629474 
2606.000000	99.629194 
2605.000000	99.629450 
2604.000000	99.630334 
2603.000000	99.631351 
2602.000000	99.631740 
2601.000000	99.631190 
2600.000000	99.630199 
2599.000000	99.629622 
2598.000000	99.629803 
2597.000000	99.630223 
2596.000000	99.630065 
2595.000000	99.629043 
2594.000000	99.627600 
2593.000000	99.626448 
2592.000000	99.626000 
2591.000000	99.626271 
2590.000000	99.627096 
2589.000000	99.628195 
2588.000000	99.629136 
2587.000000	99.629477 
2586.000000	99.629111 
2585.000000	99.628389 
2584.000000	99.627826 
2583.000000	99.627649 
2582.000000	99.627694 
2581.000000	99.627701 
2580.000000	99.627606 
2579.000000	99.627500 
2578.000000	99.627376 
2577.000000	99.627012 
2576.000000	99.626185 
2575.000000	99.624989 
2574.000000	99.623894 
2573.000000	99.623399 
2572.000000	99.623631 
2571.000000	99.624310 
2570.000000	99.625015 
2569.000000	99.625478 
2568.000000	99.625639 
2567.000000	99.625561 
2566.000000	99.625367 
2565.000000	99.625181 
2564.000000	99.625078 
2563.000000	99.625061 
2562.000000	99.625105 
2561.000000	99.625181 
2560.000000	99.625211 
2559.000000	99.625034 
2558.000000	99.624516 
2557.000000	99.623728 
2556.000000	99.622974 
2555.000000	99.622583 
2554.000000	99.622647 
2553.000000	99.622951 
2552.000000	99.623122 
2551.000000	99.622934 
2550.000000	99.622420 
2549.000000	99.621732 
2548.000000	99.620977 
2547.000000	99.620200 
2546.000000	99.619480 
2545.000000	99.618946 
2544.000000	99.618694 
2543.000000	99.618679 
2542.000000	99.618659 
2541.000000	99.618349 
2540.000000	99.617668 
2539.000000	99.616838 
2538.000000	99.616186 
2537.000000	99.615800 
2536.000000	99.615488 
2535.000000	99.615075 
2534.000000	99.614654 
2533.000000	99.614402 
2532.000000	99.614278 
2531.000000	99.614080 
2530.000000	99.613773 
2529.000000	99.613563 
2528.000000	99.613582 
2527.000000	99.613665 
2526.000000	99.613503 
2525.000000	99.613000 
2524.000000	99.612420 
2523.000000	99.612145 
2522.000000	99.612290 
2521.000000	99.612684 
2520.000000	99.613063 
2519.000000	99.613219 
2518.000000	99.613013 
2517.000000	99.612426 
2516.000000	99.611653 
2515.000000	99.611007 
2514.000000	99.610678 
2513.000000	99.610683 
2512.000000	99.611027 
2511.000000	99.611741 
2510.000000	99.612679 
2509.000000	99.613511 
2508.000000	99.614037 
2507.000000	99.614389 
2506.000000	99.614785 
2505.000000	99.615138 
2504.000000	99.615118 
2503.000000	99.614593 
2502.000000	99.613869 
2501.000000	99.613444 
2500.000000	99.613590 
2499.000000	99.614231 
2498.000000	99.615069 
2497.000000	99.615788 
2496.000000	99.616215 
2495.000000	99.616358 
2494.000000	99.616346 
2493.000000	99.616299 
2492.000000	99.616275 
2491.000000	99.616316 
2490.000000	99.616483 
2489.000000	99.616845 
2488.000000	99.617475 
2487.000000	99.618419 
2486.000000	99.619512 
2485.000000	99.620238 
2484.000000	99.620068 
2483.000000	99.618988 
2482.000000	99.617637 
2481.000000	99.616754 
2480.000000	99.616505 
2479.000000	99.616550 
2478.000000	99.616481 
2477.000000	99.616165 
2476.000000	99.615737 
2475.000000	99.615431 
2474.000000	99.615394 
2473.000000	99.615557 
2472.000000	99.615668 
2471.000000	99.615524 
2470.000000	99.615164 
2469.000000	99.614811 
2468.000000	99.614650 
2467.000000	99.614692 
2466.000000	99.614817 
2465.000000	99.614875 
2464.000000	99.614766 
2463.000000	99.614486 
2462.000000	99.614158 
2461.000000	99.613952 
2460.000000	99.613917 
2459.000000	99.613910 
2458.000000	99.613758 
2457.000000	99.613459 
2456.000000	99.613159 
2455.000000	99.612937 
2454.000000	99.612738 
2453.000000	99.612495 
2452.000000	99.612212 
2451.000000	99.611904 
2450.000000	99.611539 
2449.000000	99.611090 
2448.000000	99.610616 
2447.000000	99.610251 
2446.000000	99.610103 
2445.000000	99.610182 
2444.000000	99.610374 
2443.000000	99.610499 
2442.000000	99.610427 
2441.000000	99.610154 
2440.000000	99.609812 
2439.000000	99.609605 
2438.000000	99.609670 
2437.000000	99.609952 
2436.000000	99.610217 
2435.000000	99.610227 
2434.000000	99.609933 
2433.000000	99.609509 
2432.000000	99.609195 
2431.000000	99.609083 
2430.000000	99.609093 
2429.000000	99.609068 
2428.000000	99.608859 
2427.000000	99.608380 
2426.000000	99.607677 
2425.000000	99.606959 
2424.000000	99.606450 
2423.000000	99.606242 
2422.000000	99.606322 
2421.000000	99.606644 
2420.000000	99.607034 
2419.000000	99.607098 
2418.000000	99.606520 
2417.000000	99.605396 
2416.000000	99.604186 
2415.000000	99.603261 
2414.000000	99.602581 
2413.000000	99.601942 
2412.000000	99.601354 
2411.000000	99.600993 
2410.000000	99.600819 
2409.000000	99.600555 
2408.000000	99.600028 
2407.000000	99.599288 
2406.000000	99.598472 
2405.000000	99.597810 
2404.000000	99.597619 
2403.000000	99.597898 
2402.000000	99.598074 
2401.000000	99.597456 
2400.000000	99.595943 
2399.000000	99.594126 
2398.000000	99.592615 
2397.000000	99.591515 
2396.000000	99.590704 
2395.000000	99.590165 
2394.000000	99.589811 
2393.000000	99.589368 
2392.000000	99.588739 
2391.000000	99.588130 
2390.000000	99.587588 
2389.000000	99.586790 
2388.000000	99.585632 
2387.000000	99.584673 
2386.000000	99.584539 
2385.000000	99.585000 
2384.000000	99.585089 
2383.000000	99.584194 
2382.000000	99.582769 
2381.000000	99.581788 
2380.000000	99.581664 
2379.000000	99.582005 
2378.000000	99.582442 
2377.000000	99.583216 
2376.000000	99.584535 
2375.000000	99.585740 
2374.000000	99.585808 
2373.000000	99.584412 
2372.000000	99.581945 
2371.000000	99.578821 
2370.000000	99.575484 
2369.000000	99.572806 
2368.000000	99.571433 
2367.000000	99.570907 
2366.000000	99.570413 
2365.000000	99.570048 
2364.000000	99.570291 
2363.000000	99.570442 
2362.000000	99.568996 
2361.000000	99.565655 
2360.000000	99.561668 
2359.000000	99.558516 
2358.000000	99.557137 
2357.000000	99.557798 
2356.000000	99.560117 
2355.000000	99.562972 
2354.000000	99.565825 
2353.000000	99.568159 
2352.000000	99.569149 
2351.000000	99.568430 
2350.000000	99.566413 
2349.000000	99.564083 
2348.000000	99.562361 
2347.000000	99.561991 
2346.000000	99.562988 
2345.000000	99.564316 
2344.000000	99.565038 
2343.000000	99.565030 
2342.000000	99.564871 
2341.000000	99.564854 
2340.000000	99.565028 
2339.000000	99.565415 
2338.000000	99.566024 
2337.000000	99.566719 
2336.000000	99.567120 
2335.000000	99.567198 
2334.000000	99.567329 
2333.000000	99.567931 
2332.000000	99.568854 
2331.000000	99.569845 
2330.000000	99.570677 
2329.000000	99.571425 
2328.000000	99.572123 
2327.000000	99.572928 
2326.000000	99.573887 
2325.000000	99.574906 
2324.000000	99.575826 
2323.000000	99.576685 
2322.000000	99.577688 
2321.000000	99.578906 
2320.000000	99.580177 
2319.000000	99.581367 
2318.000000	99.582491 
2317.000000	99.583660 
2316.000000	99.584870 
2315.000000	99.586100 
2314.000000	99.587316 
2313.000000	99.588534 
2312.000000	99.589751 
2311.000000	99.590993 
2310.000000	99.592258 
2309.000000	99.593552 
2308.000000	99.594801 
2307.000000	99.596024 
2306.000000	99.597272 
2305.000000	99.598615 
2304.000000	99.599968 
2303.000000	99.601343 
2302.000000	99.602758 
2301.000000	99.604230 
2300.000000	99.605622 
2299.000000	99.607062 
2298.000000	99.608635 
2297.000000	99.610192 
2296.000000	99.611185 
2295.000000	99.611487 
2294.000000	99.611600 
2293.000000	99.612328 
2292.000000	99.613884 
2291.000000	99.615892 
2290.000000	99.617784 
2289.000000	99.619231 
2288.000000	99.620195 
2287.000000	99.620801 
2286.000000	99.621309 
2285.000000	99.621834 
2284.000000	99.622269 
2283.000000	99.622496 
2282.000000	99.622699 
2281.000000	99.623158 
2280.000000	99.623921 
2279.000000	99.624758 
2278.000000	99.625491 
2277.000000	99.626178 
2276.000000	99.627019 
2275.000000	99.628127 
2274.000000	99.629369 
2273.000000	99.630427 
2272.000000	99.631009 
2271.000000	99.631187 
2270.000000	99.631427 
2269.000000	99.632133 
2268.000000	99.633201 
2267.000000	99.634175 
2266.000000	99.634805 
2265.000000	99.635226 
2264.000000	99.635568 
2263.000000	99.635678 
2262.000000	99.635458 
2261.000000	99.635220 
2260.000000	99.635439 
2259.000000	99.636221 
2258.000000	99.637223 
2257.000000	99.638089 
2256.000000	99.638782 
2255.000000	99.639451 
2254.000000	99.640116 
2253.000000	99.640626 
2252.000000	99.640915 
2251.000000	99.641174 
2250.000000	99.641604 
2249.000000	99.642158 
2248.000000	99.642570 
2247.000000	99.642724 
2246.000000	99.642745 
2245.000000	99.642858 
2244.000000	99.643198 
2243.000000	99.643756 
2242.000000	99.644445 
2241.000000	99.645171 
2240.000000	99.645919 
2239.000000	99.646758 
2238.000000	99.647682 
2237.000000	99.648461 
2236.000000	99.648829 
2235.000000	99.648787 
2234.000000	99.648633 
2233.000000	99.648657 
2232.000000	99.648866 
2231.000000	99.649095 
2230.000000	99.649243 
2229.000000	99.649341 
2228.000000	99.649463 
2227.000000	99.649654 
2226.000000	99.649892 
2225.000000	99.650144 
2224.000000	99.650387 
2223.000000	99.650618 
2222.000000	99.650843 
2221.000000	99.651065 
2220.000000	99.651274 
2219.000000	99.651462 
2218.000000	99.651632 
2217.000000	99.651791 
2216.000000	99.651939 
2215.000000	99.652069 
2214.000000	99.652172 
2213.000000	99.652249 
2212.000000	99.652319 
2211.000000	99.652410 
2210.000000	99.652542 
2209.000000	99.652722 
2208.000000	99.652941 
2207.000000	99.653181 
2206.000000	99.653431 
2205.000000	99.653692 
2204.000000	99.653979 
2203.000000	99.654223 
2202.000000	99.654442 
2201.000000	99.654816 
2200.000000	99.655431 
2199.000000	99.656142 
2198.000000	99.656767 
2197.000000	99.657262 
2196.000000	99.657744 
2195.000000	99.658398 
2194.000000	99.659275 
2193.000000	99.660124 
2192.000000	99.660452 
2191.000000	99.659963 
2190.000000	99.659113 
2189.000000	99.659103 
2188.000000	99.660773 
2187.000000	99.663261 
2186.000000	99.664205 
2185.000000	99.662043 
2184.000000	99.657955 
2183.000000	99.655083 
2182.000000	99.655292 
2181.000000	99.657646 
2180.000000	99.659957 
2179.000000	99.661141 
2178.000000	99.661411 
2177.000000	99.661178 
2176.000000	99.660809 
2175.000000	99.660803 
2174.000000	99.661245 
2173.000000	99.661616 
2172.000000	99.662086 
2171.000000	99.664295 
2170.000000	99.669574 
2169.000000	99.676619 
2168.000000	99.682168 
2167.000000	99.684169 
2166.000000	99.683233 
2165.000000	99.681416 
2164.000000	99.680796 
2163.000000	99.682872 
2162.000000	99.687244 
2161.000000	99.690169 
2160.000000	99.686617 
2159.000000	99.675111 
2158.000000	99.659897 
2157.000000	99.647407 
2156.000000	99.640585 
2155.000000	99.638581 
2154.000000	99.639842 
2153.000000	99.643610 
2152.000000	99.648941 
2151.000000	99.653743 
2150.000000	99.655794 
2149.000000	99.654870 
2148.000000	99.653386 
2147.000000	99.654080 
2146.000000	99.656771 
2145.000000	99.658243 
2144.000000	99.656036 
2143.000000	99.651466 
2142.000000	99.647922 
2141.000000	99.646578 
2140.000000	99.645361 
2139.000000	99.642336 
2138.000000	99.638474 
2137.000000	99.636222 
2136.000000	99.636297 
2135.000000	99.637153 
2134.000000	99.637377 
2133.000000	99.637430 
2132.000000	99.638524 
2131.000000	99.640493 
2130.000000	99.641583 
2129.000000	99.640405 
2128.000000	99.637565 
2127.000000	99.634985 
2126.000000	99.633836 
2125.000000	99.633809 
2124.000000	99.634296 
2123.000000	99.635313 
2122.000000	99.636927 
2121.000000	99.638537 
2120.000000	99.639494 
2119.000000	99.640044 
2118.000000	99.640947 
2117.000000	99.642380 
2116.000000	99.643709 
2115.000000	99.644388 
2114.000000	99.644493 
2113.000000	99.644376 
2112.000000	99.644223 
2111.000000	99.644127 
2110.000000	99.644314 
2109.000000	99.644942 
2108.000000	99.645780 
2107.000000	99.646312 
2106.000000	99.646260 
2105.000000	99.645849 
2104.000000	99.645615 
2103.000000	99.645955 
2102.000000	99.646820 
2101.000000	99.647792 
2100.000000	99.648444 
2099.000000	99.648703 
2098.000000	99.648849 
2097.000000	99.649232 
2096.000000	99.649954 
2095.000000	99.650853 
2094.000000	99.651688 
2093.000000	99.652324 
2092.000000	99.652773 
2091.000000	99.653172 
2090.000000	99.653724 
2089.000000	99.654558 
2088.000000	99.655564 
2087.000000	99.656403 
2086.000000	99.656768 
2085.000000	99.656700 
2084.000000	99.656671 
2083.000000	99.657242 
2082.000000	99.658567 
2081.000000	99.660248 
2080.000000	99.661771 
2079.000000	99.663094 
2078.000000	99.664612 
2077.000000	99.666545 
2076.000000	99.668486 
2075.000000	99.669694 
2074.000000	99.669679 
2073.000000	99.668505 
2072.000000	99.666886 
2071.000000	99.665736 
2070.000000	99.665562 
2069.000000	99.666136 
2068.000000	99.666780 
2067.000000	99.667118 
2066.000000	99.667319 
2065.000000	99.667804 
2064.000000	99.668944 
2063.000000	99.670848 
2062.000000	99.673087 
2061.000000	99.674717 
2060.000000	99.675090 
2059.000000	99.674576 
2058.000000	99.674310 
2057.000000	99.675024 
2056.000000	99.676411 
2055.000000	99.677727 
2054.000000	99.678719 
2053.000000	99.679701 
2052.000000	99.680872 
2051.000000	99.681923 
2050.000000	99.682378 
2049.000000	99.682152 
2048.000000	99.681613 
2047.000000	99.681219 
2046.000000	99.681149 
2045.000000	99.681294 
2044.000000	99.681452 
2043.000000	99.681501 
2042.000000	99.681456 
2041.000000	99.681412 
2040.000000	99.681431 
2039.000000	99.681486 
2038.000000	99.681491 
2037.000000	99.681362 
2036.000000	99.681076 
2035.000000	99.680665 
2034.000000	99.680165 
2033.000000	99.679596 
2032.000000	99.679028 
2031.000000	99.678602 
2030.000000	99.678395 
2029.000000	99.678363 
2028.000000	99.678293 
2027.000000	99.678018 
2026.000000	99.677527 
2025.000000	99.676940 
2024.000000	99.676424 
2023.000000	99.676084 
2022.000000	99.675981 
2021.000000	99.676065 
2020.000000	99.676081 
2019.000000	99.675720 
2018.000000	99.674994 
2017.000000	99.674343 
2016.000000	99.674144 
2015.000000	99.674295 
2014.000000	99.674429 
2013.000000	99.674299 
2012.000000	99.673888 
2011.000000	99.673397 
2010.000000	99.673298 
2009.000000	99.674052 
2008.000000	99.675508 
2007.000000	99.676776 
2006.000000	99.677002 
2005.000000	99.676132 
2004.000000	99.674815 
2003.000000	99.673683 
2002.000000	99.672802 
2001.000000	99.671538 
2000.000000	99.668938 
1999.000000	99.664580 
1998.000000	99.659260 
1997.000000	99.654655 
1996.000000	99.652236 
1995.000000	99.652555 
1994.000000	99.655281 
1993.000000	99.659407 
1992.000000	99.663396 
1991.000000	99.665641 
1990.000000	99.665220 
1989.000000	99.662505 
1988.000000	99.659650 
1987.000000	99.659962 
1986.000000	99.665490 
1985.000000	99.674994 
1984.000000	99.684497 
1983.000000	99.690621 
1982.000000	99.692540 
1981.000000	99.690695 
1980.000000	99.685691 
1979.000000	99.678896 
1978.000000	99.672611 
1977.000000	99.668117 
1976.000000	99.664430 
1975.000000	99.660370 
1974.000000	99.656985 
1973.000000	99.656486 
1972.000000	99.659417 
1971.000000	99.664186 
1970.000000	99.669003 
1969.000000	99.673178 
1968.000000	99.676649 
1967.000000	99.679172 
1966.000000	99.680368 
1965.000000	99.680197 
1964.000000	99.679013 
1963.000000	99.677232 
1962.000000	99.675133 
1961.000000	99.673047 
1960.000000	99.671496 
1959.000000	99.670663 
1958.000000	99.669792 
1957.000000	99.667890 
1956.000000	99.665151 
1955.000000	99.662682 
1954.000000	99.660359 
1953.000000	99.656220 
1952.000000	99.649105 
1951.000000	99.641174 
1950.000000	99.636392 
1949.000000	99.636478 
1948.000000	99.639418 
1947.000000	99.641839 
1946.000000	99.641812 
1945.000000	99.639091 
1944.000000	99.634260 
1943.000000	99.628754 
1942.000000	99.624541 
1941.000000	99.622529 
1940.000000	99.622101 
1939.000000	99.622566 
1938.000000	99.623927 
1937.000000	99.626024 
1936.000000	99.627956 
1935.000000	99.628867 
1934.000000	99.628685 
1933.000000	99.627808 
1932.000000	99.626658 
1931.000000	99.625928 
1930.000000	99.626552 
1929.000000	99.628668 
1928.000000	99.630975 
1927.000000	99.631787 
1926.000000	99.630589 
1925.000000	99.628115 
1924.000000	99.625538 
1923.000000	99.623827 
1922.000000	99.623456 
1921.000000	99.624274 
1920.000000	99.625613 
1919.000000	99.626679 
1918.000000	99.627051 
1917.000000	99.626826 
1916.000000	99.626393 
1915.000000	99.626127 
1914.000000	99.626216 
1913.000000	99.626587 
1912.000000	99.626940 
1911.000000	99.627014 
1910.000000	99.626811 
1909.000000	99.626537 
1908.000000	99.626361 
1907.000000	99.626320 
1906.000000	99.626371 
1905.000000	99.626433 
1904.000000	99.626393 
1903.000000	99.626207 
1902.000000	99.625954 
1901.000000	99.625748 
1900.000000	99.625635 
1899.000000	99.625577 
1898.000000	99.625534 
1897.000000	99.625482 
1896.000000	99.625418 
1895.000000	99.625345 
1894.000000	99.625269 
1893.000000	99.625205 
1892.000000	99.625161 
1891.000000	99.625125 
1890.000000	99.625074 
1889.000000	99.625001 
1888.000000	99.624928 
1887.000000	99.624889 
1886.000000	99.624891 
1885.000000	99.624905 
1884.000000	99.624871 
1883.000000	99.624759 
1882.000000	99.624621 
1881.000000	99.624548 
1880.000000	99.624569 
1879.000000	99.624615 
1878.000000	99.624544 
1877.000000	99.624220 
1876.000000	99.623631 
1875.000000	99.623056 
1874.000000	99.622935 
1873.000000	99.623439 
1872.000000	99.624136 
1871.000000	99.624252 
1870.000000	99.623409 
1869.000000	99.622042 
1868.000000	99.620870 
1867.000000	99.620011 
1866.000000	99.619298 
1865.000000	99.618852 
1864.000000	99.618991 
1863.000000	99.619888 
1862.000000	99.621469 
1861.000000	99.623402 
1860.000000	99.625048 
1859.000000	99.625889 
1858.000000	99.626125 
1857.000000	99.626423 
1856.000000	99.627099 
1855.000000	99.627934 
1854.000000	99.628651 
1853.000000	99.629104 
1852.000000	99.629120 
1851.000000	99.628525 
1850.000000	99.627487 
1849.000000	99.626510 
1848.000000	99.625945 
1847.000000	99.625734 
1846.000000	99.625701 
1845.000000	99.625707 
1844.000000	99.625469 
1843.000000	99.624844 
1842.000000	99.624373 
1841.000000	99.624767 
1840.000000	99.626110 
1839.000000	99.627774 
1838.000000	99.628965 
1837.000000	99.629400 
1836.000000	99.629374 
1835.000000	99.629330 
1834.000000	99.629488 
1833.000000	99.629816 
1832.000000	99.630206 
1831.000000	99.630512 
1830.000000	99.630642 
1829.000000	99.630649 
1828.000000	99.630664 
1827.000000	99.630673 
1826.000000	99.630591 
1825.000000	99.630604 
1824.000000	99.631019 
1823.000000	99.631788 
1822.000000	99.632493 
1821.000000	99.632712 
1820.000000	99.632333 
1819.000000	99.631600 
1818.000000	99.630998 
1817.000000	99.630900 
1816.000000	99.631261 
1815.000000	99.631739 
1814.000000	99.632117 
1813.000000	99.632517 
1812.000000	99.633152 
1811.000000	99.634015 
1810.000000	99.634910 
1809.000000	99.635690 
1808.000000	99.636235 
1807.000000	99.636416 
1806.000000	99.636234 
1805.000000	99.635915 
1804.000000	99.635753 
1803.000000	99.635880 
1802.000000	99.636265 
1801.000000	99.636827 
1800.000000	99.637421 
1799.000000	99.637877 
1798.000000	99.638164 
1797.000000	99.638397 
1796.000000	99.638696 
1795.000000	99.639088 
1794.000000	99.639521 
1793.000000	99.639930 
1792.000000	99.640299 
1791.000000	99.640646 
1790.000000	99.641007 
1789.000000	99.641424 
1788.000000	99.641910 
1787.000000	99.642429 
1786.000000	99.642917 
1785.000000	99.643309 
1784.000000	99.643593 
1783.000000	99.643835 
1782.000000	99.644133 
1781.000000	99.644511 
1780.000000	99.644895 
1779.000000	99.645210 
1778.000000	99.645476 
1777.000000	99.645789 
1776.000000	99.646200 
1775.000000	99.646686 
1774.000000	99.647188 
1773.000000	99.647657 
1772.000000	99.648069 
1771.000000	99.648429 
1770.000000	99.648756 
1769.000000	99.649072 
1768.000000	99.649388 
1767.000000	99.649707 
1766.000000	99.650022 
1765.000000	99.650334 
1764.000000	99.650647 
1763.000000	99.650965 
1762.000000	99.651291 
1761.000000	99.651625 
1760.000000	99.651962 
1759.000000	99.652293 
1758.000000	99.652609 
1757.000000	99.652901 
1756.000000	99.653169 
1755.000000	99.653415 
1754.000000	99.653643 
1753.000000	99.653856 
1752.000000	99.654079 
1751.000000	99.654338 
1750.000000	99.654641 
1749.000000	99.654952 
1748.000000	99.655234 
1747.000000	99.655479 
1746.000000	99.655699 
1745.000000	99.655913 
1744.000000	99.656132 
1743.000000	99.656355 
1742.000000	99.656568 
1741.000000	99.656766 
1740.000000	99.656949 
1739.000000	99.657126 
1738.000000	99.657300 
1737.000000	99.657468 
1736.000000	99.657617 
1735.000000	99.657735 
1734.000000	99.657830 
1733.000000	99.657933 
1732.000000	99.658072 
1731.000000	99.658250 
1730.000000	99.658441 
1729.000000	99.658613 
1728.000000	99.658758 
1727.000000	99.658886 
1726.000000	99.659008 
1725.000000	99.659122 
1724.000000	99.659227 
1723.000000	99.659336 
1722.000000	99.659459 
1721.000000	99.659596 
1720.000000	99.659729 
1719.000000	99.659827 
1718.000000	99.659866 
1717.000000	99.659855 
1716.000000	99.659824 
1715.000000	99.659794 
1714.000000	99.659775 
1713.000000	99.659772 
1712.000000	99.659782 
1711.000000	99.659796 
1710.000000	99.659809 
1709.000000	99.659811 
1708.000000	99.659796 
1707.000000	99.659761 
1706.000000	99.659713 
1705.000000	99.659655 
1704.000000	99.659587 
1703.000000	99.659507 
1702.000000	99.659418 
1701.000000	99.659331 
1700.000000	99.659256 
1699.000000	99.659196 
1698.000000	99.659143 
1697.000000	99.659092 
1696.000000	99.659041 
1695.000000	99.658989 
1694.000000	99.658928 
1693.000000	99.658854 
1692.000000	99.658756 
1691.000000	99.658626 
1690.000000	99.658472 
1689.000000	99.658316 
1688.000000	99.658165 
1687.000000	99.657988 
1686.000000	99.657726 
1685.000000	99.657390 
1684.000000	99.657128 
1683.000000	99.656936 
1682.000000	99.656709 
1681.000000	99.656438 
1680.000000	99.656195 
1679.000000	99.656050 
1678.000000	99.656003 
1677.000000	99.656026 
1676.000000	99.656113 
1675.000000	99.656241 
1674.000000	99.656266 
1673.000000	99.656173 
1672.000000	99.656105 
1671.000000	99.656168 
1670.000000	99.656277 
1669.000000	99.656134 
1668.000000	99.655665 
1667.000000	99.655144 
1666.000000	99.654614 
1665.000000	99.653936 
1664.000000	99.653295 
1663.000000	99.653288 
1662.000000	99.654167 
1661.000000	99.655346 
1660.000000	99.656133 
1659.000000	99.656503 
1658.000000	99.656815 
1657.000000	99.657083 
1656.000000	99.656749 
1655.000000	99.655398 
1654.000000	99.654016 
1653.000000	99.654084 
1652.000000	99.654274 
1651.000000	99.654316 
1650.000000	99.654211 
1649.000000	99.653454 
1648.000000	99.651883 
1647.000000	99.650078 
1646.000000	99.648790 
1645.000000	99.648582 
1644.000000	99.649630 
1643.000000	99.651412 
1642.000000	99.653043 
1641.000000	99.654002 
1640.000000	99.654331 
1639.000000	99.654386 
1638.000000	99.654468 
1637.000000	99.654649 
1636.000000	99.654749 
1635.000000	99.654473 
1634.000000	99.654352 
1633.000000	99.654952 
1632.000000	99.655943 
1631.000000	99.656772 
1630.000000	99.657126 
1629.000000	99.656943 
1628.000000	99.656413 
1627.000000	99.656032 
1626.000000	99.656286 
1625.000000	99.657386 
1624.000000	99.659245 
1623.000000	99.661444 
1622.000000	99.663226 
1621.000000	99.664105 
1620.000000	99.664144 
1619.000000	99.663786 
1618.000000	99.663744 
1617.000000	99.664276 
1616.000000	99.664519 
1615.000000	99.664008 
1614.000000	99.663098 
1613.000000	99.661922 
1612.000000	99.660720 
1611.000000	99.659910 
1610.000000	99.659579 
1609.000000	99.659331 
1608.000000	99.659037 
1607.000000	99.659124 
1606.000000	99.659712 
1605.000000	99.660404 
1604.000000	99.661110 
1603.000000	99.662252 
1602.000000	99.663797 
1601.000000	99.664907 
1600.000000	99.665103 
1599.000000	99.664970 
1598.000000	99.665276 
1597.000000	99.666093 
1596.000000	99.667117 
1595.000000	99.668247 
1594.000000	99.669362 
1593.000000	99.669989 
1592.000000	99.669884 
1591.000000	99.669577 
1590.000000	99.669787 
1589.000000	99.670480 
1588.000000	99.671064 
1587.000000	99.671264 
1586.000000	99.671207 
1585.000000	99.670975 
1584.000000	99.670608 
1583.000000	99.670298 
1582.000000	99.670299 
1581.000000	99.670603 
1580.000000	99.670999 
1579.000000	99.671319 
1578.000000	99.671526 
1577.000000	99.671640 
1576.000000	99.671713 
1575.000000	99.671820 
1574.000000	99.671972 
1573.000000	99.672125 
1572.000000	99.672269 
1571.000000	99.672413 
1570.000000	99.672558 
1569.000000	99.672700 
1568.000000	99.672834 
1567.000000	99.672956 
1566.000000	99.673064 
1565.000000	99.673156 
1564.000000	99.673233 
1563.000000	99.673298 
1562.000000	99.673352 
1561.000000	99.673394 
1560.000000	99.673422 
1559.000000	99.673436 
1558.000000	99.673437 
1557.000000	99.673425 
1556.000000	99.673401 
1555.000000	99.673365 
1554.000000	99.673317 
1553.000000	99.673256 
1552.000000	99.673187 
1551.000000	99.673114 
1550.000000	99.673042 
1549.000000	99.672973 
1548.000000	99.672903 
1547.000000	99.672828 
1546.000000	99.672744 
1545.000000	99.672655 
1544.000000	99.672566 
1543.000000	99.672482 
1542.000000	99.672406 
1541.000000	99.672340 
1540.000000	99.672278 
1539.000000	99.672216 
1538.000000	99.672154 
1537.000000	99.672096 
1536.000000	99.672043 
1535.000000	99.671993 
1534.000000	99.671942 
1533.000000	99.671878 
1532.000000	99.671793 
1531.000000	99.671683 
1530.000000	99.671551 
1529.000000	99.671402 
1528.000000	99.671235 
1527.000000	99.671048 
1526.000000	99.670843 
1525.000000	99.670621 
1524.000000	99.670386 
1523.000000	99.670139 
1522.000000	99.669880 
1521.000000	99.669609 
1520.000000	99.669316 
1519.000000	99.668991 
1518.000000	99.668629 
1517.000000	99.668238 
1516.000000	99.667831 
1515.000000	99.667408 
1514.000000	99.666962 
1513.000000	99.666499 
1512.000000	99.666026 
1511.000000	99.665542 
1510.000000	99.665037 
1509.000000	99.664513 
1508.000000	99.664020 
1507.000000	99.663637 
1506.000000	99.663262 
1505.000000	99.662732 
1504.000000	99.662064 
1503.000000	99.661338 
1502.000000	99.660624 
1501.000000	99.659977 
1500.000000	99.659415 
1499.000000	99.658867 
1498.000000	99.658240 
1497.000000	99.657618 
1496.000000	99.657156 
1495.000000	99.656677 
1494.000000	99.655843 
1493.000000	99.654542 
1492.000000	99.652893 
1491.000000	99.651188 
1490.000000	99.649738 
1489.000000	99.648616 
1488.000000	99.647547 
1487.000000	99.646279 
1486.000000	99.644994 
1485.000000	99.643971 
1484.000000	99.643193 
1483.000000	99.642444 
1482.000000	99.641498 
1481.000000	99.640287 
1480.000000	99.638886 
1479.000000	99.637407 
1478.000000	99.635993 
1477.000000	99.634789 
1476.000000	99.633691 
1475.000000	99.632098 
1474.000000	99.629853 
1473.000000	99.628169 
1472.000000	99.628007 
1471.000000	99.628050 
1470.000000	99.626984 
1469.000000	99.625315 
1468.000000	99.624277 
1467.000000	99.624470 
1466.000000	99.625499 
1465.000000	99.626411 
1464.000000	99.626183 
1463.000000	99.624658 
1462.000000	99.622741 
1461.000000	99.621458 
1460.000000	99.620830 
1459.000000	99.619796 
1458.000000	99.616835 
1457.000000	99.611594 
1456.000000	99.605140 
1455.000000	99.598990 
1454.000000	99.594273 
1453.000000	99.591305 
1452.000000	99.589729 
1451.000000	99.588924 
1450.000000	99.588937 
1449.000000	99.590856 
1448.000000	99.594980 
1447.000000	99.599170 
1446.000000	99.601376 
1445.000000	99.602166 
1444.000000	99.602420 
1443.000000	99.601464 
1442.000000	99.598780 
1441.000000	99.595828 
1440.000000	99.594825 
1439.000000	99.596217 
1438.000000	99.598040 
1437.000000	99.598424 
1436.000000	99.596931 
1435.000000	99.593126 
1434.000000	99.587667 
1433.000000	99.582951 
1432.000000	99.581129 
1431.000000	99.582792 
1430.000000	99.586053 
1429.000000	99.588221 
1428.000000	99.588158 
1427.000000	99.586070 
1426.000000	99.582451 
1425.000000	99.577982 
1424.000000	99.574188 
1423.000000	99.571766 
1422.000000	99.568732 
1421.000000	99.562796 
1420.000000	99.554272 
1419.000000	99.546198 
1418.000000	99.539086 
1417.000000	99.531139 
1416.000000	99.522878 
1415.000000	99.515108 
1414.000000	99.506835 
1413.000000	99.496913 
1412.000000	99.486530 
1411.000000	99.478116 
1410.000000	99.471916 
1409.000000	99.466713 
1408.000000	99.462790 
1407.000000	99.461319 
1406.000000	99.462343 
1405.000000	99.465336 
1404.000000	99.470601 
1403.000000	99.477534 
1402.000000	99.483495 
1401.000000	99.486799 
1400.000000	99.488803 
1399.000000	99.491567 
1398.000000	99.492847 
1397.000000	99.487603 
1396.000000	99.474970 
1395.000000	99.461669 
1394.000000	99.456892 
1393.000000	99.463412 
1392.000000	99.477607 
1391.000000	99.493719 
1390.000000	99.506592 
1389.000000	99.513348 
1388.000000	99.514219 
1387.000000	99.511746 
1386.000000	99.508269 
1385.000000	99.505141 
1384.000000	99.503609 
1383.000000	99.504440 
1382.000000	99.506975 
1381.000000	99.510007 
1380.000000	99.513230 
1379.000000	99.517098 
1378.000000	99.521429 
1377.000000	99.525308 
1376.000000	99.528840 
1375.000000	99.533889 
1374.000000	99.541764 
1373.000000	99.550642 
1372.000000	99.557763 
1371.000000	99.563103 
1370.000000	99.568945 
1369.000000	99.576585 
1368.000000	99.585328 
1367.000000	99.593721 
1366.000000	99.600680 
1365.000000	99.605615 
1364.000000	99.608396 
1363.000000	99.610064 
1362.000000	99.612528 
1361.000000	99.616407 
1360.000000	99.620537 
1359.000000	99.623939 
1358.000000	99.627068 
1357.000000	99.630981 
1356.000000	99.635996 
1355.000000	99.641385 
1354.000000	99.646071 
1353.000000	99.649294 
1352.000000	99.650433 
1351.000000	99.649294 
1350.000000	99.647677 
1349.000000	99.647811 
1348.000000	99.650395 
1347.000000	99.654606 
1346.000000	99.659361 
1345.000000	99.663695 
1344.000000	99.666724 
1343.000000	99.668059 
1342.000000	99.668187 
1341.000000	99.667803 
1340.000000	99.667113 
1339.000000	99.666189 
1338.000000	99.665502 
1337.000000	99.665746 
1336.000000	99.667260 
1335.000000	99.669767 
1334.000000	99.672786 
1333.000000	99.675857 
1332.000000	99.678258 
1331.000000	99.679177 
1330.000000	99.678498 
1329.000000	99.676907 
1328.000000	99.675332 
1327.000000	99.674402 
1326.000000	99.674412 
1325.000000	99.675117 
1324.000000	99.676357 
1323.000000	99.678256 
1322.000000	99.680518 
1321.000000	99.682051 
1320.000000	99.681940 
1319.000000	99.680489 
1318.000000	99.678771 
1317.000000	99.677362 
1316.000000	99.675988 
1315.000000	99.674329 
1314.000000	99.672668 
1313.000000	99.671818 
1312.000000	99.672459 
1311.000000	99.674450 
1310.000000	99.676837 
1309.000000	99.678652 
1308.000000	99.679681 
1307.000000	99.680126 
1306.000000	99.679962 
1305.000000	99.679002 
1304.000000	99.678087 
1303.000000	99.678836 
1302.000000	99.681698 
1301.000000	99.684891 
1300.000000	99.686088 
1299.000000	99.684716 
1298.000000	99.682118 
1297.000000	99.680073 
1296.000000	99.679618 
1295.000000	99.680964 
1294.000000	99.683502 
1293.000000	99.685880 
1292.000000	99.686719 
1291.000000	99.685478 
1290.000000	99.682749 
1289.000000	99.679920 
1288.000000	99.678391 
1287.000000	99.678443 
1286.000000	99.678679 
1285.000000	99.677334 
1284.000000	99.674352 
1283.000000	99.671504 
1282.000000	99.670081 
1281.000000	99.669446 
1280.000000	99.668492 
1279.000000	99.667317 
1278.000000	99.666324 
1277.000000	99.664765 
1276.000000	99.661498 
1275.000000	99.656958 
1274.000000	99.653070 
1273.000000	99.651094 
1272.000000	99.650297 
1271.000000	99.648780 
1270.000000	99.645068 
1269.000000	99.639077 
1268.000000	99.632219 
1267.000000	99.626400 
1266.000000	99.622253 
1265.000000	99.618658 
1264.000000	99.614361 
1263.000000	99.609437 
1262.000000	99.604638 
1261.000000	99.600155 
1260.000000	99.595989 
1259.000000	99.592906 
1258.000000	99.591610 
1257.000000	99.591423 
1256.000000	99.590901 
1255.000000	99.589615 
1254.000000	99.588260 
1253.000000	99.587135 
1252.000000	99.585730 
1251.000000	99.584031 
1250.000000	99.583169 
1249.000000	99.584348 
1248.000000	99.587826 
1247.000000	99.592954 
1246.000000	99.598130 
1245.000000	99.600730 
1244.000000	99.598551 
1243.000000	99.592396 
1242.000000	99.586723 
1241.000000	99.586200 
1240.000000	99.591476 
1239.000000	99.598729 
1238.000000	99.603268 
1237.000000	99.603319 
1236.000000	99.600137 
1235.000000	99.595746 
1234.000000	99.591260 
1233.000000	99.586989 
1232.000000	99.583213 
1231.000000	99.580242 
1230.000000	99.577892 
1229.000000	99.575548 
1228.000000	99.573048 
1227.000000	99.571297 
1226.000000	99.571583 
1225.000000	99.574104 
1224.000000	99.577375 
1223.000000	99.579275 
1222.000000	99.578788 
1221.000000	99.576747 
1220.000000	99.575000 
1219.000000	99.574894 
1218.000000	99.576313 
1217.000000	99.577908 
1216.000000	99.578218 
1215.000000	99.576761 
1214.000000	99.574366 
1213.000000	99.572474 
1212.000000	99.571770 
1211.000000	99.571179 
1210.000000	99.568602 
1209.000000	99.563114 
1208.000000	99.556207 
1207.000000	99.550332 
1206.000000	99.546307 
1205.000000	99.542910 
1204.000000	99.538885 
1203.000000	99.534149 
1202.000000	99.528649 
1201.000000	99.521401 
1200.000000	99.511820 
1199.000000	99.501354 
1198.000000	99.492587 
1197.000000	99.486720 
1196.000000	99.482640 
1195.000000	99.478358 
1194.000000	99.472597 
1193.000000	99.465036 
1192.000000	99.455926 
1191.000000	99.445922 
1190.000000	99.435905 
1189.000000	99.426743 
1188.000000	99.419221 
1187.000000	99.413702 
1186.000000	99.409304 
1185.000000	99.403793 
1184.000000	99.395007 
1183.000000	99.382624 
1182.000000	99.368454 
1181.000000	99.355202 
1180.000000	99.344930 
1179.000000	99.337945 
1178.000000	99.332325 
1177.000000	99.324950 
1176.000000	99.314082 
1175.000000	99.301055 
1174.000000	99.288872 
1173.000000	99.279149 
1172.000000	99.271122 
1171.000000	99.263329 
1170.000000	99.255117 
1169.000000	99.246257 
1168.000000	99.236145 
1167.000000	99.224195 
1166.000000	99.210788 
1165.000000	99.197580 
1164.000000	99.187092 
1163.000000	99.181737 
1162.000000	99.182309 
1161.000000	99.186917 
1160.000000	99.191876 
1159.000000	99.194370 
1158.000000	99.194161 
1157.000000	99.192497 
1156.000000	99.189797 
1155.000000	99.184831 
1154.000000	99.176028 
1153.000000	99.163183 
1152.000000	99.148040 
1151.000000	99.133504 
1150.000000	99.121958 
1149.000000	99.113755 
1148.000000	99.107044 
1147.000000	99.099016 
1146.000000	99.087512 
1145.000000	99.071974 
1144.000000	99.053661 
1143.000000	99.035304 
1142.000000	99.019933 
1141.000000	99.009089 
1140.000000	99.001741 
1139.000000	98.994957 
1138.000000	98.985920 
1137.000000	98.973686 
1136.000000	98.959353 
1135.000000	98.944775 
1134.000000	98.931081 
1133.000000	98.918134 
1132.000000	98.905096 
1131.000000	98.891251 
1130.000000	98.876385 
1129.000000	98.860578 
1128.000000	98.843799 
1127.000000	98.825945 
1126.000000	98.807523 
1125.000000	98.790083 
1124.000000	98.775159 
1123.000000	98.762235 
1122.000000	98.748324 
1121.000000	98.730518 
1120.000000	98.708845 
1119.000000	98.686000 
1118.000000	98.664359 
1117.000000	98.644010 
1116.000000	98.623634 
1115.000000	98.602170 
1114.000000	98.579277 
1113.000000	98.555206 
1112.000000	98.530990 
1111.000000	98.508247 
1110.000000	98.488062 
1109.000000	98.470117 
1108.000000	98.452997 
1107.000000	98.435139 
1106.000000	98.415810 
1105.000000	98.395430 
1104.000000	98.374853 
1103.000000	98.354218 
1102.000000	98.333127 
1101.000000	98.312162 
1100.000000	98.293441 
1099.000000	98.277982 
1098.000000	98.264237 
1097.000000	98.249824 
1096.000000	98.234281 
1095.000000	98.218591 
1094.000000	98.202369 
1093.000000	98.183412 
1092.000000	98.160278 
1091.000000	98.133752 
1090.000000	98.105319 
1089.000000	98.075409 
1088.000000	98.043974 
1087.000000	98.011992 
1086.000000	97.981375 
1085.000000	97.953483 
1084.000000	97.928130 
1083.000000	97.903791 
1082.000000	97.878654 
1081.000000	97.851967 
1080.000000	97.824559 
1079.000000	97.797754 
1078.000000	97.772041 
1077.000000	97.747534 
1076.000000	97.725415 
1075.000000	97.707479 
1074.000000	97.693982 
1073.000000	97.682994 
1072.000000	97.671565 
1071.000000	97.655856 
1070.000000	97.630752 
1069.000000	97.593000 
1068.000000	97.546736 
1067.000000	97.503906 
1066.000000	97.475899 
1065.000000	97.464696 
1064.000000	97.462708 
1063.000000	97.459453 
1062.000000	97.447295 
1061.000000	97.422692 
1060.000000	97.386237 
1059.000000	97.343620 
1058.000000	97.304394 
1057.000000	97.276303 
1056.000000	97.259303 
1055.000000	97.245222 
1054.000000	97.224511 
1053.000000	97.194593 
1052.000000	97.161262 
1051.000000	97.131405 
1050.000000	97.105873 
1049.000000	97.081436 
1048.000000	97.057643 
1047.000000	97.037464 
1046.000000	97.021504 
1045.000000	97.005898 
1044.000000	96.987240 
1043.000000	96.966925 
1042.000000	96.948805 
1041.000000	96.933970 
1040.000000	96.919765 
1039.000000	96.903888 
1038.000000	96.888315 
1037.000000	96.878513 
1036.000000	96.878626 
1035.000000	96.887653 
1034.000000	96.900672 
1033.000000	96.912979 
1032.000000	96.921100 
1031.000000	96.920620 
1030.000000	96.908092 
1029.000000	96.888088 
1028.000000	96.874583 
1027.000000	96.880023 
1026.000000	96.903299 
1025.000000	96.931377 
1024.000000	96.952193 
1023.000000	96.962820 
1022.000000	96.966369 
1021.000000	96.966414 
1020.000000	96.965702 
1019.000000	96.966161 
1018.000000	96.967675 
1017.000000	96.968776 
1016.000000	96.969771 
1015.000000	96.973291 
1014.000000	96.980863 
1013.000000	96.990648 
1012.000000	96.999317 
1011.000000	97.004754 
1010.000000	97.007135 
1009.000000	97.009283 
1008.000000	97.015778 
1007.000000	97.029408 
1006.000000	97.048236 
1005.000000	97.067812 
1004.000000	97.085836 
1003.000000	97.102583 
1002.000000	97.117878 
1001.000000	97.131080 
1000.000000	97.143911 
999.000000	 97.159559 
998.000000	 97.178018 
997.000000	 97.195526 
996.000000	 97.210053 
995.000000	 97.224718 
994.000000	 97.243952 
993.000000	 97.268059 
992.000000	 97.293043 
991.000000	 97.314587 
990.000000	 97.331272 
989.000000	 97.345022 
988.000000	 97.359223 
987.000000	 97.375712 
986.000000	 97.393621 
985.000000	 97.412092 
984.000000	 97.433030 
983.000000	 97.459059 
982.000000	 97.489722 
981.000000	 97.521899 
980.000000	 97.553510 
979.000000	 97.584640 
978.000000	 97.615356 
977.000000	 97.645474 
976.000000	 97.676730 
975.000000	 97.712067 
974.000000	 97.751676 
973.000000	 97.792095 
972.000000	 97.830143 
971.000000	 97.865634 
970.000000	 97.899652 
969.000000	 97.932678 
968.000000	 97.965603 
967.000000	 98.000238 
966.000000	 98.036884 
965.000000	 98.072688 
964.000000	 98.104046 
963.000000	 98.130020 
962.000000	 98.152689 
961.000000	 98.175120 
960.000000	 98.199621 
959.000000	 98.226743 
958.000000	 98.254786 
957.000000	 98.280981 
956.000000	 98.304084 
955.000000	 98.325532 
954.000000	 98.347660 
953.000000	 98.371150 
952.000000	 98.394411 
951.000000	 98.414874 
950.000000	 98.430789 
949.000000	 98.442541 
948.000000	 98.452809 
947.000000	 98.465067 
946.000000	 98.481252 
945.000000	 98.500544 
944.000000	 98.519951 
943.000000	 98.535753 
942.000000	 98.545253 
941.000000	 98.548494 
940.000000	 98.548609 
939.000000	 98.549893 
938.000000	 98.555013 
937.000000	 98.563708 
936.000000	 98.573401 
935.000000	 98.580825 
934.000000	 98.584391 
933.000000	 98.586076 
932.000000	 98.590120 
931.000000	 98.598756 
930.000000	 98.609987 
929.000000	 98.620656 
928.000000	 98.630415 
927.000000	 98.640868 
926.000000	 98.651893 
925.000000	 98.661302 
924.000000	 98.667777 
923.000000	 98.671631 
922.000000	 98.672504 
921.000000	 98.668935 
920.000000	 98.661356 
919.000000	 98.653635 
918.000000	 98.650006 
917.000000	 98.651205 
916.000000	 98.654488 
915.000000	 98.656859 
914.000000	 98.657917 
913.000000	 98.660292 
912.000000	 98.667623 
911.000000	 98.681148 
910.000000	 98.697707 
909.000000	 98.712094 
908.000000	 98.722059 
907.000000	 98.730158 
906.000000	 98.740414 
905.000000	 98.754248 
904.000000	 98.770405 
903.000000	 98.787976 
902.000000	 98.808218 
901.000000	 98.833053 
900.000000	 98.862224 
899.000000	 98.892570 
898.000000	 98.920469 
897.000000	 98.944479 
896.000000	 98.964860 
895.000000	 98.981792 
894.000000	 98.996214 
893.000000	 99.011950 
892.000000	 99.033958 
891.000000	 99.063051 
890.000000	 99.094219 
889.000000	 99.121842 
888.000000	 99.144841 
887.000000	 99.164933 
886.000000	 99.181991 
885.000000	 99.194236 
884.000000	 99.202302 
883.000000	 99.209933 
882.000000	 99.219866 
881.000000	 99.231195 
880.000000	 99.242070 
879.000000	 99.253409 
878.000000	 99.268386 
877.000000	 99.288396 
876.000000	 99.310219 
875.000000	 99.327569 
874.000000	 99.336370 
873.000000	 99.339170 
872.000000	 99.343750 
871.000000	 99.356087 
870.000000	 99.374749 
869.000000	 99.392844 
868.000000	 99.404982 
867.000000	 99.411531 
866.000000	 99.417095 
865.000000	 99.426448 
864.000000	 99.441843 
863.000000	 99.462503 
862.000000	 99.485327 
861.000000	 99.506349 
860.000000	 99.522598 
859.000000	 99.533899 
858.000000	 99.543933 
857.000000	 99.558559 
856.000000	 99.580577 
855.000000	 99.605348 
854.000000	 99.623772 
853.000000	 99.631148 
852.000000	 99.631686 
851.000000	 99.633220 
850.000000	 99.638950 
849.000000	 99.646568 
848.000000	 99.653718 
847.000000	 99.660573 
846.000000	 99.667471 
845.000000	 99.673655 
844.000000	 99.679250 
843.000000	 99.685536 
842.000000	 99.691768 
841.000000	 99.694062 
840.000000	 99.689613 
839.000000	 99.681004 
838.000000	 99.674214 
837.000000	 99.672094 
836.000000	 99.671409 
835.000000	 99.667379 
834.000000	 99.660356 
833.000000	 99.656080 
832.000000	 99.658066 
831.000000	 99.661310 
830.000000	 99.657111 
829.000000	 99.644963 
828.000000	 99.635604 
827.000000	 99.638488 
826.000000	 99.648883 
825.000000	 99.653503 
824.000000	 99.648287 
823.000000	 99.643348 
822.000000	 99.648550 
821.000000	 99.660836 
820.000000	 99.669454 
819.000000	 99.668542 
818.000000	 99.661075 
817.000000	 99.653735 
816.000000	 99.650530 
815.000000	 99.649551 
814.000000	 99.643858 
813.000000	 99.627033 
812.000000	 99.599863 
811.000000	 99.570941 
810.000000	 99.548850 
809.000000	 99.533864 
808.000000	 99.518160 
807.000000	 99.492594 
806.000000	 99.452247 
805.000000	 99.397972 
804.000000	 99.336240 
803.000000	 99.277326 
802.000000	 99.230080 
801.000000	 99.196776 
800.000000	 99.173658 
799.000000	 99.156253 
798.000000	 99.143481 
797.000000	 99.137418 
796.000000	 99.140649 
795.000000	 99.153983 
794.000000	 99.175643 
793.000000	 99.201727 
792.000000	 99.226787 
791.000000	 99.244099 
790.000000	 99.247692 
789.000000	 99.236965 
788.000000	 99.219388 
787.000000	 99.205879 
786.000000	 99.201602 
785.000000	 99.202120 
784.000000	 99.199301 
783.000000	 99.189576 
782.000000	 99.175630 
781.000000	 99.162098 
780.000000	 99.151779 
779.000000	 99.145122 
778.000000	 99.141487 
777.000000	 99.141562 
776.000000	 99.149183 
775.000000	 99.168756 
774.000000	 99.199082 
773.000000	 99.231372 
772.000000	 99.256086 
771.000000	 99.271094 
770.000000	 99.280904 
769.000000	 99.289153 
768.000000	 99.295391 
767.000000	 99.299281 
766.000000	 99.303703 
765.000000	 99.311224 
764.000000	 99.320031 
763.000000	 99.326140 
762.000000	 99.328599 
761.000000	 99.330275 
760.000000	 99.334162 
759.000000	 99.340771 
758.000000	 99.348656 
757.000000	 99.355885 
756.000000	 99.361381 
755.000000	 99.366387 
754.000000	 99.374319 
753.000000	 99.387441 
752.000000	 99.403642 
751.000000	 99.417636 
750.000000	 99.425504 
749.000000	 99.427363 
748.000000	 99.426319 
747.000000	 99.426579 
746.000000	 99.432117 
745.000000	 99.444287 
744.000000	 99.459309 
743.000000	 99.470222 
742.000000	 99.473680 
741.000000	 99.473779 
740.000000	 99.477684 
739.000000	 99.488235 
738.000000	 99.502275 
737.000000	 99.515042 
736.000000	 99.524263 
735.000000	 99.530775 
734.000000	 99.537571 
733.000000	 99.548033 
732.000000	 99.563077 
731.000000	 99.579325 
730.000000	 99.591287 
729.000000	 99.595113 
728.000000	 99.591343 
727.000000	 99.584439 
726.000000	 99.578796 
725.000000	 99.576753 
724.000000	 99.579721 
723.000000	 99.588880 
722.000000	 99.603485 
721.000000	 99.619263 
720.000000	 99.630178 
719.000000	 99.632758 
718.000000	 99.628583 
717.000000	 99.622731 
716.000000	 99.619642 
715.000000	 99.620120 
714.000000	 99.621834 
713.000000	 99.621897 
712.000000	 99.619494 
711.000000	 99.615429 
710.000000	 99.611239 
709.000000	 99.608791 
708.000000	 99.607371 
707.000000	 99.605574 
706.000000	 99.602122 
705.000000	 99.596468 
704.000000	 99.590083 
703.000000	 99.584878 
702.000000	 99.581194 
701.000000	 99.577730 
700.000000	 99.572193 
699.000000	 99.563594 
698.000000	 99.552372 
697.000000	 99.539259 
696.000000	 99.525309 
695.000000	 99.511729 
694.000000	 99.501783 
693.000000	 99.500657 
692.000000	 99.510625 
691.000000	 99.528343 
690.000000	 99.546291 
689.000000	 99.558732 
688.000000	 99.566089 
687.000000	 99.572136 
686.000000	 99.579601 
685.000000	 99.587655 
684.000000	 99.592287 
683.000000	 99.590672 
682.000000	 99.585110 
681.000000	 99.581830 
680.000000	 99.584988 
679.000000	 99.593335 
678.000000	 99.602527 
677.000000	 99.606945 
676.000000	 99.604541 
675.000000	 99.600678 
674.000000	 99.602728 
673.000000	 99.612576 
672.000000	 99.628728 
671.000000	 99.653291 
670.000000	 99.691955 
669.000000	 99.738547 
668.000000	 99.756997 
667.000000	 99.727525 
666.000000	 99.686053 
665.000000	 99.659127 
664.000000	 99.647284 
663.000000	 99.646919 
662.000000	 99.655262 
661.000000	 99.668229 
660.000000	 99.681054 
659.000000	 99.689424 
658.000000	 99.689769 
657.000000	 99.680480 
656.000000	 99.667912 
655.000000	 99.664360 
654.000000	 99.672008 
653.000000	 99.678766 
652.000000	 99.676050 
651.000000	 99.669464 
650.000000	 99.669562 

