4000.000000	99.327916 
3999.000000	99.328192 
3998.000000	99.328286 
3997.000000	99.328110 
3996.000000	99.327643 
3995.000000	99.326980 
3994.000000	99.326372 
3993.000000	99.326094 
3992.000000	99.326188 
3991.000000	99.326403 
3990.000000	99.326436 
3989.000000	99.326280 
3988.000000	99.326266 
3987.000000	99.326700 
3986.000000	99.327530 
3985.000000	99.328346 
3984.000000	99.328729 
3983.000000	99.328539 
3982.000000	99.327895 
3981.000000	99.327014 
3980.000000	99.326054 
3979.000000	99.325093 
3978.000000	99.324242 
3977.000000	99.323720 
3976.000000	99.323777 
3975.000000	99.324480 
3974.000000	99.325588 
3973.000000	99.326592 
3972.000000	99.327018 
3971.000000	99.326766 
3970.000000	99.326098 
3969.000000	99.325379 
3968.000000	99.324785 
3967.000000	99.324278 
3966.000000	99.323806 
3965.000000	99.323468 
3964.000000	99.323377 
3963.000000	99.323416 
3962.000000	99.323240 
3961.000000	99.322593 
3960.000000	99.321559 
3959.000000	99.320509 
3958.000000	99.319793 
3957.000000	99.319474 
3956.000000	99.319391 
3955.000000	99.319373 
3954.000000	99.319367 
3953.000000	99.319375 
3952.000000	99.319342 
3951.000000	99.319203 
3950.000000	99.318964 
3949.000000	99.318723 
3948.000000	99.318573 
3947.000000	99.318516 
3946.000000	99.318528 
3945.000000	99.318616 
3944.000000	99.318735 
3943.000000	99.318617 
3942.000000	99.317953 
3941.000000	99.316816 
3940.000000	99.315700 
3939.000000	99.314983 
3938.000000	99.314536 
3937.000000	99.313944 
3936.000000	99.313109 
3935.000000	99.312482 
3934.000000	99.312675 
3933.000000	99.313851 
3932.000000	99.315437 
3931.000000	99.316450 
3930.000000	99.316244 
3929.000000	99.314947 
3928.000000	99.313363 
3927.000000	99.312340 
3926.000000	99.312238 
3925.000000	99.312779 
3924.000000	99.313276 
3923.000000	99.313238 
3922.000000	99.312663 
3921.000000	99.311855 
3920.000000	99.311185 
3919.000000	99.311010 
3918.000000	99.311651 
3917.000000	99.313105 
3916.000000	99.314861 
3915.000000	99.316220 
3914.000000	99.316883 
3913.000000	99.317033 
3912.000000	99.316951 
3911.000000	99.316758 
3910.000000	99.316521 
3909.000000	99.316328 
3908.000000	99.316186 
3907.000000	99.315810 
3906.000000	99.314663 
3905.000000	99.312352 
3904.000000	99.308993 
3903.000000	99.305498 
3902.000000	99.303239 
3901.000000	99.303014 
3900.000000	99.304552 
3899.000000	99.306663 
3898.000000	99.308101 
3897.000000	99.308495 
3896.000000	99.308163 
3895.000000	99.307557 
3894.000000	99.307006 
3893.000000	99.306619 
3892.000000	99.306275 
3891.000000	99.305707 
3890.000000	99.304839 
3889.000000	99.303899 
3888.000000	99.303231 
3887.000000	99.303097 
3886.000000	99.303402 
3885.000000	99.303681 
3884.000000	99.303616 
3883.000000	99.303405 
3882.000000	99.303445 
3881.000000	99.303821 
3880.000000	99.304202 
3879.000000	99.304248 
3878.000000	99.304001 
3877.000000	99.303737 
3876.000000	99.303665 
3875.000000	99.303741 
3874.000000	99.303748 
3873.000000	99.303575 
3872.000000	99.303332 
3871.000000	99.303202 
3870.000000	99.303236 
3869.000000	99.303362 
3868.000000	99.303495 
3867.000000	99.303613 
3866.000000	99.303744 
3865.000000	99.303919 
3864.000000	99.304131 
3863.000000	99.304341 
3862.000000	99.304528 
3861.000000	99.304724 
3860.000000	99.304982 
3859.000000	99.305323 
3858.000000	99.305663 
3857.000000	99.305849 
3856.000000	99.305765 
3855.000000	99.305526 
3854.000000	99.305460 
3853.000000	99.305645 
3852.000000	99.305964 
3851.000000	99.306467 
3850.000000	99.307201 
3849.000000	99.308075 
3848.000000	99.308833 
3847.000000	99.309165 
3846.000000	99.308939 
3845.000000	99.308294 
3844.000000	99.307575 
3843.000000	99.307157 
3842.000000	99.307146 
3841.000000	99.307253 
3840.000000	99.307157 
3839.000000	99.306843 
3838.000000	99.306523 
3837.000000	99.306358 
3836.000000	99.306357 
3835.000000	99.306628 
3834.000000	99.307447 
3833.000000	99.309021 
3832.000000	99.311118 
3831.000000	99.312985 
3830.000000	99.313944 
3829.000000	99.314003 
3828.000000	99.313715 
3827.000000	99.313570 
3826.000000	99.313499 
3825.000000	99.312968 
3824.000000	99.311660 
3823.000000	99.310137 
3822.000000	99.309405 
3821.000000	99.309572 
3820.000000	99.309790 
3819.000000	99.309750 
3818.000000	99.310016 
3817.000000	99.311233 
3816.000000	99.313191 
3815.000000	99.314736 
3814.000000	99.315117 
3813.000000	99.314784 
3812.000000	99.314716 
3811.000000	99.315306 
3810.000000	99.316057 
3809.000000	99.316300 
3808.000000	99.315972 
3807.000000	99.315491 
3806.000000	99.315008 
3805.000000	99.314293 
3804.000000	99.313389 
3803.000000	99.312985 
3802.000000	99.313679 
3801.000000	99.314997 
3800.000000	99.315919 
3799.000000	99.316159 
3798.000000	99.316136 
3797.000000	99.316299 
3796.000000	99.316679 
3795.000000	99.317057 
3794.000000	99.317346 
3793.000000	99.317650 
3792.000000	99.318042 
3791.000000	99.318433 
3790.000000	99.318674 
3789.000000	99.318731 
3788.000000	99.318650 
3787.000000	99.318428 
3786.000000	99.318042 
3785.000000	99.317534 
3784.000000	99.316978 
3783.000000	99.316402 
3782.000000	99.315843 
3781.000000	99.315490 
3780.000000	99.315547 
3779.000000	99.315898 
3778.000000	99.316102 
3777.000000	99.315856 
3776.000000	99.315173 
3775.000000	99.314302 
3774.000000	99.313515 
3773.000000	99.312942 
3772.000000	99.312612 
3771.000000	99.312461 
3770.000000	99.312245 
3769.000000	99.311687 
3768.000000	99.310880 
3767.000000	99.310274 
3766.000000	99.310162 
3765.000000	99.310284 
3764.000000	99.310011 
3763.000000	99.308978 
3762.000000	99.307471 
3761.000000	99.306224 
3760.000000	99.305696 
3759.000000	99.305582 
3758.000000	99.305380 
3757.000000	99.305063 
3756.000000	99.304597 
3755.000000	99.303645 
3754.000000	99.302081 
3753.000000	99.300549 
3752.000000	99.299861 
3751.000000	99.299539 
3750.000000	99.298563 
3749.000000	99.297353 
3748.000000	99.297001 
3747.000000	99.297727 
3746.000000	99.299195 
3745.000000	99.300842 
3744.000000	99.301507 
3743.000000	99.300762 
3742.000000	99.299403 
3741.000000	99.297805 
3740.000000	99.295436 
3739.000000	99.291283 
3738.000000	99.285624 
3737.000000	99.281552 
3736.000000	99.282756 
3735.000000	99.289421 
3734.000000	99.297116 
3733.000000	99.301389 
3732.000000	99.301484 
3731.000000	99.299025 
3730.000000	99.295541 
3729.000000	99.291734 
3728.000000	99.288481 
3727.000000	99.286658 
3726.000000	99.285669 
3725.000000	99.283978 
3724.000000	99.281460 
3723.000000	99.279995 
3722.000000	99.280830 
3721.000000	99.283030 
3720.000000	99.284384 
3719.000000	99.282832 
3718.000000	99.277797 
3717.000000	99.270159 
3716.000000	99.261172 
3715.000000	99.251734 
3714.000000	99.242379 
3713.000000	99.234076 
3712.000000	99.228038 
3711.000000	99.224931 
3710.000000	99.224239 
3709.000000	99.224316 
3708.000000	99.223318 
3707.000000	99.220118 
3706.000000	99.214921 
3705.000000	99.209189 
3704.000000	99.204584 
3703.000000	99.201194 
3702.000000	99.196664 
3701.000000	99.188347 
3700.000000	99.176403 
3699.000000	99.163646 
3698.000000	99.152827 
3697.000000	99.144757 
3696.000000	99.138305 
3695.000000	99.131903 
3694.000000	99.125324 
3693.000000	99.119756 
3692.000000	99.116108 
3691.000000	99.113835 
3690.000000	99.111006 
3689.000000	99.105854 
3688.000000	99.098651 
3687.000000	99.091341 
3686.000000	99.085518 
3685.000000	99.081858 
3684.000000	99.080291 
3683.000000	99.079786 
3682.000000	99.078526 
3681.000000	99.074588 
3680.000000	99.066558 
3679.000000	99.053867 
3678.000000	99.037746 
3677.000000	99.022898 
3676.000000	99.015156 
3675.000000	99.014439 
3674.000000	99.014839 
3673.000000	99.012237 
3672.000000	99.007297 
3671.000000	99.003812 
3670.000000	99.003962 
3669.000000	99.005678 
3668.000000	99.006465 
3667.000000	99.006484 
3666.000000	99.006750 
3665.000000	99.007250 
3664.000000	99.007002 
3663.000000	99.005136 
3662.000000	99.001625 
3661.000000	98.996837 
3660.000000	98.991061 
3659.000000	98.985055 
3658.000000	98.980573 
3657.000000	98.979191 
3656.000000	98.980070 
3655.000000	98.980345 
3654.000000	98.977872 
3653.000000	98.972327 
3652.000000	98.964432 
3651.000000	98.955794 
3650.000000	98.949071 
3649.000000	98.947187 
3648.000000	98.950906 
3647.000000	98.957583 
3646.000000	98.963780 
3645.000000	98.968372 
3644.000000	98.972578 
3643.000000	98.977714 
3642.000000	98.983936 
3641.000000	98.990116 
3640.000000	98.994898 
3639.000000	98.997549 
3638.000000	98.997972 
3637.000000	98.996679 
3636.000000	98.994588 
3635.000000	98.992511 
3634.000000	98.990358 
3633.000000	98.987251 
3632.000000	98.982744 
3631.000000	98.977701 
3630.000000	98.973962 
3629.000000	98.971667 
3628.000000	98.968940 
3627.000000	98.966572 
3626.000000	98.967842 
3625.000000	98.974109 
3624.000000	98.983614 
3623.000000	98.993250 
3622.000000	99.001024 
3621.000000	99.007305 
3620.000000	99.012718 
3619.000000	99.015612 
3618.000000	99.014039 
3617.000000	99.009521 
3616.000000	99.006104 
3615.000000	99.006982 
3614.000000	99.011995 
3613.000000	99.017908 
3612.000000	99.021752 
3611.000000	99.023561 
3610.000000	99.025296 
3609.000000	99.028546 
3608.000000	99.033221 
3607.000000	99.038492 
3606.000000	99.044708 
3605.000000	99.052698 
3604.000000	99.062066 
3603.000000	99.070942 
3602.000000	99.077429 
3601.000000	99.081478 
3600.000000	99.084317 
3599.000000	99.086594 
3598.000000	99.087913 
3597.000000	99.088064 
3596.000000	99.087820 
3595.000000	99.088981 
3594.000000	99.092594 
3593.000000	99.097844 
3592.000000	99.102811 
3591.000000	99.105820 
3590.000000	99.106647 
3589.000000	99.106769 
3588.000000	99.107654 
3587.000000	99.108344 
3586.000000	99.107307 
3585.000000	99.105382 
3584.000000	99.105168 
3583.000000	99.107933 
3582.000000	99.112540 
3581.000000	99.116656 
3580.000000	99.118721 
3579.000000	99.118660 
3578.000000	99.116951 
3577.000000	99.114083 
3576.000000	99.110783 
3575.000000	99.108312 
3574.000000	99.107685 
3573.000000	99.108588 
3572.000000	99.109753 
3571.000000	99.110175 
3570.000000	99.109575 
3569.000000	99.108325 
3568.000000	99.107170 
3567.000000	99.106371 
3566.000000	99.105661 
3565.000000	99.105316 
3564.000000	99.106280 
3563.000000	99.109263 
3562.000000	99.114008 
3561.000000	99.119081 
3560.000000	99.122693 
3559.000000	99.123910 
3558.000000	99.123289 
3557.000000	99.122317 
3556.000000	99.122265 
3555.000000	99.123266 
3554.000000	99.124385 
3553.000000	99.124289 
3552.000000	99.122265 
3551.000000	99.118908 
3550.000000	99.115608 
3549.000000	99.113359 
3548.000000	99.112363 
3547.000000	99.112309 
3546.000000	99.112786 
3545.000000	99.113260 
3544.000000	99.113241 
3543.000000	99.112800 
3542.000000	99.112790 
3541.000000	99.114082 
3540.000000	99.116685 
3539.000000	99.119643 
3538.000000	99.121947 
3537.000000	99.123349 
3536.000000	99.124251 
3535.000000	99.125075 
3534.000000	99.125777 
3533.000000	99.126153 
3532.000000	99.126202 
3531.000000	99.126097 
3530.000000	99.125695 
3529.000000	99.124440 
3528.000000	99.122091 
3527.000000	99.119448 
3526.000000	99.117914 
3525.000000	99.118179 
3524.000000	99.119586 
3523.000000	99.120789 
3522.000000	99.121108 
3521.000000	99.120941 
3520.000000	99.121050 
3519.000000	99.121739 
3518.000000	99.122769 
3517.000000	99.123735 
3516.000000	99.124300 
3515.000000	99.124310 
3514.000000	99.123789 
3513.000000	99.122935 
3512.000000	99.122035 
3511.000000	99.121315 
3510.000000	99.120787 
3509.000000	99.120309 
3508.000000	99.119829 
3507.000000	99.119554 
3506.000000	99.119851 
3505.000000	99.120908 
3504.000000	99.122592 
3503.000000	99.124667 
3502.000000	99.127084 
3501.000000	99.129785 
3500.000000	99.132186 
3499.000000	99.133242 
3498.000000	99.132275 
3497.000000	99.129673 
3496.000000	99.126679 
3495.000000	99.124375 
3494.000000	99.123024 
3493.000000	99.122396 
3492.000000	99.122349 
3491.000000	99.122903 
3490.000000	99.123999 
3489.000000	99.125386 
3488.000000	99.126726 
3487.000000	99.127651 
3486.000000	99.127861 
3485.000000	99.127378 
3484.000000	99.126641 
3483.000000	99.126189 
3482.000000	99.126134 
3481.000000	99.126116 
3480.000000	99.125840 
3479.000000	99.125402 
3478.000000	99.124981 
3477.000000	99.124498 
3476.000000	99.123854 
3475.000000	99.123382 
3474.000000	99.123678 
3473.000000	99.124856 
3472.000000	99.126214 
3471.000000	99.126881 
3470.000000	99.126704 
3469.000000	99.126183 
3468.000000	99.125719 
3467.000000	99.125178 
3466.000000	99.124328 
3465.000000	99.123340 
3464.000000	99.122611 
3463.000000	99.122298 
3462.000000	99.122223 
3461.000000	99.122180 
3460.000000	99.122103 
3459.000000	99.121963 
3458.000000	99.121690 
3457.000000	99.121235 
3456.000000	99.120596 
3455.000000	99.119790 
3454.000000	99.118865 
3453.000000	99.117969 
3452.000000	99.117280 
3451.000000	99.116830 
3450.000000	99.116448 
3449.000000	99.115943 
3448.000000	99.115274 
3447.000000	99.114518 
3446.000000	99.113776 
3445.000000	99.113178 
3444.000000	99.112897 
3443.000000	99.112987 
3442.000000	99.113161 
3441.000000	99.112893 
3440.000000	99.111848 
3439.000000	99.110188 
3438.000000	99.108487 
3437.000000	99.107239 
3436.000000	99.106507 
3435.000000	99.106093 
3434.000000	99.105876 
3433.000000	99.105921 
3432.000000	99.106235 
3431.000000	99.106561 
3430.000000	99.106533 
3429.000000	99.106061 
3428.000000	99.105474 
3427.000000	99.105176 
3426.000000	99.105147 
3425.000000	99.104889 
3424.000000	99.103928 
3423.000000	99.102299 
3422.000000	99.100529 
3421.000000	99.099155 
3420.000000	99.098401 
3419.000000	99.098274 
3418.000000	99.098694 
3417.000000	99.099385 
3416.000000	99.099871 
3415.000000	99.099832 
3414.000000	99.099424 
3413.000000	99.099112 
3412.000000	99.099194 
3411.000000	99.099582 
3410.000000	99.099956 
3409.000000	99.100014 
3408.000000	99.099598 
3407.000000	99.098711 
3406.000000	99.097517 
3405.000000	99.096262 
3404.000000	99.095185 
3403.000000	99.094490 
3402.000000	99.094330 
3401.000000	99.094801 
3400.000000	99.095887 
3399.000000	99.097424 
3398.000000	99.099039 
3397.000000	99.100196 
3396.000000	99.100445 
3395.000000	99.099660 
3394.000000	99.098062 
3393.000000	99.096042 
3392.000000	99.094043 
3391.000000	99.092607 
3390.000000	99.092311 
3389.000000	99.093472 
3388.000000	99.095905 
3387.000000	99.098990 
3386.000000	99.102039 
3385.000000	99.104622 
3384.000000	99.106536 
3383.000000	99.107590 
3382.000000	99.107504 
3381.000000	99.106127 
3380.000000	99.103801 
3379.000000	99.101471 
3378.000000	99.100186 
3377.000000	99.100313 
3376.000000	99.101290 
3375.000000	99.102158 
3374.000000	99.102402 
3373.000000	99.102219 
3372.000000	99.102072 
3371.000000	99.102174 
3370.000000	99.102433 
3369.000000	99.102665 
3368.000000	99.102765 
3367.000000	99.102762 
3366.000000	99.102840 
3365.000000	99.103209 
3364.000000	99.103861 
3363.000000	99.104529 
3362.000000	99.104966 
3361.000000	99.105188 
3360.000000	99.105335 
3359.000000	99.105411 
3358.000000	99.105340 
3357.000000	99.105234 
3356.000000	99.105392 
3355.000000	99.105965 
3354.000000	99.106737 
3353.000000	99.107317 
3352.000000	99.107522 
3351.000000	99.107473 
3350.000000	99.107421 
3349.000000	99.107529 
3348.000000	99.107804 
3347.000000	99.108153 
3346.000000	99.108450 
3345.000000	99.108621 
3344.000000	99.108687 
3343.000000	99.108746 
3342.000000	99.108887 
3341.000000	99.109113 
3340.000000	99.109355 
3339.000000	99.109540 
3338.000000	99.109657 
3337.000000	99.109791 
3336.000000	99.110055 
3335.000000	99.110469 
3334.000000	99.110937 
3333.000000	99.111370 
3332.000000	99.111765 
3331.000000	99.112147 
3330.000000	99.112506 
3329.000000	99.112803 
3328.000000	99.113028 
3327.000000	99.113214 
3326.000000	99.113382 
3325.000000	99.113499 
3324.000000	99.113503 
3323.000000	99.113386 
3322.000000	99.113262 
3321.000000	99.113296 
3320.000000	99.113553 
3319.000000	99.113937 
3318.000000	99.114294 
3317.000000	99.114567 
3316.000000	99.114778 
3315.000000	99.114916 
3314.000000	99.114952 
3313.000000	99.114960 
3312.000000	99.115119 
3311.000000	99.115523 
3310.000000	99.116038 
3309.000000	99.116392 
3308.000000	99.116459 
3307.000000	99.116312 
3306.000000	99.116100 
3305.000000	99.115939 
3304.000000	99.115912 
3303.000000	99.116053 
3302.000000	99.116267 
3301.000000	99.116358 
3300.000000	99.116204 
3299.000000	99.115850 
3298.000000	99.115464 
3297.000000	99.115209 
3296.000000	99.115142 
3295.000000	99.115207 
3294.000000	99.115285 
3293.000000	99.115290 
3292.000000	99.115238 
3291.000000	99.115212 
3290.000000	99.115243 
3289.000000	99.115258 
3288.000000	99.115170 
3287.000000	99.114982 
3286.000000	99.114773 
3285.000000	99.114611 
3284.000000	99.114489 
3283.000000	99.114365 
3282.000000	99.114232 
3281.000000	99.114146 
3280.000000	99.114178 
3279.000000	99.114334 
3278.000000	99.114526 
3277.000000	99.114641 
3276.000000	99.114625 
3275.000000	99.114480 
3274.000000	99.114229 
3273.000000	99.113920 
3272.000000	99.113682 
3271.000000	99.113681 
3270.000000	99.113977 
3269.000000	99.114448 
3268.000000	99.114865 
3267.000000	99.115060 
3266.000000	99.115003 
3265.000000	99.114795 
3264.000000	99.114644 
3263.000000	99.114779 
3262.000000	99.115312 
3261.000000	99.116148 
3260.000000	99.117033 
3259.000000	99.117710 
3258.000000	99.118030 
3257.000000	99.117999 
3256.000000	99.117772 
3255.000000	99.117533 
3254.000000	99.117376 
3253.000000	99.117326 
3252.000000	99.117459 
3251.000000	99.117896 
3250.000000	99.118631 
3249.000000	99.119456 
3248.000000	99.120138 
3247.000000	99.120601 
3246.000000	99.120877 
3245.000000	99.120972 
3244.000000	99.120895 
3243.000000	99.120779 
3242.000000	99.120815 
3241.000000	99.121062 
3240.000000	99.121425 
3239.000000	99.121862 
3238.000000	99.122507 
3237.000000	99.123532 
3236.000000	99.124895 
3235.000000	99.126267 
3234.000000	99.127215 
3233.000000	99.127510 
3232.000000	99.127270 
3231.000000	99.126873 
3230.000000	99.126701 
3229.000000	99.126905 
3228.000000	99.127375 
3227.000000	99.127813 
3226.000000	99.127935 
3225.000000	99.127689 
3224.000000	99.127347 
3223.000000	99.127309 
3222.000000	99.127732 
3221.000000	99.128410 
3220.000000	99.128974 
3219.000000	99.129232 
3218.000000	99.129292 
3217.000000	99.129428 
3216.000000	99.129900 
3215.000000	99.130797 
3214.000000	99.131959 
3213.000000	99.133015 
3212.000000	99.133635 
3211.000000	99.133747 
3210.000000	99.133520 
3209.000000	99.133206 
3208.000000	99.133010 
3207.000000	99.133073 
3206.000000	99.133429 
3205.000000	99.133939 
3204.000000	99.134375 
3203.000000	99.134645 
3202.000000	99.134881 
3201.000000	99.135269 
3200.000000	99.135852 
3199.000000	99.136517 
3198.000000	99.137116 
3197.000000	99.137582 
3196.000000	99.137951 
3195.000000	99.138318 
3194.000000	99.138746 
3193.000000	99.139196 
3192.000000	99.139546 
3191.000000	99.139714 
3190.000000	99.139720 
3189.000000	99.139666 
3188.000000	99.139658 
3187.000000	99.139745 
3186.000000	99.139870 
3185.000000	99.139882 
3184.000000	99.139714 
3183.000000	99.139535 
3182.000000	99.139610 
3181.000000	99.140016 
3180.000000	99.140707 
3179.000000	99.141767 
3178.000000	99.143297 
3177.000000	99.144964 
3176.000000	99.146082 
3175.000000	99.146445 
3174.000000	99.146678 
3173.000000	99.147367 
3172.000000	99.148065 
3171.000000	99.147794 
3170.000000	99.146447 
3169.000000	99.145173 
3168.000000	99.145090 
3167.000000	99.146106 
3166.000000	99.147382 
3165.000000	99.148462 
3164.000000	99.149527 
3163.000000	99.150641 
3162.000000	99.151393 
3161.000000	99.151512 
3160.000000	99.151391 
3159.000000	99.151618 
3158.000000	99.152139 
3157.000000	99.152246 
3156.000000	99.151421 
3155.000000	99.149907 
3154.000000	99.148401 
3153.000000	99.147324 
3152.000000	99.146598 
3151.000000	99.146026 
3150.000000	99.145679 
3149.000000	99.145865 
3148.000000	99.146869 
3147.000000	99.148728 
3146.000000	99.151172 
3145.000000	99.153655 
3144.000000	99.155582 
3143.000000	99.156609 
3142.000000	99.156787 
3141.000000	99.156484 
3140.000000	99.156174 
3139.000000	99.156158 
3138.000000	99.156401 
3137.000000	99.156657 
3136.000000	99.156795 
3135.000000	99.157007 
3134.000000	99.157588 
3133.000000	99.158554 
3132.000000	99.159552 
3131.000000	99.160190 
3130.000000	99.160386 
3129.000000	99.160377 
3128.000000	99.160524 
3127.000000	99.161113 
3126.000000	99.162219 
3125.000000	99.163584 
3124.000000	99.164662 
3123.000000	99.164991 
3122.000000	99.164548 
3121.000000	99.163791 
3120.000000	99.163326 
3119.000000	99.163442 
3118.000000	99.164044 
3117.000000	99.164851 
3116.000000	99.165653 
3115.000000	99.166415 
3114.000000	99.167186 
3113.000000	99.167939 
3112.000000	99.168512 
3111.000000	99.168759 
3110.000000	99.168736 
3109.000000	99.168698 
3108.000000	99.168848 
3107.000000	99.169107 
3106.000000	99.169211 
3105.000000	99.169055 
3104.000000	99.168889 
3103.000000	99.169117 
3102.000000	99.169949 
3101.000000	99.171263 
3100.000000	99.172734 
3099.000000	99.174067 
3098.000000	99.175100 
3097.000000	99.175769 
3096.000000	99.176118 
3095.000000	99.176286 
3094.000000	99.176349 
3093.000000	99.176188 
3092.000000	99.175641 
3091.000000	99.174856 
3090.000000	99.174357 
3089.000000	99.174582 
3088.000000	99.175381 
3087.000000	99.176118 
3086.000000	99.176346 
3085.000000	99.176242 
3084.000000	99.176156 
3083.000000	99.175848 
3082.000000	99.174632 
3081.000000	99.172534 
3080.000000	99.170991 
3079.000000	99.171779 
3078.000000	99.175211 
3077.000000	99.179739 
3076.000000	99.183428 
3075.000000	99.185491 
3074.000000	99.186146 
3073.000000	99.185656 
3072.000000	99.184066 
3071.000000	99.181571 
3070.000000	99.178504 
3069.000000	99.174970 
3068.000000	99.171088 
3067.000000	99.167755 
3066.000000	99.166722 
3065.000000	99.169412 
3064.000000	99.175449 
3063.000000	99.182243 
3062.000000	99.186274 
3061.000000	99.185389 
3060.000000	99.180413 
3059.000000	99.174563 
3058.000000	99.170911 
3057.000000	99.170383 
3056.000000	99.172055 
3055.000000	99.174633 
3054.000000	99.176977 
3053.000000	99.177798 
3052.000000	99.176052 
3051.000000	99.171981 
3050.000000	99.167265 
3049.000000	99.163842 
3048.000000	99.162630 
3047.000000	99.163019 
3046.000000	99.163035 
3045.000000	99.160343 
3044.000000	99.154297 
3043.000000	99.147303 
3042.000000	99.143228 
3041.000000	99.143551 
3040.000000	99.145447 
3039.000000	99.144281 
3038.000000	99.137731 
3037.000000	99.127159 
3036.000000	99.115475 
3035.000000	99.104466 
3034.000000	99.094266 
3033.000000	99.084620 
3032.000000	99.075783 
3031.000000	99.067972 
3030.000000	99.060479 
3029.000000	99.052116 
3028.000000	99.042689 
3027.000000	99.033453 
3026.000000	99.025587 
3025.000000	99.018458 
3024.000000	99.010019 
3023.000000	98.998889 
3022.000000	98.985408 
3021.000000	98.970522 
3020.000000	98.954394 
3019.000000	98.936647 
3018.000000	98.917686 
3017.000000	98.899036 
3016.000000	98.882114 
3015.000000	98.866875 
3014.000000	98.851957 
3013.000000	98.836258 
3012.000000	98.820237 
3011.000000	98.805317 
3010.000000	98.791887 
3009.000000	98.778359 
3008.000000	98.762628 
3007.000000	98.744254 
3006.000000	98.724795 
3005.000000	98.706059 
3004.000000	98.688479 
3003.000000	98.671250 
3002.000000	98.653592 
3001.000000	98.635645 
3000.000000	98.618403 
2999.000000	98.603000 
2998.000000	98.590089 
2997.000000	98.579773 
2996.000000	98.571700 
2995.000000	98.564377 
2994.000000	98.554169 
2993.000000	98.536226 
2992.000000	98.508197 
2991.000000	98.473639 
2990.000000	98.441059 
2989.000000	98.418812 
2988.000000	98.410633 
2987.000000	98.415048 
2986.000000	98.427304 
2985.000000	98.441643 
2984.000000	98.453191 
2983.000000	98.459468 
2982.000000	98.460700 
2981.000000	98.458765 
2980.000000	98.455831 
2979.000000	98.453668 
2978.000000	98.453143 
2977.000000	98.453573 
2976.000000	98.452908 
2975.000000	98.449462 
2974.000000	98.443809 
2973.000000	98.438748 
2972.000000	98.437343 
2971.000000	98.440941 
2970.000000	98.448770 
2969.000000	98.459078 
2968.000000	98.470697 
2967.000000	98.483669 
2966.000000	98.498334 
2965.000000	98.513952 
2964.000000	98.528675 
2963.000000	98.541081 
2962.000000	98.551304 
2961.000000	98.560344 
2960.000000	98.568659 
2959.000000	98.576001 
2958.000000	98.582442 
2957.000000	98.588842 
2956.000000	98.596076 
2955.000000	98.604263 
2954.000000	98.613106 
2953.000000	98.622673 
2952.000000	98.633292 
2951.000000	98.644636 
2950.000000	98.655393 
2949.000000	98.664254 
2948.000000	98.670982 
2947.000000	98.676148 
2946.000000	98.680143 
2945.000000	98.683200 
2944.000000	98.686233 
2943.000000	98.690570 
2942.000000	98.696159 
2941.000000	98.700692 
2940.000000	98.701628 
2939.000000	98.699291 
2938.000000	98.697232 
2937.000000	98.699109 
2936.000000	98.705458 
2935.000000	98.713469 
2934.000000	98.719450 
2933.000000	98.721338 
2932.000000	98.719547 
2931.000000	98.715970 
2930.000000	98.712371 
2929.000000	98.709613 
2928.000000	98.707936 
2927.000000	98.707059 
2926.000000	98.705737 
2925.000000	98.702183 
2924.000000	98.695932 
2923.000000	98.688889 
2922.000000	98.683535 
2921.000000	98.680232 
2920.000000	98.677253 
2919.000000	98.673261 
2918.000000	98.668612 
2917.000000	98.664039 
2916.000000	98.659227 
2915.000000	98.653356 
2914.000000	98.646446 
2913.000000	98.639632 
2912.000000	98.634420 
2911.000000	98.631805 
2910.000000	98.631475 
2909.000000	98.631638 
2908.000000	98.630169 
2907.000000	98.626298 
2906.000000	98.620540 
2905.000000	98.612921 
2904.000000	98.602449 
2903.000000	98.589488 
2902.000000	98.578102 
2901.000000	98.574848 
2900.000000	98.583562 
2899.000000	98.602277 
2898.000000	98.623860 
2897.000000	98.640477 
2896.000000	98.648594 
2895.000000	98.650459 
2894.000000	98.651314 
2893.000000	98.654954 
2892.000000	98.661618 
2891.000000	98.669258 
2890.000000	98.675881 
2889.000000	98.680563 
2888.000000	98.683301 
2887.000000	98.684904 
2886.000000	98.686869 
2885.000000	98.690676 
2884.000000	98.697089 
2883.000000	98.706234 
2882.000000	98.717926 
2881.000000	98.731457 
2880.000000	98.745410 
2879.000000	98.758417 
2878.000000	98.770135 
2877.000000	98.781147 
2876.000000	98.791898 
2875.000000	98.802089 
2874.000000	98.811095 
2873.000000	98.818640 
2872.000000	98.824968 
2871.000000	98.830585 
2870.000000	98.835980 
2869.000000	98.841700 
2868.000000	98.848692 
2867.000000	98.858195 
2866.000000	98.870685 
2865.000000	98.884862 
2864.000000	98.898335 
2863.000000	98.909640 
2862.000000	98.919118 
2861.000000	98.927726 
2860.000000	98.935854 
2859.000000	98.943820 
2858.000000	98.952535 
2857.000000	98.962584 
2856.000000	98.973067 
2855.000000	98.982451 
2854.000000	98.990458 
2853.000000	98.998307 
2852.000000	99.007130 
2851.000000	99.016935 
2850.000000	99.027187 
2849.000000	99.037437 
2848.000000	99.047098 
2847.000000	99.055373 
2846.000000	99.061840 
2845.000000	99.066668 
2844.000000	99.070056 
2843.000000	99.072017 
2842.000000	99.073152 
2841.000000	99.075171 
2840.000000	99.079991 
2839.000000	99.088070 
2838.000000	99.097728 
2837.000000	99.106189 
2836.000000	99.111515 
2835.000000	99.113872 
2834.000000	99.115097 
2833.000000	99.116929 
2832.000000	99.119526 
2831.000000	99.121731 
2830.000000	99.122544 
2829.000000	99.122133 
2828.000000	99.121707 
2827.000000	99.122768 
2826.000000	99.126331 
2825.000000	99.132179 
2824.000000	99.138634 
2823.000000	99.143446 
2822.000000	99.145376 
2821.000000	99.145070 
2820.000000	99.144454 
2819.000000	99.145181 
2818.000000	99.147383 
2817.000000	99.149780 
2816.000000	99.151082 
2815.000000	99.151324 
2814.000000	99.151639 
2813.000000	99.152759 
2812.000000	99.154270 
2811.000000	99.155661 
2810.000000	99.157446 
2809.000000	99.160460 
2808.000000	99.164319 
2807.000000	99.167427 
2806.000000	99.168661 
2805.000000	99.168391 
2804.000000	99.167786 
2803.000000	99.167671 
2802.000000	99.168202 
2801.000000	99.169115 
2800.000000	99.169915 
2799.000000	99.170217 
2798.000000	99.170171 
2797.000000	99.170250 
2796.000000	99.170497 
2795.000000	99.170409 
2794.000000	99.169833 
2793.000000	99.169502 
2792.000000	99.170271 
2791.000000	99.172138 
2790.000000	99.174389 
2789.000000	99.176468 
2788.000000	99.178368 
2787.000000	99.180144 
2786.000000	99.181455 
2785.000000	99.181829 
2784.000000	99.181233 
2783.000000	99.180248 
2782.000000	99.179665 
2781.000000	99.179916 
2780.000000	99.180912 
2779.000000	99.182246 
2778.000000	99.183520 
2777.000000	99.184596 
2776.000000	99.185584 
2775.000000	99.186644 
2774.000000	99.187791 
2773.000000	99.188873 
2772.000000	99.189750 
2771.000000	99.190470 
2770.000000	99.191207 
2769.000000	99.191988 
2768.000000	99.192622 
2767.000000	99.193005 
2766.000000	99.193396 
2765.000000	99.194136 
2764.000000	99.195069 
2763.000000	99.195542 
2762.000000	99.195132 
2761.000000	99.194160 
2760.000000	99.193454 
2759.000000	99.193500 
2758.000000	99.194158 
2757.000000	99.195101 
2756.000000	99.196250 
2755.000000	99.197629 
2754.000000	99.198993 
2753.000000	99.199949 
2752.000000	99.200411 
2751.000000	99.200716 
2750.000000	99.201226 
2749.000000	99.201934 
2748.000000	99.202551 
2747.000000	99.202885 
2746.000000	99.202997 
2745.000000	99.203057 
2744.000000	99.203151 
2743.000000	99.203263 
2742.000000	99.203414 
2741.000000	99.203718 
2740.000000	99.204274 
2739.000000	99.205023 
2738.000000	99.205812 
2737.000000	99.206601 
2736.000000	99.207496 
2735.000000	99.208520 
2734.000000	99.209432 
2733.000000	99.209955 
2732.000000	99.210114 
2731.000000	99.210227 
2730.000000	99.210542 
2729.000000	99.211011 
2728.000000	99.211468 
2727.000000	99.211891 
2726.000000	99.212355 
2725.000000	99.212841 
2724.000000	99.213269 
2723.000000	99.213700 
2722.000000	99.214332 
2721.000000	99.215245 
2720.000000	99.216256 
2719.000000	99.217073 
2718.000000	99.217605 
2717.000000	99.217996 
2716.000000	99.218418 
2715.000000	99.218911 
2714.000000	99.219444 
2713.000000	99.220019 
2712.000000	99.220659 
2711.000000	99.221342 
2710.000000	99.222018 
2709.000000	99.222692 
2708.000000	99.223404 
2707.000000	99.224124 
2706.000000	99.224709 
2705.000000	99.225051 
2704.000000	99.225247 
2703.000000	99.225564 
2702.000000	99.226151 
2701.000000	99.226867 
2700.000000	99.227453 
2699.000000	99.227868 
2698.000000	99.228345 
2697.000000	99.229065 
2696.000000	99.229877 
2695.000000	99.230425 
2694.000000	99.230536 
2693.000000	99.230389 
2692.000000	99.230338 
2691.000000	99.230550 
2690.000000	99.230890 
2689.000000	99.231137 
2688.000000	99.231265 
2687.000000	99.231491 
2686.000000	99.232028 
2685.000000	99.232856 
2684.000000	99.233725 
2683.000000	99.234397 
2682.000000	99.234786 
2681.000000	99.234899 
2680.000000	99.234801 
2679.000000	99.234597 
2678.000000	99.234425 
2677.000000	99.234439 
2676.000000	99.234702 
2675.000000	99.235166 
2674.000000	99.235685 
2673.000000	99.236095 
2672.000000	99.236301 
2671.000000	99.236334 
2670.000000	99.236302 
2669.000000	99.236311 
2668.000000	99.236404 
2667.000000	99.236576 
2666.000000	99.236809 
2665.000000	99.237094 
2664.000000	99.237417 
2663.000000	99.237757 
2662.000000	99.238094 
2661.000000	99.238423 
2660.000000	99.238757 
2659.000000	99.239097 
2658.000000	99.239427 
2657.000000	99.239731 
2656.000000	99.240008 
2655.000000	99.240271 
2654.000000	99.240531 
2653.000000	99.240795 
2652.000000	99.241067 
2651.000000	99.241349 
2650.000000	99.241639 
2649.000000	99.241932 
2648.000000	99.242224 
2647.000000	99.242512 
2646.000000	99.242800 
2645.000000	99.243092 
2644.000000	99.243391 
2643.000000	99.243693 
2642.000000	99.243992 
2641.000000	99.244293 
2640.000000	99.244599 
2639.000000	99.244914 
2638.000000	99.245260 
2637.000000	99.245672 
2636.000000	99.246128 
2635.000000	99.246545 
2634.000000	99.246850 
2633.000000	99.247075 
2632.000000	99.247345 
2631.000000	99.247771 
2630.000000	99.248349 
2629.000000	99.248938 
2628.000000	99.249380 
2627.000000	99.249670 
2626.000000	99.250017 
2625.000000	99.250645 
2624.000000	99.251496 
2623.000000	99.252222 
2622.000000	99.252539 
2621.000000	99.252492 
2620.000000	99.252301 
2619.000000	99.252022 
2618.000000	99.251564 
2617.000000	99.251030 
2616.000000	99.250852 
2615.000000	99.251419 
2614.000000	99.252637 
2613.000000	99.253915 
2612.000000	99.254686 
2611.000000	99.254914 
2610.000000	99.255079 
2609.000000	99.255701 
2608.000000	99.256877 
2607.000000	99.258306 
2606.000000	99.259711 
2605.000000	99.261122 
2604.000000	99.262685 
2603.000000	99.264255 
2602.000000	99.265326 
2601.000000	99.265524 
2600.000000	99.265142 
2599.000000	99.264918 
2598.000000	99.265182 
2597.000000	99.265281 
2596.000000	99.264123 
2595.000000	99.261381 
2594.000000	99.257991 
2593.000000	99.255369 
2592.000000	99.254293 
2591.000000	99.254548 
2590.000000	99.255355 
2589.000000	99.255951 
2588.000000	99.255909 
2587.000000	99.255266 
2586.000000	99.254511 
2585.000000	99.254307 
2584.000000	99.254953 
2583.000000	99.256085 
2582.000000	99.256981 
2581.000000	99.257254 
2580.000000	99.257144 
2579.000000	99.257058 
2578.000000	99.256985 
2577.000000	99.256523 
2576.000000	99.255420 
2575.000000	99.253869 
2574.000000	99.252308 
2573.000000	99.251150 
2572.000000	99.250705 
2571.000000	99.251113 
2570.000000	99.252146 
2569.000000	99.253225 
2568.000000	99.253823 
2567.000000	99.253855 
2566.000000	99.253504 
2565.000000	99.252881 
2564.000000	99.252047 
2563.000000	99.251213 
2562.000000	99.250674 
2561.000000	99.250497 
2560.000000	99.250446 
2559.000000	99.250265 
2558.000000	99.249927 
2557.000000	99.249574 
2556.000000	99.249335 
2555.000000	99.249245 
2554.000000	99.249260 
2553.000000	99.249265 
2552.000000	99.249139 
2551.000000	99.248851 
2550.000000	99.248463 
2549.000000	99.248061 
2548.000000	99.247685 
2547.000000	99.247355 
2546.000000	99.247085 
2545.000000	99.246862 
2544.000000	99.246640 
2543.000000	99.246381 
2542.000000	99.246073 
2541.000000	99.245721 
2540.000000	99.245353 
2539.000000	99.245047 
2538.000000	99.244879 
2537.000000	99.244822 
2536.000000	99.244734 
2535.000000	99.244511 
2534.000000	99.244202 
2533.000000	99.243932 
2532.000000	99.243715 
2531.000000	99.243459 
2530.000000	99.243157 
2529.000000	99.242954 
2528.000000	99.242958 
2527.000000	99.243062 
2526.000000	99.243006 
2525.000000	99.242682 
2524.000000	99.242322 
2523.000000	99.242289 
2522.000000	99.242691 
2521.000000	99.243319 
2520.000000	99.243821 
2519.000000	99.243956 
2518.000000	99.243649 
2517.000000	99.242989 
2516.000000	99.242253 
2515.000000	99.241787 
2514.000000	99.241773 
2513.000000	99.242150 
2512.000000	99.242795 
2511.000000	99.243677 
2510.000000	99.244714 
2509.000000	99.245627 
2508.000000	99.246138 
2507.000000	99.246286 
2506.000000	99.246375 
2505.000000	99.246581 
2504.000000	99.246749 
2503.000000	99.246669 
2502.000000	99.246412 
2501.000000	99.246291 
2500.000000	99.246534 
2499.000000	99.247112 
2498.000000	99.247813 
2497.000000	99.248396 
2496.000000	99.248712 
2495.000000	99.248768 
2494.000000	99.248703 
2493.000000	99.248667 
2492.000000	99.248703 
2491.000000	99.248776 
2490.000000	99.248912 
2489.000000	99.249254 
2488.000000	99.249976 
2487.000000	99.251093 
2486.000000	99.252264 
2485.000000	99.252861 
2484.000000	99.252489 
2483.000000	99.251342 
2482.000000	99.250159 
2481.000000	99.249545 
2480.000000	99.249489 
2479.000000	99.249582 
2478.000000	99.249470 
2477.000000	99.249122 
2476.000000	99.248724 
2475.000000	99.248466 
2474.000000	99.248427 
2473.000000	99.248540 
2472.000000	99.248634 
2471.000000	99.248567 
2470.000000	99.248370 
2469.000000	99.248206 
2468.000000	99.248187 
2467.000000	99.248249 
2466.000000	99.248234 
2465.000000	99.248057 
2464.000000	99.247765 
2463.000000	99.247464 
2462.000000	99.247219 
2461.000000	99.247022 
2460.000000	99.246803 
2459.000000	99.246507 
2458.000000	99.246159 
2457.000000	99.245844 
2456.000000	99.245602 
2455.000000	99.245391 
2454.000000	99.245156 
2453.000000	99.244894 
2452.000000	99.244620 
2451.000000	99.244312 
2450.000000	99.243934 
2449.000000	99.243504 
2448.000000	99.243107 
2447.000000	99.242821 
2446.000000	99.242651 
2445.000000	99.242544 
2444.000000	99.242436 
2443.000000	99.242300 
2442.000000	99.242135 
2441.000000	99.241948 
2440.000000	99.241753 
2439.000000	99.241571 
2438.000000	99.241419 
2437.000000	99.241285 
2436.000000	99.241144 
2435.000000	99.240979 
2434.000000	99.240799 
2433.000000	99.240625 
2432.000000	99.240473 
2431.000000	99.240342 
2430.000000	99.240214 
2429.000000	99.240053 
2428.000000	99.239822 
2427.000000	99.239505 
2426.000000	99.239118 
2425.000000	99.238714 
2424.000000	99.238348 
2423.000000	99.238064 
2422.000000	99.237897 
2421.000000	99.237871 
2420.000000	99.237926 
2419.000000	99.237881 
2418.000000	99.237562 
2417.000000	99.236943 
2416.000000	99.236210 
2415.000000	99.235614 
2414.000000	99.235254 
2413.000000	99.235059 
2412.000000	99.234928 
2411.000000	99.234841 
2410.000000	99.234813 
2409.000000	99.234845 
2408.000000	99.234946 
2407.000000	99.235074 
2406.000000	99.235073 
2405.000000	99.234858 
2404.000000	99.234648 
2403.000000	99.234760 
2402.000000	99.235095 
2401.000000	99.235114 
2400.000000	99.234458 
2399.000000	99.233389 
2398.000000	99.232504 
2397.000000	99.232143 
2396.000000	99.232262 
2395.000000	99.232666 
2394.000000	99.233100 
2393.000000	99.233261 
2392.000000	99.233029 
2391.000000	99.232584 
2390.000000	99.232150 
2389.000000	99.231748 
2388.000000	99.231394 
2387.000000	99.231376 
2386.000000	99.231924 
2385.000000	99.232744 
2384.000000	99.233292 
2383.000000	99.233469 
2382.000000	99.233789 
2381.000000	99.234727 
2380.000000	99.236107 
2379.000000	99.237344 
2378.000000	99.238230 
2377.000000	99.239155 
2376.000000	99.240415 
2375.000000	99.241602 
2374.000000	99.242051 
2373.000000	99.241647 
2372.000000	99.240868 
2371.000000	99.240239 
2370.000000	99.239956 
2369.000000	99.239987 
2368.000000	99.240212 
2367.000000	99.240484 
2366.000000	99.240768 
2365.000000	99.241121 
2364.000000	99.241491 
2363.000000	99.241669 
2362.000000	99.241545 
2361.000000	99.241258 
2360.000000	99.241016 
2359.000000	99.240884 
2358.000000	99.240847 
2357.000000	99.240891 
2356.000000	99.240991 
2355.000000	99.241103 
2354.000000	99.241209 
2353.000000	99.241262 
2352.000000	99.241184 
2351.000000	99.240977 
2350.000000	99.240703 
2349.000000	99.240425 
2348.000000	99.240168 
2347.000000	99.239931 
2346.000000	99.239704 
2345.000000	99.239469 
2344.000000	99.239211 
2343.000000	99.238930 
2342.000000	99.238640 
2341.000000	99.238353 
2340.000000	99.238077 
2339.000000	99.237814 
2338.000000	99.237562 
2337.000000	99.237314 
2336.000000	99.237057 
2335.000000	99.236787 
2334.000000	99.236518 
2333.000000	99.236287 
2332.000000	99.236117 
2331.000000	99.236005 
2330.000000	99.235921 
2329.000000	99.235851 
2328.000000	99.235763 
2327.000000	99.235668 
2326.000000	99.235613 
2325.000000	99.235630 
2324.000000	99.235641 
2323.000000	99.235619 
2322.000000	99.235751 
2321.000000	99.236187 
2320.000000	99.236630 
2319.000000	99.236659 
2318.000000	99.236210 
2317.000000	99.235905 
2316.000000	99.236133 
2315.000000	99.236939 
2314.000000	99.237885 
2313.000000	99.238960 
2312.000000	99.240077 
2311.000000	99.241352 
2310.000000	99.242468 
2309.000000	99.243162 
2308.000000	99.243073 
2307.000000	99.242722 
2306.000000	99.242859 
2305.000000	99.243990 
2304.000000	99.245606 
2303.000000	99.247434 
2302.000000	99.249513 
2301.000000	99.252043 
2300.000000	99.254428 
2299.000000	99.256571 
2298.000000	99.258460 
2297.000000	99.260010 
2296.000000	99.260257 
2295.000000	99.259285 
2294.000000	99.258575 
2293.000000	99.259972 
2292.000000	99.263365 
2291.000000	99.267154 
2290.000000	99.269931 
2289.000000	99.271368 
2288.000000	99.271690 
2287.000000	99.271293 
2286.000000	99.270927 
2285.000000	99.270990 
2284.000000	99.271185 
2283.000000	99.271186 
2282.000000	99.271747 
2281.000000	99.273898 
2280.000000	99.277459 
2279.000000	99.280920 
2278.000000	99.283090 
2277.000000	99.284053 
2276.000000	99.284349 
2275.000000	99.284221 
2274.000000	99.283781 
2273.000000	99.283291 
2272.000000	99.282858 
2271.000000	99.282469 
2270.000000	99.282221 
2269.000000	99.282144 
2268.000000	99.281867 
2267.000000	99.281146 
2266.000000	99.280510 
2265.000000	99.280690 
2264.000000	99.281418 
2263.000000	99.281568 
2262.000000	99.280656 
2261.000000	99.279492 
2260.000000	99.279140 
2259.000000	99.279763 
2258.000000	99.280886 
2257.000000	99.282335 
2256.000000	99.284182 
2255.000000	99.286035 
2254.000000	99.287070 
2253.000000	99.286836 
2252.000000	99.285815 
2251.000000	99.285097 
2250.000000	99.285367 
2249.000000	99.286398 
2248.000000	99.287426 
2247.000000	99.288007 
2246.000000	99.288230 
2245.000000	99.288382 
2244.000000	99.288620 
2243.000000	99.288967 
2242.000000	99.289377 
2241.000000	99.289779 
2240.000000	99.290235 
2239.000000	99.290987 
2238.000000	99.292133 
2237.000000	99.293277 
2236.000000	99.293800 
2235.000000	99.293549 
2234.000000	99.292974 
2233.000000	99.292643 
2232.000000	99.292698 
2231.000000	99.292926 
2230.000000	99.293114 
2229.000000	99.293203 
2228.000000	99.293247 
2227.000000	99.293365 
2226.000000	99.293665 
2225.000000	99.294155 
2224.000000	99.294734 
2223.000000	99.295323 
2222.000000	99.295912 
2221.000000	99.296482 
2220.000000	99.296989 
2219.000000	99.297443 
2218.000000	99.297924 
2217.000000	99.298488 
2216.000000	99.299104 
2215.000000	99.299697 
2214.000000	99.300206 
2213.000000	99.300636 
2212.000000	99.301032 
2211.000000	99.301440 
2210.000000	99.301886 
2209.000000	99.302378 
2208.000000	99.302912 
2207.000000	99.303481 
2206.000000	99.304071 
2205.000000	99.304667 
2204.000000	99.305269 
2203.000000	99.305916 
2202.000000	99.306686 
2201.000000	99.307617 
2200.000000	99.308576 
2199.000000	99.309333 
2198.000000	99.309782 
2197.000000	99.310074 
2196.000000	99.310490 
2195.000000	99.311156 
2194.000000	99.311948 
2193.000000	99.312688 
2192.000000	99.313347 
2191.000000	99.314048 
2190.000000	99.315025 
2189.000000	99.316549 
2188.000000	99.318575 
2187.000000	99.320265 
2186.000000	99.320380 
2185.000000	99.318450 
2184.000000	99.315477 
2183.000000	99.313214 
2182.000000	99.312493 
2181.000000	99.312837 
2180.000000	99.313511 
2179.000000	99.314534 
2178.000000	99.316207 
2177.000000	99.318107 
2176.000000	99.319182 
2175.000000	99.318721 
2174.000000	99.316822 
2173.000000	99.314298 
2172.000000	99.312590 
2171.000000	99.313331 
2170.000000	99.317029 
2169.000000	99.321954 
2168.000000	99.325229 
2167.000000	99.325513 
2166.000000	99.323872 
2165.000000	99.322131 
2164.000000	99.321248 
2163.000000	99.321558 
2162.000000	99.323024 
2161.000000	99.324088 
2160.000000	99.321765 
2159.000000	99.314607 
2158.000000	99.304903 
2157.000000	99.296621 
2156.000000	99.291374 
2155.000000	99.288332 
2154.000000	99.286994 
2153.000000	99.287934 
2152.000000	99.290871 
2151.000000	99.293694 
2150.000000	99.294296 
2149.000000	99.292905 
2148.000000	99.291922 
2147.000000	99.293290 
2146.000000	99.296244 
2145.000000	99.297849 
2144.000000	99.295999 
2143.000000	99.291484 
2142.000000	99.287113 
2141.000000	99.284699 
2140.000000	99.283536 
2139.000000	99.282014 
2138.000000	99.279964 
2137.000000	99.278723 
2136.000000	99.279124 
2135.000000	99.280248 
2134.000000	99.280456 
2133.000000	99.279299 
2132.000000	99.277921 
2131.000000	99.277585 
2130.000000	99.278186 
2129.000000	99.278435 
2128.000000	99.277370 
2127.000000	99.275420 
2126.000000	99.273856 
2125.000000	99.273519 
2124.000000	99.274288 
2123.000000	99.275536 
2122.000000	99.276651 
2121.000000	99.277248 
2120.000000	99.277319 
2119.000000	99.277223 
2118.000000	99.277342 
2117.000000	99.277720 
2116.000000	99.278104 
2115.000000	99.278297 
2114.000000	99.278362 
2113.000000	99.278465 
2112.000000	99.278680 
2111.000000	99.279010 
2110.000000	99.279506 
2109.000000	99.280199 
2108.000000	99.280952 
2107.000000	99.281469 
2106.000000	99.281552 
2105.000000	99.281272 
2104.000000	99.280958 
2103.000000	99.280960 
2102.000000	99.281373 
2101.000000	99.281933 
2100.000000	99.282223 
2099.000000	99.282084 
2098.000000	99.281821 
2097.000000	99.281948 
2096.000000	99.282699 
2095.000000	99.283881 
2094.000000	99.285092 
2093.000000	99.286033 
2092.000000	99.286624 
2091.000000	99.286979 
2090.000000	99.287341 
2089.000000	99.287960 
2088.000000	99.288877 
2087.000000	99.289741 
2086.000000	99.289979 
2085.000000	99.289412 
2084.000000	99.288834 
2083.000000	99.289562 
2082.000000	99.292145 
2081.000000	99.295598 
2080.000000	99.298300 
2079.000000	99.299753 
2078.000000	99.300892 
2077.000000	99.302799 
2076.000000	99.305493 
2075.000000	99.308039 
2074.000000	99.309270 
2073.000000	99.308408 
2072.000000	99.305775 
2071.000000	99.303000 
2070.000000	99.301899 
2069.000000	99.302708 
2068.000000	99.303911 
2067.000000	99.303981 
2066.000000	99.302822 
2065.000000	99.301497 
2064.000000	99.301223 
2063.000000	99.302731 
2062.000000	99.305719 
2061.000000	99.308541 
2060.000000	99.309503 
2059.000000	99.309008 
2058.000000	99.309450 
2057.000000	99.312355 
2056.000000	99.316501 
2055.000000	99.319464 
2054.000000	99.320557 
2053.000000	99.321154 
2052.000000	99.322594 
2051.000000	99.324697 
2050.000000	99.326417 
2049.000000	99.327155 
2048.000000	99.327211 
2047.000000	99.327372 
2046.000000	99.328226 
2045.000000	99.329533 
2044.000000	99.330253 
2043.000000	99.329549 
2042.000000	99.327742 
2041.000000	99.326022 
2040.000000	99.325262 
2039.000000	99.325433 
2038.000000	99.326060 
2037.000000	99.326721 
2036.000000	99.327064 
2035.000000	99.326699 
2034.000000	99.325358 
2033.000000	99.323287 
2032.000000	99.321422 
2031.000000	99.320808 
2030.000000	99.321716 
2029.000000	99.323284 
2028.000000	99.324066 
2027.000000	99.323458 
2026.000000	99.321987 
2025.000000	99.320571 
2024.000000	99.319744 
2023.000000	99.319638 
2022.000000	99.320220 
2021.000000	99.321112 
2020.000000	99.321557 
2019.000000	99.321131 
2018.000000	99.320283 
2017.000000	99.319750 
2016.000000	99.319604 
2015.000000	99.319491 
2014.000000	99.319412 
2013.000000	99.319447 
2012.000000	99.319173 
2011.000000	99.318297 
2010.000000	99.317595 
2009.000000	99.318159 
2008.000000	99.319807 
2007.000000	99.321230 
2006.000000	99.321657 
2005.000000	99.321383 
2004.000000	99.320717 
2003.000000	99.319496 
2002.000000	99.317640 
2001.000000	99.315169 
2000.000000	99.311803 
1999.000000	99.307500 
1998.000000	99.303262 
1997.000000	99.300426 
1996.000000	99.299310 
1995.000000	99.299448 
1994.000000	99.300828 
1993.000000	99.303807 
1992.000000	99.307735 
1991.000000	99.310767 
1990.000000	99.311417 
1989.000000	99.309682 
1988.000000	99.307215 
1987.000000	99.306948 
1986.000000	99.311432 
1985.000000	99.320344 
1984.000000	99.329584 
1983.000000	99.334518 
1982.000000	99.333802 
1981.000000	99.329364 
1980.000000	99.323954 
1979.000000	99.319359 
1978.000000	99.316335 
1977.000000	99.314334 
1976.000000	99.311485 
1975.000000	99.306545 
1974.000000	99.300993 
1973.000000	99.297859 
1972.000000	99.298277 
1971.000000	99.300481 
1970.000000	99.302380 
1969.000000	99.304096 
1968.000000	99.307220 
1967.000000	99.312095 
1966.000000	99.316643 
1965.000000	99.318088 
1964.000000	99.315413 
1963.000000	99.310032 
1962.000000	99.304667 
1961.000000	99.301373 
1960.000000	99.300225 
1959.000000	99.299706 
1958.000000	99.298239 
1957.000000	99.295442 
1956.000000	99.292095 
1955.000000	99.289010 
1954.000000	99.286069 
1953.000000	99.282605 
1952.000000	99.278708 
1951.000000	99.275719 
1950.000000	99.275010 
1949.000000	99.276482 
1948.000000	99.278567 
1947.000000	99.279645 
1946.000000	99.279030 
1945.000000	99.276700 
1944.000000	99.273088 
1943.000000	99.269437 
1942.000000	99.267215 
1941.000000	99.266448 
1940.000000	99.265657 
1939.000000	99.263820 
1938.000000	99.261654 
1937.000000	99.260623 
1936.000000	99.261132 
1935.000000	99.262135 
1934.000000	99.262316 
1933.000000	99.261336 
1932.000000	99.259820 
1931.000000	99.258670 
1930.000000	99.258455 
1929.000000	99.259052 
1928.000000	99.259669 
1927.000000	99.259454 
1926.000000	99.258184 
1925.000000	99.256270 
1924.000000	99.254379 
1923.000000	99.253011 
1922.000000	99.252360 
1921.000000	99.252322 
1920.000000	99.252559 
1919.000000	99.252707 
1918.000000	99.252610 
1917.000000	99.252324 
1916.000000	99.251945 
1915.000000	99.251602 
1914.000000	99.251491 
1913.000000	99.251649 
1912.000000	99.251751 
1911.000000	99.251425 
1910.000000	99.250722 
1909.000000	99.250022 
1908.000000	99.249501 
1907.000000	99.249070 
1906.000000	99.248762 
1905.000000	99.248707 
1904.000000	99.248655 
1903.000000	99.247935 
1902.000000	99.246187 
1901.000000	99.243797 
1900.000000	99.241560 
1899.000000	99.240141 
1898.000000	99.239785 
1897.000000	99.240196 
1896.000000	99.240590 
1895.000000	99.240344 
1894.000000	99.239735 
1893.000000	99.239527 
1892.000000	99.239933 
1891.000000	99.240443 
1890.000000	99.240597 
1889.000000	99.240549 
1888.000000	99.240664 
1887.000000	99.241021 
1886.000000	99.241448 
1885.000000	99.241603 
1884.000000	99.241101 
1883.000000	99.239963 
1882.000000	99.238851 
1881.000000	99.238411 
1880.000000	99.238549 
1879.000000	99.238584 
1878.000000	99.237958 
1877.000000	99.236630 
1876.000000	99.235076 
1875.000000	99.234156 
1874.000000	99.234621 
1873.000000	99.236361 
1872.000000	99.238127 
1871.000000	99.238523 
1870.000000	99.237283 
1869.000000	99.235417 
1868.000000	99.233823 
1867.000000	99.232328 
1866.000000	99.230784 
1865.000000	99.229775 
1864.000000	99.230059 
1863.000000	99.231975 
1862.000000	99.235247 
1861.000000	99.238821 
1860.000000	99.241196 
1859.000000	99.241691 
1858.000000	99.241203 
1857.000000	99.241274 
1856.000000	99.242398 
1855.000000	99.243918 
1854.000000	99.245238 
1853.000000	99.246342 
1852.000000	99.247228 
1851.000000	99.247614 
1850.000000	99.247443 
1849.000000	99.247113 
1848.000000	99.247048 
1847.000000	99.247392 
1846.000000	99.248266 
1845.000000	99.249628 
1844.000000	99.250703 
1843.000000	99.250650 
1842.000000	99.249913 
1841.000000	99.249660 
1840.000000	99.250455 
1839.000000	99.251938 
1838.000000	99.253476 
1837.000000	99.254849 
1836.000000	99.256105 
1835.000000	99.257141 
1834.000000	99.257834 
1833.000000	99.258382 
1832.000000	99.259277 
1831.000000	99.260642 
1830.000000	99.261996 
1829.000000	99.262991 
1828.000000	99.263860 
1827.000000	99.264628 
1826.000000	99.264855 
1825.000000	99.264562 
1824.000000	99.264346 
1823.000000	99.264336 
1822.000000	99.264023 
1821.000000	99.262943 
1820.000000	99.261093 
1819.000000	99.258831 
1818.000000	99.256929 
1817.000000	99.256342 
1816.000000	99.256998 
1815.000000	99.257683 
1814.000000	99.257922 
1813.000000	99.258892 
1812.000000	99.261906 
1811.000000	99.266380 
1810.000000	99.270549 
1809.000000	99.273673 
1808.000000	99.275561 
1807.000000	99.275574 
1806.000000	99.273640 
1805.000000	99.271001 
1804.000000	99.268968 
1803.000000	99.267601 
1802.000000	99.266520 
1801.000000	99.266238 
1800.000000	99.267022 
1799.000000	99.267884 
1798.000000	99.268198 
1797.000000	99.268548 
1796.000000	99.269458 
1795.000000	99.270618 
1794.000000	99.271400 
1793.000000	99.271556 
1792.000000	99.271407 
1791.000000	99.271287 
1790.000000	99.271480 
1789.000000	99.272274 
1788.000000	99.273587 
1787.000000	99.274910 
1786.000000	99.275748 
1785.000000	99.276026 
1784.000000	99.275962 
1783.000000	99.275874 
1782.000000	99.276049 
1781.000000	99.276554 
1780.000000	99.277125 
1779.000000	99.277489 
1778.000000	99.277733 
1777.000000	99.278141 
1776.000000	99.278803 
1775.000000	99.279626 
1774.000000	99.280482 
1773.000000	99.281265 
1772.000000	99.281895 
1771.000000	99.282359 
1770.000000	99.282717 
1769.000000	99.283046 
1768.000000	99.283414 
1767.000000	99.283838 
1766.000000	99.284298 
1765.000000	99.284778 
1764.000000	99.285271 
1763.000000	99.285773 
1762.000000	99.286281 
1761.000000	99.286800 
1760.000000	99.287335 
1759.000000	99.287881 
1758.000000	99.288421 
1757.000000	99.288939 
1756.000000	99.289432 
1755.000000	99.289887 
1754.000000	99.290271 
1753.000000	99.290555 
1752.000000	99.290811 
1751.000000	99.291212 
1750.000000	99.291852 
1749.000000	99.292609 
1748.000000	99.293267 
1747.000000	99.293754 
1746.000000	99.294088 
1745.000000	99.294314 
1744.000000	99.294538 
1743.000000	99.294851 
1742.000000	99.295207 
1741.000000	99.295478 
1740.000000	99.295625 
1739.000000	99.295704 
1738.000000	99.295745 
1737.000000	99.295717 
1736.000000	99.295558 
1735.000000	99.295185 
1734.000000	99.294680 
1733.000000	99.294389 
1732.000000	99.294533 
1731.000000	99.295036 
1730.000000	99.295630 
1729.000000	99.295968 
1728.000000	99.295919 
1727.000000	99.295644 
1726.000000	99.295323 
1725.000000	99.294947 
1724.000000	99.294477 
1723.000000	99.294077 
1722.000000	99.293988 
1721.000000	99.294309 
1720.000000	99.294880 
1719.000000	99.295229 
1718.000000	99.294758 
1717.000000	99.293539 
1716.000000	99.292138 
1715.000000	99.290707 
1714.000000	99.289352 
1713.000000	99.288311 
1712.000000	99.287585 
1711.000000	99.286984 
1710.000000	99.286352 
1709.000000	99.285651 
1708.000000	99.284886 
1707.000000	99.284043 
1706.000000	99.283240 
1705.000000	99.282588 
1704.000000	99.281804 
1703.000000	99.280434 
1702.000000	99.278415 
1701.000000	99.276320 
1700.000000	99.274983 
1699.000000	99.274179 
1698.000000	99.273345 
1697.000000	99.272553 
1696.000000	99.272008 
1695.000000	99.271418 
1694.000000	99.270508 
1693.000000	99.269372 
1692.000000	99.268065 
1691.000000	99.266581 
1690.000000	99.264996 
1689.000000	99.263473 
1688.000000	99.262044 
1687.000000	99.260528 
1686.000000	99.258858 
1685.000000	99.257287 
1684.000000	99.256071 
1683.000000	99.254929 
1682.000000	99.253647 
1681.000000	99.252104 
1680.000000	99.250512 
1679.000000	99.249147 
1678.000000	99.248024 
1677.000000	99.246896 
1676.000000	99.245601 
1675.000000	99.244393 
1674.000000	99.243433 
1673.000000	99.242541 
1672.000000	99.241589 
1671.000000	99.240881 
1670.000000	99.240688 
1669.000000	99.240421 
1668.000000	99.239422 
1667.000000	99.237966 
1666.000000	99.236140 
1665.000000	99.233785 
1664.000000	99.231295 
1663.000000	99.229804 
1662.000000	99.230016 
1661.000000	99.231084 
1660.000000	99.231502 
1659.000000	99.231256 
1658.000000	99.231374 
1657.000000	99.231837 
1656.000000	99.230825 
1655.000000	99.227478 
1654.000000	99.223637 
1653.000000	99.221497 
1652.000000	99.219872 
1651.000000	99.219654 
1650.000000	99.218763 
1649.000000	99.216025 
1648.000000	99.211520 
1647.000000	99.206635 
1646.000000	99.203182 
1645.000000	99.202694 
1644.000000	99.204808 
1643.000000	99.207661 
1642.000000	99.209725 
1641.000000	99.210721 
1640.000000	99.210975 
1639.000000	99.210778 
1638.000000	99.210303 
1637.000000	99.209702 
1636.000000	99.208744 
1635.000000	99.207876 
1634.000000	99.208829 
1633.000000	99.211333 
1632.000000	99.213678 
1631.000000	99.215177 
1630.000000	99.215927 
1629.000000	99.215856 
1628.000000	99.214886 
1627.000000	99.214082 
1626.000000	99.214902 
1625.000000	99.217511 
1624.000000	99.220602 
1623.000000	99.223040 
1622.000000	99.225120 
1621.000000	99.227251 
1620.000000	99.228768 
1619.000000	99.229215 
1618.000000	99.229296 
1617.000000	99.229682 
1616.000000	99.229989 
1615.000000	99.230508 
1614.000000	99.231462 
1613.000000	99.232102 
1612.000000	99.232244 
1611.000000	99.232356 
1610.000000	99.232753 
1609.000000	99.233024 
1608.000000	99.232998 
1607.000000	99.233604 
1606.000000	99.235453 
1605.000000	99.237849 
1604.000000	99.240023 
1603.000000	99.242362 
1602.000000	99.245229 
1601.000000	99.247825 
1600.000000	99.249469 
1599.000000	99.250906 
1598.000000	99.253193 
1597.000000	99.256302 
1596.000000	99.259507 
1595.000000	99.262408 
1594.000000	99.264847 
1593.000000	99.266331 
1592.000000	99.266657 
1591.000000	99.266740 
1590.000000	99.267871 
1589.000000	99.270153 
1588.000000	99.272649 
1587.000000	99.274813 
1586.000000	99.276708 
1585.000000	99.278132 
1584.000000	99.278690 
1583.000000	99.278625 
1582.000000	99.278945 
1581.000000	99.280214 
1580.000000	99.282076 
1579.000000	99.283989 
1578.000000	99.285725 
1577.000000	99.286966 
1576.000000	99.287414 
1575.000000	99.287854 
1574.000000	99.289115 
1573.000000	99.290608 
1572.000000	99.291623 
1571.000000	99.292219 
1570.000000	99.292921 
1569.000000	99.293850 
1568.000000	99.294722 
1567.000000	99.295446 
1566.000000	99.296029 
1565.000000	99.296486 
1564.000000	99.296897 
1563.000000	99.297347 
1562.000000	99.297802 
1561.000000	99.298078 
1560.000000	99.298102 
1559.000000	99.298132 
1558.000000	99.298389 
1557.000000	99.298729 
1556.000000	99.298981 
1555.000000	99.299128 
1554.000000	99.299216 
1553.000000	99.299275 
1552.000000	99.299319 
1551.000000	99.299348 
1550.000000	99.299351 
1549.000000	99.299315 
1548.000000	99.299235 
1547.000000	99.299115 
1546.000000	99.298955 
1545.000000	99.298761 
1544.000000	99.298544 
1543.000000	99.298312 
1542.000000	99.298068 
1541.000000	99.297811 
1540.000000	99.297531 
1539.000000	99.297225 
1538.000000	99.296899 
1537.000000	99.296564 
1536.000000	99.296220 
1535.000000	99.295862 
1534.000000	99.295484 
1533.000000	99.295084 
1532.000000	99.294655 
1531.000000	99.294188 
1530.000000	99.293682 
1529.000000	99.293172 
1528.000000	99.292681 
1527.000000	99.292170 
1526.000000	99.291593 
1525.000000	99.290995 
1524.000000	99.290430 
1523.000000	99.289875 
1522.000000	99.289363 
1521.000000	99.289007 
1520.000000	99.288618 
1519.000000	99.287843 
1518.000000	99.286628 
1517.000000	99.285366 
1516.000000	99.284422 
1515.000000	99.283713 
1514.000000	99.283011 
1513.000000	99.282311 
1512.000000	99.281701 
1511.000000	99.281011 
1510.000000	99.279827 
1509.000000	99.278024 
1508.000000	99.276370 
1507.000000	99.275854 
1506.000000	99.275670 
1505.000000	99.275041 
1504.000000	99.274389 
1503.000000	99.273760 
1502.000000	99.273267 
1501.000000	99.273170 
1500.000000	99.273529 
1499.000000	99.273857 
1498.000000	99.273415 
1497.000000	99.272539 
1496.000000	99.272132 
1495.000000	99.271419 
1494.000000	99.269082 
1493.000000	99.265234 
1492.000000	99.261016 
1491.000000	99.257698 
1490.000000	99.255835 
1489.000000	99.255138 
1488.000000	99.254562 
1487.000000	99.253210 
1486.000000	99.251482 
1485.000000	99.250094 
1484.000000	99.249082 
1483.000000	99.248072 
1482.000000	99.246610 
1481.000000	99.244543 
1480.000000	99.242129 
1479.000000	99.239749 
1478.000000	99.237727 
1477.000000	99.236140 
1476.000000	99.234480 
1475.000000	99.231597 
1474.000000	99.227634 
1473.000000	99.225049 
1472.000000	99.225545 
1471.000000	99.226949 
1470.000000	99.226868 
1469.000000	99.225745 
1468.000000	99.225040 
1467.000000	99.224952 
1466.000000	99.224535 
1465.000000	99.223360 
1464.000000	99.221895 
1463.000000	99.220659 
1462.000000	99.219823 
1461.000000	99.219740 
1460.000000	99.220302 
1459.000000	99.220031 
1458.000000	99.215560 
1457.000000	99.205538 
1456.000000	99.194797 
1455.000000	99.187268 
1454.000000	99.182165 
1453.000000	99.178791 
1452.000000	99.177080 
1451.000000	99.176372 
1450.000000	99.175949 
1449.000000	99.176703 
1448.000000	99.179660 
1447.000000	99.182829 
1446.000000	99.183648 
1445.000000	99.183154 
1444.000000	99.183642 
1443.000000	99.184985 
1442.000000	99.185030 
1441.000000	99.182992 
1440.000000	99.180888 
1439.000000	99.180690 
1438.000000	99.180629 
1437.000000	99.177365 
1436.000000	99.171616 
1435.000000	99.166068 
1434.000000	99.161530 
1433.000000	99.158637 
1432.000000	99.157811 
1431.000000	99.158749 
1430.000000	99.159695 
1429.000000	99.159079 
1428.000000	99.157195 
1427.000000	99.154374 
1426.000000	99.149830 
1425.000000	99.142843 
1424.000000	99.135563 
1423.000000	99.131065 
1422.000000	99.127987 
1421.000000	99.122580 
1420.000000	99.113531 
1419.000000	99.103026 
1418.000000	99.091258 
1417.000000	99.077095 
1416.000000	99.062888 
1415.000000	99.050949 
1414.000000	99.040147 
1413.000000	99.027972 
1412.000000	99.015240 
1411.000000	99.005493 
1410.000000	98.999346 
1409.000000	98.994646 
1408.000000	98.991032 
1407.000000	98.989823 
1406.000000	98.991411 
1405.000000	98.995653 
1404.000000	99.003537 
1403.000000	99.014358 
1402.000000	99.023945 
1401.000000	99.029503 
1400.000000	99.032893 
1399.000000	99.037437 
1398.000000	99.040285 
1397.000000	99.033860 
1396.000000	99.016194 
1395.000000	98.996959 
1394.000000	98.990287 
1393.000000	99.000591 
1392.000000	99.022142 
1391.000000	99.046200 
1390.000000	99.065699 
1389.000000	99.077018 
1388.000000	99.080253 
1387.000000	99.078329 
1386.000000	99.074419 
1385.000000	99.070703 
1384.000000	99.068941 
1383.000000	99.070254 
1382.000000	99.074253 
1381.000000	99.079894 
1380.000000	99.086573 
1379.000000	99.094119 
1378.000000	99.102018 
1377.000000	99.109408 
1376.000000	99.116324 
1375.000000	99.124138 
1374.000000	99.133801 
1373.000000	99.143959 
1372.000000	99.152888 
1371.000000	99.161305 
1370.000000	99.171420 
1369.000000	99.183259 
1368.000000	99.194954 
1367.000000	99.205399 
1366.000000	99.214886 
1365.000000	99.223665 
1364.000000	99.230982 
1363.000000	99.236501 
1362.000000	99.241585 
1361.000000	99.247240 
1360.000000	99.252551 
1359.000000	99.256762 
1358.000000	99.261097 
1357.000000	99.267284 
1356.000000	99.275244 
1355.000000	99.283147 
1354.000000	99.289485 
1353.000000	99.294179 
1352.000000	99.296961 
1351.000000	99.296868 
1350.000000	99.295503 
1349.000000	99.295460 
1348.000000	99.297654 
1347.000000	99.301463 
1346.000000	99.306570 
1345.000000	99.312589 
1344.000000	99.318127 
1343.000000	99.321751 
1342.000000	99.323555 
1341.000000	99.324278 
1340.000000	99.323765 
1339.000000	99.321777 
1338.000000	99.319404 
1337.000000	99.318498 
1336.000000	99.319815 
1335.000000	99.322326 
1334.000000	99.324701 
1333.000000	99.326698 
1332.000000	99.328641 
1331.000000	99.330458 
1330.000000	99.331586 
1329.000000	99.331182 
1328.000000	99.328951 
1327.000000	99.325984 
1326.000000	99.324319 
1325.000000	99.324480 
1324.000000	99.325779 
1323.000000	99.327754 
1322.000000	99.329996 
1321.000000	99.331153 
1320.000000	99.329990 
1319.000000	99.327464 
1318.000000	99.326147 
1317.000000	99.327229 
1316.000000	99.329146 
1315.000000	99.329654 
1314.000000	99.328259 
1313.000000	99.326351 
1312.000000	99.325322 
1311.000000	99.325180 
1310.000000	99.325114 
1309.000000	99.324868 
1308.000000	99.325117 
1307.000000	99.326335 
1306.000000	99.327988 
1305.000000	99.328713 
1304.000000	99.328256 
1303.000000	99.327894 
1302.000000	99.328914 
1301.000000	99.331037 
1300.000000	99.332862 
1299.000000	99.333224 
1298.000000	99.331792 
1297.000000	99.329047 
1296.000000	99.326165 
1295.000000	99.324863 
1294.000000	99.326287 
1293.000000	99.329901 
1292.000000	99.333621 
1291.000000	99.335095 
1290.000000	99.333338 
1289.000000	99.329655 
1288.000000	99.326753 
1287.000000	99.326189 
1286.000000	99.326698 
1285.000000	99.325910 
1284.000000	99.323441 
1283.000000	99.321191 
1282.000000	99.320507 
1281.000000	99.320539 
1280.000000	99.319971 
1279.000000	99.318899 
1278.000000	99.317901 
1277.000000	99.316612 
1276.000000	99.314220 
1275.000000	99.310935 
1274.000000	99.307863 
1273.000000	99.305687 
1272.000000	99.304060 
1271.000000	99.301959 
1270.000000	99.298193 
1269.000000	99.292235 
1268.000000	99.285174 
1267.000000	99.279128 
1266.000000	99.274861 
1265.000000	99.270987 
1264.000000	99.266060 
1263.000000	99.260282 
1262.000000	99.254385 
1261.000000	99.248296 
1260.000000	99.242169 
1259.000000	99.237536 
1258.000000	99.235376 
1257.000000	99.234215 
1256.000000	99.231853 
1255.000000	99.228265 
1254.000000	99.224963 
1253.000000	99.222175 
1252.000000	99.218839 
1251.000000	99.215389 
1250.000000	99.214280 
1249.000000	99.217244 
1248.000000	99.223718 
1247.000000	99.231915 
1246.000000	99.239166 
1245.000000	99.241276 
1244.000000	99.234750 
1243.000000	99.221835 
1242.000000	99.211617 
1241.000000	99.212973 
1240.000000	99.226051 
1239.000000	99.241757 
1238.000000	99.249842 
1237.000000	99.246684 
1236.000000	99.235509 
1235.000000	99.221411 
1234.000000	99.207396 
1233.000000	99.194391 
1232.000000	99.183038 
1231.000000	99.173963 
1230.000000	99.166573 
1229.000000	99.159080 
1228.000000	99.150425 
1227.000000	99.141640 
1226.000000	99.134638 
1225.000000	99.129722 
1224.000000	99.124769 
1223.000000	99.117001 
1222.000000	99.105443 
1221.000000	99.091678 
1220.000000	99.078288 
1219.000000	99.066448 
1218.000000	99.054869 
1217.000000	99.041197 
1216.000000	99.024301 
1215.000000	99.004973 
1214.000000	98.984746 
1213.000000	98.964560 
1212.000000	98.944269 
1211.000000	98.922562 
1210.000000	98.897684 
1209.000000	98.869327 
1208.000000	98.839758 
1207.000000	98.812061 
1206.000000	98.787263 
1205.000000	98.764089 
1204.000000	98.741011 
1203.000000	98.716961 
1202.000000	98.690427 
1201.000000	98.660115 
1200.000000	98.627030 
1199.000000	98.594172 
1198.000000	98.563511 
1197.000000	98.534819 
1196.000000	98.507561 
1195.000000	98.481721 
1194.000000	98.456095 
1193.000000	98.427906 
1192.000000	98.395625 
1191.000000	98.360972 
1190.000000	98.327131 
1189.000000	98.296073 
1188.000000	98.268068 
1187.000000	98.241986 
1186.000000	98.215057 
1185.000000	98.184097 
1184.000000	98.148158 
1183.000000	98.108983 
1182.000000	98.068585 
1181.000000	98.027984 
1180.000000	97.988534 
1179.000000	97.951837 
1178.000000	97.916903 
1177.000000	97.879671 
1176.000000	97.837256 
1175.000000	97.791095 
1174.000000	97.744452 
1173.000000	97.698510 
1172.000000	97.652844 
1171.000000	97.607944 
1170.000000	97.564824 
1169.000000	97.523120 
1168.000000	97.481664 
1167.000000	97.440462 
1166.000000	97.401089 
1165.000000	97.366523 
1164.000000	97.341838 
1163.000000	97.333058 
1162.000000	97.342689 
1161.000000	97.366248 
1160.000000	97.393993 
1159.000000	97.416036 
1158.000000	97.426162 
1157.000000	97.422679 
1156.000000	97.407168 
1155.000000	97.382061 
1154.000000	97.348761 
1153.000000	97.308380 
1152.000000	97.263939 
1151.000000	97.220003 
1150.000000	97.179363 
1149.000000	97.141392 
1148.000000	97.104031 
1147.000000	97.065645 
1146.000000	97.024777 
1145.000000	96.980625 
1144.000000	96.934915 
1143.000000	96.891247 
1142.000000	96.851159 
1141.000000	96.812335 
1140.000000	96.771529 
1139.000000	96.727505 
1138.000000	96.680651 
1137.000000	96.632124 
1136.000000	96.584259 
1135.000000	96.539392 
1134.000000	96.496949 
1133.000000	96.453676 
1132.000000	96.407585 
1131.000000	96.359516 
1130.000000	96.310266 
1129.000000	96.258894 
1128.000000	96.204782 
1127.000000	96.148784 
1126.000000	96.091463 
1125.000000	96.032899 
1124.000000	95.974877 
1123.000000	95.919961 
1122.000000	95.867208 
1121.000000	95.812318 
1120.000000	95.753556 
1119.000000	95.694063 
1118.000000	95.636612 
1117.000000	95.579683 
1116.000000	95.520914 
1115.000000	95.461007 
1114.000000	95.401895 
1113.000000	95.343930 
1112.000000	95.287120 
1111.000000	95.232497 
1110.000000	95.180320 
1109.000000	95.129030 
1108.000000	95.077105 
1107.000000	95.023978 
1106.000000	94.969135 
1105.000000	94.912612 
1104.000000	94.856335 
1103.000000	94.802422 
1102.000000	94.750485 
1101.000000	94.699149 
1100.000000	94.649761 
1099.000000	94.603685 
1098.000000	94.558824 
1097.000000	94.511766 
1096.000000	94.463198 
1095.000000	94.416335 
1094.000000	94.370171 
1093.000000	94.319552 
1092.000000	94.262651 
1091.000000	94.203232 
1090.000000	94.144233 
1089.000000	94.083966 
1088.000000	94.020762 
1087.000000	93.956984 
1086.000000	93.895918 
1085.000000	93.838058 
1084.000000	93.782446 
1083.000000	93.728352 
1082.000000	93.674084 
1081.000000	93.617819 
1080.000000	93.561249 
1079.000000	93.508767 
1078.000000	93.461633 
1077.000000	93.417032 
1076.000000	93.374133 
1075.000000	93.336019 
1074.000000	93.303738 
1073.000000	93.273151 
1072.000000	93.238644 
1071.000000	93.193986 
1070.000000	93.129146 
1069.000000	93.035791 
1068.000000	92.921078 
1067.000000	92.809790 
1066.000000	92.725190 
1065.000000	92.670007 
1064.000000	92.629533 
1063.000000	92.586883 
1062.000000	92.530643 
1061.000000	92.454727 
1060.000000	92.360604 
1059.000000	92.259737 
1058.000000	92.167644 
1057.000000	92.092960 
1056.000000	92.032441 
1055.000000	91.974122 
1054.000000	91.904767 
1053.000000	91.818863 
1052.000000	91.723053 
1051.000000	91.628910 
1050.000000	91.540571 
1049.000000	91.454234 
1048.000000	91.368979 
1047.000000	91.289305 
1046.000000	91.215682 
1045.000000	91.141385 
1044.000000	91.061635 
1043.000000	90.979285 
1042.000000	90.898769 
1041.000000	90.820290 
1040.000000	90.743305 
1039.000000	90.670978 
1038.000000	90.608028 
1037.000000	90.557453 
1036.000000	90.520518 
1035.000000	90.495894 
1034.000000	90.478252 
1033.000000	90.461511 
1032.000000	90.442416 
1031.000000	90.417264 
1030.000000	90.380149 
1029.000000	90.333219 
1028.000000	90.295065 
1027.000000	90.286776 
1026.000000	90.308511 
1025.000000	90.338993 
1024.000000	90.358943 
1023.000000	90.365384 
1022.000000	90.362760 
1021.000000	90.353095 
1020.000000	90.339217 
1019.000000	90.327021 
1018.000000	90.318399 
1017.000000	90.308898 
1016.000000	90.296463 
1015.000000	90.285869 
1014.000000	90.281258 
1013.000000	90.280810 
1012.000000	90.281344 
1011.000000	90.281847 
1010.000000	90.281020 
1009.000000	90.278553 
1008.000000	90.280056 
1007.000000	90.292887 
1006.000000	90.315644 
1005.000000	90.339638 
1004.000000	90.361919 
1003.000000	90.388026 
1002.000000	90.420225 
1001.000000	90.452684 
1000.000000	90.481315 
999.000000	 90.509431 
998.000000	 90.540016 
997.000000	 90.570931 
996.000000	 90.601900 
995.000000	 90.638376 
994.000000	 90.683694 
993.000000	 90.733706 
992.000000	 90.782990 
991.000000	 90.830692 
990.000000	 90.877493 
989.000000	 90.923017 
988.000000	 90.969047 
987.000000	 91.019444 
986.000000	 91.074606 
985.000000	 91.132067 
984.000000	 91.193837 
983.000000	 91.265864 
982.000000	 91.348559 
981.000000	 91.434916 
980.000000	 91.520189 
979.000000	 91.606978 
978.000000	 91.698473 
977.000000	 91.793926 
976.000000	 91.893456 
975.000000	 91.999993 
974.000000	 92.113030 
973.000000	 92.226765 
972.000000	 92.337669 
971.000000	 92.448074 
970.000000	 92.559544 
969.000000	 92.668955 
968.000000	 92.774470 
967.000000	 92.879570 
966.000000	 92.987276 
965.000000	 93.095056 
964.000000	 93.199063 
963.000000	 93.299288 
962.000000	 93.397264 
961.000000	 93.492355 
960.000000	 93.583400 
959.000000	 93.670929 
958.000000	 93.755420 
957.000000	 93.836332 
956.000000	 93.914718 
955.000000	 93.993426 
954.000000	 94.072680 
953.000000	 94.148440 
952.000000	 94.216890 
951.000000	 94.277891 
950.000000	 94.333073 
949.000000	 94.383691 
948.000000	 94.431704 
947.000000	 94.479756 
946.000000	 94.528447 
945.000000	 94.576075 
944.000000	 94.621639 
943.000000	 94.664987 
942.000000	 94.703817 
941.000000	 94.734782 
940.000000	 94.758939 
939.000000	 94.782417 
938.000000	 94.809863 
937.000000	 94.840174 
936.000000	 94.869956 
935.000000	 94.897777 
934.000000	 94.923711 
933.000000	 94.948113 
932.000000	 94.972697 
931.000000	 95.000126 
930.000000	 95.031024 
929.000000	 95.063619 
928.000000	 95.096868 
927.000000	 95.131071 
926.000000	 95.165002 
925.000000	 95.195711 
924.000000	 95.221849 
923.000000	 95.244094 
922.000000	 95.261896 
921.000000	 95.273346 
920.000000	 95.279249 
919.000000	 95.284034 
918.000000	 95.291441 
917.000000	 95.301988 
916.000000	 95.315176 
915.000000	 95.331129 
914.000000	 95.349640 
913.000000	 95.371054 
912.000000	 95.398709 
911.000000	 95.436764 
910.000000	 95.484611 
909.000000	 95.536895 
908.000000	 95.590179 
907.000000	 95.646476 
906.000000	 95.709580 
905.000000	 95.781185 
904.000000	 95.860988 
903.000000	 95.947187 
902.000000	 96.036397 
901.000000	 96.126105 
900.000000	 96.217339 
899.000000	 96.312058 
898.000000	 96.408160 
897.000000	 96.499846 
896.000000	 96.582674 
895.000000	 96.656144 
894.000000	 96.722983 
893.000000	 96.788949 
892.000000	 96.861384 
891.000000	 96.943370 
890.000000	 97.029511 
889.000000	 97.111282 
888.000000	 97.185707 
887.000000	 97.254877 
886.000000	 97.318469 
885.000000	 97.372680 
884.000000	 97.417326 
883.000000	 97.458518 
882.000000	 97.501825 
881.000000	 97.546903 
880.000000	 97.591935 
879.000000	 97.639873 
878.000000	 97.696085 
877.000000	 97.760751 
876.000000	 97.826424 
875.000000	 97.883479 
874.000000	 97.927828 
873.000000	 97.964494 
872.000000	 98.004127 
871.000000	 98.054593 
870.000000	 98.114585 
869.000000	 98.175322 
868.000000	 98.228322 
867.000000	 98.271737 
866.000000	 98.311174 
865.000000	 98.355748 
864.000000	 98.411976 
863.000000	 98.479094 
862.000000	 98.549738 
861.000000	 98.615761 
860.000000	 98.673272 
859.000000	 98.723018 
858.000000	 98.768811 
857.000000	 98.816148 
856.000000	 98.868823 
855.000000	 98.924287 
854.000000	 98.974470 
853.000000	 99.013624 
852.000000	 99.043771 
851.000000	 99.070669 
850.000000	 99.096795 
849.000000	 99.121047 
848.000000	 99.143112 
847.000000	 99.164212 
846.000000	 99.184348 
845.000000	 99.202431 
844.000000	 99.219059 
843.000000	 99.235757 
842.000000	 99.250690 
841.000000	 99.257932 
840.000000	 99.252882 
839.000000	 99.237625 
838.000000	 99.219669 
837.000000	 99.204827 
836.000000	 99.191768 
835.000000	 99.174798 
834.000000	 99.152619 
833.000000	 99.132127 
832.000000	 99.120272 
831.000000	 99.113669 
830.000000	 99.102555 
829.000000	 99.086882 
828.000000	 99.081076 
827.000000	 99.096513 
826.000000	 99.124795 
825.000000	 99.147770 
824.000000	 99.160649 
823.000000	 99.173850 
822.000000	 99.193278 
821.000000	 99.211297 
820.000000	 99.219004 
819.000000	 99.216991 
818.000000	 99.211129 
817.000000	 99.204714 
816.000000	 99.197217 
815.000000	 99.185224 
814.000000	 99.161471 
813.000000	 99.117196 
812.000000	 99.049137 
811.000000	 98.961915 
810.000000	 98.860618 
809.000000	 98.742841 
808.000000	 98.600765 
807.000000	 98.429397 
806.000000	 98.230927 
805.000000	 98.013749 
804.000000	 97.791068 
803.000000	 97.578887 
802.000000	 97.390507 
801.000000	 97.232223 
800.000000	 97.105574 
799.000000	 97.012046 
798.000000	 96.954134 
797.000000	 96.933778 
796.000000	 96.950170 
795.000000	 96.996338 
794.000000	 97.058573 
793.000000	 97.123174 
792.000000	 97.183088 
791.000000	 97.234647 
790.000000	 97.270889 
789.000000	 97.284666 
788.000000	 97.277430 
787.000000	 97.257854 
786.000000	 97.230412 
785.000000	 97.190970 
784.000000	 97.135655 
783.000000	 97.068843 
782.000000	 96.999901 
781.000000	 96.936907 
780.000000	 96.886342 
779.000000	 96.854107 
778.000000	 96.843157 
777.000000	 96.853621 
776.000000	 96.887107 
775.000000	 96.945966 
774.000000	 97.025765 
773.000000	 97.113446 
772.000000	 97.196448 
771.000000	 97.270311 
770.000000	 97.335128 
769.000000	 97.389145 
768.000000	 97.430124 
767.000000	 97.460458 
766.000000	 97.486377 
765.000000	 97.512094 
764.000000	 97.537036 
763.000000	 97.558257 
762.000000	 97.574068 
761.000000	 97.586489 
760.000000	 97.601712 
759.000000	 97.626497 
758.000000	 97.661518 
757.000000	 97.699102 
756.000000	 97.730005 
755.000000	 97.752853 
754.000000	 97.775839 
753.000000	 97.808734 
752.000000	 97.853815 
751.000000	 97.903774 
750.000000	 97.947099 
749.000000	 97.976203 
748.000000	 97.992589 
747.000000	 98.006042 
746.000000	 98.028596 
745.000000	 98.066532 
744.000000	 98.115780 
743.000000	 98.165517 
742.000000	 98.208358 
741.000000	 98.247140 
740.000000	 98.290541 
739.000000	 98.342949 
738.000000	 98.400412 
737.000000	 98.455527 
736.000000	 98.503661 
735.000000	 98.545276 
734.000000	 98.585544 
733.000000	 98.630829 
732.000000	 98.681644 
731.000000	 98.728779 
730.000000	 98.760293 
729.000000	 98.772334 
728.000000	 98.772800 
727.000000	 98.773753 
726.000000	 98.780797 
725.000000	 98.793748 
724.000000	 98.813601 
723.000000	 98.842528 
722.000000	 98.878094 
721.000000	 98.912982 
720.000000	 98.941746 
719.000000	 98.964448 
718.000000	 98.983176 
717.000000	 98.999653 
716.000000	 99.016418 
715.000000	 99.036135 
714.000000	 99.058185 
713.000000	 99.077903 
712.000000	 99.091778 
711.000000	 99.101004 
710.000000	 99.109489 
709.000000	 99.118556 
708.000000	 99.123048 
707.000000	 99.117430 
706.000000	 99.100787 
705.000000	 99.077470 
704.000000	 99.053360 
703.000000	 99.027543 
702.000000	 98.991226 
701.000000	 98.936188 
700.000000	 98.859646 
699.000000	 98.764452 
698.000000	 98.656314 
697.000000	 98.545925 
696.000000	 98.451585 
695.000000	 98.389578 
694.000000	 98.366812 
693.000000	 98.382892 
692.000000	 98.432570 
691.000000	 98.505831 
690.000000	 98.585641 
689.000000	 98.655282 
688.000000	 98.709286 
687.000000	 98.751504 
686.000000	 98.788152 
685.000000	 98.823297 
684.000000	 98.856802 
683.000000	 98.886702 
682.000000	 98.913542 
681.000000	 98.942298 
680.000000	 98.976289 
679.000000	 99.010781 
678.000000	 99.035693 
677.000000	 99.041298 
676.000000	 99.032865 
675.000000	 99.032457 
674.000000	 99.057110 
673.000000	 99.102851 
672.000000	 99.158627 
671.000000	 99.226213 
670.000000	 99.318660 
669.000000	 99.424956 
668.000000	 99.464909 
667.000000	 99.401080 
666.000000	 99.330614 
665.000000	 99.296769 
664.000000	 99.282651 
663.000000	 99.278694 
662.000000	 99.287058 
661.000000	 99.307484 
660.000000	 99.335588 
659.000000	 99.364518 
658.000000	 99.381035 
657.000000	 99.369000 
656.000000	 99.335281 
655.000000	 99.312607 
654.000000	 99.316427 
653.000000	 99.324034 
652.000000	 99.314813 
651.000000	 99.299678 
650.000000	 99.299148 

