4000.000000	99.080524 
3999.000000	99.080911 
3998.000000	99.080246 
3997.000000	99.078364 
3996.000000	99.075402 
3995.000000	99.072002 
3994.000000	99.069173 
3993.000000	99.067865 
3992.000000	99.068438 
3991.000000	99.070346 
3990.000000	99.072429 
3989.000000	99.073797 
3988.000000	99.074600 
3987.000000	99.075811 
3986.000000	99.078064 
3985.000000	99.080696 
3984.000000	99.082103 
3983.000000	99.081129 
3982.000000	99.078022 
3981.000000	99.073992 
3980.000000	99.070062 
3979.000000	99.066589 
3978.000000	99.063887 
3977.000000	99.062959 
3976.000000	99.065092 
3975.000000	99.070518 
3974.000000	99.077669 
3973.000000	99.083954 
3972.000000	99.087321 
3971.000000	99.087224 
3970.000000	99.084568 
3969.000000	99.081018 
3968.000000	99.078062 
3967.000000	99.076414 
3966.000000	99.076021 
3965.000000	99.076582 
3964.000000	99.077973 
3963.000000	99.079937 
3962.000000	99.081470 
3961.000000	99.081065 
3960.000000	99.078070 
3959.000000	99.073607 
3958.000000	99.069830 
3957.000000	99.068097 
3956.000000	99.067963 
3955.000000	99.068083 
3954.000000	99.067656 
3953.000000	99.066777 
3952.000000	99.065900 
3951.000000	99.065749 
3950.000000	99.067618 
3949.000000	99.072501 
3948.000000	99.079223 
3947.000000	99.084436 
3946.000000	99.085350 
3945.000000	99.082296 
3944.000000	99.078514 
3943.000000	99.077277 
3942.000000	99.078928 
3941.000000	99.080812 
3940.000000	99.080150 
3939.000000	99.076009 
3938.000000	99.068975 
3937.000000	99.060493 
3936.000000	99.052876 
3935.000000	99.049339 
3934.000000	99.052710 
3933.000000	99.063157 
3932.000000	99.076863 
3931.000000	99.087432 
3930.000000	99.089908 
3929.000000	99.083961 
3928.000000	99.073810 
3927.000000	99.065563 
3926.000000	99.063617 
3925.000000	99.068083 
3924.000000	99.074751 
3923.000000	99.078466 
3922.000000	99.077489 
3921.000000	99.074440 
3920.000000	99.073409 
3919.000000	99.076742 
3918.000000	99.083893 
3917.000000	99.092249 
3916.000000	99.098625 
3915.000000	99.100805 
3914.000000	99.098848 
3913.000000	99.094939 
3912.000000	99.091821 
3911.000000	99.090840 
3910.000000	99.091595 
3909.000000	99.093100 
3908.000000	99.094609 
3907.000000	99.095384 
3906.000000	99.094560 
3905.000000	99.091862 
3904.000000	99.088368 
3903.000000	99.085552 
3902.000000	99.084509 
3901.000000	99.086337 
3900.000000	99.091360 
3899.000000	99.097801 
3898.000000	99.102230 
3897.000000	99.102155 
3896.000000	99.097990 
3895.000000	99.091823 
3894.000000	99.085284 
3893.000000	99.079340 
3892.000000	99.075376 
3891.000000	99.074541 
3890.000000	99.075965 
3889.000000	99.077675 
3888.000000	99.078608 
3887.000000	99.079069 
3886.000000	99.080565 
3885.000000	99.084005 
3884.000000	99.087483 
3883.000000	99.088674 
3882.000000	99.088634 
3881.000000	99.090417 
3880.000000	99.094451 
3879.000000	99.097014 
3878.000000	99.094854 
3877.000000	99.089558 
3876.000000	99.085638 
3875.000000	99.085839 
3874.000000	99.088977 
3873.000000	99.091498 
3872.000000	99.091339 
3871.000000	99.090502 
3870.000000	99.093035 
3869.000000	99.099754 
3868.000000	99.106875 
3867.000000	99.110739 
3866.000000	99.110811 
3865.000000	99.108530 
3864.000000	99.105450 
3863.000000	99.102217 
3862.000000	99.099303 
3861.000000	99.097864 
3860.000000	99.098543 
3859.000000	99.100908 
3858.000000	99.104694 
3857.000000	99.110127 
3856.000000	99.116354 
3855.000000	99.120740 
3854.000000	99.123376 
3853.000000	99.128387 
3852.000000	99.133947 
3851.000000	99.133054 
3850.000000	99.125249 
3849.000000	99.115199 
3848.000000	99.106180 
3847.000000	99.098697 
3846.000000	99.092465 
3845.000000	99.088194 
3844.000000	99.087399 
3843.000000	99.090994 
3842.000000	99.098677 
3841.000000	99.108471 
3840.000000	99.117068 
3839.000000	99.121676 
3838.000000	99.121782 
3837.000000	99.119076 
3836.000000	99.115973 
3835.000000	99.114203 
3834.000000	99.114671 
3833.000000	99.117072 
3832.000000	99.119800 
3831.000000	99.120861 
3830.000000	99.118789 
3829.000000	99.113391 
3828.000000	99.106197 
3827.000000	99.099826 
3826.000000	99.096779 
3825.000000	99.098019 
3824.000000	99.102160 
3823.000000	99.106328 
3822.000000	99.108786 
3821.000000	99.111047 
3820.000000	99.115187 
3819.000000	99.120180 
3818.000000	99.123903 
3817.000000	99.125038 
3816.000000	99.122856 
3815.000000	99.117718 
3814.000000	99.110379 
3813.000000	99.102250 
3812.000000	99.096872 
3811.000000	99.097686 
3810.000000	99.104129 
3809.000000	99.111358 
3808.000000	99.114310 
3807.000000	99.112683 
3806.000000	99.110722 
3805.000000	99.111577 
3804.000000	99.114933 
3803.000000	99.118969 
3802.000000	99.122077 
3801.000000	99.124153 
3800.000000	99.124899 
3799.000000	99.122173 
3798.000000	99.115377 
3797.000000	99.107048 
3796.000000	99.100512 
3795.000000	99.097477 
3794.000000	99.097092 
3793.000000	99.097184 
3792.000000	99.096282 
3791.000000	99.094483 
3790.000000	99.092833 
3789.000000	99.092250 
3788.000000	99.092643 
3787.000000	99.093101 
3786.000000	99.093097 
3785.000000	99.093246 
3784.000000	99.094381 
3783.000000	99.096220 
3782.000000	99.097425 
3781.000000	99.097196 
3780.000000	99.096479 
3779.000000	99.096806 
3778.000000	99.097952 
3777.000000	99.098004 
3776.000000	99.096003 
3775.000000	99.093370 
3774.000000	99.092646 
3773.000000	99.095076 
3772.000000	99.099406 
3771.000000	99.102993 
3770.000000	99.104152 
3769.000000	99.103015 
3768.000000	99.100628 
3767.000000	99.098357 
3766.000000	99.097311 
3765.000000	99.097298 
3764.000000	99.097000 
3763.000000	99.095369 
3762.000000	99.092752 
3761.000000	99.090565 
3760.000000	99.090327 
3759.000000	99.092639 
3758.000000	99.096641 
3757.000000	99.101437 
3756.000000	99.107614 
3755.000000	99.116299 
3754.000000	99.127505 
3753.000000	99.139351 
3752.000000	99.148669 
3751.000000	99.152780 
3750.000000	99.151369 
3749.000000	99.147338 
3748.000000	99.145558 
3747.000000	99.148871 
3746.000000	99.154870 
3745.000000	99.158656 
3744.000000	99.158809 
3743.000000	99.155185 
3742.000000	99.146166 
3741.000000	99.133332 
3740.000000	99.120506 
3739.000000	99.109182 
3738.000000	99.099617 
3737.000000	99.095238 
3736.000000	99.101838 
3735.000000	99.118800 
3734.000000	99.135204 
3733.000000	99.140175 
3732.000000	99.133292 
3731.000000	99.121579 
3730.000000	99.111058 
3729.000000	99.103638 
3728.000000	99.099304 
3727.000000	99.098204 
3726.000000	99.100005 
3725.000000	99.102289 
3724.000000	99.101812 
3723.000000	99.097930 
3722.000000	99.093110 
3721.000000	99.089563 
3720.000000	99.086836 
3719.000000	99.082633 
3718.000000	99.075274 
3717.000000	99.065672 
3716.000000	99.056565 
3715.000000	99.049734 
3714.000000	99.044790 
3713.000000	99.040543 
3712.000000	99.037049 
3711.000000	99.034612 
3710.000000	99.030744 
3709.000000	99.021358 
3708.000000	99.005116 
3707.000000	98.984981 
3706.000000	98.966014 
3705.000000	98.951733 
3704.000000	98.942087 
3703.000000	98.934027 
3702.000000	98.924177 
3701.000000	98.911075 
3700.000000	98.895290 
3699.000000	98.878762 
3698.000000	98.864064 
3697.000000	98.853580 
3696.000000	98.848799 
3695.000000	98.849522 
3694.000000	98.853912 
3693.000000	98.859392 
3692.000000	98.863092 
3691.000000	98.862444 
3690.000000	98.857352 
3689.000000	98.851344 
3688.000000	98.847638 
3687.000000	98.845285 
3686.000000	98.841776 
3685.000000	98.837001 
3684.000000	98.833031 
3683.000000	98.831130 
3682.000000	98.830023 
3681.000000	98.827332 
3680.000000	98.822220 
3679.000000	98.815517 
3678.000000	98.807154 
3677.000000	98.795745 
3676.000000	98.783432 
3675.000000	98.775581 
3674.000000	98.770878 
3673.000000	98.761910 
3672.000000	98.744672 
3671.000000	98.721469 
3670.000000	98.699931 
3669.000000	98.686715 
3668.000000	98.679571 
3667.000000	98.672460 
3666.000000	98.662928 
3665.000000	98.650572 
3664.000000	98.634901 
3663.000000	98.616116 
3662.000000	98.596120 
3661.000000	98.577633 
3660.000000	98.561957 
3659.000000	98.547926 
3658.000000	98.533507 
3657.000000	98.518622 
3656.000000	98.506001 
3655.000000	98.497845 
3654.000000	98.493542 
3653.000000	98.490546 
3652.000000	98.484108 
3651.000000	98.468342 
3650.000000	98.442711 
3649.000000	98.416096 
3648.000000	98.397358 
3647.000000	98.386429 
3646.000000	98.378439 
3645.000000	98.370192 
3644.000000	98.361662 
3643.000000	98.354302 
3642.000000	98.348948 
3641.000000	98.344587 
3640.000000	98.338763 
3639.000000	98.329572 
3638.000000	98.317139 
3637.000000	98.302736 
3636.000000	98.287308 
3635.000000	98.271659 
3634.000000	98.257646 
3633.000000	98.247277 
3632.000000	98.239415 
3631.000000	98.227932 
3630.000000	98.206044 
3629.000000	98.176612 
3628.000000	98.151276 
3627.000000	98.135371 
3626.000000	98.127206 
3625.000000	98.125003 
3624.000000	98.126668 
3623.000000	98.129533 
3622.000000	98.132071 
3621.000000	98.135241 
3620.000000	98.142416 
3619.000000	98.156502 
3618.000000	98.176076 
3617.000000	98.197330 
3616.000000	98.218690 
3615.000000	98.240341 
3614.000000	98.261395 
3613.000000	98.279656 
3612.000000	98.293743 
3611.000000	98.304690 
3610.000000	98.314806 
3609.000000	98.325247 
3608.000000	98.335560 
3607.000000	98.345260 
3606.000000	98.355267 
3605.000000	98.367270 
3604.000000	98.381506 
3603.000000	98.396099 
3602.000000	98.408880 
3601.000000	98.419069 
3600.000000	98.426962 
3599.000000	98.432611 
3598.000000	98.435791 
3597.000000	98.437418 
3596.000000	98.439883 
3595.000000	98.445388 
3594.000000	98.454123 
3593.000000	98.463835 
3592.000000	98.471704 
3591.000000	98.476248 
3590.000000	98.477568 
3589.000000	98.477521 
3588.000000	98.479436 
3587.000000	98.484108 
3586.000000	98.487307 
3585.000000	98.485503 
3584.000000	98.480798 
3583.000000	98.477629 
3582.000000	98.477815 
3581.000000	98.479544 
3580.000000	98.479823 
3579.000000	98.477056 
3578.000000	98.471713 
3577.000000	98.465383 
3576.000000	98.459899 
3575.000000	98.456665 
3574.000000	98.455993 
3573.000000	98.456945 
3572.000000	98.457896 
3571.000000	98.457456 
3570.000000	98.454633 
3569.000000	98.449356 
3568.000000	98.444254 
3567.000000	98.443495 
3566.000000	98.446992 
3565.000000	98.449451 
3564.000000	98.447164 
3563.000000	98.441587 
3562.000000	98.436907 
3561.000000	98.435833 
3560.000000	98.437178 
3559.000000	98.437221 
3558.000000	98.433685 
3557.000000	98.427982 
3556.000000	98.423436 
3555.000000	98.421760 
3554.000000	98.421468 
3553.000000	98.419878 
3552.000000	98.416187 
3551.000000	98.411986 
3550.000000	98.408834 
3549.000000	98.406132 
3548.000000	98.402294 
3547.000000	98.397662 
3546.000000	98.394536 
3545.000000	98.393553 
3544.000000	98.392222 
3543.000000	98.388502 
3542.000000	98.384091 
3541.000000	98.382585 
3540.000000	98.385002 
3539.000000	98.388513 
3538.000000	98.389715 
3537.000000	98.388308 
3536.000000	98.386730 
3535.000000	98.386636 
3534.000000	98.387116 
3533.000000	98.386390 
3532.000000	98.384453 
3531.000000	98.383238 
3530.000000	98.384447 
3529.000000	98.387444 
3528.000000	98.389680 
3527.000000	98.389014 
3526.000000	98.385220 
3525.000000	98.379433 
3524.000000	98.373195 
3523.000000	98.368240 
3522.000000	98.366228 
3521.000000	98.367790 
3520.000000	98.371797 
3519.000000	98.376177 
3518.000000	98.379453 
3517.000000	98.381325 
3516.000000	98.381910 
3515.000000	98.381097 
3514.000000	98.378828 
3513.000000	98.375392 
3512.000000	98.371202 
3511.000000	98.366623 
3510.000000	98.362117 
3509.000000	98.358250 
3508.000000	98.355602 
3507.000000	98.354736 
3506.000000	98.355821 
3505.000000	98.357715 
3504.000000	98.358097 
3503.000000	98.355752 
3502.000000	98.352690 
3501.000000	98.352732 
3500.000000	98.357202 
3499.000000	98.362710 
3498.000000	98.363828 
3497.000000	98.357977 
3496.000000	98.347379 
3495.000000	98.336448 
3494.000000	98.328371 
3493.000000	98.324164 
3492.000000	98.323625 
3491.000000	98.326067 
3490.000000	98.330445 
3489.000000	98.335554 
3488.000000	98.340214 
3487.000000	98.343155 
3486.000000	98.343125 
3485.000000	98.339804 
3484.000000	98.334441 
3483.000000	98.329011 
3482.000000	98.324585 
3481.000000	98.320873 
3480.000000	98.317422 
3479.000000	98.314504 
3478.000000	98.312438 
3477.000000	98.310832 
3476.000000	98.309423 
3475.000000	98.309267 
3474.000000	98.311714 
3473.000000	98.315913 
3472.000000	98.318487 
3471.000000	98.316703 
3470.000000	98.311591 
3469.000000	98.306881 
3468.000000	98.304891 
3467.000000	98.304323 
3466.000000	98.302432 
3465.000000	98.298551 
3464.000000	98.294640 
3463.000000	98.292708 
3462.000000	98.292489 
3461.000000	98.291964 
3460.000000	98.289689 
3459.000000	98.286166 
3458.000000	98.282957 
3457.000000	98.280839 
3456.000000	98.279062 
3455.000000	98.276416 
3454.000000	98.272763 
3453.000000	98.269113 
3452.000000	98.266275 
3451.000000	98.263738 
3450.000000	98.260227 
3449.000000	98.255211 
3448.000000	98.249509 
3447.000000	98.244386 
3446.000000	98.240408 
3445.000000	98.237509 
3444.000000	98.235709 
3443.000000	98.234976 
3442.000000	98.234449 
3441.000000	98.232580 
3440.000000	98.228445 
3439.000000	98.222578 
3438.000000	98.216164 
3437.000000	98.209678 
3436.000000	98.202963 
3435.000000	98.196651 
3434.000000	98.192652 
3433.000000	98.192445 
3432.000000	98.195097 
3431.000000	98.197664 
3430.000000	98.197962 
3429.000000	98.196641 
3428.000000	98.196195 
3427.000000	98.197927 
3426.000000	98.200163 
3425.000000	98.199583 
3424.000000	98.194269 
3423.000000	98.185556 
3422.000000	98.177137 
3421.000000	98.172398 
3420.000000	98.172348 
3419.000000	98.175495 
3418.000000	98.179173 
3417.000000	98.180975 
3416.000000	98.179713 
3415.000000	98.175786 
3414.000000	98.170794 
3413.000000	98.166480 
3412.000000	98.163854 
3411.000000	98.163184 
3410.000000	98.164224 
3409.000000	98.165953 
3408.000000	98.166401 
3407.000000	98.163712 
3406.000000	98.157966 
3405.000000	98.151668 
3404.000000	98.147922 
3403.000000	98.147972 
3402.000000	98.150567 
3401.000000	98.153594 
3400.000000	98.156071 
3399.000000	98.158448 
3398.000000	98.161304 
3397.000000	98.164107 
3396.000000	98.165405 
3395.000000	98.164078 
3394.000000	98.160208 
3393.000000	98.154917 
3392.000000	98.149750 
3391.000000	98.146237 
3390.000000	98.145510 
3389.000000	98.147791 
3388.000000	98.152268 
3387.000000	98.157841 
3386.000000	98.163983 
3385.000000	98.170554 
3384.000000	98.176628 
3383.000000	98.180007 
3382.000000	98.178532 
3381.000000	98.172201 
3380.000000	98.164043 
3379.000000	98.158528 
3378.000000	98.158434 
3377.000000	98.162639 
3376.000000	98.166987 
3375.000000	98.167795 
3374.000000	98.164870 
3373.000000	98.161282 
3372.000000	98.160319 
3371.000000	98.162751 
3370.000000	98.166794 
3369.000000	98.170155 
3368.000000	98.171968 
3367.000000	98.173113 
3366.000000	98.174988 
3365.000000	98.177896 
3364.000000	98.180619 
3363.000000	98.181782 
3362.000000	98.181614 
3361.000000	98.181780 
3360.000000	98.183223 
3359.000000	98.184848 
3358.000000	98.185139 
3357.000000	98.184735 
3356.000000	98.186147 
3355.000000	98.190410 
3354.000000	98.194925 
3353.000000	98.195738 
3352.000000	98.191853 
3351.000000	98.186642 
3350.000000	98.184815 
3349.000000	98.188397 
3348.000000	98.195578 
3347.000000	98.202731 
3346.000000	98.207029 
3345.000000	98.207763 
3344.000000	98.206299 
3343.000000	98.204941 
3342.000000	98.205037 
3341.000000	98.205626 
3340.000000	98.204405 
3339.000000	98.200701 
3338.000000	98.197235 
3337.000000	98.198001 
3336.000000	98.204094 
3335.000000	98.212319 
3334.000000	98.218464 
3333.000000	98.221443 
3332.000000	98.223600 
3331.000000	98.227214 
3330.000000	98.231651 
3329.000000	98.234333 
3328.000000	98.233843 
3327.000000	98.231347 
3326.000000	98.228986 
3325.000000	98.227599 
3324.000000	98.226497 
3323.000000	98.225177 
3322.000000	98.224557 
3321.000000	98.226114 
3320.000000	98.230105 
3319.000000	98.235192 
3318.000000	98.239858 
3317.000000	98.243597 
3316.000000	98.246413 
3315.000000	98.247844 
3314.000000	98.247521 
3313.000000	98.246647 
3312.000000	98.247754 
3311.000000	98.252165 
3310.000000	98.258089 
3309.000000	98.261992 
3308.000000	98.261919 
3307.000000	98.259117 
3306.000000	98.256623 
3305.000000	98.256892 
3304.000000	98.260701 
3303.000000	98.267253 
3302.000000	98.274443 
3301.000000	98.279285 
3300.000000	98.279232 
3299.000000	98.274128 
3298.000000	98.267104 
3297.000000	98.262927 
3296.000000	98.264521 
3295.000000	98.270635 
3294.000000	98.277171 
3293.000000	98.281070 
3292.000000	98.282709 
3291.000000	98.284317 
3290.000000	98.286661 
3289.000000	98.288280 
3288.000000	98.287925 
3287.000000	98.286566 
3286.000000	98.286219 
3285.000000	98.287288 
3284.000000	98.288043 
3283.000000	98.286947 
3282.000000	98.284990 
3281.000000	98.285353 
3280.000000	98.290584 
3279.000000	98.300004 
3278.000000	98.309698 
3277.000000	98.315212 
3276.000000	98.314659 
3275.000000	98.309623 
3274.000000	98.303450 
3273.000000	98.298975 
3272.000000	98.297596 
3271.000000	98.299537 
3270.000000	98.304090 
3269.000000	98.309638 
3268.000000	98.314212 
3267.000000	98.316514 
3266.000000	98.316561 
3265.000000	98.315579 
3264.000000	98.315498 
3263.000000	98.318231 
3262.000000	98.324640 
3261.000000	98.333600 
3260.000000	98.342204 
3259.000000	98.347480 
3258.000000	98.348388 
3257.000000	98.346347 
3256.000000	98.343799 
3255.000000	98.342168 
3254.000000	98.341182 
3253.000000	98.340099 
3252.000000	98.339241 
3251.000000	98.339900 
3250.000000	98.342859 
3249.000000	98.347487 
3248.000000	98.352367 
3247.000000	98.356312 
3246.000000	98.358644 
3245.000000	98.359217 
3244.000000	98.358743 
3243.000000	98.358587 
3242.000000	98.359477 
3241.000000	98.360696 
3240.000000	98.361351 
3239.000000	98.362372 
3238.000000	98.366350 
3237.000000	98.374941 
3236.000000	98.386788 
3235.000000	98.398180 
3234.000000	98.405462 
3233.000000	98.407088 
3232.000000	98.404382 
3231.000000	98.400870 
3230.000000	98.400182 
3229.000000	98.403500 
3228.000000	98.408684 
3227.000000	98.412049 
3226.000000	98.411191 
3225.000000	98.406454 
3224.000000	98.400400 
3223.000000	98.396298 
3222.000000	98.396545 
3221.000000	98.401462 
3220.000000	98.409009 
3219.000000	98.415944 
3218.000000	98.419972 
3217.000000	98.421351 
3216.000000	98.422669 
3215.000000	98.426796 
3214.000000	98.434458 
3213.000000	98.443390 
3212.000000	98.449914 
3211.000000	98.451521 
3210.000000	98.448348 
3209.000000	98.442785 
3208.000000	98.438074 
3207.000000	98.436716 
3206.000000	98.439138 
3205.000000	98.443423 
3204.000000	98.446874 
3203.000000	98.448401 
3202.000000	98.449250 
3201.000000	98.451311 
3200.000000	98.455154 
3199.000000	98.460024 
3198.000000	98.465172 
3197.000000	98.470468 
3196.000000	98.475885 
3195.000000	98.481064 
3194.000000	98.485516 
3193.000000	98.488830 
3192.000000	98.490632 
3191.000000	98.490766 
3190.000000	98.489717 
3189.000000	98.488636 
3188.000000	98.488734 
3187.000000	98.490591 
3186.000000	98.493834 
3185.000000	98.497210 
3184.000000	98.499194 
3183.000000	98.499172 
3182.000000	98.498352 
3181.000000	98.499185 
3180.000000	98.503419 
3179.000000	98.510509 
3178.000000	98.517902 
3177.000000	98.522931 
3176.000000	98.524672 
3175.000000	98.524404 
3174.000000	98.524509 
3173.000000	98.526583 
3172.000000	98.530131 
3171.000000	98.533076 
3170.000000	98.533927 
3169.000000	98.533558 
3168.000000	98.534476 
3167.000000	98.538157 
3166.000000	98.543408 
3165.000000	98.547702 
3164.000000	98.549854 
3163.000000	98.550867 
3162.000000	98.552244 
3161.000000	98.554246 
3160.000000	98.556085 
3159.000000	98.557138 
3158.000000	98.557298 
3157.000000	98.556510 
3156.000000	98.554827 
3155.000000	98.552874 
3154.000000	98.551501 
3153.000000	98.550775 
3152.000000	98.549994 
3151.000000	98.549041 
3150.000000	98.549051 
3149.000000	98.551178 
3148.000000	98.555133 
3147.000000	98.559578 
3146.000000	98.563759 
3145.000000	98.568060 
3144.000000	98.572891 
3143.000000	98.577689 
3142.000000	98.581392 
3141.000000	98.583642 
3140.000000	98.585157 
3139.000000	98.586895 
3138.000000	98.588988 
3137.000000	98.590663 
3136.000000	98.591339 
3135.000000	98.591668 
3134.000000	98.593087 
3133.000000	98.596142 
3132.000000	98.599655 
3131.000000	98.602018 
3130.000000	98.603127 
3129.000000	98.604563 
3128.000000	98.607954 
3127.000000	98.613555 
3126.000000	98.620202 
3125.000000	98.625954 
3124.000000	98.628733 
3123.000000	98.627402 
3122.000000	98.623018 
3121.000000	98.618620 
3120.000000	98.616893 
3119.000000	98.617934 
3118.000000	98.619708 
3117.000000	98.620621 
3116.000000	98.621117 
3115.000000	98.622677 
3114.000000	98.625851 
3113.000000	98.629675 
3112.000000	98.632684 
3111.000000	98.634088 
3110.000000	98.634131 
3109.000000	98.633755 
3108.000000	98.634029 
3107.000000	98.635515 
3106.000000	98.637879 
3105.000000	98.640163 
3104.000000	98.641717 
3103.000000	98.642977 
3102.000000	98.645133 
3101.000000	98.648839 
3100.000000	98.653432 
3099.000000	98.657798 
3098.000000	98.661899 
3097.000000	98.666784 
3096.000000	98.672749 
3095.000000	98.677972 
3094.000000	98.679738 
3093.000000	98.677060 
3092.000000	98.671756 
3091.000000	98.667026 
3090.000000	98.665338 
3089.000000	98.667365 
3088.000000	98.672047 
3087.000000	98.677244 
3086.000000	98.680884 
3085.000000	98.682069 
3084.000000	98.681073 
3083.000000	98.678367 
3082.000000	98.674317 
3081.000000	98.670155 
3080.000000	98.668385 
3079.000000	98.671178 
3078.000000	98.678364 
3077.000000	98.687549 
3076.000000	98.696080 
3075.000000	98.702336 
3074.000000	98.705464 
3073.000000	98.705148 
3072.000000	98.702158 
3071.000000	98.698298 
3070.000000	98.694974 
3069.000000	98.692054 
3068.000000	98.688756 
3067.000000	98.685715 
3066.000000	98.685517 
3065.000000	98.690642 
3064.000000	98.700635 
3063.000000	98.711401 
3062.000000	98.717697 
3061.000000	98.716889 
3060.000000	98.710765 
3059.000000	98.703904 
3058.000000	98.700373 
3057.000000	98.701705 
3056.000000	98.706997 
3055.000000	98.713836 
3054.000000	98.719202 
3053.000000	98.720682 
3052.000000	98.717903 
3051.000000	98.712863 
3050.000000	98.708644 
3049.000000	98.707723 
3048.000000	98.710957 
3047.000000	98.717043 
3046.000000	98.722544 
3045.000000	98.723635 
3044.000000	98.719298 
3043.000000	98.712790 
3042.000000	98.708980 
3041.000000	98.709983 
3040.000000	98.713765 
3039.000000	98.716796 
3038.000000	98.717094 
3037.000000	98.714619 
3036.000000	98.709953 
3035.000000	98.703634 
3034.000000	98.696471 
3033.000000	98.689573 
3032.000000	98.683733 
3031.000000	98.679047 
3030.000000	98.675260 
3029.000000	98.672334 
3028.000000	98.670632 
3027.000000	98.670534 
3026.000000	98.671671 
3025.000000	98.672404 
3024.000000	98.670369 
3023.000000	98.664137 
3022.000000	98.654469 
3021.000000	98.643594 
3020.000000	98.633019 
3019.000000	98.622404 
3018.000000	98.610859 
3017.000000	98.598880 
3016.000000	98.588175 
3015.000000	98.579609 
3014.000000	98.572281 
3013.000000	98.565165 
3012.000000	98.558915 
3011.000000	98.555075 
3010.000000	98.553671 
3009.000000	98.552560 
3008.000000	98.549341 
3007.000000	98.543270 
3006.000000	98.535080 
3005.000000	98.525652 
3004.000000	98.515431 
3003.000000	98.504782 
3002.000000	98.494264 
3001.000000	98.484452 
3000.000000	98.475658 
2999.000000	98.467825 
2998.000000	98.460704 
2997.000000	98.454358 
2996.000000	98.449250 
2995.000000	98.445128 
2994.000000	98.439631 
2993.000000	98.429071 
2992.000000	98.411725 
2991.000000	98.390331 
2990.000000	98.370722 
2989.000000	98.357907 
2988.000000	98.353659 
2987.000000	98.357088 
2986.000000	98.366030 
2985.000000	98.377365 
2984.000000	98.387218 
2983.000000	98.392526 
2982.000000	98.393034 
2981.000000	98.391379 
2980.000000	98.390784 
2979.000000	98.392481 
2978.000000	98.395258 
2977.000000	98.397103 
2976.000000	98.396904 
2975.000000	98.394721 
2974.000000	98.391202 
2973.000000	98.387432 
2972.000000	98.385046 
2971.000000	98.385561 
2970.000000	98.389183 
2969.000000	98.394767 
2968.000000	98.401334 
2967.000000	98.409224 
2966.000000	98.419253 
2965.000000	98.431003 
2964.000000	98.442505 
2963.000000	98.451620 
2962.000000	98.457501 
2961.000000	98.460928 
2960.000000	98.463672 
2959.000000	98.467415 
2958.000000	98.472736 
2957.000000	98.478845 
2956.000000	98.484457 
2955.000000	98.489120 
2954.000000	98.493751 
2953.000000	98.499868 
2952.000000	98.508174 
2951.000000	98.517686 
2950.000000	98.526282 
2949.000000	98.532370 
2948.000000	98.535982 
2947.000000	98.538148 
2946.000000	98.539550 
2945.000000	98.540458 
2944.000000	98.541749 
2943.000000	98.544719 
2942.000000	98.549245 
2941.000000	98.553037 
2940.000000	98.553725 
2939.000000	98.551563 
2938.000000	98.549450 
2937.000000	98.550473 
2936.000000	98.555777 
2935.000000	98.564211 
2934.000000	98.573131 
2933.000000	98.579700 
2932.000000	98.582388 
2931.000000	98.581581 
2930.000000	98.578717 
2929.000000	98.575146 
2928.000000	98.571925 
2927.000000	98.569802 
2926.000000	98.568486 
2925.000000	98.566529 
2924.000000	98.563062 
2923.000000	98.559338 
2922.000000	98.557325 
2921.000000	98.556863 
2920.000000	98.555508 
2919.000000	98.551479 
2918.000000	98.545752 
2917.000000	98.540744 
2916.000000	98.537740 
2915.000000	98.536069 
2914.000000	98.534219 
2913.000000	98.531227 
2912.000000	98.527362 
2911.000000	98.523831 
2910.000000	98.521601 
2909.000000	98.520413 
2908.000000	98.519270 
2907.000000	98.517762 
2906.000000	98.516155 
2905.000000	98.513913 
2904.000000	98.509100 
2903.000000	98.500471 
2902.000000	98.490241 
2901.000000	98.484275 
2900.000000	98.488444 
2899.000000	98.503590 
2898.000000	98.523900 
2897.000000	98.540293 
2896.000000	98.546986 
2895.000000	98.545499 
2894.000000	98.542414 
2893.000000	98.543316 
2892.000000	98.549117 
2891.000000	98.557249 
2890.000000	98.564740 
2889.000000	98.569722 
2888.000000	98.571510 
2887.000000	98.570832 
2886.000000	98.569783 
2885.000000	98.570508 
2884.000000	98.573808 
2883.000000	98.579440 
2882.000000	98.587358 
2881.000000	98.597642 
2880.000000	98.609122 
2879.000000	98.619183 
2878.000000	98.625784 
2877.000000	98.629479 
2876.000000	98.632904 
2875.000000	98.638287 
2874.000000	98.645746 
2873.000000	98.653770 
2872.000000	98.660699 
2871.000000	98.665570 
2870.000000	98.668331 
2869.000000	98.670236 
2868.000000	98.673905 
2867.000000	98.681708 
2866.000000	98.693208 
2865.000000	98.704748 
2864.000000	98.712625 
2863.000000	98.716586 
2862.000000	98.719461 
2861.000000	98.723611 
2860.000000	98.728954 
2859.000000	98.734607 
2858.000000	98.740849 
2857.000000	98.748220 
2856.000000	98.755643 
2855.000000	98.761056 
2854.000000	98.764012 
2853.000000	98.766468 
2852.000000	98.770589 
2851.000000	98.776535 
2850.000000	98.782980 
2849.000000	98.789177 
2848.000000	98.795634 
2847.000000	98.802824 
2846.000000	98.809988 
2845.000000	98.815537 
2844.000000	98.818380 
2843.000000	98.818719 
2842.000000	98.817954 
2841.000000	98.818110 
2840.000000	98.820908 
2839.000000	98.826600 
2838.000000	98.833527 
2837.000000	98.839277 
2836.000000	98.842612 
2835.000000	98.844149 
2834.000000	98.845186 
2833.000000	98.846380 
2832.000000	98.847756 
2831.000000	98.849359 
2830.000000	98.851232 
2829.000000	98.852989 
2828.000000	98.854191 
2827.000000	98.855235 
2826.000000	98.857251 
2825.000000	98.860788 
2824.000000	98.864980 
2823.000000	98.868338 
2822.000000	98.870187 
2821.000000	98.871084 
2820.000000	98.871962 
2819.000000	98.873134 
2818.000000	98.874143 
2817.000000	98.874439 
2816.000000	98.874101 
2815.000000	98.873795 
2814.000000	98.873952 
2813.000000	98.874145 
2812.000000	98.873619 
2811.000000	98.872558 
2810.000000	98.872486 
2809.000000	98.875001 
2808.000000	98.879989 
2807.000000	98.885227 
2806.000000	98.887908 
2805.000000	98.886750 
2804.000000	98.882980 
2803.000000	98.879473 
2802.000000	98.878796 
2801.000000	98.881537 
2800.000000	98.886107 
2799.000000	98.890113 
2798.000000	98.892123 
2797.000000	98.892278 
2796.000000	98.891453 
2795.000000	98.890277 
2794.000000	98.889253 
2793.000000	98.889306 
2792.000000	98.891221 
2791.000000	98.894334 
2790.000000	98.896638 
2789.000000	98.896958 
2788.000000	98.896533 
2787.000000	98.897609 
2786.000000	98.900599 
2785.000000	98.903444 
2784.000000	98.903796 
2783.000000	98.901122 
2782.000000	98.896725 
2781.000000	98.892677 
2780.000000	98.891029 
2779.000000	98.892969 
2778.000000	98.897798 
2777.000000	98.903132 
2776.000000	98.906903 
2775.000000	98.909093 
2774.000000	98.911156 
2773.000000	98.914142 
2772.000000	98.917924 
2771.000000	98.921819 
2770.000000	98.925099 
2769.000000	98.926979 
2768.000000	98.927025 
2767.000000	98.925938 
2766.000000	98.925300 
2765.000000	98.925960 
2764.000000	98.926800 
2763.000000	98.925551 
2762.000000	98.921074 
2761.000000	98.914800 
2760.000000	98.909830 
2759.000000	98.908560 
2758.000000	98.911196 
2757.000000	98.916371 
2756.000000	98.922542 
2755.000000	98.928284 
2754.000000	98.931771 
2753.000000	98.931374 
2752.000000	98.927493 
2751.000000	98.923081 
2750.000000	98.921378 
2749.000000	98.923030 
2748.000000	98.925787 
2747.000000	98.926953 
2746.000000	98.925761 
2745.000000	98.923476 
2744.000000	98.921733 
2743.000000	98.921090 
2742.000000	98.921135 
2741.000000	98.921646 
2740.000000	98.923119 
2739.000000	98.925888 
2738.000000	98.929283 
2737.000000	98.932406 
2736.000000	98.935483 
2735.000000	98.939341 
2734.000000	98.943377 
2733.000000	98.945256 
2732.000000	98.943385 
2731.000000	98.938836 
2730.000000	98.934075 
2729.000000	98.930500 
2728.000000	98.928136 
2727.000000	98.926998 
2726.000000	98.927426 
2725.000000	98.929246 
2724.000000	98.931827 
2723.000000	98.935085 
2722.000000	98.939423 
2721.000000	98.944370 
2720.000000	98.948136 
2719.000000	98.949047 
2718.000000	98.947063 
2717.000000	98.943653 
2716.000000	98.940599 
2715.000000	98.939123 
2714.000000	98.939668 
2713.000000	98.941931 
2712.000000	98.945072 
2711.000000	98.948208 
2710.000000	98.951004 
2709.000000	98.953825 
2708.000000	98.957030 
2707.000000	98.959822 
2706.000000	98.960207 
2705.000000	98.957015 
2704.000000	98.952014 
2703.000000	98.948984 
2702.000000	98.950095 
2701.000000	98.953907 
2700.000000	98.957569 
2699.000000	98.960150 
2698.000000	98.962776 
2697.000000	98.966096 
2696.000000	98.968981 
2695.000000	98.969828 
2694.000000	98.968288 
2693.000000	98.965499 
2692.000000	98.963143 
2691.000000	98.962179 
2690.000000	98.961962 
2689.000000	98.960831 
2688.000000	98.958208 
2687.000000	98.955797 
2686.000000	98.955904 
2685.000000	98.958764 
2684.000000	98.962331 
2683.000000	98.964543 
2682.000000	98.964832 
2681.000000	98.963499 
2680.000000	98.960829 
2679.000000	98.957354 
2678.000000	98.954269 
2677.000000	98.953078 
2676.000000	98.954935 
2675.000000	98.960074 
2674.000000	98.967121 
2673.000000	98.973038 
2672.000000	98.974829 
2671.000000	98.971918 
2670.000000	98.966530 
2669.000000	98.961613 
2668.000000	98.958801 
2667.000000	98.958224 
2666.000000	98.959202 
2665.000000	98.960534 
2664.000000	98.960700 
2663.000000	98.958614 
2662.000000	98.954453 
2661.000000	98.949758 
2660.000000	98.946570 
2659.000000	98.945912 
2658.000000	98.946677 
2657.000000	98.946474 
2656.000000	98.944134 
2655.000000	98.940949 
2654.000000	98.938816 
2653.000000	98.937976 
2652.000000	98.937847 
2651.000000	98.939232 
2650.000000	98.943463 
2649.000000	98.949141 
2648.000000	98.952200 
2647.000000	98.950596 
2646.000000	98.947399 
2645.000000	98.947516 
2644.000000	98.952011 
2643.000000	98.957008 
2642.000000	98.957818 
2641.000000	98.953170 
2640.000000	98.945891 
2639.000000	98.940576 
2638.000000	98.940391 
2637.000000	98.944950 
2636.000000	98.950896 
2635.000000	98.954792 
2634.000000	98.955440 
2633.000000	98.953738 
2632.000000	98.951499 
2631.000000	98.950960 
2630.000000	98.953992 
2629.000000	98.960122 
2628.000000	98.965800 
2627.000000	98.967315 
2626.000000	98.964609 
2625.000000	98.961091 
2624.000000	98.959592 
2623.000000	98.959735 
2622.000000	98.959677 
2621.000000	98.959134 
2620.000000	98.959570 
2619.000000	98.961881 
2618.000000	98.964949 
2617.000000	98.966759 
2616.000000	98.966550 
2615.000000	98.965641 
2614.000000	98.966276 
2613.000000	98.969748 
2612.000000	98.975468 
2611.000000	98.981460 
2610.000000	98.985529 
2609.000000	98.986246 
2608.000000	98.983556 
2607.000000	98.978958 
2606.000000	98.974944 
2605.000000	98.973692 
2604.000000	98.975747 
2603.000000	98.979716 
2602.000000	98.983385 
2601.000000	98.985551 
2600.000000	98.986884 
2599.000000	98.988645 
2598.000000	98.990422 
2597.000000	98.989895 
2596.000000	98.985577 
2595.000000	98.979392 
2594.000000	98.975490 
2593.000000	98.976330 
2592.000000	98.980598 
2591.000000	98.985072 
2590.000000	98.987756 
2589.000000	98.988864 
2588.000000	98.989486 
2587.000000	98.990038 
2586.000000	98.989992 
2585.000000	98.988677 
2584.000000	98.986079 
2583.000000	98.982750 
2582.000000	98.979178 
2581.000000	98.975775 
2580.000000	98.973535 
2579.000000	98.973742 
2578.000000	98.976338 
2577.000000	98.979158 
2576.000000	98.979704 
2575.000000	98.977456 
2574.000000	98.973935 
2573.000000	98.971266 
2572.000000	98.971607 
2571.000000	98.976935 
2570.000000	98.987350 
2569.000000	98.999407 
2568.000000	99.007809 
2567.000000	99.009552 
2566.000000	99.005814 
2565.000000	98.999976 
2564.000000	98.995089 
2563.000000	98.993254 
2562.000000	98.995530 
2561.000000	99.001035 
2560.000000	99.006679 
2559.000000	99.008765 
2558.000000	99.005311 
2557.000000	98.997508 
2556.000000	98.989769 
2555.000000	98.987658 
2554.000000	98.993860 
2553.000000	99.005375 
2552.000000	99.015520 
2551.000000	99.019196 
2550.000000	99.015944 
2549.000000	99.008683 
2548.000000	99.001134 
2547.000000	98.996409 
2546.000000	98.996036 
2545.000000	98.999236 
2544.000000	99.003784 
2543.000000	99.007685 
2542.000000	99.009246 
2541.000000	99.006531 
2540.000000	98.999375 
2539.000000	98.991960 
2538.000000	98.990172 
2537.000000	98.994815 
2536.000000	98.999965 
2535.000000	99.000061 
2534.000000	98.996382 
2533.000000	98.993926 
2532.000000	98.993887 
2531.000000	98.992945 
2530.000000	98.989568 
2529.000000	98.987126 
2528.000000	98.989311 
2527.000000	98.994993 
2526.000000	98.999683 
2525.000000	99.000945 
2524.000000	99.000561 
2523.000000	99.001701 
2522.000000	99.005468 
2521.000000	99.010505 
2520.000000	99.014727 
2519.000000	99.016450 
2518.000000	99.014360 
2517.000000	99.007923 
2516.000000	98.998550 
2515.000000	98.989500 
2514.000000	98.983629 
2513.000000	98.981554 
2512.000000	98.982710 
2511.000000	98.987341 
2510.000000	98.995888 
2509.000000	99.006728 
2508.000000	99.016471 
2507.000000	99.022859 
2506.000000	99.025736 
2505.000000	99.024806 
2504.000000	99.018696 
2503.000000	99.007709 
2502.000000	98.995979 
2501.000000	98.988974 
2500.000000	98.989235 
2499.000000	98.995507 
2498.000000	99.005028 
2497.000000	99.015037 
2496.000000	99.022733 
2495.000000	99.025891 
2494.000000	99.024270 
2493.000000	99.019722 
2492.000000	99.014617 
2491.000000	99.010524 
2490.000000	99.008280 
2489.000000	99.008680 
2488.000000	99.012674 
2487.000000	99.020493 
2486.000000	99.030114 
2485.000000	99.037041 
2484.000000	99.037150 
2483.000000	99.030390 
2482.000000	99.020885 
2481.000000	99.013119 
2480.000000	99.009046 
2479.000000	99.008849 
2478.000000	99.012114 
2477.000000	99.016900 
2476.000000	99.019791 
2475.000000	99.019339 
2474.000000	99.018432 
2473.000000	99.020858 
2472.000000	99.026062 
2471.000000	99.029700 
2470.000000	99.029197 
2469.000000	99.026302 
2468.000000	99.023771 
2467.000000	99.021910 
2466.000000	99.019499 
2465.000000	99.016289 
2464.000000	99.013191 
2463.000000	99.011153 
2462.000000	99.010980 
2461.000000	99.013225 
2460.000000	99.016950 
2459.000000	99.019293 
2458.000000	99.017686 
2457.000000	99.012537 
2456.000000	99.007012 
2455.000000	99.004343 
2454.000000	99.005732 
2453.000000	99.010112 
2452.000000	99.014744 
2451.000000	99.016207 
2450.000000	99.012293 
2449.000000	99.003991 
2448.000000	98.995587 
2447.000000	98.992173 
2446.000000	98.996371 
2445.000000	99.006511 
2444.000000	99.017363 
2443.000000	99.023119 
2442.000000	99.021064 
2441.000000	99.013566 
2440.000000	99.006603 
2439.000000	99.005603 
2438.000000	99.011694 
2437.000000	99.021217 
2436.000000	99.028659 
2435.000000	99.030532 
2434.000000	99.027391 
2433.000000	99.022954 
2432.000000	99.021382 
2431.000000	99.024599 
2430.000000	99.031131 
2429.000000	99.037042 
2428.000000	99.038559 
2427.000000	99.034779 
2426.000000	99.028331 
2425.000000	99.023296 
2424.000000	99.022281 
2423.000000	99.025437 
2422.000000	99.031730 
2421.000000	99.039942 
2420.000000	99.047879 
2419.000000	99.051789 
2418.000000	99.048511 
2417.000000	99.038799 
2416.000000	99.027459 
2415.000000	99.019408 
2414.000000	99.016141 
2413.000000	99.016286 
2412.000000	99.018296 
2411.000000	99.021309 
2410.000000	99.024240 
2409.000000	99.025874 
2408.000000	99.025985 
2407.000000	99.025090 
2406.000000	99.023228 
2405.000000	99.020511 
2404.000000	99.018848 
2403.000000	99.020922 
2402.000000	99.026395 
2401.000000	99.030862 
2400.000000	99.030131 
2399.000000	99.024691 
2398.000000	99.018837 
2397.000000	99.016326 
2396.000000	99.018014 
2395.000000	99.022489 
2394.000000	99.027164 
2393.000000	99.029272 
2392.000000	99.027647 
2391.000000	99.023737 
2390.000000	99.019981 
2389.000000	99.017770 
2388.000000	99.017972 
2387.000000	99.022187 
2386.000000	99.031038 
2385.000000	99.041475 
2384.000000	99.048403 
2383.000000	99.049889 
2382.000000	99.049063 
2381.000000	99.050130 
2380.000000	99.054220 
2379.000000	99.060167 
2378.000000	99.067397 
2377.000000	99.075870 
2376.000000	99.083997 
2375.000000	99.088950 
2374.000000	99.089223 
2373.000000	99.085516 
2372.000000	99.079253 
2371.000000	99.071892 
2370.000000	99.065744 
2369.000000	99.063312 
2368.000000	99.064641 
2367.000000	99.066682 
2366.000000	99.066725 
2365.000000	99.065689 
2364.000000	99.066500 
2363.000000	99.069676 
2362.000000	99.072155 
2361.000000	99.071085 
2360.000000	99.067511 
2359.000000	99.064622 
2358.000000	99.063439 
2357.000000	99.062838 
2356.000000	99.063508 
2355.000000	99.068109 
2354.000000	99.076261 
2353.000000	99.082633 
2352.000000	99.082293 
2351.000000	99.076300 
2350.000000	99.069563 
2349.000000	99.065334 
2348.000000	99.063777 
2347.000000	99.063862 
2346.000000	99.064732 
2345.000000	99.065507 
2344.000000	99.065759 
2343.000000	99.065870 
2342.000000	99.065431 
2341.000000	99.062474 
2340.000000	99.056428 
2339.000000	99.050901 
2338.000000	99.050595 
2337.000000	99.055630 
2336.000000	99.061096 
2335.000000	99.063090 
2334.000000	99.062978 
2333.000000	99.064525 
2332.000000	99.068166 
2331.000000	99.070302 
2330.000000	99.067732 
2329.000000	99.060857 
2328.000000	99.052376 
2327.000000	99.044231 
2326.000000	99.036529 
2325.000000	99.028408 
2324.000000	99.020303 
2323.000000	99.015420 
2322.000000	99.017905 
2321.000000	99.027723 
2320.000000	99.038470 
2319.000000	99.042666 
2318.000000	99.039038 
2317.000000	99.033056 
2316.000000	99.030388 
2315.000000	99.031866 
2314.000000	99.034978 
2313.000000	99.038063 
2312.000000	99.041219 
2311.000000	99.043891 
2310.000000	99.043777 
2309.000000	99.038953 
2308.000000	99.030466 
2307.000000	99.022050 
2306.000000	99.017483 
2305.000000	99.018363 
2304.000000	99.023933 
2303.000000	99.031895 
2302.000000	99.039171 
2301.000000	99.043178 
2300.000000	99.043812 
2299.000000	99.043648 
2298.000000	99.044730 
2297.000000	99.045320 
2296.000000	99.041571 
2295.000000	99.032704 
2294.000000	99.022799 
2293.000000	99.016594 
2292.000000	99.015001 
2291.000000	99.015810 
2290.000000	99.017299 
2289.000000	99.019404 
2288.000000	99.022274 
2287.000000	99.025466 
2286.000000	99.028265 
2285.000000	99.029596 
2284.000000	99.028297 
2283.000000	99.024856 
2282.000000	99.022076 
2281.000000	99.022219 
2280.000000	99.024175 
2279.000000	99.025604 
2278.000000	99.027350 
2277.000000	99.032917 
2276.000000	99.043111 
2275.000000	99.053868 
2274.000000	99.060639 
2273.000000	99.062994 
2272.000000	99.063648 
2271.000000	99.064777 
2270.000000	99.067161 
2269.000000	99.071618 
2268.000000	99.078847 
2267.000000	99.087744 
2266.000000	99.095327 
2265.000000	99.098625 
2264.000000	99.096143 
2263.000000	99.088235 
2262.000000	99.077730 
2261.000000	99.070107 
2260.000000	99.070771 
2259.000000	99.080461 
2258.000000	99.093882 
2257.000000	99.104041 
2256.000000	99.107997 
2255.000000	99.107893 
2254.000000	99.107243 
2253.000000	99.108000 
2252.000000	99.110913 
2251.000000	99.116026 
2250.000000	99.121209 
2249.000000	99.122249 
2248.000000	99.116794 
2247.000000	99.107741 
2246.000000	99.100570 
2245.000000	99.097579 
2244.000000	99.097077 
2243.000000	99.097696 
2242.000000	99.100453 
2241.000000	99.105797 
2240.000000	99.111841 
2239.000000	99.117283 
2238.000000	99.123365 
2237.000000	99.130458 
2236.000000	99.134937 
2235.000000	99.132867 
2234.000000	99.125996 
2233.000000	99.120869 
2232.000000	99.121584 
2231.000000	99.125742 
2230.000000	99.128042 
2229.000000	99.126050 
2228.000000	99.121862 
2227.000000	99.119517 
2226.000000	99.121381 
2225.000000	99.126157 
2224.000000	99.130144 
2223.000000	99.130967 
2222.000000	99.129486 
2221.000000	99.127352 
2220.000000	99.124392 
2219.000000	99.120749 
2218.000000	99.120296 
2217.000000	99.127845 
2216.000000	99.141987 
2215.000000	99.154234 
2214.000000	99.157473 
2213.000000	99.153143 
2212.000000	99.148167 
2211.000000	99.147191 
2210.000000	99.150807 
2209.000000	99.159034 
2208.000000	99.171265 
2207.000000	99.182223 
2206.000000	99.183074 
2205.000000	99.170645 
2204.000000	99.153829 
2203.000000	99.146883 
2202.000000	99.155818 
2201.000000	99.173016 
2200.000000	99.185233 
2199.000000	99.185155 
2198.000000	99.175096 
2197.000000	99.162529 
2196.000000	99.154262 
2195.000000	99.153385 
2194.000000	99.158562 
2193.000000	99.164999 
2192.000000	99.167838 
2191.000000	99.166656 
2190.000000	99.166751 
2189.000000	99.174657 
2188.000000	99.191007 
2187.000000	99.207760 
2186.000000	99.213817 
2185.000000	99.204935 
2184.000000	99.188087 
2183.000000	99.174746 
2182.000000	99.170188 
2181.000000	99.170888 
2180.000000	99.172062 
2179.000000	99.174838 
2178.000000	99.184136 
2177.000000	99.201245 
2176.000000	99.220519 
2175.000000	99.232960 
2174.000000	99.232445 
2173.000000	99.220618 
2172.000000	99.207730 
2171.000000	99.206730 
2170.000000	99.222878 
2169.000000	99.248234 
2168.000000	99.268219 
2167.000000	99.274091 
2166.000000	99.267828 
2165.000000	99.256892 
2164.000000	99.248589 
2163.000000	99.249710 
2162.000000	99.265836 
2161.000000	99.295519 
2160.000000	99.326531 
2159.000000	99.343203 
2158.000000	99.339213 
2157.000000	99.320692 
2156.000000	99.297443 
2155.000000	99.276098 
2154.000000	99.261825 
2153.000000	99.259565 
2152.000000	99.268838 
2151.000000	99.280118 
2150.000000	99.281942 
2149.000000	99.273502 
2148.000000	99.266884 
2147.000000	99.273480 
2146.000000	99.289826 
2145.000000	99.300524 
2144.000000	99.295010 
2143.000000	99.277483 
2142.000000	99.259373 
2141.000000	99.246480 
2140.000000	99.236891 
2139.000000	99.229061 
2138.000000	99.226613 
2137.000000	99.233215 
2136.000000	99.245560 
2135.000000	99.254735 
2134.000000	99.254876 
2133.000000	99.248812 
2132.000000	99.243823 
2131.000000	99.242310 
2130.000000	99.238371 
2129.000000	99.224479 
2128.000000	99.200664 
2127.000000	99.175521 
2126.000000	99.158388 
2125.000000	99.152339 
2124.000000	99.154858 
2123.000000	99.162599 
2122.000000	99.173144 
2121.000000	99.183558 
2120.000000	99.190454 
2119.000000	99.191982 
2118.000000	99.188234 
2117.000000	99.179993 
2116.000000	99.168893 
2115.000000	99.158484 
2114.000000	99.152584 
2113.000000	99.151579 
2112.000000	99.152161 
2111.000000	99.151831 
2110.000000	99.151798 
2109.000000	99.153751 
2108.000000	99.155294 
2107.000000	99.151330 
2106.000000	99.140363 
2105.000000	99.127782 
2104.000000	99.121755 
2103.000000	99.125979 
2102.000000	99.136572 
2101.000000	99.145740 
2100.000000	99.148593 
2099.000000	99.146986 
2098.000000	99.147209 
2097.000000	99.154052 
2096.000000	99.166761 
2095.000000	99.180254 
2094.000000	99.189747 
2093.000000	99.193992 
2092.000000	99.194423 
2091.000000	99.192287 
2090.000000	99.187744 
2089.000000	99.181428 
2088.000000	99.174845 
2087.000000	99.168016 
2086.000000	99.158606 
2085.000000	99.146062 
2084.000000	99.135927 
2083.000000	99.136447 
2082.000000	99.149563 
2081.000000	99.167672 
2080.000000	99.181315 
2079.000000	99.188442 
2078.000000	99.194180 
2077.000000	99.203427 
2076.000000	99.215911 
2075.000000	99.227000 
2074.000000	99.230836 
2073.000000	99.224018 
2072.000000	99.209165 
2071.000000	99.194214 
2070.000000	99.185891 
2069.000000	99.184117 
2068.000000	99.184044 
2067.000000	99.182259 
2066.000000	99.179200 
2065.000000	99.177730 
2064.000000	99.182218 
2063.000000	99.196613 
2062.000000	99.218723 
2061.000000	99.237478 
2060.000000	99.241908 
2059.000000	99.234160 
2058.000000	99.228713 
2057.000000	99.236357 
2056.000000	99.252192 
2055.000000	99.261778 
2054.000000	99.256906 
2053.000000	99.243316 
2052.000000	99.234463 
2051.000000	99.239543 
2050.000000	99.256304 
2049.000000	99.273477 
2048.000000	99.281591 
2047.000000	99.281761 
2046.000000	99.281708 
2045.000000	99.284587 
2044.000000	99.285707 
2043.000000	99.280449 
2042.000000	99.271937 
2041.000000	99.269253 
2040.000000	99.279148 
2039.000000	99.299908 
2038.000000	99.322037 
2037.000000	99.334980 
2036.000000	99.335057 
2035.000000	99.326286 
2034.000000	99.313054 
2033.000000	99.296511 
2032.000000	99.281311 
2031.000000	99.279521 
2030.000000	99.299052 
2029.000000	99.329622 
2028.000000	99.349296 
2027.000000	99.346738 
2026.000000	99.330322 
2025.000000	99.315459 
2024.000000	99.310798 
2023.000000	99.317836 
2022.000000	99.334482 
2021.000000	99.353265 
2020.000000	99.362816 
2019.000000	99.357610 
2018.000000	99.343402 
2017.000000	99.329918 
2016.000000	99.321706 
2015.000000	99.319058 
2014.000000	99.322282 
2013.000000	99.329252 
2012.000000	99.333444 
2011.000000	99.331117 
2010.000000	99.327980 
2009.000000	99.332951 
2008.000000	99.346289 
2007.000000	99.358962 
2006.000000	99.362967 
2005.000000	99.357756 
2004.000000	99.347749 
2003.000000	99.338147 
2002.000000	99.332521 
2001.000000	99.329708 
2000.000000	99.322656 
1999.000000	99.304227 
1998.000000	99.274852 
1997.000000	99.242289 
1996.000000	99.214688 
1995.000000	99.197063 
1994.000000	99.193460 
1993.000000	99.206410 
1992.000000	99.230984 
1991.000000	99.253763 
1990.000000	99.262428 
1989.000000	99.255639 
1988.000000	99.243161 
1987.000000	99.238049 
1986.000000	99.247653 
1985.000000	99.268749 
1984.000000	99.289697 
1983.000000	99.298699 
1982.000000	99.292128 
1981.000000	99.276796 
1980.000000	99.265105 
1979.000000	99.266817 
1978.000000	99.281859 
1977.000000	99.298819 
1976.000000	99.303851 
1975.000000	99.294191 
1974.000000	99.281282 
1973.000000	99.278971 
1972.000000	99.289644 
1971.000000	99.303908 
1970.000000	99.312838 
1969.000000	99.317532 
1968.000000	99.325844 
1967.000000	99.341260 
1966.000000	99.357190 
1965.000000	99.363299 
1964.000000	99.355930 
1963.000000	99.340892 
1962.000000	99.327426 
1961.000000	99.320614 
1960.000000	99.318867 
1959.000000	99.317168 
1958.000000	99.311386 
1957.000000	99.300339 
1956.000000	99.285811 
1955.000000	99.270797 
1954.000000	99.256515 
1953.000000	99.241178 
1952.000000	99.223260 
1951.000000	99.206087 
1950.000000	99.197228 
1949.000000	99.201824 
1948.000000	99.216798 
1947.000000	99.232276 
1946.000000	99.238193 
1945.000000	99.230121 
1944.000000	99.211377 
1943.000000	99.191370 
1942.000000	99.179826 
1941.000000	99.179416 
1940.000000	99.184917 
1939.000000	99.189748 
1938.000000	99.191211 
1937.000000	99.190504 
1936.000000	99.189921 
1935.000000	99.190177 
1934.000000	99.189455 
1933.000000	99.185204 
1932.000000	99.178065 
1931.000000	99.173331 
1930.000000	99.176263 
1929.000000	99.185211 
1928.000000	99.191501 
1927.000000	99.187917 
1926.000000	99.175331 
1925.000000	99.159939 
1924.000000	99.146888 
1923.000000	99.138633 
1922.000000	99.136996 
1921.000000	99.142482 
1920.000000	99.151642 
1919.000000	99.158051 
1918.000000	99.157472 
1917.000000	99.151846 
1916.000000	99.146645 
1915.000000	99.145566 
1914.000000	99.148884 
1913.000000	99.154112 
1912.000000	99.157169 
1911.000000	99.154837 
1910.000000	99.147453 
1909.000000	99.138699 
1908.000000	99.132220 
1907.000000	99.129499 
1906.000000	99.130380 
1905.000000	99.133066 
1904.000000	99.133252 
1903.000000	99.125772 
1902.000000	99.109234 
1901.000000	99.088637 
1900.000000	99.072247 
1899.000000	99.065694 
1898.000000	99.068496 
1897.000000	99.074985 
1896.000000	99.078823 
1895.000000	99.078203 
1894.000000	99.076828 
1893.000000	99.078791 
1892.000000	99.083473 
1891.000000	99.086767 
1890.000000	99.086275 
1889.000000	99.083727 
1888.000000	99.082068 
1887.000000	99.082290 
1886.000000	99.083790 
1885.000000	99.085560 
1884.000000	99.086426 
1883.000000	99.085535 
1882.000000	99.083196 
1881.000000	99.080348 
1880.000000	99.076934 
1879.000000	99.071691 
1878.000000	99.063535 
1877.000000	99.052888 
1876.000000	99.042476 
1875.000000	99.037175 
1874.000000	99.041342 
1873.000000	99.054099 
1872.000000	99.067928 
1871.000000	99.073990 
1870.000000	99.069293 
1869.000000	99.058744 
1868.000000	99.048766 
1867.000000	99.040655 
1866.000000	99.032990 
1865.000000	99.026043 
1864.000000	99.021735 
1863.000000	99.022170 
1862.000000	99.028663 
1861.000000	99.040345 
1860.000000	99.053134 
1859.000000	99.062347 
1858.000000	99.067219 
1857.000000	99.070995 
1856.000000	99.076169 
1855.000000	99.081694 
1854.000000	99.085185 
1853.000000	99.085690 
1852.000000	99.083460 
1851.000000	99.078915 
1850.000000	99.073311 
1849.000000	99.068956 
1848.000000	99.067254 
1847.000000	99.067611 
1846.000000	99.069117 
1845.000000	99.071427 
1844.000000	99.073037 
1843.000000	99.071922 
1842.000000	99.069438 
1841.000000	99.069917 
1840.000000	99.075854 
1839.000000	99.085093 
1838.000000	99.092396 
1837.000000	99.094129 
1836.000000	99.090968 
1835.000000	99.086154 
1834.000000	99.082626 
1833.000000	99.081783 
1832.000000	99.083376 
1831.000000	99.085407 
1830.000000	99.085047 
1829.000000	99.081424 
1828.000000	99.076710 
1827.000000	99.073124 
1826.000000	99.071001 
1825.000000	99.070709 
1824.000000	99.073499 
1823.000000	99.079203 
1822.000000	99.084720 
1821.000000	99.085725 
1820.000000	99.080461 
1819.000000	99.071842 
1818.000000	99.065091 
1817.000000	99.063242 
1816.000000	99.064682 
1815.000000	99.065488 
1814.000000	99.064212 
1813.000000	99.063414 
1812.000000	99.066569 
1811.000000	99.073571 
1810.000000	99.080862 
1809.000000	99.086186 
1808.000000	99.089591 
1807.000000	99.090140 
1806.000000	99.085693 
1805.000000	99.076369 
1804.000000	99.065552 
1803.000000	99.056676 
1802.000000	99.051132 
1801.000000	99.049575 
1800.000000	99.051964 
1799.000000	99.055929 
1798.000000	99.058117 
1797.000000	99.057687 
1796.000000	99.056775 
1795.000000	99.057364 
1794.000000	99.058744 
1793.000000	99.058857 
1792.000000	99.058476 
1791.000000	99.060364 
1790.000000	99.064258 
1789.000000	99.067625 
1788.000000	99.069747 
1787.000000	99.072110 
1786.000000	99.075250 
1785.000000	99.076485 
1784.000000	99.072805 
1783.000000	99.065847 
1782.000000	99.061031 
1781.000000	99.061094 
1780.000000	99.062462 
1779.000000	99.060006 
1778.000000	99.054107 
1777.000000	99.049888 
1776.000000	99.051197 
1775.000000	99.058197 
1774.000000	99.069041 
1773.000000	99.080162 
1772.000000	99.086400 
1771.000000	99.085802 
1770.000000	99.081600 
1769.000000	99.077571 
1768.000000	99.075325 
1767.000000	99.074186 
1766.000000	99.072501 
1765.000000	99.069918 
1764.000000	99.067818 
1763.000000	99.068609 
1762.000000	99.073519 
1761.000000	99.080063 
1760.000000	99.084295 
1759.000000	99.084754 
1758.000000	99.082660 
1757.000000	99.080257 
1756.000000	99.078857 
1755.000000	99.078146 
1754.000000	99.077155 
1753.000000	99.075285 
1752.000000	99.073828 
1751.000000	99.076245 
1750.000000	99.083578 
1749.000000	99.091643 
1748.000000	99.095554 
1747.000000	99.093940 
1746.000000	99.088544 
1745.000000	99.081700 
1744.000000	99.075467 
1743.000000	99.071755 
1742.000000	99.071022 
1741.000000	99.071834 
1740.000000	99.072145 
1739.000000	99.070797 
1738.000000	99.067625 
1737.000000	99.062162 
1736.000000	99.053725 
1735.000000	99.043154 
1734.000000	99.035780 
1733.000000	99.036729 
1732.000000	99.044228 
1731.000000	99.053166 
1730.000000	99.058971 
1729.000000	99.059118 
1728.000000	99.054695 
1727.000000	99.048818 
1726.000000	99.043255 
1725.000000	99.037483 
1724.000000	99.031492 
1723.000000	99.027576 
1722.000000	99.027932 
1721.000000	99.032085 
1720.000000	99.037414 
1719.000000	99.040745 
1718.000000	99.039435 
1717.000000	99.033946 
1716.000000	99.027396 
1715.000000	99.020794 
1714.000000	99.013446 
1713.000000	99.006092 
1712.000000	99.000328 
1711.000000	98.996553 
1710.000000	98.993656 
1709.000000	98.990676 
1708.000000	98.988021 
1707.000000	98.986956 
1706.000000	98.988145 
1705.000000	98.990036 
1704.000000	98.988349 
1703.000000	98.978897 
1702.000000	98.960709 
1701.000000	98.940406 
1700.000000	98.931039 
1699.000000	98.933676 
1698.000000	98.936755 
1697.000000	98.934303 
1696.000000	98.928196 
1695.000000	98.922618 
1694.000000	98.919099 
1693.000000	98.915470 
1692.000000	98.909165 
1691.000000	98.900006 
1690.000000	98.890548 
1689.000000	98.882869 
1688.000000	98.875852 
1687.000000	98.866835 
1686.000000	98.854750 
1685.000000	98.841382 
1684.000000	98.831589 
1683.000000	98.827082 
1682.000000	98.824175 
1681.000000	98.819051 
1680.000000	98.810470 
1679.000000	98.800436 
1678.000000	98.791724 
1677.000000	98.784722 
1676.000000	98.777678 
1675.000000	98.770258 
1674.000000	98.764659 
1673.000000	98.761957 
1672.000000	98.760421 
1671.000000	98.757423 
1670.000000	98.751499 
1669.000000	98.743400 
1668.000000	98.735449 
1667.000000	98.729141 
1666.000000	98.723182 
1665.000000	98.714876 
1664.000000	98.703365 
1663.000000	98.691703 
1662.000000	98.684717 
1661.000000	98.683455 
1660.000000	98.684405 
1659.000000	98.684637 
1658.000000	98.683982 
1657.000000	98.682692 
1656.000000	98.678674 
1655.000000	98.669249 
1654.000000	98.653462 
1653.000000	98.634376 
1652.000000	98.621240 
1651.000000	98.619765 
1650.000000	98.623578 
1649.000000	98.623783 
1648.000000	98.616237 
1647.000000	98.602111 
1646.000000	98.588146 
1645.000000	98.581716 
1644.000000	98.584489 
1643.000000	98.592181 
1642.000000	98.599053 
1641.000000	98.601899 
1640.000000	98.601598 
1639.000000	98.601321 
1638.000000	98.602842 
1637.000000	98.604379 
1636.000000	98.601652 
1635.000000	98.594798 
1634.000000	98.590965 
1633.000000	98.593423 
1632.000000	98.598725 
1631.000000	98.603205 
1630.000000	98.605486 
1629.000000	98.605934 
1628.000000	98.605649 
1627.000000	98.606520 
1626.000000	98.610688 
1625.000000	98.619082 
1624.000000	98.630261 
1623.000000	98.641099 
1622.000000	98.649884 
1621.000000	98.657481 
1620.000000	98.664415 
1619.000000	98.669905 
1618.000000	98.673631 
1617.000000	98.676770 
1616.000000	98.681289 
1615.000000	98.688172 
1614.000000	98.695959 
1613.000000	98.702076 
1612.000000	98.705406 
1611.000000	98.706876 
1610.000000	98.708661 
1609.000000	98.712578 
1608.000000	98.718836 
1607.000000	98.726377 
1606.000000	98.734090 
1605.000000	98.741691 
1604.000000	98.749627 
1603.000000	98.758356 
1602.000000	98.767287 
1601.000000	98.774846 
1600.000000	98.780512 
1599.000000	98.785968 
1598.000000	98.793283 
1597.000000	98.802568 
1596.000000	98.812255 
1595.000000	98.820941 
1594.000000	98.828060 
1593.000000	98.833267 
1592.000000	98.836583 
1591.000000	98.839231 
1590.000000	98.843112 
1589.000000	98.848945 
1588.000000	98.855800 
1587.000000	98.862454 
1586.000000	98.867881 
1585.000000	98.870816 
1584.000000	98.870334 
1583.000000	98.867505 
1582.000000	98.865785 
1581.000000	98.868002 
1580.000000	98.873739 
1579.000000	98.880569 
1578.000000	98.886383 
1577.000000	98.889241 
1576.000000	98.888266 
1575.000000	98.887466 
1574.000000	98.891431 
1573.000000	98.898253 
1572.000000	98.903887 
1571.000000	98.908100 
1570.000000	98.913795 
1569.000000	98.920953 
1568.000000	98.925167 
1567.000000	98.924460 
1566.000000	98.921357 
1565.000000	98.919327 
1564.000000	98.919508 
1563.000000	98.920529 
1562.000000	98.920724 
1561.000000	98.920090 
1560.000000	98.918606 
1559.000000	98.916832 
1558.000000	98.914430 
1557.000000	98.914162 
1556.000000	98.918139 
1555.000000	98.923623 
1554.000000	98.927789 
1553.000000	98.928818 
1552.000000	98.927263 
1551.000000	98.926158 
1550.000000	98.928449 
1549.000000	98.932905 
1548.000000	98.935091 
1547.000000	98.932975 
1546.000000	98.928794 
1545.000000	98.926588 
1544.000000	98.927303 
1543.000000	98.927451 
1542.000000	98.924701 
1541.000000	98.921899 
1540.000000	98.922001 
1539.000000	98.923233 
1538.000000	98.924931 
1537.000000	98.927470 
1536.000000	98.929268 
1535.000000	98.929895 
1534.000000	98.931635 
1533.000000	98.935553 
1532.000000	98.938610 
1531.000000	98.938265 
1530.000000	98.935516 
1529.000000	98.932695 
1528.000000	98.931201 
1527.000000	98.931052 
1526.000000	98.931612 
1525.000000	98.932026 
1524.000000	98.931763 
1523.000000	98.931676 
1522.000000	98.934716 
1521.000000	98.941493 
1520.000000	98.946545 
1519.000000	98.945967 
1518.000000	98.941901 
1517.000000	98.938692 
1516.000000	98.938253 
1515.000000	98.938747 
1514.000000	98.938709 
1513.000000	98.938237 
1512.000000	98.937533 
1511.000000	98.936082 
1510.000000	98.933362 
1509.000000	98.931241 
1508.000000	98.936051 
1507.000000	98.951411 
1506.000000	98.963509 
1505.000000	98.962825 
1504.000000	98.957421 
1503.000000	98.952939 
1502.000000	98.950515 
1501.000000	98.950826 
1500.000000	98.952759 
1499.000000	98.953937 
1498.000000	98.953318 
1497.000000	98.954027 
1496.000000	98.959287 
1495.000000	98.965809 
1494.000000	98.967218 
1493.000000	98.961271 
1492.000000	98.950761 
1491.000000	98.941515 
1490.000000	98.938068 
1489.000000	98.938905 
1488.000000	98.938860 
1487.000000	98.935557 
1486.000000	98.931260 
1485.000000	98.929456 
1484.000000	98.931078 
1483.000000	98.934255 
1482.000000	98.935990 
1481.000000	98.934183 
1480.000000	98.928988 
1479.000000	98.922003 
1478.000000	98.914813 
1477.000000	98.908700 
1476.000000	98.904309 
1475.000000	98.900705 
1474.000000	98.897191 
1473.000000	98.895470 
1472.000000	98.896242 
1471.000000	98.896441 
1470.000000	98.893594 
1469.000000	98.888599 
1468.000000	98.883863 
1467.000000	98.881204 
1466.000000	98.880750 
1465.000000	98.881032 
1464.000000	98.880025 
1463.000000	98.877418 
1462.000000	98.874352 
1461.000000	98.871277 
1460.000000	98.867216 
1459.000000	98.860692 
1458.000000	98.850779 
1457.000000	98.838906 
1456.000000	98.828710 
1455.000000	98.822937 
1454.000000	98.820788 
1453.000000	98.818715 
1452.000000	98.813641 
1451.000000	98.805627 
1450.000000	98.797948 
1449.000000	98.794434 
1448.000000	98.796040 
1447.000000	98.799560 
1446.000000	98.801593 
1445.000000	98.801737 
1444.000000	98.800387 
1443.000000	98.797115 
1442.000000	98.791803 
1441.000000	98.785598 
1440.000000	98.780001 
1439.000000	98.775711 
1438.000000	98.772171 
1437.000000	98.768732 
1436.000000	98.765117 
1435.000000	98.760965 
1434.000000	98.756680 
1433.000000	98.753523 
1432.000000	98.752532 
1431.000000	98.754024 
1430.000000	98.756599 
1429.000000	98.757683 
1428.000000	98.755933 
1427.000000	98.751973 
1426.000000	98.747798 
1425.000000	98.745480 
1424.000000	98.745700 
1423.000000	98.746488 
1422.000000	98.744167 
1421.000000	98.736807 
1420.000000	98.726594 
1419.000000	98.719210 
1418.000000	98.716266 
1417.000000	98.713666 
1416.000000	98.709226 
1415.000000	98.703223 
1414.000000	98.695423 
1413.000000	98.685227 
1412.000000	98.673615 
1411.000000	98.663532 
1410.000000	98.656823 
1409.000000	98.653203 
1408.000000	98.652478 
1407.000000	98.655014 
1406.000000	98.660826 
1405.000000	98.669761 
1404.000000	98.681460 
1403.000000	98.693964 
1402.000000	98.704183 
1401.000000	98.711358 
1400.000000	98.718571 
1399.000000	98.728457 
1398.000000	98.736548 
1397.000000	98.734363 
1396.000000	98.720008 
1395.000000	98.703523 
1394.000000	98.699823 
1393.000000	98.714076 
1392.000000	98.739440 
1391.000000	98.766030 
1390.000000	98.786830 
1389.000000	98.799071 
1388.000000	98.803423 
1387.000000	98.802254 
1386.000000	98.797935 
1385.000000	98.792773 
1384.000000	98.789152 
1383.000000	98.788628 
1382.000000	98.791205 
1381.000000	98.796065 
1380.000000	98.802452 
1379.000000	98.809320 
1378.000000	98.814974 
1377.000000	98.818423 
1376.000000	98.821301 
1375.000000	98.827365 
1374.000000	98.838477 
1373.000000	98.851380 
1372.000000	98.861494 
1371.000000	98.868450 
1370.000000	98.875394 
1369.000000	98.884171 
1368.000000	98.893449 
1367.000000	98.901391 
1366.000000	98.907916 
1365.000000	98.913680 
1364.000000	98.918334 
1363.000000	98.921262 
1362.000000	98.923053 
1361.000000	98.924867 
1360.000000	98.927297 
1359.000000	98.930798 
1358.000000	98.936192 
1357.000000	98.943522 
1356.000000	98.950972 
1355.000000	98.956300 
1354.000000	98.959064 
1353.000000	98.960421 
1352.000000	98.960903 
1351.000000	98.960004 
1350.000000	98.958433 
1349.000000	98.958018 
1348.000000	98.959775 
1347.000000	98.963490 
1346.000000	98.968509 
1345.000000	98.973669 
1344.000000	98.977134 
1343.000000	98.977979 
1342.000000	98.977382 
1341.000000	98.976809 
1340.000000	98.975556 
1339.000000	98.972133 
1338.000000	98.967835 
1337.000000	98.966303 
1336.000000	98.969184 
1335.000000	98.974518 
1334.000000	98.979763 
1333.000000	98.984314 
1332.000000	98.988068 
1331.000000	98.989469 
1330.000000	98.986831 
1329.000000	98.980907 
1328.000000	98.974876 
1327.000000	98.971727 
1326.000000	98.972052 
1325.000000	98.973853 
1324.000000	98.974843 
1323.000000	98.974617 
1322.000000	98.974028 
1321.000000	98.973068 
1320.000000	98.970689 
1319.000000	98.967012 
1318.000000	98.964114 
1317.000000	98.963510 
1316.000000	98.963868 
1315.000000	98.962596 
1314.000000	98.959137 
1313.000000	98.955607 
1312.000000	98.954247 
1311.000000	98.955331 
1310.000000	98.957666 
1309.000000	98.959872 
1308.000000	98.960652 
1307.000000	98.958748 
1306.000000	98.953771 
1305.000000	98.946881 
1304.000000	98.940599 
1303.000000	98.937570 
1302.000000	98.938786 
1301.000000	98.942492 
1300.000000	98.944994 
1299.000000	98.943198 
1298.000000	98.936704 
1297.000000	98.927661 
1296.000000	98.918989 
1295.000000	98.913101 
1294.000000	98.911265 
1293.000000	98.912644 
1292.000000	98.913804 
1291.000000	98.910548 
1290.000000	98.901614 
1289.000000	98.890261 
1288.000000	98.881133 
1287.000000	98.875444 
1286.000000	98.870130 
1285.000000	98.862003 
1284.000000	98.851636 
1283.000000	98.842193 
1282.000000	98.835247 
1281.000000	98.829284 
1280.000000	98.822275 
1279.000000	98.814080 
1278.000000	98.805555 
1277.000000	98.796738 
1276.000000	98.787232 
1275.000000	98.777676 
1274.000000	98.769374 
1273.000000	98.762556 
1272.000000	98.755991 
1271.000000	98.748093 
1270.000000	98.737696 
1269.000000	98.724418 
1268.000000	98.709526 
1267.000000	98.695944 
1266.000000	98.685717 
1265.000000	98.677536 
1264.000000	98.668099 
1263.000000	98.655691 
1262.000000	98.641308 
1261.000000	98.626908 
1260.000000	98.614212 
1259.000000	98.604750 
1258.000000	98.598695 
1257.000000	98.593537 
1256.000000	98.585950 
1255.000000	98.575453 
1254.000000	98.564577 
1253.000000	98.554994 
1252.000000	98.545433 
1251.000000	98.534226 
1250.000000	98.522009 
1249.000000	98.510643 
1248.000000	98.500973 
1247.000000	98.492637 
1246.000000	98.484309 
1245.000000	98.473018 
1244.000000	98.455387 
1243.000000	98.432038 
1242.000000	98.409691 
1241.000000	98.396101 
1240.000000	98.392445 
1239.000000	98.391969 
1238.000000	98.386272 
1237.000000	98.371958 
1236.000000	98.351332 
1235.000000	98.328400 
1234.000000	98.305392 
1233.000000	98.282456 
1232.000000	98.259310 
1231.000000	98.236113 
1230.000000	98.212622 
1229.000000	98.187560 
1228.000000	98.159986 
1227.000000	98.131156 
1226.000000	98.103672 
1225.000000	98.078150 
1224.000000	98.051491 
1223.000000	98.019188 
1222.000000	97.979165 
1221.000000	97.933193 
1220.000000	97.885131 
1219.000000	97.838002 
1218.000000	97.791872 
1217.000000	97.743898 
1216.000000	97.690816 
1215.000000	97.631903 
1214.000000	97.569595 
1213.000000	97.507246 
1212.000000	97.446374 
1211.000000	97.385699 
1210.000000	97.322602 
1209.000000	97.255900 
1208.000000	97.187304 
1207.000000	97.119605 
1206.000000	97.053554 
1205.000000	96.987681 
1204.000000	96.921063 
1203.000000	96.854315 
1202.000000	96.787289 
1201.000000	96.718188 
1200.000000	96.646527 
1199.000000	96.575145 
1198.000000	96.507216 
1197.000000	96.442455 
1196.000000	96.377926 
1195.000000	96.311220 
1194.000000	96.241271 
1193.000000	96.167447 
1192.000000	96.090003 
1191.000000	96.010813 
1190.000000	95.932132 
1189.000000	95.855124 
1188.000000	95.780273 
1187.000000	95.707636 
1186.000000	95.635461 
1185.000000	95.560265 
1184.000000	95.479813 
1183.000000	95.394848 
1182.000000	95.307134 
1181.000000	95.217602 
1180.000000	95.127250 
1179.000000	95.037349 
1178.000000	94.946984 
1177.000000	94.852568 
1176.000000	94.751724 
1175.000000	94.646006 
1174.000000	94.538458 
1173.000000	94.430494 
1172.000000	94.322589 
1171.000000	94.215577 
1170.000000	94.109382 
1169.000000	94.002696 
1168.000000	93.895822 
1167.000000	93.792320 
1166.000000	93.697506 
1165.000000	93.618431 
1164.000000	93.565748 
1163.000000	93.550366 
1162.000000	93.574399 
1161.000000	93.626989 
1160.000000	93.689844 
1159.000000	93.744634 
1158.000000	93.776444 
1157.000000	93.776160 
1156.000000	93.742840 
1155.000000	93.682177 
1154.000000	93.601567 
1153.000000	93.507943 
1152.000000	93.409335 
1151.000000	93.313642 
1150.000000	93.223711 
1149.000000	93.136638 
1148.000000	93.049101 
1147.000000	92.960123 
1146.000000	92.868370 
1145.000000	92.771832 
1144.000000	92.672135 
1143.000000	92.574837 
1142.000000	92.483069 
1141.000000	92.394277 
1140.000000	92.304538 
1139.000000	92.211975 
1138.000000	92.114938 
1137.000000	92.011915 
1136.000000	91.905132 
1135.000000	91.799474 
1134.000000	91.695772 
1133.000000	91.589728 
1132.000000	91.479001 
1131.000000	91.366085 
1130.000000	91.252431 
1129.000000	91.135508 
1128.000000	91.014183 
1127.000000	90.891439 
1126.000000	90.769131 
1125.000000	90.645508 
1124.000000	90.520389 
1123.000000	90.396915 
1122.000000	90.275435 
1121.000000	90.151703 
1120.000000	90.024244 
1119.000000	89.897592 
1118.000000	89.775070 
1117.000000	89.654433 
1116.000000	89.533938 
1115.000000	89.416536 
1114.000000	89.304301 
1113.000000	89.194518 
1112.000000	89.085136 
1111.000000	88.978820 
1110.000000	88.878006 
1109.000000	88.780529 
1108.000000	88.682825 
1107.000000	88.582805 
1106.000000	88.478211 
1105.000000	88.367574 
1104.000000	88.253964 
1103.000000	88.142197 
1102.000000	88.032144 
1101.000000	87.920954 
1100.000000	87.811449 
1099.000000	87.709340 
1098.000000	87.612669 
1097.000000	87.513340 
1096.000000	87.409772 
1095.000000	87.308254 
1094.000000	87.210399 
1093.000000	87.109953 
1092.000000	87.004341 
1091.000000	86.898792 
1090.000000	86.795982 
1089.000000	86.691971 
1088.000000	86.586008 
1087.000000	86.484494 
1086.000000	86.391305 
1085.000000	86.303098 
1084.000000	86.216986 
1083.000000	86.133578 
1082.000000	86.050286 
1081.000000	85.961839 
1080.000000	85.869950 
1079.000000	85.782379 
1078.000000	85.700289 
1077.000000	85.617082 
1076.000000	85.531309 
1075.000000	85.448370 
1074.000000	85.366709 
1073.000000	85.274808 
1072.000000	85.164912 
1071.000000	85.037273 
1070.000000	84.888322 
1069.000000	84.709672 
1068.000000	84.505441 
1067.000000	84.297727 
1066.000000	84.106419 
1065.000000	83.932509 
1064.000000	83.766477 
1063.000000	83.601503 
1062.000000	83.432253 
1061.000000	83.252697 
1060.000000	83.064060 
1059.000000	82.877179 
1058.000000	82.700546 
1057.000000	82.531987 
1056.000000	82.364147 
1055.000000	82.189111 
1054.000000	81.996581 
1053.000000	81.779816 
1052.000000	81.546977 
1051.000000	81.314464 
1050.000000	81.085650 
1049.000000	80.850276 
1048.000000	80.606488 
1047.000000	80.364955 
1046.000000	80.128258 
1045.000000	79.885289 
1044.000000	79.630707 
1043.000000	79.373359 
1042.000000	79.120342 
1041.000000	78.867841 
1040.000000	78.613921 
1039.000000	78.366481 
1038.000000	78.132291 
1037.000000	77.910872 
1036.000000	77.704009 
1035.000000	77.517839 
1034.000000	77.350987 
1033.000000	77.193753 
1032.000000	77.042247 
1031.000000	76.900333 
1030.000000	76.767251 
1029.000000	76.639616 
1028.000000	76.526442 
1027.000000	76.443205 
1026.000000	76.387214 
1025.000000	76.336682 
1024.000000	76.277754 
1023.000000	76.214826 
1022.000000	76.151586 
1021.000000	76.081626 
1020.000000	76.003310 
1019.000000	75.925541 
1018.000000	75.852025 
1017.000000	75.775827 
1016.000000	75.694778 
1015.000000	75.616327 
1014.000000	75.542561 
1013.000000	75.466399 
1012.000000	75.386819 
1011.000000	75.311797 
1010.000000	75.242693 
1009.000000	75.172618 
1008.000000	75.103804 
1007.000000	75.049007 
1006.000000	75.011438 
1005.000000	74.980629 
1004.000000	74.952179 
1003.000000	74.933864 
1002.000000	74.928028 
1001.000000	74.926152 
1000.000000	74.925855 
999.000000	 74.935426 
998.000000	 74.956133 
997.000000	 74.977436 
996.000000	 74.995561 
995.000000	 75.020219 
994.000000	 75.057154 
993.000000	 75.099613 
992.000000	 75.142195 
991.000000	 75.187834 
990.000000	 75.236863 
989.000000	 75.284921 
988.000000	 75.335999 
987.000000	 75.401956 
986.000000	 75.485017 
985.000000	 75.576030 
984.000000	 75.673205 
983.000000	 75.786424 
982.000000	 75.919686 
981.000000	 76.065710 
980.000000	 76.221422 
979.000000	 76.392313 
978.000000	 76.577970 
977.000000	 76.770007 
976.000000	 76.968233 
975.000000	 77.182637 
974.000000	 77.415058 
973.000000	 77.654354 
972.000000	 77.893700 
971.000000	 78.137651 
970.000000	 78.388444 
969.000000	 78.640318 
968.000000	 78.891341 
967.000000	 79.146369 
966.000000	 79.404195 
965.000000	 79.655332 
964.000000	 79.896363 
963.000000	 80.133589 
962.000000	 80.369282 
961.000000	 80.597222 
960.000000	 80.815041 
959.000000	 81.028147 
958.000000	 81.237800 
957.000000	 81.437623 
956.000000	 81.625804 
955.000000	 81.809254 
954.000000	 81.991699 
953.000000	 82.167956 
952.000000	 82.333120 
951.000000	 82.487445 
950.000000	 82.629780 
949.000000	 82.756402 
948.000000	 82.868964 
947.000000	 82.974246 
946.000000	 83.074250 
945.000000	 83.165715 
944.000000	 83.249817 
943.000000	 83.331612 
942.000000	 83.409027 
941.000000	 83.474041 
940.000000	 83.526851 
939.000000	 83.578035 
938.000000	 83.634573 
937.000000	 83.694154 
936.000000	 83.754903 
935.000000	 83.819387 
934.000000	 83.886568 
933.000000	 83.950835 
932.000000	 84.011959 
931.000000	 84.076164 
930.000000	 84.145354 
929.000000	 84.215078 
928.000000	 84.284261 
927.000000	 84.356126 
926.000000	 84.428040 
925.000000	 84.491489 
924.000000	 84.543997 
923.000000	 84.590613 
922.000000	 84.632303 
921.000000	 84.663949 
920.000000	 84.685464 
919.000000	 84.703629 
918.000000	 84.720777 
917.000000	 84.732801 
916.000000	 84.740781 
915.000000	 84.753747 
914.000000	 84.777764 
913.000000	 84.813385 
912.000000	 84.865907 
911.000000	 84.945705 
910.000000	 85.054717 
909.000000	 85.183802 
908.000000	 85.326759 
907.000000	 85.486254 
906.000000	 85.663731 
905.000000	 85.854910 
904.000000	 86.057973 
903.000000	 86.275580 
902.000000	 86.506240 
901.000000	 86.743143 
900.000000	 86.982766 
899.000000	 87.225167 
898.000000	 87.465433 
897.000000	 87.694823 
896.000000	 87.911131 
895.000000	 88.118889 
894.000000	 88.319525 
893.000000	 88.510520 
892.000000	 88.693664 
891.000000	 88.874119 
890.000000	 89.050946 
889.000000	 89.217859 
888.000000	 89.373425 
887.000000	 89.521378 
886.000000	 89.661238 
885.000000	 89.788709 
884.000000	 89.906082 
883.000000	 90.022236 
882.000000	 90.140584 
881.000000	 90.256267 
880.000000	 90.367318 
879.000000	 90.479750 
878.000000	 90.598907 
877.000000	 90.723070 
876.000000	 90.847253 
875.000000	 90.966742 
874.000000	 91.077524 
873.000000	 91.181319 
872.000000	 91.289569 
871.000000	 91.413820 
870.000000	 91.551492 
869.000000	 91.688265 
868.000000	 91.814061 
867.000000	 91.930079 
866.000000	 92.042149 
865.000000	 92.155126 
864.000000	 92.272999 
863.000000	 92.396523 
862.000000	 92.519954 
861.000000	 92.635776 
860.000000	 92.742322 
859.000000	 92.842335 
858.000000	 92.936980 
857.000000	 93.027064 
856.000000	 93.116248 
855.000000	 93.205039 
854.000000	 93.284514 
853.000000	 93.345004 
852.000000	 93.389582 
851.000000	 93.430433 
850.000000	 93.473038 
849.000000	 93.512626 
848.000000	 93.545284 
847.000000	 93.572691 
846.000000	 93.595005 
845.000000	 93.608398 
844.000000	 93.611792 
843.000000	 93.607918 
842.000000	 93.595223 
841.000000	 93.566205 
840.000000	 93.517156 
839.000000	 93.453779 
838.000000	 93.384254 
837.000000	 93.311411 
836.000000	 93.234243 
835.000000	 93.153384 
834.000000	 93.073779 
833.000000	 93.004601 
832.000000	 92.954658 
831.000000	 92.923012 
830.000000	 92.897866 
829.000000	 92.873360 
828.000000	 92.863450 
827.000000	 92.886002 
826.000000	 92.934563 
825.000000	 92.982641 
824.000000	 93.018264 
823.000000	 93.055586 
822.000000	 93.106615 
821.000000	 93.160415 
820.000000	 93.198739 
819.000000	 93.216912 
818.000000	 93.221122 
817.000000	 93.215517 
816.000000	 93.198545 
815.000000	 93.164500 
814.000000	 93.102873 
813.000000	 93.001707 
812.000000	 92.856358 
811.000000	 92.670600 
810.000000	 92.445838 
809.000000	 92.174217 
808.000000	 91.845924 
807.000000	 91.458788 
806.000000	 91.018962 
805.000000	 90.539897 
804.000000	 90.045630 
803.000000	 89.568074 
802.000000	 89.134466 
801.000000	 88.762000 
800.000000	 88.465770 
799.000000	 88.260129 
798.000000	 88.147250 
797.000000	 88.115347 
796.000000	 88.151689 
795.000000	 88.245548 
794.000000	 88.377080 
793.000000	 88.518558 
792.000000	 88.651160 
791.000000	 88.768978 
790.000000	 88.865025 
789.000000	 88.926923 
788.000000	 88.949514 
787.000000	 88.938086 
786.000000	 88.893945 
785.000000	 88.808527 
784.000000	 88.677950 
783.000000	 88.514088 
782.000000	 88.336969 
781.000000	 88.166327 
780.000000	 88.024306 
779.000000	 87.933230 
778.000000	 87.902674 
777.000000	 87.927880 
776.000000	 88.004582 
775.000000	 88.132896 
774.000000	 88.302307 
773.000000	 88.486924 
772.000000	 88.663082 
771.000000	 88.821899 
770.000000	 88.960301 
769.000000	 89.071244 
768.000000	 89.149976 
767.000000	 89.201727 
766.000000	 89.236389 
765.000000	 89.260575 
764.000000	 89.278189 
763.000000	 89.292099 
762.000000	 89.301930 
761.000000	 89.306874 
760.000000	 89.312883 
759.000000	 89.329598 
758.000000	 89.358300 
757.000000	 89.391224 
756.000000	 89.424626 
755.000000	 89.463672 
754.000000	 89.512453 
753.000000	 89.568235 
752.000000	 89.627837 
751.000000	 89.690436 
750.000000	 89.751697 
749.000000	 89.804527 
748.000000	 89.849392 
747.000000	 89.896793 
746.000000	 89.956873 
745.000000	 90.032405 
744.000000	 90.121834 
743.000000	 90.221382 
742.000000	 90.324545 
741.000000	 90.428080 
740.000000	 90.537877 
739.000000	 90.660198 
738.000000	 90.788330 
737.000000	 90.907587 
736.000000	 91.012616 
735.000000	 91.110054 
734.000000	 91.205294 
733.000000	 91.296770 
732.000000	 91.381904 
731.000000	 91.456704 
730.000000	 91.510174 
729.000000	 91.532604 
728.000000	 91.531396 
727.000000	 91.527458 
726.000000	 91.534559 
725.000000	 91.553314 
724.000000	 91.585155 
723.000000	 91.636737 
722.000000	 91.706111 
721.000000	 91.777877 
720.000000	 91.838838 
719.000000	 91.889235 
718.000000	 91.934233 
717.000000	 91.975306 
716.000000	 92.014862 
715.000000	 92.057534 
714.000000	 92.100110 
713.000000	 92.129709 
712.000000	 92.138895 
711.000000	 92.135347 
710.000000	 92.131366 
709.000000	 92.130636 
708.000000	 92.128944 
707.000000	 92.119684 
706.000000	 92.094087 
705.000000	 92.043847 
704.000000	 91.968467 
703.000000	 91.873702 
702.000000	 91.758691 
701.000000	 91.610745 
700.000000	 91.415637 
699.000000	 91.168685 
698.000000	 90.879617 
697.000000	 90.578535 
696.000000	 90.317339 
695.000000	 90.149594 
694.000000	 90.099476 
693.000000	 90.153959 
692.000000	 90.280561 
691.000000	 90.441255 
690.000000	 90.597623 
689.000000	 90.725673 
688.000000	 90.831461 
687.000000	 90.936523 
686.000000	 91.044451 
685.000000	 91.138175 
684.000000	 91.208284 
683.000000	 91.262819 
682.000000	 91.309254 
681.000000	 91.348674 
680.000000	 91.390274 
679.000000	 91.448407 
678.000000	 91.517433 
677.000000	 91.571741 
676.000000	 91.600628 
675.000000	 91.623652 
674.000000	 91.663619 
673.000000	 91.722237 
672.000000	 91.790022 
671.000000	 91.861231 
670.000000	 91.927138 
669.000000	 91.964408 
668.000000	 91.957668 
667.000000	 91.944704 
666.000000	 91.977715 
665.000000	 92.051096 
664.000000	 92.129365 
663.000000	 92.188509 
662.000000	 92.220939 
661.000000	 92.231250 
660.000000	 92.231608 
659.000000	 92.233156 
658.000000	 92.232224 
657.000000	 92.211406 
656.000000	 92.164648 
655.000000	 92.111577 
654.000000	 92.073434 
653.000000	 92.041563 
652.000000	 91.990534 
651.000000	 91.920799 
650.000000	 91.869081 

