4000.000000	99.522829 
3999.000000	99.523268 
3998.000000	99.523506 
3997.000000	99.523299 
3996.000000	99.522548 
3995.000000	99.521478 
3994.000000	99.520600 
3993.000000	99.520332 
3992.000000	99.520714 
3991.000000	99.521389 
3990.000000	99.521890 
3989.000000	99.522050 
3988.000000	99.522071 
3987.000000	99.522254 
3986.000000	99.522690 
3985.000000	99.523210 
3984.000000	99.523560 
3983.000000	99.523568 
3982.000000	99.523199 
3981.000000	99.522532 
3980.000000	99.521677 
3979.000000	99.520719 
3978.000000	99.519804 
3977.000000	99.519229 
3976.000000	99.519333 
3975.000000	99.520224 
3974.000000	99.521607 
3973.000000	99.522843 
3972.000000	99.523376 
3971.000000	99.523101 
3970.000000	99.522327 
3969.000000	99.521492 
3968.000000	99.520855 
3967.000000	99.520409 
3966.000000	99.520061 
3965.000000	99.519846 
3964.000000	99.519853 
3963.000000	99.519962 
3962.000000	99.519785 
3961.000000	99.518985 
3960.000000	99.517609 
3959.000000	99.516126 
3958.000000	99.515093 
3957.000000	99.514729 
3956.000000	99.514879 
3955.000000	99.515250 
3954.000000	99.515667 
3953.000000	99.516084 
3952.000000	99.516435 
3951.000000	99.516613 
3950.000000	99.516544 
3949.000000	99.516314 
3948.000000	99.516142 
3947.000000	99.516176 
3946.000000	99.516354 
3945.000000	99.516504 
3944.000000	99.516500 
3943.000000	99.516282 
3942.000000	99.515888 
3941.000000	99.515442 
3940.000000	99.514976 
3939.000000	99.514308 
3938.000000	99.513207 
3937.000000	99.511725 
3936.000000	99.510373 
3935.000000	99.509815 
3934.000000	99.510378 
3933.000000	99.511806 
3932.000000	99.513391 
3931.000000	99.514397 
3930.000000	99.514482 
3929.000000	99.513866 
3928.000000	99.513173 
3927.000000	99.512987 
3926.000000	99.513476 
3925.000000	99.514255 
3924.000000	99.514640 
3923.000000	99.514253 
3922.000000	99.513272 
3921.000000	99.512248 
3920.000000	99.511670 
3919.000000	99.511704 
3918.000000	99.512247 
3917.000000	99.513048 
3916.000000	99.513817 
3915.000000	99.514328 
3914.000000	99.514546 
3913.000000	99.514578 
3912.000000	99.514494 
3911.000000	99.514334 
3910.000000	99.514194 
3909.000000	99.514212 
3908.000000	99.514405 
3907.000000	99.514432 
3906.000000	99.513672 
3905.000000	99.511676 
3904.000000	99.508607 
3903.000000	99.505472 
3902.000000	99.503536 
3901.000000	99.503314 
3900.000000	99.504415 
3899.000000	99.505786 
3898.000000	99.506543 
3897.000000	99.506554 
3896.000000	99.506137 
3895.000000	99.505632 
3894.000000	99.505181 
3893.000000	99.504694 
3892.000000	99.504002 
3891.000000	99.503061 
3890.000000	99.502036 
3889.000000	99.501115 
3888.000000	99.500451 
3887.000000	99.500191 
3886.000000	99.500301 
3885.000000	99.500465 
3884.000000	99.500368 
3883.000000	99.500030 
3882.000000	99.499746 
3881.000000	99.499712 
3880.000000	99.499815 
3879.000000	99.499768 
3878.000000	99.499461 
3877.000000	99.499054 
3876.000000	99.498820 
3875.000000	99.498817 
3874.000000	99.498765 
3873.000000	99.498356 
3872.000000	99.497640 
3871.000000	99.497009 
3870.000000	99.496804 
3869.000000	99.497013 
3868.000000	99.497392 
3867.000000	99.497764 
3866.000000	99.498164 
3865.000000	99.498624 
3864.000000	99.499005 
3863.000000	99.499185 
3862.000000	99.499247 
3861.000000	99.499439 
3860.000000	99.499917 
3859.000000	99.500614 
3858.000000	99.501249 
3857.000000	99.501581 
3856.000000	99.501577 
3855.000000	99.501561 
3854.000000	99.501882 
3853.000000	99.502484 
3852.000000	99.503167 
3851.000000	99.503857 
3850.000000	99.504514 
3849.000000	99.505173 
3848.000000	99.505844 
3847.000000	99.506474 
3846.000000	99.506966 
3845.000000	99.507200 
3844.000000	99.507180 
3843.000000	99.507119 
3842.000000	99.507206 
3841.000000	99.507441 
3840.000000	99.507736 
3839.000000	99.508037 
3838.000000	99.508363 
3837.000000	99.508754 
3836.000000	99.509242 
3835.000000	99.509892 
3834.000000	99.510751 
3833.000000	99.511800 
3832.000000	99.512892 
3831.000000	99.513776 
3830.000000	99.514310 
3829.000000	99.514579 
3828.000000	99.514799 
3827.000000	99.515137 
3826.000000	99.515573 
3825.000000	99.515934 
3824.000000	99.516091 
3823.000000	99.516157 
3822.000000	99.516349 
3821.000000	99.516687 
3820.000000	99.517018 
3819.000000	99.517259 
3818.000000	99.517449 
3817.000000	99.517736 
3816.000000	99.518189 
3815.000000	99.518679 
3814.000000	99.519028 
3813.000000	99.519243 
3812.000000	99.519465 
3811.000000	99.519782 
3810.000000	99.520147 
3809.000000	99.520467 
3808.000000	99.520700 
3807.000000	99.520853 
3806.000000	99.520930 
3805.000000	99.520937 
3804.000000	99.520920 
3803.000000	99.520979 
3802.000000	99.521169 
3801.000000	99.521445 
3800.000000	99.521678 
3799.000000	99.521792 
3798.000000	99.521794 
3797.000000	99.521755 
3796.000000	99.521747 
3795.000000	99.521784 
3794.000000	99.521837 
3793.000000	99.521880 
3792.000000	99.521911 
3791.000000	99.521922 
3790.000000	99.521894 
3789.000000	99.521844 
3788.000000	99.521821 
3787.000000	99.521823 
3786.000000	99.521752 
3785.000000	99.521497 
3784.000000	99.521058 
3783.000000	99.520559 
3782.000000	99.520156 
3781.000000	99.519942 
3780.000000	99.519848 
3779.000000	99.519646 
3778.000000	99.519170 
3777.000000	99.518455 
3776.000000	99.517656 
3775.000000	99.516945 
3774.000000	99.516361 
3773.000000	99.515799 
3772.000000	99.515181 
3771.000000	99.514565 
3770.000000	99.513977 
3769.000000	99.513302 
3768.000000	99.512489 
3767.000000	99.511678 
3766.000000	99.511074 
3765.000000	99.510649 
3764.000000	99.509969 
3763.000000	99.508651 
3762.000000	99.507079 
3761.000000	99.506339 
3760.000000	99.506847 
3759.000000	99.507648 
3758.000000	99.507855 
3757.000000	99.507695 
3756.000000	99.507429 
3755.000000	99.506639 
3754.000000	99.504857 
3753.000000	99.502275 
3752.000000	99.499203 
3751.000000	99.495521 
3750.000000	99.492431 
3749.000000	99.492138 
3748.000000	99.494534 
3747.000000	99.496966 
3746.000000	99.497594 
3745.000000	99.496899 
3744.000000	99.496599 
3743.000000	99.497188 
3742.000000	99.496911 
3741.000000	99.494048 
3740.000000	99.488618 
3739.000000	99.481493 
3738.000000	99.474809 
3737.000000	99.472058 
3736.000000	99.475137 
3735.000000	99.481649 
3734.000000	99.486829 
3733.000000	99.488555 
3732.000000	99.488282 
3731.000000	99.487837 
3730.000000	99.487422 
3729.000000	99.486655 
3728.000000	99.486471 
3727.000000	99.487764 
3726.000000	99.488691 
3725.000000	99.486200 
3724.000000	99.480453 
3723.000000	99.475315 
3722.000000	99.473856 
3721.000000	99.475708 
3720.000000	99.477781 
3719.000000	99.476793 
3718.000000	99.471966 
3717.000000	99.464604 
3716.000000	99.455997 
3715.000000	99.446693 
3714.000000	99.437320 
3713.000000	99.429438 
3712.000000	99.424072 
3711.000000	99.420756 
3710.000000	99.417892 
3709.000000	99.413649 
3708.000000	99.407324 
3707.000000	99.399388 
3706.000000	99.390852 
3705.000000	99.382606 
3704.000000	99.374892 
3703.000000	99.366659 
3702.000000	99.355532 
3701.000000	99.339973 
3700.000000	99.321097 
3699.000000	99.301495 
3698.000000	99.283509 
3697.000000	99.268271 
3696.000000	99.255293 
3695.000000	99.243428 
3694.000000	99.232554 
3693.000000	99.223685 
3692.000000	99.217018 
3691.000000	99.211038 
3690.000000	99.203565 
3689.000000	99.194217 
3688.000000	99.184719 
3687.000000	99.175994 
3686.000000	99.167674 
3685.000000	99.160831 
3684.000000	99.158110 
3683.000000	99.160682 
3682.000000	99.165779 
3681.000000	99.167379 
3680.000000	99.159711 
3679.000000	99.140365 
3678.000000	99.112817 
3677.000000	99.088256 
3676.000000	99.079206 
3675.000000	99.086218 
3674.000000	99.097198 
3673.000000	99.101506 
3672.000000	99.098315 
3671.000000	99.094962 
3670.000000	99.097495 
3669.000000	99.104539 
3668.000000	99.111583 
3667.000000	99.116479 
3666.000000	99.119581 
3665.000000	99.121686 
3664.000000	99.122934 
3663.000000	99.123393 
3662.000000	99.123520 
3661.000000	99.123448 
3660.000000	99.122873 
3659.000000	99.122410 
3658.000000	99.124847 
3657.000000	99.133232 
3656.000000	99.146870 
3655.000000	99.160974 
3654.000000	99.170784 
3653.000000	99.175018 
3652.000000	99.175605 
3651.000000	99.175844 
3650.000000	99.178388 
3649.000000	99.184838 
3648.000000	99.195307 
3647.000000	99.207321 
3646.000000	99.217956 
3645.000000	99.226879 
3644.000000	99.236293 
3643.000000	99.248454 
3642.000000	99.263670 
3641.000000	99.279688 
3640.000000	99.293524 
3639.000000	99.303539 
3638.000000	99.309988 
3637.000000	99.314475 
3636.000000	99.318907 
3635.000000	99.324226 
3634.000000	99.329108 
3633.000000	99.330747 
3632.000000	99.328092 
3631.000000	99.324173 
3630.000000	99.324762 
3629.000000	99.331791 
3628.000000	99.340237 
3627.000000	99.345475 
3626.000000	99.348099 
3625.000000	99.351382 
3624.000000	99.357454 
3623.000000	99.365906 
3622.000000	99.375082 
3621.000000	99.383958 
3620.000000	99.391388 
3619.000000	99.395152 
3618.000000	99.394281 
3617.000000	99.391042 
3616.000000	99.389090 
3615.000000	99.390614 
3614.000000	99.394442 
3613.000000	99.397101 
3612.000000	99.396625 
3611.000000	99.394732 
3610.000000	99.394864 
3609.000000	99.398691 
3608.000000	99.404425 
3607.000000	99.409274 
3606.000000	99.412918 
3605.000000	99.417157 
3604.000000	99.423220 
3603.000000	99.430197 
3602.000000	99.435938 
3601.000000	99.439239 
3600.000000	99.440291 
3599.000000	99.439741 
3598.000000	99.438256 
3597.000000	99.436672 
3596.000000	99.436011 
3595.000000	99.437079 
3594.000000	99.439507 
3593.000000	99.441932 
3592.000000	99.443110 
3591.000000	99.442677 
3590.000000	99.441488 
3589.000000	99.441079 
3588.000000	99.442053 
3587.000000	99.443131 
3586.000000	99.443003 
3585.000000	99.442108 
3584.000000	99.442159 
3583.000000	99.444266 
3582.000000	99.448077 
3581.000000	99.452071 
3580.000000	99.454698 
3579.000000	99.455370 
3578.000000	99.454492 
3577.000000	99.453085 
3576.000000	99.452123 
3575.000000	99.452090 
3574.000000	99.452707 
3573.000000	99.453163 
3572.000000	99.452838 
3571.000000	99.451768 
3570.000000	99.450366 
3569.000000	99.449090 
3568.000000	99.448186 
3567.000000	99.447630 
3566.000000	99.447506 
3565.000000	99.448223 
3564.000000	99.450181 
3563.000000	99.453461 
3562.000000	99.457545 
3561.000000	99.461225 
3560.000000	99.463266 
3559.000000	99.463294 
3558.000000	99.462131 
3557.000000	99.461212 
3556.000000	99.461471 
3555.000000	99.462677 
3554.000000	99.463796 
3553.000000	99.463797 
3552.000000	99.462362 
3551.000000	99.459966 
3550.000000	99.457331 
3549.000000	99.454983 
3548.000000	99.453367 
3547.000000	99.452885 
3546.000000	99.453647 
3545.000000	99.455022 
3544.000000	99.455987 
3543.000000	99.456204 
3542.000000	99.456481 
3541.000000	99.457846 
3540.000000	99.460324 
3539.000000	99.462684 
3538.000000	99.463672 
3537.000000	99.463224 
3536.000000	99.462366 
3535.000000	99.462012 
3534.000000	99.462055 
3533.000000	99.461898 
3532.000000	99.461369 
3531.000000	99.460843 
3530.000000	99.460548 
3529.000000	99.460188 
3528.000000	99.459440 
3527.000000	99.458498 
3526.000000	99.457834 
3525.000000	99.457594 
3524.000000	99.457505 
3523.000000	99.457306 
3522.000000	99.457043 
3521.000000	99.456865 
3520.000000	99.456815 
3519.000000	99.456896 
3518.000000	99.457205 
3517.000000	99.457757 
3516.000000	99.458262 
3515.000000	99.458313 
3514.000000	99.457764 
3513.000000	99.456876 
3512.000000	99.456084 
3511.000000	99.455597 
3510.000000	99.455310 
3509.000000	99.455022 
3508.000000	99.454698 
3507.000000	99.454516 
3506.000000	99.454664 
3505.000000	99.455074 
3504.000000	99.455378 
3503.000000	99.455227 
3502.000000	99.454695 
3501.000000	99.454271 
3500.000000	99.454354 
3499.000000	99.454820 
3498.000000	99.455144 
3497.000000	99.454951 
3496.000000	99.454302 
3495.000000	99.453478 
3494.000000	99.452675 
3493.000000	99.451965 
3492.000000	99.451504 
3491.000000	99.451500 
3490.000000	99.451993 
3489.000000	99.452767 
3488.000000	99.453504 
3487.000000	99.453953 
3486.000000	99.453980 
3485.000000	99.453559 
3484.000000	99.452811 
3483.000000	99.451994 
3482.000000	99.451352 
3481.000000	99.450962 
3480.000000	99.450722 
3479.000000	99.450473 
3478.000000	99.450110 
3477.000000	99.449683 
3476.000000	99.449476 
3475.000000	99.449931 
3474.000000	99.451299 
3473.000000	99.453273 
3472.000000	99.455019 
3471.000000	99.455877 
3470.000000	99.455971 
3469.000000	99.455972 
3468.000000	99.456251 
3467.000000	99.456412 
3466.000000	99.455902 
3465.000000	99.454823 
3464.000000	99.453865 
3463.000000	99.453517 
3462.000000	99.453624 
3461.000000	99.453823 
3460.000000	99.454078 
3459.000000	99.454625 
3458.000000	99.455522 
3457.000000	99.456417 
3456.000000	99.456824 
3455.000000	99.456517 
3454.000000	99.455702 
3453.000000	99.454941 
3452.000000	99.454737 
3451.000000	99.455141 
3450.000000	99.455730 
3449.000000	99.455997 
3448.000000	99.455746 
3447.000000	99.455120 
3446.000000	99.454358 
3445.000000	99.453649 
3444.000000	99.453184 
3443.000000	99.453132 
3442.000000	99.453455 
3441.000000	99.453794 
3440.000000	99.453708 
3439.000000	99.453014 
3438.000000	99.451885 
3437.000000	99.450677 
3436.000000	99.449740 
3435.000000	99.449351 
3434.000000	99.449659 
3433.000000	99.450608 
3432.000000	99.451858 
3431.000000	99.452914 
3430.000000	99.453436 
3429.000000	99.453450 
3428.000000	99.453289 
3427.000000	99.453235 
3426.000000	99.453176 
3425.000000	99.452696 
3424.000000	99.451537 
3423.000000	99.449943 
3422.000000	99.448502 
3421.000000	99.447660 
3420.000000	99.447509 
3419.000000	99.447945 
3418.000000	99.448833 
3417.000000	99.449914 
3416.000000	99.450742 
3415.000000	99.450923 
3414.000000	99.450432 
3413.000000	99.449636 
3412.000000	99.449026 
3411.000000	99.448890 
3410.000000	99.449161 
3409.000000	99.449470 
3408.000000	99.449375 
3407.000000	99.448678 
3406.000000	99.447594 
3405.000000	99.446603 
3404.000000	99.446090 
3403.000000	99.446122 
3402.000000	99.446534 
3401.000000	99.447191 
3400.000000	99.448100 
3399.000000	99.449299 
3398.000000	99.450663 
3397.000000	99.451862 
3396.000000	99.452526 
3395.000000	99.452465 
3394.000000	99.451748 
3393.000000	99.450636 
3392.000000	99.449500 
3391.000000	99.448732 
3390.000000	99.448633 
3389.000000	99.449273 
3388.000000	99.450415 
3387.000000	99.451630 
3386.000000	99.452615 
3385.000000	99.453387 
3384.000000	99.454093 
3383.000000	99.454676 
3382.000000	99.454811 
3381.000000	99.454288 
3380.000000	99.453326 
3379.000000	99.452501 
3378.000000	99.452281 
3377.000000	99.452672 
3376.000000	99.453322 
3375.000000	99.453845 
3374.000000	99.454128 
3373.000000	99.454315 
3372.000000	99.454582 
3371.000000	99.454954 
3370.000000	99.455324 
3369.000000	99.455573 
3368.000000	99.455688 
3367.000000	99.455779 
3366.000000	99.455974 
3365.000000	99.456289 
3364.000000	99.456599 
3363.000000	99.456762 
3362.000000	99.456764 
3361.000000	99.456723 
3360.000000	99.456756 
3359.000000	99.456878 
3358.000000	99.457031 
3357.000000	99.457198 
3356.000000	99.457436 
3355.000000	99.457781 
3354.000000	99.458160 
3353.000000	99.458440 
3352.000000	99.458565 
3351.000000	99.458613 
3350.000000	99.458744 
3349.000000	99.459067 
3348.000000	99.459565 
3347.000000	99.460103 
3346.000000	99.460509 
3345.000000	99.460687 
3344.000000	99.460667 
3343.000000	99.460599 
3342.000000	99.460644 
3341.000000	99.460827 
3340.000000	99.460996 
3339.000000	99.460973 
3338.000000	99.460812 
3337.000000	99.460843 
3336.000000	99.461347 
3335.000000	99.462224 
3334.000000	99.463071 
3333.000000	99.463690 
3332.000000	99.464301 
3331.000000	99.465167 
3330.000000	99.466113 
3329.000000	99.466605 
3328.000000	99.466342 
3327.000000	99.465581 
3326.000000	99.464888 
3325.000000	99.464573 
3324.000000	99.464496 
3323.000000	99.464397 
3322.000000	99.464266 
3321.000000	99.464338 
3320.000000	99.464780 
3319.000000	99.465502 
3318.000000	99.466313 
3317.000000	99.467142 
3316.000000	99.467993 
3315.000000	99.468754 
3314.000000	99.469234 
3313.000000	99.469410 
3312.000000	99.469524 
3311.000000	99.469830 
3310.000000	99.470276 
3309.000000	99.470561 
3308.000000	99.470458 
3307.000000	99.470005 
3306.000000	99.469460 
3305.000000	99.469134 
3304.000000	99.469229 
3303.000000	99.469730 
3302.000000	99.470343 
3301.000000	99.470640 
3300.000000	99.470363 
3299.000000	99.469613 
3298.000000	99.468801 
3297.000000	99.468347 
3296.000000	99.468357 
3295.000000	99.468589 
3294.000000	99.468697 
3293.000000	99.468576 
3292.000000	99.468429 
3291.000000	99.468466 
3290.000000	99.468591 
3289.000000	99.468510 
3288.000000	99.468091 
3287.000000	99.467481 
3286.000000	99.466917 
3285.000000	99.466501 
3284.000000	99.466201 
3283.000000	99.465981 
3282.000000	99.465857 
3281.000000	99.465842 
3280.000000	99.465912 
3279.000000	99.466006 
3278.000000	99.466045 
3277.000000	99.465945 
3276.000000	99.465659 
3275.000000	99.465204 
3274.000000	99.464662 
3273.000000	99.464161 
3272.000000	99.463819 
3271.000000	99.463679 
3270.000000	99.463675 
3269.000000	99.463678 
3268.000000	99.463604 
3267.000000	99.463477 
3266.000000	99.463349 
3265.000000	99.463209 
3264.000000	99.463013 
3263.000000	99.462807 
3262.000000	99.462751 
3261.000000	99.462941 
3260.000000	99.463265 
3259.000000	99.463466 
3258.000000	99.463365 
3257.000000	99.462999 
3256.000000	99.462543 
3255.000000	99.462123 
3254.000000	99.461756 
3253.000000	99.461481 
3252.000000	99.461463 
3251.000000	99.461887 
3250.000000	99.462684 
3249.000000	99.463445 
3248.000000	99.463711 
3247.000000	99.463344 
3246.000000	99.462606 
3245.000000	99.461950 
3244.000000	99.461691 
3243.000000	99.461844 
3242.000000	99.462154 
3241.000000	99.462279 
3240.000000	99.462085 
3239.000000	99.461869 
3238.000000	99.462205 
3237.000000	99.463458 
3236.000000	99.465396 
3235.000000	99.467237 
3234.000000	99.468201 
3233.000000	99.468057 
3232.000000	99.467217 
3231.000000	99.466400 
3230.000000	99.466114 
3229.000000	99.466344 
3228.000000	99.466604 
3227.000000	99.466277 
3226.000000	99.465054 
3225.000000	99.463218 
3224.000000	99.461529 
3223.000000	99.460656 
3222.000000	99.460653 
3221.000000	99.460982 
3220.000000	99.461060 
3219.000000	99.460796 
3218.000000	99.460586 
3217.000000	99.460901 
3216.000000	99.461951 
3215.000000	99.463601 
3214.000000	99.465434 
3213.000000	99.466909 
3212.000000	99.467601 
3211.000000	99.467368 
3210.000000	99.466337 
3209.000000	99.464845 
3208.000000	99.463429 
3207.000000	99.462677 
3206.000000	99.462883 
3205.000000	99.463814 
3204.000000	99.464948 
3203.000000	99.465992 
3202.000000	99.466979 
3201.000000	99.467895 
3200.000000	99.468481 
3199.000000	99.468530 
3198.000000	99.468182 
3197.000000	99.467804 
3196.000000	99.467705 
3195.000000	99.468047 
3194.000000	99.468814 
3193.000000	99.469633 
3192.000000	99.469837 
3191.000000	99.469002 
3190.000000	99.467431 
3189.000000	99.465933 
3188.000000	99.465087 
3187.000000	99.464951 
3186.000000	99.465415 
3185.000000	99.466482 
3184.000000	99.468056 
3183.000000	99.469717 
3182.000000	99.471012 
3181.000000	99.471864 
3180.000000	99.472566 
3179.000000	99.473445 
3178.000000	99.474520 
3177.000000	99.475405 
3176.000000	99.475649 
3175.000000	99.475353 
3174.000000	99.475314 
3173.000000	99.476152 
3172.000000	99.477285 
3171.000000	99.477369 
3170.000000	99.475890 
3169.000000	99.473817 
3168.000000	99.472366 
3167.000000	99.471586 
3166.000000	99.470779 
3165.000000	99.469842 
3164.000000	99.469462 
3163.000000	99.470052 
3162.000000	99.471172 
3161.000000	99.472150 
3160.000000	99.472841 
3159.000000	99.473506 
3158.000000	99.474178 
3157.000000	99.474367 
3156.000000	99.473405 
3155.000000	99.471038 
3154.000000	99.467779 
3153.000000	99.464662 
3152.000000	99.462516 
3151.000000	99.461505 
3150.000000	99.461417 
3149.000000	99.462127 
3148.000000	99.463567 
3147.000000	99.465403 
3146.000000	99.467148 
3145.000000	99.468577 
3144.000000	99.469797 
3143.000000	99.470855 
3142.000000	99.471556 
3141.000000	99.471731 
3140.000000	99.471515 
3139.000000	99.471225 
3138.000000	99.471095 
3137.000000	99.471207 
3136.000000	99.471584 
3135.000000	99.472247 
3134.000000	99.473145 
3133.000000	99.474028 
3132.000000	99.474429 
3131.000000	99.473959 
3130.000000	99.472721 
3129.000000	99.471404 
3128.000000	99.470797 
3127.000000	99.471171 
3126.000000	99.472198 
3125.000000	99.473305 
3124.000000	99.474012 
3123.000000	99.474043 
3122.000000	99.473378 
3121.000000	99.472320 
3120.000000	99.471395 
3119.000000	99.470976 
3118.000000	99.471080 
3117.000000	99.471524 
3116.000000	99.472158 
3115.000000	99.472886 
3114.000000	99.473570 
3113.000000	99.474022 
3112.000000	99.474154 
3111.000000	99.474082 
3110.000000	99.474032 
3109.000000	99.474121 
3108.000000	99.474255 
3107.000000	99.474251 
3106.000000	99.474056 
3105.000000	99.473815 
3104.000000	99.473753 
3103.000000	99.474000 
3102.000000	99.474522 
3101.000000	99.475163 
3100.000000	99.475735 
3099.000000	99.476144 
3098.000000	99.476516 
3097.000000	99.477155 
3096.000000	99.478206 
3095.000000	99.479283 
3094.000000	99.479596 
3093.000000	99.478668 
3092.000000	99.476880 
3091.000000	99.475302 
3090.000000	99.474995 
3089.000000	99.476340 
3088.000000	99.478593 
3087.000000	99.480128 
3086.000000	99.479754 
3085.000000	99.477963 
3084.000000	99.476322 
3083.000000	99.475369 
3082.000000	99.473912 
3081.000000	99.470921 
3080.000000	99.467426 
3079.000000	99.465749 
3078.000000	99.467284 
3077.000000	99.471672 
3076.000000	99.477488 
3075.000000	99.482767 
3074.000000	99.485331 
3073.000000	99.484058 
3072.000000	99.480097 
3071.000000	99.475870 
3070.000000	99.472548 
3069.000000	99.469297 
3068.000000	99.465338 
3067.000000	99.461829 
3066.000000	99.461063 
3065.000000	99.464151 
3064.000000	99.469794 
3063.000000	99.474862 
3062.000000	99.476030 
3061.000000	99.471724 
3060.000000	99.463481 
3059.000000	99.455352 
3058.000000	99.451297 
3057.000000	99.452663 
3056.000000	99.457695 
3055.000000	99.462973 
3054.000000	99.465378 
3053.000000	99.463544 
3052.000000	99.458203 
3051.000000	99.451274 
3050.000000	99.444518 
3049.000000	99.438957 
3048.000000	99.434982 
3047.000000	99.432096 
3046.000000	99.428603 
3045.000000	99.422619 
3044.000000	99.414018 
3043.000000	99.404743 
3042.000000	99.396715 
3041.000000	99.389866 
3040.000000	99.382721 
3039.000000	99.374224 
3038.000000	99.364230 
3037.000000	99.352598 
3036.000000	99.338678 
3035.000000	99.321981 
3034.000000	99.302894 
3033.000000	99.282305 
3032.000000	99.260919 
3031.000000	99.239215 
3030.000000	99.217453 
3029.000000	99.195664 
3028.000000	99.174070 
3027.000000	99.153249 
3026.000000	99.133380 
3025.000000	99.113389 
3024.000000	99.091370 
3023.000000	99.066094 
3022.000000	99.037933 
3021.000000	99.008049 
3020.000000	98.976776 
3019.000000	98.943247 
3018.000000	98.907041 
3017.000000	98.869802 
3016.000000	98.834261 
3015.000000	98.801227 
3014.000000	98.768571 
3013.000000	98.734092 
3012.000000	98.698640 
3011.000000	98.664923 
3010.000000	98.633458 
3009.000000	98.601453 
3008.000000	98.566116 
3007.000000	98.527639 
3006.000000	98.488183 
3005.000000	98.449211 
3004.000000	98.410912 
3003.000000	98.373259 
3002.000000	98.336286 
3001.000000	98.299818 
3000.000000	98.264103 
2999.000000	98.230535 
2998.000000	98.200960 
2997.000000	98.176404 
2996.000000	98.156470 
2995.000000	98.138150 
2994.000000	98.113934 
2993.000000	98.073520 
2992.000000	98.011975 
2991.000000	97.937838 
2990.000000	97.870683 
2989.000000	97.828074 
2988.000000	97.814865 
2987.000000	97.824050 
2986.000000	97.844673 
2985.000000	97.867781 
2984.000000	97.887097 
2983.000000	97.898502 
2982.000000	97.901015 
2981.000000	97.897317 
2980.000000	97.891863 
2979.000000	97.887998 
2978.000000	97.886343 
2977.000000	97.884969 
2976.000000	97.880900 
2975.000000	97.872446 
2974.000000	97.861115 
2973.000000	97.851435 
2972.000000	97.848421 
2971.000000	97.854643 
2970.000000	97.869151 
2969.000000	97.888806 
2968.000000	97.910775 
2967.000000	97.934145 
2966.000000	97.959385 
2965.000000	97.986419 
2964.000000	98.013534 
2963.000000	98.038277 
2962.000000	98.059242 
2961.000000	98.076871 
2960.000000	98.092790 
2959.000000	98.108710 
2958.000000	98.125769 
2957.000000	98.144339 
2956.000000	98.164105 
2955.000000	98.184391 
2954.000000	98.204724 
2953.000000	98.225251 
2952.000000	98.246547 
2951.000000	98.268664 
2950.000000	98.290088 
2949.000000	98.307854 
2948.000000	98.319236 
2947.000000	98.323745 
2946.000000	98.324054 
2945.000000	98.324971 
2944.000000	98.330452 
2943.000000	98.340768 
2942.000000	98.352190 
2941.000000	98.359729 
2940.000000	98.360956 
2939.000000	98.357937 
2938.000000	98.355331 
2937.000000	98.356532 
2936.000000	98.361598 
2935.000000	98.368076 
2934.000000	98.372918 
2933.000000	98.373798 
2932.000000	98.369838 
2931.000000	98.361813 
2930.000000	98.351581 
2929.000000	98.341039 
2928.000000	98.331353 
2927.000000	98.322602 
2926.000000	98.313763 
2925.000000	98.303517 
2924.000000	98.291836 
2923.000000	98.280536 
2922.000000	98.271543 
2921.000000	98.264786 
2920.000000	98.258736 
2919.000000	98.252748 
2918.000000	98.247637 
2917.000000	98.243558 
2916.000000	98.238541 
2915.000000	98.230059 
2914.000000	98.217836 
2913.000000	98.204619 
2912.000000	98.194421 
2911.000000	98.189813 
2910.000000	98.190100 
2909.000000	98.191725 
2908.000000	98.191019 
2907.000000	98.186697 
2906.000000	98.178860 
2905.000000	98.166016 
2904.000000	98.145636 
2903.000000	98.119807 
2902.000000	98.098950 
2901.000000	98.096677 
2900.000000	98.118729 
2899.000000	98.157999 
2898.000000	98.199140 
2897.000000	98.229168 
2896.000000	98.244632 
2895.000000	98.250540 
2894.000000	98.254623 
2893.000000	98.262101 
2892.000000	98.273997 
2891.000000	98.288323 
2890.000000	98.302128 
2889.000000	98.312918 
2888.000000	98.319608 
2887.000000	98.323322 
2886.000000	98.327266 
2885.000000	98.335027 
2884.000000	98.348629 
2883.000000	98.368153 
2882.000000	98.392641 
2881.000000	98.420511 
2880.000000	98.449228 
2879.000000	98.475853 
2878.000000	98.498746 
2877.000000	98.518528 
2876.000000	98.537001 
2875.000000	98.555381 
2874.000000	98.573687 
2873.000000	98.591199 
2872.000000	98.606944 
2871.000000	98.620227 
2870.000000	98.631576 
2869.000000	98.643347 
2868.000000	98.658685 
2867.000000	98.679322 
2866.000000	98.704297 
2865.000000	98.730930 
2864.000000	98.756942 
2863.000000	98.781576 
2862.000000	98.804944 
2861.000000	98.826944 
2860.000000	98.847365 
2859.000000	98.866851 
2858.000000	98.886855 
2857.000000	98.908073 
2856.000000	98.929127 
2855.000000	98.947524 
2854.000000	98.962238 
2853.000000	98.975069 
2852.000000	98.989057 
2851.000000	99.005875 
2850.000000	99.025074 
2849.000000	99.045080 
2848.000000	99.064305 
2847.000000	99.081694 
2846.000000	99.097102 
2845.000000	99.111415 
2844.000000	99.125807 
2843.000000	99.140469 
2842.000000	99.154292 
2841.000000	99.166151 
2840.000000	99.176398 
2839.000000	99.186803 
2838.000000	99.198880 
2837.000000	99.212309 
2836.000000	99.225087 
2835.000000	99.235204 
2834.000000	99.242171 
2833.000000	99.247111 
2832.000000	99.251633 
2831.000000	99.256684 
2830.000000	99.262143 
2829.000000	99.267176 
2828.000000	99.270933 
2827.000000	99.273288 
2826.000000	99.275168 
2825.000000	99.277956 
2824.000000	99.282288 
2823.000000	99.287393 
2822.000000	99.291872 
2821.000000	99.295153 
2820.000000	99.298076 
2819.000000	99.302024 
2818.000000	99.307556 
2817.000000	99.313896 
2816.000000	99.319560 
2815.000000	99.323358 
2814.000000	99.324941 
2813.000000	99.324739 
2812.000000	99.323712 
2811.000000	99.323217 
2810.000000	99.324718 
2809.000000	99.329015 
2808.000000	99.335336 
2807.000000	99.341326 
2806.000000	99.344467 
2805.000000	99.343945 
2804.000000	99.341313 
2803.000000	99.339272 
2802.000000	99.339576 
2801.000000	99.341962 
2800.000000	99.344922 
2799.000000	99.347342 
2798.000000	99.349245 
2797.000000	99.351043 
2796.000000	99.352512 
2795.000000	99.352973 
2794.000000	99.352433 
2793.000000	99.352031 
2792.000000	99.352973 
2791.000000	99.355252 
2790.000000	99.357786 
2789.000000	99.359743 
2788.000000	99.361319 
2787.000000	99.363173 
2786.000000	99.365432 
2785.000000	99.367468 
2784.000000	99.368530 
2783.000000	99.368456 
2782.000000	99.367875 
2781.000000	99.367804 
2780.000000	99.368909 
2779.000000	99.371057 
2778.000000	99.373560 
2777.000000	99.375821 
2776.000000	99.377708 
2775.000000	99.379324 
2774.000000	99.380652 
2773.000000	99.381610 
2772.000000	99.382330 
2771.000000	99.383165 
2770.000000	99.384339 
2769.000000	99.385679 
2768.000000	99.386785 
2767.000000	99.387468 
2766.000000	99.387936 
2765.000000	99.388537 
2764.000000	99.389399 
2763.000000	99.390391 
2762.000000	99.391340 
2761.000000	99.392197 
2760.000000	99.393029 
2759.000000	99.393927 
2758.000000	99.394926 
2757.000000	99.396006 
2756.000000	99.397120 
2755.000000	99.398203 
2754.000000	99.399185 
2753.000000	99.400043 
2752.000000	99.400831 
2751.000000	99.401658 
2750.000000	99.402598 
2749.000000	99.403634 
2748.000000	99.404679 
2747.000000	99.405654 
2746.000000	99.406550 
2745.000000	99.407408 
2744.000000	99.408268 
2743.000000	99.409137 
2742.000000	99.410016 
2741.000000	99.410922 
2740.000000	99.411873 
2739.000000	99.412856 
2738.000000	99.413836 
2737.000000	99.414797 
2736.000000	99.415741 
2735.000000	99.416674 
2734.000000	99.417587 
2733.000000	99.418469 
2732.000000	99.419327 
2731.000000	99.420184 
2730.000000	99.421056 
2729.000000	99.421947 
2728.000000	99.422853 
2727.000000	99.423767 
2726.000000	99.424682 
2725.000000	99.425596 
2724.000000	99.426511 
2723.000000	99.427429 
2722.000000	99.428349 
2721.000000	99.429267 
2720.000000	99.430175 
2719.000000	99.431063 
2718.000000	99.431930 
2717.000000	99.432780 
2716.000000	99.433621 
2715.000000	99.434456 
2714.000000	99.435286 
2713.000000	99.436110 
2712.000000	99.436928 
2711.000000	99.437745 
2710.000000	99.438556 
2709.000000	99.439355 
2708.000000	99.440132 
2707.000000	99.440883 
2706.000000	99.441612 
2705.000000	99.442329 
2704.000000	99.443041 
2703.000000	99.443750 
2702.000000	99.444454 
2701.000000	99.445145 
2700.000000	99.445821 
2699.000000	99.446478 
2698.000000	99.447117 
2697.000000	99.447739 
2696.000000	99.448343 
2695.000000	99.448928 
2694.000000	99.449491 
2693.000000	99.450036 
2692.000000	99.450566 
2691.000000	99.451089 
2690.000000	99.451609 
2689.000000	99.452122 
2688.000000	99.452623 
2687.000000	99.453106 
2686.000000	99.453575 
2685.000000	99.454033 
2684.000000	99.454485 
2683.000000	99.454927 
2682.000000	99.455356 
2681.000000	99.455764 
2680.000000	99.456155 
2679.000000	99.456534 
2678.000000	99.456910 
2677.000000	99.457288 
2676.000000	99.457665 
2675.000000	99.458035 
2674.000000	99.458394 
2673.000000	99.458739 
2672.000000	99.459071 
2671.000000	99.459395 
2670.000000	99.459713 
2669.000000	99.460026 
2668.000000	99.460334 
2667.000000	99.460640 
2666.000000	99.460951 
2665.000000	99.461272 
2664.000000	99.461599 
2663.000000	99.461922 
2662.000000	99.462236 
2661.000000	99.462541 
2660.000000	99.462842 
2659.000000	99.463145 
2658.000000	99.463452 
2657.000000	99.463761 
2656.000000	99.464070 
2655.000000	99.464379 
2654.000000	99.464688 
2653.000000	99.465001 
2652.000000	99.465320 
2651.000000	99.465646 
2650.000000	99.465978 
2649.000000	99.466309 
2648.000000	99.466635 
2647.000000	99.466954 
2646.000000	99.467275 
2645.000000	99.467609 
2644.000000	99.467959 
2643.000000	99.468318 
2642.000000	99.468676 
2641.000000	99.469027 
2640.000000	99.469378 
2639.000000	99.469740 
2638.000000	99.470118 
2637.000000	99.470504 
2636.000000	99.470888 
2635.000000	99.471262 
2634.000000	99.471626 
2633.000000	99.471988 
2632.000000	99.472357 
2631.000000	99.472737 
2630.000000	99.473122 
2629.000000	99.473504 
2628.000000	99.473878 
2627.000000	99.474241 
2626.000000	99.474598 
2625.000000	99.474953 
2624.000000	99.475305 
2623.000000	99.475652 
2622.000000	99.475994 
2621.000000	99.476335 
2620.000000	99.476681 
2619.000000	99.477031 
2618.000000	99.477379 
2617.000000	99.477716 
2616.000000	99.478039 
2615.000000	99.478350 
2614.000000	99.478655 
2613.000000	99.478956 
2612.000000	99.479254 
2611.000000	99.479544 
2610.000000	99.479822 
2609.000000	99.480084 
2608.000000	99.480330 
2607.000000	99.480566 
2606.000000	99.480797 
2605.000000	99.481022 
2604.000000	99.481237 
2603.000000	99.481431 
2602.000000	99.481599 
2601.000000	99.481740 
2600.000000	99.481861 
2599.000000	99.481968 
2598.000000	99.482057 
2597.000000	99.482119 
2596.000000	99.482147 
2595.000000	99.482149 
2594.000000	99.482142 
2593.000000	99.482144 
2592.000000	99.482159 
2591.000000	99.482182 
2590.000000	99.482200 
2589.000000	99.482207 
2588.000000	99.482200 
2587.000000	99.482183 
2586.000000	99.482159 
2585.000000	99.482129 
2584.000000	99.482093 
2583.000000	99.482050 
2582.000000	99.481997 
2581.000000	99.481935 
2580.000000	99.481860 
2579.000000	99.481772 
2578.000000	99.481669 
2577.000000	99.481550 
2576.000000	99.481419 
2575.000000	99.481286 
2574.000000	99.481158 
2573.000000	99.481039 
2572.000000	99.480922 
2571.000000	99.480799 
2570.000000	99.480662 
2569.000000	99.480509 
2568.000000	99.480342 
2567.000000	99.480166 
2566.000000	99.479983 
2565.000000	99.479793 
2564.000000	99.479598 
2563.000000	99.479399 
2562.000000	99.479202 
2561.000000	99.479011 
2560.000000	99.478823 
2559.000000	99.478637 
2558.000000	99.478446 
2557.000000	99.478252 
2556.000000	99.478058 
2555.000000	99.477871 
2554.000000	99.477698 
2553.000000	99.477537 
2552.000000	99.477376 
2551.000000	99.477202 
2550.000000	99.477007 
2549.000000	99.476796 
2548.000000	99.476576 
2547.000000	99.476357 
2546.000000	99.476146 
2545.000000	99.475946 
2544.000000	99.475756 
2543.000000	99.475563 
2542.000000	99.475348 
2541.000000	99.475104 
2540.000000	99.474846 
2539.000000	99.474608 
2538.000000	99.474414 
2537.000000	99.474243 
2536.000000	99.474051 
2535.000000	99.473831 
2534.000000	99.473632 
2533.000000	99.473493 
2532.000000	99.473375 
2531.000000	99.473178 
2530.000000	99.472866 
2529.000000	99.472523 
2528.000000	99.472258 
2527.000000	99.472064 
2526.000000	99.471840 
2525.000000	99.471556 
2524.000000	99.471345 
2523.000000	99.471350 
2522.000000	99.471562 
2521.000000	99.471830 
2520.000000	99.472001 
2519.000000	99.472021 
2518.000000	99.471900 
2517.000000	99.471653 
2516.000000	99.471323 
2515.000000	99.471014 
2514.000000	99.470857 
2513.000000	99.470912 
2512.000000	99.471144 
2511.000000	99.471475 
2510.000000	99.471838 
2509.000000	99.472181 
2508.000000	99.472491 
2507.000000	99.472806 
2506.000000	99.473144 
2505.000000	99.473404 
2504.000000	99.473435 
2503.000000	99.473218 
2502.000000	99.472932 
2501.000000	99.472823 
2500.000000	99.472986 
2499.000000	99.473361 
2498.000000	99.473812 
2497.000000	99.474203 
2496.000000	99.474443 
2495.000000	99.474512 
2494.000000	99.474481 
2493.000000	99.474493 
2492.000000	99.474635 
2491.000000	99.474887 
2490.000000	99.475176 
2489.000000	99.475481 
2488.000000	99.475835 
2487.000000	99.476230 
2486.000000	99.476575 
2485.000000	99.476753 
2484.000000	99.476742 
2483.000000	99.476636 
2482.000000	99.476560 
2481.000000	99.476567 
2480.000000	99.476630 
2479.000000	99.476706 
2478.000000	99.476768 
2477.000000	99.476805 
2476.000000	99.476818 
2475.000000	99.476834 
2474.000000	99.476888 
2473.000000	99.476976 
2472.000000	99.477043 
2471.000000	99.477031 
2470.000000	99.476939 
2469.000000	99.476807 
2468.000000	99.476672 
2467.000000	99.476532 
2466.000000	99.476373 
2465.000000	99.476194 
2464.000000	99.476006 
2463.000000	99.475823 
2462.000000	99.475656 
2461.000000	99.475509 
2460.000000	99.475376 
2459.000000	99.475244 
2458.000000	99.475095 
2457.000000	99.474926 
2456.000000	99.474743 
2455.000000	99.474555 
2454.000000	99.474368 
2453.000000	99.474183 
2452.000000	99.473998 
2451.000000	99.473808 
2450.000000	99.473611 
2449.000000	99.473405 
2448.000000	99.473193 
2447.000000	99.472982 
2446.000000	99.472776 
2445.000000	99.472577 
2444.000000	99.472387 
2443.000000	99.472205 
2442.000000	99.472032 
2441.000000	99.471865 
2440.000000	99.471708 
2439.000000	99.471560 
2438.000000	99.471422 
2437.000000	99.471287 
2436.000000	99.471148 
2435.000000	99.470998 
2434.000000	99.470836 
2433.000000	99.470663 
2432.000000	99.470481 
2431.000000	99.470290 
2430.000000	99.470088 
2429.000000	99.469873 
2428.000000	99.469645 
2427.000000	99.469411 
2426.000000	99.469176 
2425.000000	99.468948 
2424.000000	99.468729 
2423.000000	99.468523 
2422.000000	99.468327 
2421.000000	99.468134 
2420.000000	99.467933 
2419.000000	99.467713 
2418.000000	99.467472 
2417.000000	99.467216 
2416.000000	99.466955 
2415.000000	99.466698 
2414.000000	99.466445 
2413.000000	99.466195 
2412.000000	99.465945 
2411.000000	99.465695 
2410.000000	99.465446 
2409.000000	99.465200 
2408.000000	99.464955 
2407.000000	99.464712 
2406.000000	99.464469 
2405.000000	99.464228 
2404.000000	99.463989 
2403.000000	99.463750 
2402.000000	99.463505 
2401.000000	99.463245 
2400.000000	99.462961 
2399.000000	99.462651 
2398.000000	99.462320 
2397.000000	99.461972 
2396.000000	99.461622 
2395.000000	99.461292 
2394.000000	99.460984 
2393.000000	99.460673 
2392.000000	99.460347 
2391.000000	99.460013 
2390.000000	99.459683 
2389.000000	99.459361 
2388.000000	99.459050 
2387.000000	99.458755 
2386.000000	99.458483 
2385.000000	99.458232 
2384.000000	99.457987 
2383.000000	99.457741 
2382.000000	99.457498 
2381.000000	99.457265 
2380.000000	99.457035 
2379.000000	99.456803 
2378.000000	99.456576 
2377.000000	99.456361 
2376.000000	99.456150 
2375.000000	99.455924 
2374.000000	99.455682 
2373.000000	99.455435 
2372.000000	99.455198 
2371.000000	99.454970 
2370.000000	99.454746 
2369.000000	99.454524 
2368.000000	99.454309 
2367.000000	99.454108 
2366.000000	99.453920 
2365.000000	99.453744 
2364.000000	99.453575 
2363.000000	99.453408 
2362.000000	99.453237 
2361.000000	99.453060 
2360.000000	99.452878 
2359.000000	99.452702 
2358.000000	99.452547 
2357.000000	99.452429 
2356.000000	99.452354 
2355.000000	99.452319 
2354.000000	99.452308 
2353.000000	99.452305 
2352.000000	99.452297 
2351.000000	99.452287 
2350.000000	99.452288 
2349.000000	99.452317 
2348.000000	99.452387 
2347.000000	99.452499 
2346.000000	99.452650 
2345.000000	99.452829 
2344.000000	99.453027 
2343.000000	99.453241 
2342.000000	99.453471 
2341.000000	99.453717 
2340.000000	99.453983 
2339.000000	99.454275 
2338.000000	99.454596 
2337.000000	99.454942 
2336.000000	99.455305 
2335.000000	99.455683 
2334.000000	99.456087 
2333.000000	99.456535 
2332.000000	99.457030 
2331.000000	99.457566 
2330.000000	99.458134 
2329.000000	99.458728 
2328.000000	99.459350 
2327.000000	99.460002 
2326.000000	99.460686 
2325.000000	99.461395 
2324.000000	99.462110 
2323.000000	99.462815 
2322.000000	99.463529 
2321.000000	99.464288 
2320.000000	99.465057 
2319.000000	99.465731 
2318.000000	99.466286 
2317.000000	99.466896 
2316.000000	99.467711 
2315.000000	99.468692 
2314.000000	99.469665 
2313.000000	99.470613 
2312.000000	99.471645 
2311.000000	99.472818 
2310.000000	99.473987 
2309.000000	99.474950 
2308.000000	99.475650 
2307.000000	99.476287 
2306.000000	99.477117 
2305.000000	99.478244 
2304.000000	99.479523 
2303.000000	99.480755 
2302.000000	99.481781 
2301.000000	99.482572 
2300.000000	99.483258 
2299.000000	99.484202 
2298.000000	99.485633 
2297.000000	99.487263 
2296.000000	99.488272 
2295.000000	99.488187 
2294.000000	99.487430 
2293.000000	99.487096 
2292.000000	99.487857 
2291.000000	99.489492 
2290.000000	99.491191 
2289.000000	99.492339 
2288.000000	99.492972 
2287.000000	99.493549 
2286.000000	99.494323 
2285.000000	99.494912 
2284.000000	99.494851 
2283.000000	99.494407 
2282.000000	99.494461 
2281.000000	99.495319 
2280.000000	99.496211 
2279.000000	99.496229 
2278.000000	99.495410 
2277.000000	99.494490 
2276.000000	99.493883 
2275.000000	99.493477 
2274.000000	99.493171 
2273.000000	99.492974 
2272.000000	99.492701 
2271.000000	99.492275 
2270.000000	99.492221 
2269.000000	99.493220 
2268.000000	99.495111 
2267.000000	99.496886 
2266.000000	99.497750 
2265.000000	99.497719 
2264.000000	99.497075 
2263.000000	99.495850 
2262.000000	99.494165 
2261.000000	99.492469 
2260.000000	99.491230 
2259.000000	99.490613 
2258.000000	99.490603 
2257.000000	99.491422 
2256.000000	99.493127 
2255.000000	99.495155 
2254.000000	99.496673 
2253.000000	99.497252 
2252.000000	99.497178 
2251.000000	99.497107 
2250.000000	99.497382 
2249.000000	99.497815 
2248.000000	99.498072 
2247.000000	99.498141 
2246.000000	99.498180 
2245.000000	99.498248 
2244.000000	99.498338 
2243.000000	99.498501 
2242.000000	99.498787 
2241.000000	99.499126 
2240.000000	99.499422 
2239.000000	99.499663 
2238.000000	99.499876 
2237.000000	99.500049 
2236.000000	99.500169 
2235.000000	99.500273 
2234.000000	99.500397 
2233.000000	99.500533 
2232.000000	99.500674 
2231.000000	99.500816 
2230.000000	99.500955 
2229.000000	99.501091 
2228.000000	99.501224 
2227.000000	99.501349 
2226.000000	99.501459 
2225.000000	99.501552 
2224.000000	99.501635 
2223.000000	99.501715 
2222.000000	99.501791 
2221.000000	99.501854 
2220.000000	99.501897 
2219.000000	99.501922 
2218.000000	99.501945 
2217.000000	99.501980 
2216.000000	99.502022 
2215.000000	99.502043 
2214.000000	99.502015 
2213.000000	99.501935 
2212.000000	99.501827 
2211.000000	99.501724 
2210.000000	99.501651 
2209.000000	99.501618 
2208.000000	99.501650 
2207.000000	99.501790 
2206.000000	99.501977 
2205.000000	99.501986 
2204.000000	99.501671 
2203.000000	99.501330 
2202.000000	99.501550 
2201.000000	99.502524 
2200.000000	99.503592 
2199.000000	99.503854 
2198.000000	99.503150 
2197.000000	99.502217 
2196.000000	99.501887 
2195.000000	99.502367 
2194.000000	99.503438 
2193.000000	99.504927 
2192.000000	99.506523 
2191.000000	99.507478 
2190.000000	99.507356 
2189.000000	99.506981 
2188.000000	99.507509 
2187.000000	99.508173 
2186.000000	99.506194 
2185.000000	99.499864 
2184.000000	99.491182 
2183.000000	99.484406 
2182.000000	99.481984 
2181.000000	99.483021 
2180.000000	99.485258 
2179.000000	99.487533 
2178.000000	99.489946 
2177.000000	99.492635 
2176.000000	99.495122 
2175.000000	99.496408 
2174.000000	99.495584 
2173.000000	99.493234 
2172.000000	99.492441 
2171.000000	99.496935 
2170.000000	99.507173 
2169.000000	99.518829 
2168.000000	99.526395 
2167.000000	99.527999 
2166.000000	99.525648 
2165.000000	99.522175 
2164.000000	99.519617 
2163.000000	99.519690 
2162.000000	99.522685 
2161.000000	99.524925 
2160.000000	99.520414 
2159.000000	99.507264 
2158.000000	99.490861 
2157.000000	99.478335 
2156.000000	99.471349 
2155.000000	99.467304 
2154.000000	99.464988 
2153.000000	99.465833 
2152.000000	99.470446 
2151.000000	99.476754 
2150.000000	99.482162 
2149.000000	99.486119 
2148.000000	99.489756 
2147.000000	99.493767 
2146.000000	99.497292 
2145.000000	99.498653 
2144.000000	99.496860 
2143.000000	99.492405 
2142.000000	99.486724 
2141.000000	99.480900 
2140.000000	99.475218 
2139.000000	99.470278 
2138.000000	99.467840 
2137.000000	99.469626 
2136.000000	99.475068 
2135.000000	99.480933 
2134.000000	99.483998 
2133.000000	99.484031 
2132.000000	99.483468 
2131.000000	99.484237 
2130.000000	99.485486 
2129.000000	99.484849 
2128.000000	99.481562 
2127.000000	99.477549 
2126.000000	99.475380 
2125.000000	99.475824 
2124.000000	99.477833 
2123.000000	99.480211 
2122.000000	99.482374 
2121.000000	99.483983 
2120.000000	99.484819 
2119.000000	99.485180 
2118.000000	99.485789 
2117.000000	99.487035 
2116.000000	99.488526 
2115.000000	99.489580 
2114.000000	99.489937 
2113.000000	99.489899 
2112.000000	99.489894 
2111.000000	99.490106 
2110.000000	99.490544 
2109.000000	99.491151 
2108.000000	99.491796 
2107.000000	99.492280 
2106.000000	99.492503 
2105.000000	99.492580 
2104.000000	99.492759 
2103.000000	99.493194 
2102.000000	99.493809 
2101.000000	99.494422 
2100.000000	99.494933 
2099.000000	99.495398 
2098.000000	99.495930 
2097.000000	99.496576 
2096.000000	99.497282 
2095.000000	99.497981 
2094.000000	99.498647 
2093.000000	99.499296 
2092.000000	99.499959 
2091.000000	99.500652 
2090.000000	99.501375 
2089.000000	99.502112 
2088.000000	99.502843 
2087.000000	99.503561 
2086.000000	99.504285 
2085.000000	99.505042 
2084.000000	99.505853 
2083.000000	99.506716 
2082.000000	99.507609 
2081.000000	99.508498 
2080.000000	99.509359 
2079.000000	99.510189 
2078.000000	99.510995 
2077.000000	99.511773 
2076.000000	99.512498 
2075.000000	99.513136 
2074.000000	99.513666 
2073.000000	99.514106 
2072.000000	99.514499 
2071.000000	99.514894 
2070.000000	99.515319 
2069.000000	99.515767 
2068.000000	99.516215 
2067.000000	99.516646 
2066.000000	99.517063 
2065.000000	99.517486 
2064.000000	99.517931 
2063.000000	99.518400 
2062.000000	99.518874 
2061.000000	99.519326 
2060.000000	99.519740 
2059.000000	99.520126 
2058.000000	99.520507 
2057.000000	99.520891 
2056.000000	99.521262 
2055.000000	99.521590 
2054.000000	99.521864 
2053.000000	99.522100 
2052.000000	99.522321 
2051.000000	99.522536 
2050.000000	99.522727 
2049.000000	99.522873 
2048.000000	99.522961 
2047.000000	99.523006 
2046.000000	99.523039 
2045.000000	99.523076 
2044.000000	99.523110 
2043.000000	99.523105 
2042.000000	99.523023 
2041.000000	99.522843 
2040.000000	99.522569 
2039.000000	99.522222 
2038.000000	99.521820 
2037.000000	99.521376 
2036.000000	99.520891 
2035.000000	99.520372 
2034.000000	99.519842 
2033.000000	99.519338 
2032.000000	99.518902 
2031.000000	99.518551 
2030.000000	99.518259 
2029.000000	99.517971 
2028.000000	99.517635 
2027.000000	99.517237 
2026.000000	99.516805 
2025.000000	99.516384 
2024.000000	99.516000 
2023.000000	99.515652 
2022.000000	99.515323 
2021.000000	99.515001 
2020.000000	99.514678 
2019.000000	99.514358 
2018.000000	99.514067 
2017.000000	99.513825 
2016.000000	99.513588 
2015.000000	99.513278 
2014.000000	99.512895 
2013.000000	99.512532 
2012.000000	99.512265 
2011.000000	99.512077 
2010.000000	99.511894 
2009.000000	99.511655 
2008.000000	99.511338 
2007.000000	99.510974 
2006.000000	99.510656 
2005.000000	99.510473 
2004.000000	99.510399 
2003.000000	99.510278 
2002.000000	99.509952 
2001.000000	99.509386 
2000.000000	99.508662 
1999.000000	99.507942 
1998.000000	99.507417 
1997.000000	99.507195 
1996.000000	99.507229 
1995.000000	99.507340 
1994.000000	99.507399 
1993.000000	99.507426 
1992.000000	99.507514 
1991.000000	99.507670 
1990.000000	99.507736 
1989.000000	99.507505 
1988.000000	99.506997 
1987.000000	99.506599 
1986.000000	99.506760 
1985.000000	99.507594 
1984.000000	99.508697 
1983.000000	99.509416 
1982.000000	99.509362 
1981.000000	99.508530 
1980.000000	99.507264 
1979.000000	99.506074 
1978.000000	99.505315 
1977.000000	99.504951 
1976.000000	99.504522 
1975.000000	99.503558 
1974.000000	99.502041 
1973.000000	99.500480 
1972.000000	99.499457 
1971.000000	99.499117 
1970.000000	99.499121 
1969.000000	99.498961 
1968.000000	99.498433 
1967.000000	99.497664 
1966.000000	99.496840 
1965.000000	99.495997 
1964.000000	99.495100 
1963.000000	99.494131 
1962.000000	99.493040 
1961.000000	99.491748 
1960.000000	99.490316 
1959.000000	99.488977 
1958.000000	99.487907 
1957.000000	99.487046 
1956.000000	99.486192 
1955.000000	99.485166 
1954.000000	99.483821 
1953.000000	99.482068 
1952.000000	99.480074 
1951.000000	99.478341 
1950.000000	99.477314 
1949.000000	99.476905 
1948.000000	99.476518 
1947.000000	99.475686 
1946.000000	99.474503 
1945.000000	99.473319 
1944.000000	99.472272 
1943.000000	99.471227 
1942.000000	99.470031 
1941.000000	99.468669 
1940.000000	99.467338 
1939.000000	99.466445 
1938.000000	99.466304 
1937.000000	99.466772 
1936.000000	99.467275 
1935.000000	99.467271 
1934.000000	99.466761 
1933.000000	99.466191 
1932.000000	99.466012 
1931.000000	99.466281 
1930.000000	99.466728 
1929.000000	99.467000 
1928.000000	99.466941 
1927.000000	99.466685 
1926.000000	99.466447 
1925.000000	99.466343 
1924.000000	99.466354 
1923.000000	99.466439 
1922.000000	99.466592 
1921.000000	99.466810 
1920.000000	99.467083 
1919.000000	99.467399 
1918.000000	99.467748 
1917.000000	99.468119 
1916.000000	99.468502 
1915.000000	99.468903 
1914.000000	99.469334 
1913.000000	99.469807 
1912.000000	99.470318 
1911.000000	99.470853 
1910.000000	99.471389 
1909.000000	99.471904 
1908.000000	99.472384 
1907.000000	99.472825 
1906.000000	99.473230 
1905.000000	99.473603 
1904.000000	99.473936 
1903.000000	99.474226 
1902.000000	99.474484 
1901.000000	99.474736 
1900.000000	99.475007 
1899.000000	99.475310 
1898.000000	99.475637 
1897.000000	99.475969 
1896.000000	99.476284 
1895.000000	99.476575 
1894.000000	99.476852 
1893.000000	99.477130 
1892.000000	99.477416 
1891.000000	99.477702 
1890.000000	99.477978 
1889.000000	99.478226 
1888.000000	99.478450 
1887.000000	99.478695 
1886.000000	99.479003 
1885.000000	99.479360 
1884.000000	99.479697 
1883.000000	99.479968 
1882.000000	99.480205 
1881.000000	99.480427 
1880.000000	99.480577 
1879.000000	99.480639 
1878.000000	99.480691 
1877.000000	99.480695 
1876.000000	99.480450 
1875.000000	99.480054 
1874.000000	99.480161 
1873.000000	99.481283 
1872.000000	99.482935 
1871.000000	99.483981 
1870.000000	99.483855 
1869.000000	99.482867 
1868.000000	99.481072 
1867.000000	99.478070 
1866.000000	99.474434 
1865.000000	99.471697 
1864.000000	99.470980 
1863.000000	99.472419 
1862.000000	99.475546 
1861.000000	99.479594 
1860.000000	99.483278 
1859.000000	99.485554 
1858.000000	99.486779 
1857.000000	99.487898 
1856.000000	99.488857 
1855.000000	99.488947 
1854.000000	99.488253 
1853.000000	99.487712 
1852.000000	99.487784 
1851.000000	99.487819 
1850.000000	99.487155 
1849.000000	99.486075 
1848.000000	99.485463 
1847.000000	99.485829 
1846.000000	99.486951 
1845.000000	99.487996 
1844.000000	99.488044 
1843.000000	99.487086 
1842.000000	99.486205 
1841.000000	99.486307 
1840.000000	99.487464 
1839.000000	99.489157 
1838.000000	99.490736 
1837.000000	99.491775 
1836.000000	99.492206 
1835.000000	99.492268 
1834.000000	99.492303 
1833.000000	99.492525 
1832.000000	99.492990 
1831.000000	99.493526 
1830.000000	99.493835 
1829.000000	99.493812 
1828.000000	99.493667 
1827.000000	99.493580 
1826.000000	99.493601 
1825.000000	99.493857 
1824.000000	99.494417 
1823.000000	99.495088 
1822.000000	99.495561 
1821.000000	99.495617 
1820.000000	99.495201 
1819.000000	99.494479 
1818.000000	99.493912 
1817.000000	99.493950 
1816.000000	99.494541 
1815.000000	99.495097 
1814.000000	99.495203 
1813.000000	99.495098 
1812.000000	99.495362 
1811.000000	99.496249 
1810.000000	99.497595 
1809.000000	99.499085 
1808.000000	99.500214 
1807.000000	99.500448 
1806.000000	99.499782 
1805.000000	99.498873 
1804.000000	99.498302 
1803.000000	99.497927 
1802.000000	99.497311 
1801.000000	99.496554 
1800.000000	99.496081 
1799.000000	99.496025 
1798.000000	99.496440 
1797.000000	99.497405 
1796.000000	99.498664 
1795.000000	99.499657 
1794.000000	99.499975 
1793.000000	99.499754 
1792.000000	99.499523 
1791.000000	99.499526 
1790.000000	99.499714 
1789.000000	99.500067 
1788.000000	99.500507 
1787.000000	99.500889 
1786.000000	99.501217 
1785.000000	99.501651 
1784.000000	99.502105 
1783.000000	99.502267 
1782.000000	99.501979 
1781.000000	99.501447 
1780.000000	99.500942 
1779.000000	99.500578 
1778.000000	99.500460 
1777.000000	99.500681 
1776.000000	99.501174 
1775.000000	99.501746 
1774.000000	99.502238 
1773.000000	99.502675 
1772.000000	99.503170 
1771.000000	99.503579 
1770.000000	99.503688 
1769.000000	99.503480 
1768.000000	99.503185 
1767.000000	99.503057 
1766.000000	99.503162 
1765.000000	99.503442 
1764.000000	99.503803 
1763.000000	99.504137 
1762.000000	99.504365 
1761.000000	99.504519 
1760.000000	99.504698 
1759.000000	99.504928 
1758.000000	99.505142 
1757.000000	99.505273 
1756.000000	99.505330 
1755.000000	99.505352 
1754.000000	99.505338 
1753.000000	99.505286 
1752.000000	99.505312 
1751.000000	99.505573 
1750.000000	99.506043 
1749.000000	99.506487 
1748.000000	99.506749 
1747.000000	99.506867 
1746.000000	99.506931 
1745.000000	99.506984 
1744.000000	99.507059 
1743.000000	99.507151 
1742.000000	99.507219 
1741.000000	99.507262 
1740.000000	99.507305 
1739.000000	99.507366 
1738.000000	99.507440 
1737.000000	99.507517 
1736.000000	99.507592 
1735.000000	99.507657 
1734.000000	99.507714 
1733.000000	99.507773 
1732.000000	99.507842 
1731.000000	99.507924 
1730.000000	99.508018 
1729.000000	99.508116 
1728.000000	99.508212 
1727.000000	99.508303 
1726.000000	99.508388 
1725.000000	99.508470 
1724.000000	99.508547 
1723.000000	99.508619 
1722.000000	99.508683 
1721.000000	99.508735 
1720.000000	99.508774 
1719.000000	99.508799 
1718.000000	99.508806 
1717.000000	99.508793 
1716.000000	99.508764 
1715.000000	99.508725 
1714.000000	99.508689 
1713.000000	99.508668 
1712.000000	99.508665 
1711.000000	99.508678 
1710.000000	99.508700 
1709.000000	99.508722 
1708.000000	99.508739 
1707.000000	99.508755 
1706.000000	99.508774 
1705.000000	99.508798 
1704.000000	99.508816 
1703.000000	99.508813 
1702.000000	99.508784 
1701.000000	99.508741 
1700.000000	99.508712 
1699.000000	99.508706 
1698.000000	99.508718 
1697.000000	99.508737 
1696.000000	99.508748 
1695.000000	99.508742 
1694.000000	99.508717 
1693.000000	99.508678 
1692.000000	99.508632 
1691.000000	99.508577 
1690.000000	99.508506 
1689.000000	99.508410 
1688.000000	99.508282 
1687.000000	99.508122 
1686.000000	99.507938 
1685.000000	99.507747 
1684.000000	99.507562 
1683.000000	99.507378 
1682.000000	99.507187 
1681.000000	99.506984 
1680.000000	99.506771 
1679.000000	99.506560 
1678.000000	99.506357 
1677.000000	99.506163 
1676.000000	99.505975 
1675.000000	99.505791 
1674.000000	99.505609 
1673.000000	99.505429 
1672.000000	99.505248 
1671.000000	99.505062 
1670.000000	99.504863 
1669.000000	99.504650 
1668.000000	99.504423 
1667.000000	99.504169 
1666.000000	99.503874 
1665.000000	99.503521 
1664.000000	99.503117 
1663.000000	99.502760 
1662.000000	99.502563 
1661.000000	99.502452 
1660.000000	99.502243 
1659.000000	99.501972 
1658.000000	99.501885 
1657.000000	99.502102 
1656.000000	99.502298 
1655.000000	99.502075 
1654.000000	99.501463 
1653.000000	99.501250 
1652.000000	99.501248 
1651.000000	99.501262 
1650.000000	99.500898 
1649.000000	99.500186 
1648.000000	99.498959 
1647.000000	99.497342 
1646.000000	99.496083 
1645.000000	99.495970 
1644.000000	99.496872 
1643.000000	99.498040 
1642.000000	99.498813 
1641.000000	99.498939 
1640.000000	99.498578 
1639.000000	99.498218 
1638.000000	99.498345 
1637.000000	99.499068 
1636.000000	99.499848 
1635.000000	99.500000 
1634.000000	99.499839 
1633.000000	99.499923 
1632.000000	99.500303 
1631.000000	99.500899 
1630.000000	99.501552 
1629.000000	99.502009 
1628.000000	99.502073 
1627.000000	99.501998 
1626.000000	99.502275 
1625.000000	99.503164 
1624.000000	99.504574 
1623.000000	99.506207 
1622.000000	99.507612 
1621.000000	99.508471 
1620.000000	99.508841 
1619.000000	99.509115 
1618.000000	99.509794 
1617.000000	99.510935 
1616.000000	99.511803 
1615.000000	99.511995 
1614.000000	99.511782 
1613.000000	99.511390 
1612.000000	99.511121 
1611.000000	99.511347 
1610.000000	99.512135 
1609.000000	99.513010 
1608.000000	99.513539 
1607.000000	99.513889 
1606.000000	99.514349 
1605.000000	99.514927 
1604.000000	99.515589 
1603.000000	99.516420 
1602.000000	99.517274 
1601.000000	99.517856 
1600.000000	99.518201 
1599.000000	99.518638 
1598.000000	99.519288 
1597.000000	99.519965 
1596.000000	99.520496 
1595.000000	99.520880 
1594.000000	99.521185 
1593.000000	99.521443 
1592.000000	99.521687 
1591.000000	99.521942 
1590.000000	99.522194 
1589.000000	99.522417 
1588.000000	99.522608 
1587.000000	99.522764 
1586.000000	99.522884 
1585.000000	99.522970 
1584.000000	99.523025 
1583.000000	99.523051 
1582.000000	99.523057 
1581.000000	99.523050 
1580.000000	99.523038 
1579.000000	99.523026 
1578.000000	99.523019 
1577.000000	99.523015 
1576.000000	99.523009 
1575.000000	99.523003 
1574.000000	99.522999 
1573.000000	99.522998 
1572.000000	99.522998 
1571.000000	99.523003 
1570.000000	99.523015 
1569.000000	99.523032 
1568.000000	99.523042 
1567.000000	99.523041 
1566.000000	99.523032 
1565.000000	99.523020 
1564.000000	99.523011 
1563.000000	99.523004 
1562.000000	99.522990 
1561.000000	99.522950 
1560.000000	99.522871 
1559.000000	99.522758 
1558.000000	99.522630 
1557.000000	99.522493 
1556.000000	99.522343 
1555.000000	99.522172 
1554.000000	99.521979 
1553.000000	99.521767 
1552.000000	99.521541 
1551.000000	99.521305 
1550.000000	99.521060 
1549.000000	99.520803 
1548.000000	99.520524 
1547.000000	99.520221 
1546.000000	99.519894 
1545.000000	99.519549 
1544.000000	99.519190 
1543.000000	99.518817 
1542.000000	99.518430 
1541.000000	99.518036 
1540.000000	99.517627 
1539.000000	99.517168 
1538.000000	99.516740 
1537.000000	99.516395 
1536.000000	99.516087 
1535.000000	99.515762 
1534.000000	99.515445 
1533.000000	99.515169 
1532.000000	99.514724 
1531.000000	99.513989 
1530.000000	99.513270 
1529.000000	99.512959 
1528.000000	99.512882 
1527.000000	99.512488 
1526.000000	99.511666 
1525.000000	99.510998 
1524.000000	99.510807 
1523.000000	99.510880 
1522.000000	99.511123 
1521.000000	99.511434 
1520.000000	99.510721 
1519.000000	99.508366 
1518.000000	99.505049 
1517.000000	99.502242 
1516.000000	99.500628 
1515.000000	99.499589 
1514.000000	99.498329 
1513.000000	99.496716 
1512.000000	99.495086 
1511.000000	99.493631 
1510.000000	99.492162 
1509.000000	99.490437 
1508.000000	99.488649 
1507.000000	99.486911 
1506.000000	99.484643 
1505.000000	99.482185 
1504.000000	99.480061 
1503.000000	99.478262 
1502.000000	99.476931 
1501.000000	99.475942 
1500.000000	99.474846 
1499.000000	99.473054 
1498.000000	99.470448 
1497.000000	99.468144 
1496.000000	99.467211 
1495.000000	99.466517 
1494.000000	99.464324 
1493.000000	99.460309 
1492.000000	99.455247 
1491.000000	99.450543 
1490.000000	99.447439 
1489.000000	99.445987 
1488.000000	99.444545 
1487.000000	99.441430 
1486.000000	99.437031 
1485.000000	99.432763 
1484.000000	99.429445 
1483.000000	99.426962 
1482.000000	99.424439 
1481.000000	99.420971 
1480.000000	99.416334 
1479.000000	99.411107 
1478.000000	99.406406 
1477.000000	99.403306 
1476.000000	99.401512 
1475.000000	99.398541 
1474.000000	99.392934 
1473.000000	99.387563 
1472.000000	99.386245 
1471.000000	99.387291 
1470.000000	99.387498 
1469.000000	99.386805 
1468.000000	99.386431 
1467.000000	99.386097 
1466.000000	99.384834 
1465.000000	99.383468 
1464.000000	99.383546 
1463.000000	99.384659 
1462.000000	99.385391 
1461.000000	99.385653 
1460.000000	99.385778 
1459.000000	99.384322 
1458.000000	99.376255 
1457.000000	99.359082 
1456.000000	99.339334 
1455.000000	99.323069 
1454.000000	99.310366 
1453.000000	99.301701 
1452.000000	99.297379 
1451.000000	99.296712 
1450.000000	99.299624 
1449.000000	99.307674 
1448.000000	99.320191 
1447.000000	99.331375 
1446.000000	99.336616 
1445.000000	99.338276 
1444.000000	99.340034 
1443.000000	99.341394 
1442.000000	99.339852 
1441.000000	99.335562 
1440.000000	99.331513 
1439.000000	99.329274 
1438.000000	99.327110 
1437.000000	99.324136 
1436.000000	99.322353 
1435.000000	99.320242 
1434.000000	99.315161 
1433.000000	99.308567 
1432.000000	99.303362 
1431.000000	99.300901 
1430.000000	99.299255 
1429.000000	99.295526 
1428.000000	99.289119 
1427.000000	99.280431 
1426.000000	99.268864 
1425.000000	99.254196 
1424.000000	99.239652 
1423.000000	99.228766 
1422.000000	99.219044 
1421.000000	99.204452 
1420.000000	99.182350 
1419.000000	99.156826 
1418.000000	99.131634 
1417.000000	99.106874 
1416.000000	99.083061 
1415.000000	99.060005 
1414.000000	99.035533 
1413.000000	99.008281 
1412.000000	98.981347 
1411.000000	98.959725 
1410.000000	98.943900 
1409.000000	98.930859 
1408.000000	98.919695 
1407.000000	98.911909 
1406.000000	98.908616 
1405.000000	98.911079 
1404.000000	98.921773 
1403.000000	98.939537 
1402.000000	98.957661 
1401.000000	98.971028 
1400.000000	98.980763 
1399.000000	98.989556 
1398.000000	98.991665 
1397.000000	98.975115 
1396.000000	98.936599 
1395.000000	98.893449 
1394.000000	98.874299 
1393.000000	98.891026 
1392.000000	98.932149 
1391.000000	98.977221 
1390.000000	99.010400 
1389.000000	99.025391 
1388.000000	99.024448 
1387.000000	99.015227 
1386.000000	99.005389 
1385.000000	98.998753 
1384.000000	98.995897 
1383.000000	98.996038 
1382.000000	98.998417 
1381.000000	99.003715 
1380.000000	99.013502 
1379.000000	99.028015 
1378.000000	99.044866 
1377.000000	99.060758 
1376.000000	99.074746 
1375.000000	99.089081 
1374.000000	99.106463 
1373.000000	99.126665 
1372.000000	99.147336 
1371.000000	99.167107 
1370.000000	99.186158 
1369.000000	99.204270 
1368.000000	99.221248 
1367.000000	99.237826 
1366.000000	99.254891 
1365.000000	99.272288 
1364.000000	99.288331 
1363.000000	99.301135 
1362.000000	99.310993 
1361.000000	99.320187 
1360.000000	99.330540 
1359.000000	99.342533 
1358.000000	99.356076 
1357.000000	99.370616 
1356.000000	99.384931 
1355.000000	99.397661 
1354.000000	99.408609 
1353.000000	99.419115 
1352.000000	99.429504 
1351.000000	99.437481 
1350.000000	99.441813 
1349.000000	99.443616 
1348.000000	99.444907 
1347.000000	99.447706 
1346.000000	99.453943 
1345.000000	99.463674 
1344.000000	99.474283 
1343.000000	99.482527 
1342.000000	99.487278 
1341.000000	99.489411 
1340.000000	99.490144 
1339.000000	99.490624 
1338.000000	99.491907 
1337.000000	99.494171 
1336.000000	99.496139 
1335.000000	99.496175 
1334.000000	99.494779 
1333.000000	99.494996 
1332.000000	99.499150 
1331.000000	99.505862 
1330.000000	99.511115 
1329.000000	99.511919 
1328.000000	99.508890 
1327.000000	99.505638 
1326.000000	99.505788 
1325.000000	99.509574 
1324.000000	99.514469 
1323.000000	99.517623 
1322.000000	99.517694 
1321.000000	99.515546 
1320.000000	99.513997 
1319.000000	99.515817 
1318.000000	99.520784 
1317.000000	99.525341 
1316.000000	99.525840 
1315.000000	99.521972 
1314.000000	99.517077 
1313.000000	99.515441 
1312.000000	99.518620 
1311.000000	99.523915 
1310.000000	99.526725 
1309.000000	99.524841 
1308.000000	99.520474 
1307.000000	99.517826 
1306.000000	99.518980 
1305.000000	99.522185 
1304.000000	99.524652 
1303.000000	99.525234 
1302.000000	99.524591 
1301.000000	99.523961 
1300.000000	99.524389 
1299.000000	99.525948 
1298.000000	99.526982 
1297.000000	99.524993 
1296.000000	99.519199 
1295.000000	99.512292 
1294.000000	99.508692 
1293.000000	99.510775 
1292.000000	99.516573 
1291.000000	99.520801 
1290.000000	99.518826 
1289.000000	99.510735 
1288.000000	99.501621 
1287.000000	99.496926 
1286.000000	99.497040 
1285.000000	99.497384 
1284.000000	99.493558 
1283.000000	99.485373 
1282.000000	99.475967 
1281.000000	99.468235 
1280.000000	99.463204 
1279.000000	99.460177 
1278.000000	99.456691 
1277.000000	99.449628 
1276.000000	99.437821 
1275.000000	99.423661 
1274.000000	99.411202 
1273.000000	99.402593 
1272.000000	99.396409 
1271.000000	99.388782 
1270.000000	99.376065 
1269.000000	99.357694 
1268.000000	99.337354 
1267.000000	99.320398 
1266.000000	99.308848 
1265.000000	99.299600 
1264.000000	99.288016 
1263.000000	99.272249 
1262.000000	99.253759 
1261.000000	99.235439 
1260.000000	99.220438 
1259.000000	99.211014 
1258.000000	99.206118 
1257.000000	99.201341 
1256.000000	99.193282 
1255.000000	99.183441 
1254.000000	99.175954 
1253.000000	99.172142 
1252.000000	99.169553 
1251.000000	99.166284 
1250.000000	99.163877 
1249.000000	99.165381 
1248.000000	99.172405 
1247.000000	99.184110 
1246.000000	99.196494 
1245.000000	99.202417 
1244.000000	99.195766 
1243.000000	99.178631 
1242.000000	99.163275 
1241.000000	99.162842 
1240.000000	99.179509 
1239.000000	99.202456 
1238.000000	99.217340 
1237.000000	99.217990 
1236.000000	99.207924 
1235.000000	99.194223 
1234.000000	99.182032 
1233.000000	99.173479 
1232.000000	99.168684 
1231.000000	99.166154 
1230.000000	99.163541 
1229.000000	99.159816 
1228.000000	99.156739 
1227.000000	99.157499 
1226.000000	99.163798 
1225.000000	99.174225 
1224.000000	99.185123 
1223.000000	99.193211 
1222.000000	99.198290 
1221.000000	99.203670 
1220.000000	99.213162 
1219.000000	99.227159 
1218.000000	99.241941 
1217.000000	99.253177 
1216.000000	99.259692 
1215.000000	99.263769 
1214.000000	99.268708 
1213.000000	99.276273 
1212.000000	99.285439 
1211.000000	99.292813 
1210.000000	99.295282 
1209.000000	99.293274 
1208.000000	99.290922 
1207.000000	99.292131 
1206.000000	99.296767 
1205.000000	99.301415 
1204.000000	99.303155 
1203.000000	99.301590 
1202.000000	99.297914 
1201.000000	99.293536 
1200.000000	99.289652 
1199.000000	99.286701 
1198.000000	99.283827 
1197.000000	99.279891 
1196.000000	99.274850 
1195.000000	99.269721 
1194.000000	99.265677 
1193.000000	99.262902 
1192.000000	99.260008 
1191.000000	99.254616 
1190.000000	99.245238 
1189.000000	99.233387 
1188.000000	99.223330 
1187.000000	99.218552 
1186.000000	99.218185 
1185.000000	99.217493 
1184.000000	99.211855 
1183.000000	99.200083 
1182.000000	99.184870 
1181.000000	99.171008 
1180.000000	99.162434 
1179.000000	99.159256 
1178.000000	99.157068 
1177.000000	99.150332 
1176.000000	99.137314 
1175.000000	99.121555 
1174.000000	99.108392 
1173.000000	99.100130 
1172.000000	99.094612 
1171.000000	99.087696 
1170.000000	99.076798 
1169.000000	99.062706 
1168.000000	99.048650 
1167.000000	99.037529 
1166.000000	99.029712 
1165.000000	99.023444 
1164.000000	99.017259 
1163.000000	99.011817 
1162.000000	99.009606 
1161.000000	99.012959 
1160.000000	99.021732 
1159.000000	99.032204 
1158.000000	99.038536 
1157.000000	99.036355 
1156.000000	99.025528 
1155.000000	99.009956 
1154.000000	98.994770 
1153.000000	98.982946 
1152.000000	98.973527 
1151.000000	98.962772 
1150.000000	98.947874 
1149.000000	98.930209 
1148.000000	98.914164 
1147.000000	98.901997 
1146.000000	98.890631 
1145.000000	98.874729 
1144.000000	98.852404 
1143.000000	98.826983 
1142.000000	98.803779 
1141.000000	98.786271 
1140.000000	98.774718 
1139.000000	98.766334 
1138.000000	98.756441 
1137.000000	98.741329 
1136.000000	98.721248 
1135.000000	98.700239 
1134.000000	98.682561 
1133.000000	98.669159 
1132.000000	98.657186 
1131.000000	98.642298 
1130.000000	98.621965 
1129.000000	98.597590 
1128.000000	98.573168 
1127.000000	98.551073 
1126.000000	98.529738 
1125.000000	98.506336 
1124.000000	98.480609 
1123.000000	98.454356 
1122.000000	98.427951 
1121.000000	98.399733 
1120.000000	98.368781 
1119.000000	98.336055 
1118.000000	98.302398 
1117.000000	98.267399 
1116.000000	98.231015 
1115.000000	98.194517 
1114.000000	98.158683 
1113.000000	98.122055 
1112.000000	98.082172 
1111.000000	98.038426 
1110.000000	97.993038 
1109.000000	97.949705 
1108.000000	97.911177 
1107.000000	97.876515 
1106.000000	97.841861 
1105.000000	97.804856 
1104.000000	97.766915 
1103.000000	97.730290 
1102.000000	97.695206 
1101.000000	97.661751 
1100.000000	97.632729 
1099.000000	97.609508 
1098.000000	97.588328 
1097.000000	97.563202 
1096.000000	97.532626 
1095.000000	97.499401 
1094.000000	97.463610 
1093.000000	97.419891 
1092.000000	97.363176 
1091.000000	97.294276 
1090.000000	97.218451 
1089.000000	97.140893 
1088.000000	97.065203 
1087.000000	96.993930 
1086.000000	96.927877 
1085.000000	96.865401 
1084.000000	96.803546 
1083.000000	96.739657 
1082.000000	96.672638 
1081.000000	96.604656 
1080.000000	96.541171 
1079.000000	96.486561 
1078.000000	96.439744 
1077.000000	96.397234 
1076.000000	96.360312 
1075.000000	96.335085 
1074.000000	96.324807 
1073.000000	96.325385 
1072.000000	96.327505 
1071.000000	96.318026 
1070.000000	96.280725 
1069.000000	96.206244 
1068.000000	96.107993 
1067.000000	96.022542 
1066.000000	95.983972 
1065.000000	95.997345 
1064.000000	96.038543 
1063.000000	96.075311 
1062.000000	96.085753 
1061.000000	96.061217 
1060.000000	96.004054 
1059.000000	95.929410 
1058.000000	95.862148 
1057.000000	95.821732 
1056.000000	95.808077 
1055.000000	95.804086 
1054.000000	95.792456 
1053.000000	95.769540 
1052.000000	95.743462 
1051.000000	95.722309 
1050.000000	95.707366 
1049.000000	95.696661 
1048.000000	95.690230 
1047.000000	95.689192 
1046.000000	95.692220 
1045.000000	95.696182 
1044.000000	95.699994 
1043.000000	95.705878 
1042.000000	95.716170 
1041.000000	95.729621 
1040.000000	95.742142 
1039.000000	95.752467 
1038.000000	95.766948 
1037.000000	95.796120 
1036.000000	95.844504 
1035.000000	95.905353 
1034.000000	95.967282 
1033.000000	96.022956 
1032.000000	96.066563 
1031.000000	96.087274 
1030.000000	96.076970 
1029.000000	96.047905 
1028.000000	96.033108 
1027.000000	96.059385 
1026.000000	96.122654 
1025.000000	96.194548 
1024.000000	96.250508 
1023.000000	96.285626 
1022.000000	96.307027 
1021.000000	96.321480 
1020.000000	96.332766 
1019.000000	96.344086 
1018.000000	96.357499 
1017.000000	96.372908 
1016.000000	96.390072 
1015.000000	96.410161 
1014.000000	96.434321 
1013.000000	96.462279 
1012.000000	96.492814 
1011.000000	96.524020 
1010.000000	96.553433 
1009.000000	96.580039 
1008.000000	96.605965 
1007.000000	96.634398 
1006.000000	96.666099 
1005.000000	96.699355 
1004.000000	96.732559 
1003.000000	96.765116 
1002.000000	96.796639 
1001.000000	96.827156 
1000.000000	96.857627 
999.000000	 96.888714 
998.000000	 96.919352 
997.000000	 96.947761 
996.000000	 96.973766 
995.000000	 96.999433 
994.000000	 97.027359 
993.000000	 97.058348 
992.000000	 97.090401 
991.000000	 97.119906 
990.000000	 97.144384 
989.000000	 97.165085 
988.000000	 97.186692 
987.000000	 97.212475 
986.000000	 97.239945 
985.000000	 97.264333 
984.000000	 97.286051 
983.000000	 97.310858 
982.000000	 97.342615 
981.000000	 97.379421 
980.000000	 97.416610 
979.000000	 97.451418 
978.000000	 97.483562 
977.000000	 97.514312 
976.000000	 97.546662 
975.000000	 97.583577 
974.000000	 97.624330 
973.000000	 97.664745 
972.000000	 97.702287 
971.000000	 97.738606 
970.000000	 97.775899 
969.000000	 97.813335 
968.000000	 97.848927 
967.000000	 97.882839 
966.000000	 97.916527 
965.000000	 97.949791 
964.000000	 97.980803 
963.000000	 98.008632 
962.000000	 98.034284 
961.000000	 98.059516 
960.000000	 98.085620 
959.000000	 98.112853 
958.000000	 98.139998 
957.000000	 98.164880 
956.000000	 98.186498 
955.000000	 98.206897 
954.000000	 98.230008 
953.000000	 98.257672 
952.000000	 98.286731 
951.000000	 98.310833 
950.000000	 98.326073 
949.000000	 98.334842 
948.000000	 98.343716 
947.000000	 98.357604 
946.000000	 98.376414 
945.000000	 98.396925 
944.000000	 98.415972 
943.000000	 98.431275 
942.000000	 98.441397 
941.000000	 98.446842 
940.000000	 98.450288 
939.000000	 98.454104 
938.000000	 98.458041 
937.000000	 98.460556 
936.000000	 98.461762 
935.000000	 98.463621 
934.000000	 98.467492 
933.000000	 98.472624 
932.000000	 98.477049 
931.000000	 98.479519 
930.000000	 98.481194 
929.000000	 98.485749 
928.000000	 98.496483 
927.000000	 98.512315 
926.000000	 98.527693 
925.000000	 98.537456 
924.000000	 98.540650 
923.000000	 98.538949 
922.000000	 98.533449 
921.000000	 98.524947 
920.000000	 98.515848 
919.000000	 98.508999 
918.000000	 98.504686 
917.000000	 98.500572 
916.000000	 98.494722 
915.000000	 98.487576 
914.000000	 98.481169 
913.000000	 98.477457 
912.000000	 98.477063 
911.000000	 98.478578 
910.000000	 98.479480 
909.000000	 98.478745 
908.000000	 98.477908 
907.000000	 98.478629 
906.000000	 98.480278 
905.000000	 98.481212 
904.000000	 98.481897 
903.000000	 98.485762 
902.000000	 98.497159 
901.000000	 98.518392 
900.000000	 98.547193 
899.000000	 98.576519 
898.000000	 98.599228 
897.000000	 98.614060 
896.000000	 98.625224 
895.000000	 98.635959 
894.000000	 98.645851 
893.000000	 98.655745 
892.000000	 98.671165 
891.000000	 98.697128 
890.000000	 98.731696 
889.000000	 98.767849 
888.000000	 98.800249 
887.000000	 98.827094 
886.000000	 98.847355 
885.000000	 98.860658 
884.000000	 98.869382 
883.000000	 98.876943 
882.000000	 98.883765 
881.000000	 98.888617 
880.000000	 98.894486 
879.000000	 98.908847 
878.000000	 98.935442 
877.000000	 98.967974 
876.000000	 98.994446 
875.000000	 99.007413 
874.000000	 99.009187 
873.000000	 99.008667 
872.000000	 99.014049 
871.000000	 99.027407 
870.000000	 99.044644 
869.000000	 99.060260 
868.000000	 99.072951 
867.000000	 99.086802 
866.000000	 99.107073 
865.000000	 99.134774 
864.000000	 99.165020 
863.000000	 99.190984 
862.000000	 99.210463 
861.000000	 99.228046 
860.000000	 99.249475 
859.000000	 99.274484 
858.000000	 99.297849 
857.000000	 99.317656 
856.000000	 99.338658 
855.000000	 99.365253 
854.000000	 99.394271 
853.000000	 99.418058 
852.000000	 99.432704 
851.000000	 99.439954 
850.000000	 99.443026 
849.000000	 99.444627 
848.000000	 99.448452 
847.000000	 99.458194 
846.000000	 99.473632 
845.000000	 99.490389 
844.000000	 99.504607 
843.000000	 99.515767 
842.000000	 99.524381 
841.000000	 99.529429 
840.000000	 99.529861 
839.000000	 99.527407 
838.000000	 99.525720 
837.000000	 99.526169 
836.000000	 99.525691 
835.000000	 99.520503 
834.000000	 99.512159 
833.000000	 99.507439 
832.000000	 99.509495 
831.000000	 99.510717 
830.000000	 99.499855 
829.000000	 99.477911 
828.000000	 99.461592 
827.000000	 99.465579 
826.000000	 99.484471 
825.000000	 99.498886 
824.000000	 99.498127 
823.000000	 99.489371 
822.000000	 99.485044 
821.000000	 99.488985 
820.000000	 99.496919 
819.000000	 99.503506 
818.000000	 99.505484 
817.000000	 99.502215 
816.000000	 99.496198 
815.000000	 99.490911 
814.000000	 99.486432 
813.000000	 99.478843 
812.000000	 99.464746 
811.000000	 99.444502 
810.000000	 99.420107 
809.000000	 99.391857 
808.000000	 99.358578 
807.000000	 99.319657 
806.000000	 99.275266 
805.000000	 99.225417 
804.000000	 99.170771 
803.000000	 99.114876 
802.000000	 99.064508 
801.000000	 99.026812 
800.000000	 99.005268 
799.000000	 98.997729 
798.000000	 98.998644 
797.000000	 99.003875 
796.000000	 99.012737 
795.000000	 99.025454 
794.000000	 99.041484 
793.000000	 99.061466 
792.000000	 99.086711 
791.000000	 99.113007 
790.000000	 99.128090 
789.000000	 99.121593 
788.000000	 99.097787 
787.000000	 99.073851 
786.000000	 99.063305 
785.000000	 99.063615 
784.000000	 99.061461 
783.000000	 99.047826 
782.000000	 99.026598 
781.000000	 99.010130 
780.000000	 99.007684 
779.000000	 99.016974 
778.000000	 99.026084 
777.000000	 99.025964 
776.000000	 99.021608 
775.000000	 99.027762 
774.000000	 99.052699 
773.000000	 99.088894 
772.000000	 99.120399 
771.000000	 99.137524 
770.000000	 99.142326 
769.000000	 99.142733 
768.000000	 99.145346 
767.000000	 99.152920 
766.000000	 99.164501 
765.000000	 99.176122 
764.000000	 99.183443 
763.000000	 99.185542 
762.000000	 99.185646 
761.000000	 99.187470 
760.000000	 99.191823 
759.000000	 99.197497 
758.000000	 99.204010 
757.000000	 99.211963 
756.000000	 99.221372 
755.000000	 99.231322 
754.000000	 99.241244 
753.000000	 99.251300 
752.000000	 99.261419 
751.000000	 99.270815 
750.000000	 99.278576 
749.000000	 99.284001 
748.000000	 99.286704 
747.000000	 99.287957 
746.000000	 99.291860 
745.000000	 99.302346 
744.000000	 99.317798 
743.000000	 99.330941 
742.000000	 99.336648 
741.000000	 99.338253 
740.000000	 99.343496 
739.000000	 99.355178 
738.000000	 99.368763 
737.000000	 99.378675 
736.000000	 99.384065 
735.000000	 99.388483 
734.000000	 99.396753 
733.000000	 99.412091 
732.000000	 99.432870 
731.000000	 99.451159 
730.000000	 99.458603 
729.000000	 99.454947 
728.000000	 99.449340 
727.000000	 99.450494 
726.000000	 99.456905 
725.000000	 99.461214 
724.000000	 99.461259 
723.000000	 99.462020 
722.000000	 99.467774 
721.000000	 99.476730 
720.000000	 99.484089 
719.000000	 99.487325 
718.000000	 99.487447 
717.000000	 99.487356 
716.000000	 99.489337 
715.000000	 99.492557 
714.000000	 99.493577 
713.000000	 99.490642 
712.000000	 99.486946 
711.000000	 99.487272 
710.000000	 99.492241 
709.000000	 99.497715 
708.000000	 99.499147 
707.000000	 99.496421 
706.000000	 99.492818 
705.000000	 99.491443 
704.000000	 99.492694 
703.000000	 99.492725 
702.000000	 99.486420 
701.000000	 99.473402 
700.000000	 99.458544 
699.000000	 99.446521 
698.000000	 99.435822 
697.000000	 99.420953 
696.000000	 99.400096 
695.000000	 99.377376 
694.000000	 99.360990 
693.000000	 99.359216 
692.000000	 99.374215 
691.000000	 99.398624 
690.000000	 99.419190 
689.000000	 99.428858 
688.000000	 99.433801 
687.000000	 99.443836 
686.000000	 99.459369 
685.000000	 99.471709 
684.000000	 99.474232 
683.000000	 99.469389 
682.000000	 99.464939 
681.000000	 99.466661 
680.000000	 99.474697 
679.000000	 99.484643 
678.000000	 99.490663 
677.000000	 99.488033 
676.000000	 99.478766 
675.000000	 99.472638 
674.000000	 99.476790 
673.000000	 99.487659 
672.000000	 99.498431 
671.000000	 99.510535 
670.000000	 99.532287 
669.000000	 99.561589 
668.000000	 99.569513 
667.000000	 99.543738 
666.000000	 99.519768 
665.000000	 99.514629 
664.000000	 99.519290 
663.000000	 99.521605 
662.000000	 99.516896 
661.000000	 99.511696 
660.000000	 99.516465 
659.000000	 99.532400 
658.000000	 99.546888 
657.000000	 99.544837 
656.000000	 99.525237 
655.000000	 99.503216 
654.000000	 99.494233 
653.000000	 99.499365 
652.000000	 99.510098 
651.000000	 99.516432 
650.000000	 99.512893 

