4000.000000	99.318091 
3999.000000	99.317811 
3998.000000	99.317255 
3997.000000	99.316365 
3996.000000	99.315160 
3995.000000	99.313808 
3994.000000	99.312609 
3993.000000	99.311857 
3992.000000	99.311663 
3991.000000	99.311858 
3990.000000	99.312098 
3989.000000	99.312141 
3988.000000	99.312030 
3987.000000	99.312017 
3986.000000	99.312251 
3985.000000	99.312552 
3984.000000	99.312531 
3983.000000	99.311935 
3982.000000	99.310842 
3981.000000	99.309555 
3980.000000	99.308321 
3979.000000	99.307216 
3978.000000	99.306307 
3977.000000	99.305822 
3976.000000	99.306030 
3975.000000	99.306937 
3974.000000	99.308189 
3973.000000	99.309205 
3972.000000	99.309536 
3971.000000	99.309131 
3970.000000	99.308243 
3969.000000	99.307222 
3968.000000	99.306353 
3967.000000	99.305744 
3966.000000	99.305358 
3965.000000	99.305125 
3964.000000	99.305005 
3963.000000	99.304947 
3962.000000	99.304808 
3961.000000	99.304417 
3960.000000	99.303746 
3959.000000	99.302967 
3958.000000	99.302320 
3957.000000	99.301923 
3956.000000	99.301706 
3955.000000	99.301529 
3954.000000	99.301323 
3953.000000	99.301100 
3952.000000	99.300898 
3951.000000	99.300772 
3950.000000	99.300806 
3949.000000	99.301053 
3948.000000	99.301416 
3947.000000	99.301661 
3946.000000	99.301609 
3945.000000	99.301295 
3944.000000	99.300938 
3943.000000	99.300751 
3942.000000	99.300753 
3941.000000	99.300775 
3940.000000	99.300655 
3939.000000	99.300341 
3938.000000	99.299871 
3937.000000	99.299333 
3936.000000	99.298881 
3935.000000	99.298718 
3934.000000	99.298981 
3933.000000	99.299623 
3932.000000	99.300397 
3931.000000	99.300966 
3930.000000	99.301126 
3929.000000	99.300873 
3928.000000	99.300386 
3927.000000	99.299974 
3926.000000	99.299893 
3925.000000	99.300194 
3924.000000	99.300671 
3923.000000	99.301000 
3922.000000	99.301036 
3921.000000	99.300926 
3920.000000	99.300957 
3919.000000	99.301328 
3918.000000	99.302040 
3917.000000	99.302912 
3916.000000	99.303663 
3915.000000	99.304049 
3914.000000	99.304017 
3913.000000	99.303742 
3912.000000	99.303503 
3911.000000	99.303467 
3910.000000	99.303613 
3909.000000	99.303847 
3908.000000	99.304086 
3907.000000	99.304236 
3906.000000	99.304178 
3905.000000	99.303864 
3904.000000	99.303421 
3903.000000	99.303049 
3902.000000	99.302910 
3901.000000	99.303181 
3900.000000	99.303944 
3899.000000	99.304970 
3898.000000	99.305736 
3897.000000	99.305814 
3896.000000	99.305202 
3895.000000	99.304189 
3894.000000	99.303018 
3893.000000	99.301845 
3892.000000	99.300952 
3891.000000	99.300649 
3890.000000	99.300851 
3889.000000	99.301160 
3888.000000	99.301326 
3887.000000	99.301421 
3886.000000	99.301810 
3885.000000	99.302717 
3884.000000	99.303654 
3883.000000	99.304013 
3882.000000	99.304056 
3881.000000	99.304583 
3880.000000	99.305707 
3879.000000	99.306450 
3878.000000	99.305958 
3877.000000	99.304633 
3876.000000	99.303669 
3875.000000	99.303797 
3874.000000	99.304720 
3873.000000	99.305500 
3872.000000	99.305581 
3871.000000	99.305492 
3870.000000	99.306316 
3869.000000	99.308281 
3868.000000	99.310373 
3867.000000	99.311586 
3866.000000	99.311756 
3865.000000	99.311258 
3864.000000	99.310513 
3863.000000	99.309706 
3862.000000	99.308974 
3861.000000	99.308656 
3860.000000	99.308952 
3859.000000	99.309753 
3858.000000	99.310989 
3857.000000	99.312734 
3856.000000	99.314734 
3855.000000	99.316182 
3854.000000	99.317067 
3853.000000	99.318624 
3852.000000	99.320272 
3851.000000	99.319937 
3850.000000	99.317553 
3849.000000	99.314539 
3848.000000	99.311877 
3847.000000	99.309706 
3846.000000	99.307933 
3845.000000	99.306751 
3844.000000	99.306557 
3843.000000	99.307559 
3842.000000	99.309637 
3841.000000	99.312235 
3840.000000	99.314463 
3839.000000	99.315606 
3838.000000	99.315556 
3837.000000	99.314763 
3836.000000	99.313861 
3835.000000	99.313290 
3834.000000	99.313269 
3833.000000	99.313702 
3832.000000	99.314177 
3831.000000	99.314214 
3830.000000	99.313481 
3829.000000	99.311953 
3828.000000	99.310006 
3827.000000	99.308262 
3826.000000	99.307300 
3825.000000	99.307329 
3824.000000	99.308022 
3823.000000	99.308711 
3822.000000	99.308999 
3821.000000	99.309228 
3820.000000	99.309859 
3819.000000	99.310650 
3818.000000	99.311126 
3817.000000	99.311000 
3816.000000	99.310130 
3815.000000	99.308622 
3814.000000	99.306663 
3813.000000	99.304570 
3812.000000	99.303079 
3811.000000	99.302860 
3810.000000	99.303799 
3809.000000	99.304939 
3808.000000	99.305227 
3807.000000	99.304548 
3806.000000	99.303776 
3805.000000	99.303636 
3804.000000	99.304113 
3803.000000	99.304815 
3802.000000	99.305340 
3801.000000	99.305630 
3800.000000	99.305561 
3799.000000	99.304474 
3798.000000	99.302101 
3797.000000	99.299121 
3796.000000	99.296576 
3795.000000	99.295083 
3794.000000	99.294454 
3793.000000	99.294012 
3792.000000	99.293225 
3791.000000	99.292085 
3790.000000	99.290976 
3789.000000	99.290286 
3788.000000	99.290025 
3787.000000	99.289831 
3786.000000	99.289457 
3785.000000	99.289183 
3784.000000	99.289441 
3783.000000	99.290125 
3782.000000	99.290536 
3781.000000	99.290196 
3780.000000	99.289586 
3779.000000	99.289588 
3778.000000	99.290092 
3777.000000	99.289984 
3776.000000	99.288711 
3775.000000	99.287114 
3774.000000	99.286646 
3773.000000	99.287993 
3772.000000	99.290429 
3771.000000	99.292440 
3770.000000	99.293060 
3769.000000	99.292368 
3768.000000	99.290967 
3767.000000	99.289635 
3766.000000	99.289001 
3765.000000	99.288956 
3764.000000	99.288750 
3763.000000	99.287782 
3762.000000	99.286249 
3761.000000	99.284957 
3760.000000	99.284771 
3759.000000	99.286040 
3758.000000	99.288281 
3757.000000	99.290984 
3756.000000	99.294488 
3755.000000	99.299445 
3754.000000	99.305873 
3753.000000	99.312686 
3752.000000	99.318025 
3751.000000	99.320305 
3750.000000	99.319319 
3749.000000	99.316738 
3748.000000	99.315419 
3747.000000	99.317046 
3746.000000	99.320196 
3745.000000	99.321975 
3744.000000	99.321545 
3743.000000	99.318829 
3742.000000	99.312905 
3741.000000	99.304711 
3740.000000	99.296481 
3739.000000	99.289084 
3738.000000	99.282662 
3737.000000	99.279191 
3736.000000	99.282018 
3735.000000	99.290865 
3734.000000	99.299413 
3733.000000	99.301306 
3732.000000	99.296214 
3731.000000	99.288124 
3730.000000	99.280600 
3729.000000	99.274831 
3728.000000	99.270852 
3727.000000	99.268793 
3726.000000	99.268488 
3725.000000	99.268467 
3724.000000	99.266711 
3723.000000	99.262787 
3722.000000	99.258215 
3721.000000	99.254393 
3720.000000	99.251046 
3719.000000	99.246708 
3718.000000	99.240276 
3717.000000	99.232311 
3716.000000	99.224584 
3715.000000	99.218274 
3714.000000	99.213150 
3713.000000	99.208443 
3712.000000	99.204185 
3711.000000	99.200583 
3710.000000	99.195980 
3709.000000	99.187625 
3708.000000	99.174579 
3707.000000	99.158793 
3706.000000	99.143695 
3705.000000	99.131712 
3704.000000	99.122849 
3703.000000	99.115039 
3702.000000	99.105945 
3701.000000	99.094523 
3700.000000	99.081138 
3699.000000	99.067148 
3698.000000	99.054387 
3697.000000	99.044581 
3696.000000	99.038832 
3695.000000	99.037063 
3694.000000	99.038021 
3693.000000	99.039833 
3692.000000	99.040352 
3691.000000	99.037690 
3690.000000	99.031767 
3689.000000	99.025141 
3688.000000	99.020146 
3687.000000	99.016086 
3686.000000	99.011147 
3685.000000	99.005251 
3684.000000	98.999888 
3683.000000	98.995962 
3682.000000	98.992548 
3681.000000	98.987936 
3680.000000	98.981535 
3679.000000	98.973943 
3678.000000	98.965122 
3677.000000	98.954105 
3676.000000	98.942417 
3675.000000	98.933847 
3674.000000	98.927441 
3673.000000	98.917987 
3672.000000	98.902764 
3671.000000	98.883406 
3670.000000	98.865201 
3669.000000	98.852805 
3668.000000	98.844683 
3667.000000	98.836624 
3666.000000	98.826874 
3665.000000	98.815087 
3664.000000	98.800835 
3663.000000	98.784175 
3662.000000	98.766452 
3661.000000	98.749713 
3660.000000	98.735006 
3659.000000	98.721505 
3658.000000	98.707668 
3657.000000	98.693438 
3656.000000	98.680971 
3655.000000	98.672063 
3654.000000	98.666286 
3653.000000	98.661639 
3652.000000	98.654289 
3651.000000	98.639415 
3650.000000	98.616465 
3649.000000	98.592616 
3648.000000	98.575173 
3647.000000	98.564173 
3646.000000	98.555660 
3645.000000	98.546997 
3644.000000	98.538156 
3643.000000	98.530357 
3642.000000	98.524315 
3641.000000	98.519187 
3640.000000	98.512883 
3639.000000	98.503766 
3638.000000	98.491914 
3637.000000	98.478396 
3636.000000	98.464014 
3635.000000	98.449456 
3634.000000	98.436334 
3633.000000	98.426397 
3632.000000	98.418685 
3631.000000	98.407863 
3630.000000	98.387956 
3629.000000	98.361429 
3628.000000	98.338482 
3627.000000	98.323795 
3626.000000	98.315950 
3625.000000	98.313432 
3624.000000	98.314422 
3623.000000	98.316580 
3622.000000	98.318550 
3621.000000	98.321177 
3620.000000	98.327440 
3619.000000	98.339902 
3618.000000	98.357317 
3617.000000	98.376307 
3616.000000	98.395462 
3615.000000	98.414934 
3614.000000	98.433925 
3613.000000	98.450466 
3612.000000	98.463316 
3611.000000	98.473391 
3610.000000	98.482750 
3609.000000	98.492426 
3608.000000	98.502010 
3607.000000	98.511059 
3606.000000	98.520393 
3605.000000	98.531520 
3604.000000	98.544644 
3603.000000	98.558082 
3602.000000	98.569891 
3601.000000	98.579372 
3600.000000	98.586793 
3599.000000	98.592200 
3598.000000	98.595395 
3597.000000	98.597195 
3596.000000	98.599732 
3595.000000	98.604964 
3594.000000	98.613054 
3593.000000	98.621982 
3592.000000	98.629243 
3591.000000	98.633528 
3590.000000	98.634933 
3589.000000	98.635105 
3588.000000	98.636970 
3587.000000	98.641196 
3586.000000	98.644069 
3585.000000	98.642537 
3584.000000	98.638453 
3583.000000	98.635690 
3582.000000	98.635809 
3581.000000	98.637219 
3580.000000	98.637364 
3579.000000	98.634926 
3578.000000	98.630340 
3577.000000	98.624955 
3576.000000	98.620297 
3575.000000	98.617516 
3574.000000	98.616836 
3573.000000	98.617458 
3572.000000	98.618040 
3571.000000	98.617458 
3570.000000	98.614929 
3569.000000	98.610428 
3568.000000	98.606084 
3567.000000	98.605188 
3566.000000	98.607602 
3565.000000	98.609132 
3564.000000	98.606931 
3563.000000	98.602200 
3562.000000	98.598182 
3561.000000	98.596901 
3560.000000	98.597392 
3559.000000	98.596862 
3558.000000	98.593698 
3557.000000	98.589015 
3556.000000	98.585226 
3555.000000	98.583478 
3554.000000	98.582662 
3553.000000	98.580944 
3552.000000	98.577861 
3551.000000	98.574524 
3550.000000	98.571924 
3549.000000	98.569656 
3548.000000	98.566802 
3547.000000	98.563631 
3546.000000	98.561397 
3545.000000	98.560314 
3544.000000	98.559055 
3543.000000	98.556727 
3542.000000	98.554218 
3541.000000	98.553005 
3540.000000	98.553299 
3539.000000	98.553849 
3538.000000	98.553415 
3537.000000	98.552041 
3536.000000	98.550613 
3535.000000	98.549631 
3534.000000	98.548789 
3533.000000	98.547575 
3532.000000	98.546024 
3531.000000	98.544684 
3530.000000	98.543984 
3529.000000	98.543724 
3528.000000	98.543241 
3527.000000	98.542025 
3526.000000	98.540054 
3525.000000	98.537619 
3524.000000	98.535106 
3523.000000	98.532937 
3522.000000	98.531485 
3521.000000	98.530870 
3520.000000	98.530806 
3519.000000	98.530807 
3518.000000	98.530531 
3517.000000	98.529912 
3516.000000	98.528982 
3515.000000	98.527726 
3514.000000	98.526149 
3513.000000	98.524335 
3512.000000	98.522393 
3511.000000	98.520408 
3510.000000	98.518476 
3509.000000	98.516697 
3508.000000	98.515156 
3507.000000	98.513924 
3506.000000	98.512997 
3505.000000	98.512169 
3504.000000	98.511076 
3503.000000	98.509555 
3502.000000	98.507923 
3501.000000	98.506740 
3500.000000	98.506196 
3499.000000	98.505798 
3498.000000	98.504744 
3497.000000	98.502635 
3496.000000	98.499718 
3495.000000	98.496636 
3494.000000	98.493927 
3493.000000	98.491814 
3492.000000	98.490335 
3491.000000	98.489429 
3490.000000	98.488935 
3489.000000	98.488638 
3488.000000	98.488302 
3487.000000	98.487647 
3486.000000	98.486376 
3485.000000	98.484368 
3484.000000	98.481852 
3483.000000	98.479260 
3482.000000	98.476852 
3481.000000	98.474570 
3480.000000	98.472311 
3479.000000	98.470146 
3478.000000	98.468159 
3477.000000	98.466263 
3476.000000	98.464397 
3475.000000	98.462860 
3474.000000	98.462071 
3473.000000	98.461864 
3472.000000	98.461270 
3471.000000	98.459393 
3470.000000	98.456417 
3469.000000	98.453483 
3468.000000	98.451425 
3467.000000	98.449857 
3466.000000	98.447805 
3465.000000	98.444979 
3464.000000	98.442085 
3463.000000	98.439923 
3462.000000	98.438440 
3461.000000	98.436843 
3460.000000	98.434519 
3459.000000	98.431638 
3458.000000	98.428853 
3457.000000	98.426518 
3456.000000	98.424321 
3455.000000	98.421722 
3454.000000	98.418647 
3453.000000	98.415558 
3452.000000	98.412819 
3451.000000	98.410200 
3450.000000	98.407136 
3449.000000	98.403407 
3448.000000	98.399385 
3447.000000	98.395623 
3446.000000	98.392362 
3445.000000	98.389566 
3444.000000	98.387244 
3443.000000	98.385382 
3442.000000	98.383613 
3441.000000	98.381280 
3440.000000	98.377992 
3439.000000	98.373976 
3438.000000	98.369738 
3437.000000	98.365492 
3436.000000	98.361179 
3435.000000	98.357080 
3434.000000	98.354004 
3433.000000	98.352549 
3432.000000	98.352308 
3431.000000	98.352033 
3430.000000	98.350817 
3429.000000	98.348952 
3428.000000	98.347466 
3427.000000	98.346868 
3426.000000	98.346475 
3425.000000	98.344976 
3424.000000	98.341650 
3423.000000	98.337044 
3422.000000	98.332608 
3421.000000	98.329653 
3420.000000	98.328543 
3419.000000	98.328687 
3418.000000	98.329056 
3417.000000	98.328730 
3416.000000	98.327267 
3415.000000	98.324829 
3414.000000	98.322026 
3413.000000	98.319518 
3412.000000	98.317683 
3411.000000	98.316621 
3410.000000	98.316237 
3409.000000	98.316147 
3408.000000	98.315613 
3407.000000	98.313949 
3406.000000	98.311188 
3405.000000	98.308273 
3404.000000	98.306360 
3403.000000	98.305904 
3402.000000	98.306434 
3401.000000	98.307162 
3400.000000	98.307717 
3399.000000	98.308259 
3398.000000	98.308986 
3397.000000	98.309702 
3396.000000	98.309908 
3395.000000	98.309249 
3394.000000	98.307788 
3393.000000	98.305927 
3392.000000	98.304192 
3391.000000	98.303076 
3390.000000	98.302907 
3389.000000	98.303705 
3388.000000	98.305174 
3387.000000	98.306937 
3386.000000	98.308806 
3385.000000	98.310718 
3384.000000	98.312414 
3383.000000	98.313352 
3382.000000	98.313082 
3381.000000	98.311734 
3380.000000	98.310110 
3379.000000	98.309232 
3378.000000	98.309597 
3377.000000	98.310857 
3376.000000	98.312120 
3375.000000	98.312696 
3374.000000	98.312635 
3373.000000	98.312553 
3372.000000	98.313010 
3371.000000	98.314061 
3370.000000	98.315358 
3369.000000	98.316538 
3368.000000	98.317502 
3367.000000	98.318394 
3366.000000	98.319383 
3365.000000	98.320476 
3364.000000	98.321535 
3363.000000	98.322450 
3362.000000	98.323280 
3361.000000	98.324159 
3360.000000	98.325133 
3359.000000	98.326123 
3358.000000	98.327059 
3357.000000	98.327989 
3356.000000	98.329018 
3355.000000	98.330159 
3354.000000	98.331302 
3353.000000	98.332333 
3352.000000	98.333267 
3351.000000	98.334219 
3350.000000	98.335296 
3349.000000	98.336500 
3348.000000	98.337768 
3347.000000	98.339030 
3346.000000	98.340243 
3345.000000	98.341403 
3344.000000	98.342530 
3343.000000	98.343665 
3342.000000	98.344844 
3341.000000	98.346050 
3340.000000	98.347230 
3339.000000	98.348362 
3338.000000	98.349520 
3337.000000	98.350814 
3336.000000	98.352266 
3335.000000	98.353786 
3334.000000	98.355254 
3333.000000	98.356651 
3332.000000	98.358033 
3331.000000	98.359448 
3330.000000	98.360874 
3329.000000	98.362253 
3328.000000	98.363562 
3327.000000	98.364830 
3326.000000	98.366101 
3325.000000	98.367393 
3324.000000	98.368692 
3323.000000	98.369994 
3322.000000	98.371321 
3321.000000	98.372699 
3320.000000	98.374131 
3319.000000	98.375587 
3318.000000	98.377042 
3317.000000	98.378486 
3316.000000	98.379920 
3315.000000	98.381339 
3314.000000	98.382747 
3313.000000	98.384150 
3312.000000	98.385559 
3311.000000	98.386977 
3310.000000	98.388397 
3309.000000	98.389808 
3308.000000	98.391204 
3307.000000	98.392588 
3306.000000	98.393965 
3305.000000	98.395341 
3304.000000	98.396722 
3303.000000	98.398111 
3302.000000	98.399506 
3301.000000	98.400903 
3300.000000	98.402296 
3299.000000	98.403685 
3298.000000	98.405074 
3297.000000	98.406472 
3296.000000	98.407880 
3295.000000	98.409296 
3294.000000	98.410710 
3293.000000	98.412117 
3292.000000	98.413516 
3291.000000	98.414913 
3290.000000	98.416312 
3289.000000	98.417713 
3288.000000	98.419109 
3287.000000	98.420502 
3286.000000	98.421907 
3285.000000	98.423328 
3284.000000	98.424754 
3283.000000	98.426163 
3282.000000	98.427559 
3281.000000	98.428985 
3280.000000	98.430499 
3279.000000	98.432124 
3278.000000	98.433804 
3277.000000	98.435430 
3276.000000	98.436912 
3275.000000	98.438222 
3274.000000	98.439426 
3273.000000	98.440635 
3272.000000	98.441966 
3271.000000	98.443495 
3270.000000	98.445234 
3269.000000	98.447108 
3268.000000	98.448967 
3267.000000	98.450684 
3266.000000	98.452223 
3265.000000	98.453664 
3264.000000	98.455180 
3263.000000	98.456975 
3262.000000	98.459182 
3261.000000	98.461732 
3260.000000	98.464315 
3259.000000	98.466564 
3258.000000	98.468297 
3257.000000	98.469631 
3256.000000	98.470869 
3255.000000	98.472212 
3254.000000	98.473635 
3253.000000	98.475047 
3252.000000	98.476498 
3251.000000	98.478184 
3250.000000	98.480230 
3249.000000	98.482545 
3248.000000	98.484913 
3247.000000	98.487154 
3246.000000	98.489164 
3245.000000	98.490919 
3244.000000	98.492520 
3243.000000	98.494174 
3242.000000	98.495997 
3241.000000	98.497885 
3240.000000	98.499705 
3239.000000	98.501602 
3238.000000	98.503970 
3237.000000	98.507047 
3236.000000	98.510625 
3235.000000	98.514138 
3234.000000	98.517025 
3233.000000	98.519049 
3232.000000	98.520413 
3231.000000	98.521661 
3230.000000	98.523335 
3229.000000	98.525590 
3228.000000	98.528100 
3227.000000	98.530336 
3226.000000	98.531976 
3225.000000	98.533079 
3224.000000	98.534006 
3223.000000	98.535221 
3222.000000	98.537053 
3221.000000	98.539540 
3220.000000	98.542398 
3219.000000	98.545172 
3218.000000	98.547557 
3217.000000	98.549601 
3216.000000	98.551652 
3215.000000	98.554077 
3214.000000	98.556960 
3213.000000	98.560005 
3212.000000	98.562735 
3211.000000	98.564832 
3210.000000	98.566313 
3209.000000	98.567479 
3208.000000	98.568746 
3207.000000	98.570434 
3206.000000	98.572606 
3205.000000	98.575036 
3204.000000	98.577370 
3203.000000	98.579453 
3202.000000	98.581445 
3201.000000	98.583612 
3200.000000	98.586040 
3199.000000	98.588626 
3198.000000	98.591262 
3197.000000	98.593928 
3196.000000	98.596621 
3195.000000	98.599284 
3194.000000	98.601831 
3193.000000	98.604188 
3192.000000	98.606281 
3191.000000	98.608064 
3190.000000	98.609602 
3189.000000	98.611091 
3188.000000	98.612762 
3187.000000	98.614756 
3186.000000	98.617040 
3185.000000	98.619368 
3184.000000	98.621393 
3183.000000	98.622930 
3182.000000	98.624229 
3181.000000	98.625900 
3180.000000	98.628446 
3179.000000	98.631820 
3178.000000	98.635373 
3177.000000	98.638319 
3176.000000	98.640300 
3175.000000	98.641605 
3174.000000	98.642967 
3173.000000	98.644961 
3172.000000	98.647473 
3171.000000	98.649781 
3170.000000	98.651308 
3169.000000	98.652331 
3168.000000	98.653820 
3167.000000	98.656416 
3166.000000	98.659695 
3165.000000	98.662610 
3164.000000	98.664617 
3163.000000	98.666101 
3162.000000	98.667713 
3161.000000	98.669580 
3160.000000	98.671357 
3159.000000	98.672763 
3158.000000	98.673743 
3157.000000	98.674267 
3156.000000	98.674354 
3155.000000	98.674291 
3154.000000	98.674476 
3153.000000	98.674952 
3152.000000	98.675399 
3151.000000	98.675769 
3150.000000	98.676607 
3149.000000	98.678461 
3148.000000	98.681194 
3147.000000	98.684168 
3146.000000	98.687018 
3145.000000	98.689919 
3144.000000	98.693051 
3143.000000	98.696145 
3142.000000	98.698718 
3141.000000	98.700620 
3140.000000	98.702189 
3139.000000	98.703857 
3138.000000	98.705680 
3137.000000	98.707317 
3136.000000	98.708526 
3135.000000	98.709605 
3134.000000	98.711159 
3133.000000	98.713389 
3132.000000	98.715784 
3131.000000	98.717697 
3130.000000	98.719115 
3129.000000	98.720666 
3128.000000	98.722948 
3127.000000	98.726008 
3126.000000	98.729381 
3125.000000	98.732347 
3124.000000	98.734219 
3123.000000	98.734709 
3122.000000	98.734244 
3121.000000	98.733869 
3120.000000	98.734415 
3119.000000	98.735833 
3118.000000	98.737475 
3117.000000	98.738880 
3116.000000	98.740188 
3115.000000	98.741802 
3114.000000	98.743843 
3113.000000	98.746038 
3112.000000	98.748003 
3111.000000	98.749549 
3110.000000	98.750752 
3109.000000	98.751851 
3108.000000	98.753108 
3107.000000	98.754650 
3106.000000	98.756384 
3105.000000	98.758086 
3104.000000	98.759618 
3103.000000	98.761085 
3102.000000	98.762742 
3101.000000	98.764718 
3100.000000	98.766859 
3099.000000	98.768918 
3098.000000	98.770887 
3097.000000	98.772982 
3096.000000	98.775252 
3095.000000	98.777335 
3094.000000	98.778729 
3093.000000	98.779286 
3092.000000	98.779358 
3091.000000	98.779548 
3090.000000	98.780296 
3089.000000	98.781698 
3088.000000	98.783569 
3087.000000	98.785547 
3086.000000	98.787258 
3085.000000	98.788507 
3084.000000	98.789299 
3083.000000	98.789693 
3082.000000	98.789728 
3081.000000	98.789632 
3080.000000	98.789973 
3079.000000	98.791360 
3078.000000	98.793937 
3077.000000	98.797241 
3076.000000	98.800572 
3075.000000	98.803380 
3074.000000	98.805272 
3073.000000	98.806000 
3072.000000	98.805698 
3071.000000	98.804930 
3070.000000	98.804211 
3069.000000	98.803518 
3068.000000	98.802560 
3067.000000	98.801587 
3066.000000	98.801706 
3065.000000	98.804102 
3064.000000	98.808782 
3063.000000	98.814035 
3062.000000	98.817375 
3061.000000	98.817344 
3060.000000	98.814550 
3059.000000	98.811153 
3058.000000	98.809298 
3057.000000	98.809940 
3056.000000	98.812754 
3055.000000	98.816511 
3054.000000	98.819517 
3053.000000	98.820316 
3052.000000	98.818573 
3051.000000	98.815368 
3050.000000	98.812533 
3049.000000	98.811638 
3048.000000	98.813309 
3047.000000	98.816810 
3046.000000	98.819982 
3045.000000	98.820329 
3044.000000	98.817093 
3043.000000	98.812312 
3042.000000	98.809223 
3041.000000	98.809333 
3040.000000	98.811341 
3039.000000	98.812851 
3038.000000	98.812462 
3037.000000	98.810087 
3036.000000	98.806077 
3035.000000	98.800783 
3034.000000	98.794790 
3033.000000	98.788911 
3032.000000	98.783726 
3031.000000	98.779317 
3030.000000	98.775511 
3029.000000	98.772302 
3028.000000	98.769981 
3027.000000	98.768849 
3026.000000	98.768640 
3025.000000	98.768113 
3024.000000	98.765471 
3023.000000	98.759603 
3022.000000	98.751048 
3021.000000	98.741496 
3020.000000	98.732116 
3019.000000	98.722651 
3018.000000	98.712421 
3017.000000	98.701819 
3016.000000	98.692181 
3015.000000	98.684183 
3014.000000	98.677135 
3013.000000	98.670242 
3012.000000	98.664018 
3011.000000	98.659678 
3010.000000	98.657256 
3009.000000	98.655077 
3008.000000	98.651252 
3007.000000	98.645190 
3006.000000	98.637461 
3005.000000	98.628756 
3004.000000	98.619429 
3003.000000	98.609773 
3002.000000	98.600234 
3001.000000	98.591273 
3000.000000	98.583143 
2999.000000	98.575801 
2998.000000	98.569055 
2997.000000	98.562956 
2996.000000	98.557875 
2995.000000	98.553614 
2994.000000	98.548300 
2993.000000	98.538991 
2992.000000	98.524299 
2991.000000	98.506405 
2990.000000	98.489972 
2989.000000	98.478980 
2988.000000	98.474829 
2987.000000	98.476851 
2986.000000	98.483370 
2985.000000	98.491914 
2984.000000	98.499356 
2983.000000	98.503204 
2982.000000	98.503234 
2981.000000	98.501570 
2980.000000	98.500815 
2979.000000	98.501967 
2978.000000	98.504047 
2977.000000	98.505421 
2976.000000	98.505178 
2975.000000	98.503363 
2974.000000	98.500503 
2973.000000	98.497478 
2972.000000	98.495622 
2971.000000	98.496169 
2970.000000	98.499288 
2969.000000	98.504051 
2968.000000	98.509660 
2967.000000	98.516388 
2966.000000	98.524894 
2965.000000	98.534835 
2964.000000	98.544599 
2963.000000	98.552435 
2962.000000	98.557647 
2961.000000	98.560873 
2960.000000	98.563555 
2959.000000	98.567065 
2958.000000	98.571874 
2957.000000	98.577334 
2956.000000	98.582395 
2955.000000	98.586683 
2954.000000	98.590948 
2953.000000	98.596430 
2952.000000	98.603705 
2951.000000	98.611967 
2950.000000	98.619470 
2949.000000	98.624900 
2948.000000	98.628292 
2947.000000	98.630484 
2946.000000	98.632012 
2945.000000	98.633098 
2944.000000	98.634465 
2943.000000	98.637158 
2942.000000	98.641054 
2941.000000	98.644301 
2940.000000	98.645018 
2939.000000	98.643427 
2938.000000	98.641876 
2937.000000	98.642822 
2936.000000	98.647117 
2935.000000	98.653795 
2934.000000	98.660760 
2933.000000	98.665829 
2932.000000	98.667871 
2931.000000	98.667223 
2930.000000	98.665011 
2929.000000	98.662273 
2928.000000	98.659809 
2927.000000	98.658170 
2926.000000	98.657128 
2925.000000	98.655611 
2924.000000	98.652990 
2923.000000	98.650194 
2922.000000	98.648653 
2921.000000	98.648238 
2920.000000	98.647179 
2919.000000	98.644216 
2918.000000	98.640071 
2917.000000	98.636477 
2916.000000	98.634331 
2915.000000	98.633149 
2914.000000	98.631862 
2913.000000	98.629808 
2912.000000	98.627184 
2911.000000	98.624834 
2910.000000	98.623425 
2909.000000	98.622775 
2908.000000	98.622198 
2907.000000	98.621423 
2906.000000	98.620641 
2905.000000	98.619498 
2904.000000	98.616714 
2903.000000	98.611505 
2902.000000	98.605401 
2901.000000	98.602266 
2900.000000	98.605776 
2899.000000	98.616334 
2898.000000	98.630177 
2897.000000	98.641448 
2896.000000	98.646503 
2895.000000	98.646405 
2894.000000	98.645367 
2893.000000	98.646906 
2892.000000	98.651563 
2891.000000	98.657713 
2890.000000	98.663498 
2889.000000	98.667762 
2888.000000	98.670097 
2887.000000	98.670966 
2886.000000	98.671671 
2885.000000	98.673528 
2884.000000	98.677024 
2883.000000	98.682001 
2882.000000	98.688420 
2881.000000	98.696314 
2880.000000	98.704956 
2879.000000	98.712754 
2878.000000	98.718484 
2877.000000	98.722494 
2876.000000	98.726377 
2875.000000	98.731463 
2874.000000	98.737810 
2873.000000	98.744506 
2872.000000	98.750562 
2871.000000	98.755410 
2870.000000	98.759027 
2869.000000	98.762159 
2868.000000	98.766343 
2867.000000	98.772959 
2866.000000	98.781740 
2865.000000	98.790549 
2864.000000	98.797217 
2863.000000	98.801590 
2862.000000	98.805309 
2861.000000	98.809770 
2860.000000	98.814934 
2859.000000	98.820287 
2858.000000	98.826004 
2857.000000	98.832423 
2856.000000	98.838883 
2855.000000	98.844084 
2854.000000	98.847666 
2853.000000	98.850840 
2852.000000	98.855056 
2851.000000	98.860463 
2850.000000	98.866191 
2849.000000	98.871736 
2848.000000	98.877437 
2847.000000	98.883618 
2846.000000	98.889756 
2845.000000	98.894753 
2844.000000	98.897856 
2843.000000	98.899203 
2842.000000	98.899748 
2841.000000	98.900888 
2840.000000	98.903821 
2839.000000	98.908732 
2838.000000	98.914478 
2837.000000	98.919386 
2836.000000	98.922588 
2835.000000	98.924494 
2834.000000	98.926008 
2833.000000	98.927599 
2832.000000	98.929281 
2831.000000	98.931092 
2830.000000	98.933062 
2829.000000	98.934923 
2828.000000	98.936374 
2827.000000	98.937691 
2826.000000	98.939652 
2825.000000	98.942619 
2824.000000	98.945979 
2823.000000	98.948717 
2822.000000	98.950397 
2821.000000	98.951408 
2820.000000	98.952382 
2819.000000	98.953526 
2818.000000	98.954546 
2817.000000	98.955112 
2816.000000	98.955298 
2815.000000	98.955523 
2814.000000	98.956037 
2813.000000	98.956586 
2812.000000	98.956765 
2811.000000	98.956707 
2810.000000	98.957218 
2809.000000	98.959026 
2808.000000	98.961943 
2807.000000	98.964822 
2806.000000	98.966423 
2805.000000	98.966352 
2804.000000	98.965300 
2803.000000	98.964505 
2802.000000	98.964889 
2801.000000	98.966511 
2800.000000	98.968680 
2799.000000	98.970548 
2798.000000	98.971705 
2797.000000	98.972276 
2796.000000	98.972584 
2795.000000	98.972845 
2794.000000	98.973198 
2793.000000	98.973849 
2792.000000	98.974927 
2791.000000	98.976230 
2790.000000	98.977318 
2789.000000	98.977985 
2788.000000	98.978509 
2787.000000	98.979319 
2786.000000	98.980463 
2785.000000	98.981556 
2784.000000	98.982189 
2783.000000	98.982286 
2782.000000	98.982072 
2781.000000	98.981911 
2780.000000	98.982165 
2779.000000	98.983051 
2778.000000	98.984468 
2777.000000	98.986004 
2776.000000	98.987276 
2775.000000	98.988270 
2774.000000	98.989251 
2773.000000	98.990427 
2772.000000	98.991780 
2771.000000	98.993168 
2770.000000	98.994424 
2769.000000	98.995362 
2768.000000	98.995867 
2767.000000	98.996082 
2766.000000	98.996362 
2765.000000	98.996904 
2764.000000	98.997463 
2763.000000	98.997551 
2762.000000	98.996947 
2761.000000	98.995982 
2760.000000	98.995325 
2759.000000	98.995460 
2758.000000	98.996401 
2757.000000	98.997852 
2756.000000	98.999486 
2755.000000	99.001007 
2754.000000	99.002055 
2753.000000	99.002327 
2752.000000	99.001909 
2751.000000	99.001383 
2750.000000	99.001391 
2749.000000	99.002060 
2748.000000	99.002955 
2747.000000	99.003537 
2746.000000	99.003642 
2745.000000	99.003518 
2744.000000	99.003503 
2743.000000	99.003717 
2742.000000	99.004081 
2741.000000	99.004555 
2740.000000	99.005236 
2739.000000	99.006180 
2738.000000	99.007246 
2737.000000	99.008253 
2736.000000	99.009246 
2735.000000	99.010390 
2734.000000	99.011562 
2733.000000	99.012299 
2732.000000	99.012292 
2731.000000	99.011747 
2730.000000	99.011150 
2729.000000	99.010785 
2728.000000	99.010664 
2727.000000	99.010798 
2726.000000	99.011260 
2725.000000	99.012018 
2724.000000	99.012944 
2723.000000	99.014018 
2722.000000	99.015318 
2721.000000	99.016751 
2720.000000	99.017949 
2719.000000	99.018561 
2718.000000	99.018563 
2717.000000	99.018252 
2716.000000	99.018004 
2715.000000	99.018082 
2714.000000	99.018584 
2713.000000	99.019450 
2712.000000	99.020507 
2711.000000	99.021571 
2710.000000	99.022563 
2709.000000	99.023553 
2708.000000	99.024611 
2707.000000	99.025557 
2706.000000	99.025975 
2705.000000	99.025640 
2704.000000	99.024929 
2703.000000	99.024625 
2702.000000	99.025156 
2701.000000	99.026225 
2700.000000	99.027256 
2699.000000	99.028050 
2698.000000	99.028838 
2697.000000	99.029757 
2696.000000	99.030563 
2695.000000	99.030906 
2694.000000	99.030699 
2693.000000	99.030180 
2692.000000	99.029725 
2691.000000	99.029555 
2690.000000	99.029532 
2689.000000	99.029293 
2688.000000	99.028715 
2687.000000	99.028175 
2686.000000	99.028175 
2685.000000	99.028757 
2684.000000	99.029468 
2683.000000	99.029858 
2682.000000	99.029815 
2681.000000	99.029409 
2680.000000	99.028707 
2679.000000	99.027831 
2678.000000	99.027035 
2677.000000	99.026627 
2676.000000	99.026830 
2675.000000	99.027680 
2674.000000	99.028897 
2673.000000	99.029854 
2672.000000	99.029954 
2671.000000	99.029105 
2670.000000	99.027756 
2669.000000	99.026509 
2668.000000	99.025682 
2667.000000	99.025277 
2666.000000	99.025151 
2665.000000	99.025079 
2664.000000	99.024794 
2663.000000	99.024125 
2662.000000	99.023117 
2661.000000	99.022044 
2660.000000	99.021247 
2659.000000	99.020884 
2658.000000	99.020762 
2657.000000	99.020499 
2656.000000	99.019934 
2655.000000	99.019287 
2654.000000	99.018847 
2653.000000	99.018643 
2652.000000	99.018585 
2651.000000	99.018761 
2650.000000	99.019287 
2649.000000	99.019948 
2648.000000	99.020285 
2647.000000	99.020144 
2646.000000	99.019890 
2645.000000	99.019983 
2644.000000	99.020461 
2643.000000	99.020960 
2642.000000	99.021121 
2641.000000	99.020897 
2640.000000	99.020522 
2639.000000	99.020343 
2638.000000	99.020572 
2637.000000	99.021158 
2636.000000	99.021849 
2635.000000	99.022401 
2634.000000	99.022752 
2633.000000	99.022983 
2632.000000	99.023216 
2631.000000	99.023577 
2630.000000	99.024142 
2629.000000	99.024865 
2628.000000	99.025572 
2627.000000	99.026104 
2626.000000	99.026461 
2625.000000	99.026789 
2624.000000	99.027214 
2623.000000	99.027721 
2622.000000	99.028224 
2621.000000	99.028709 
2620.000000	99.029247 
2619.000000	99.029885 
2618.000000	99.030570 
2617.000000	99.031194 
2616.000000	99.031705 
2615.000000	99.032160 
2614.000000	99.032691 
2613.000000	99.033406 
2612.000000	99.034307 
2611.000000	99.035281 
2610.000000	99.036142 
2609.000000	99.036730 
2608.000000	99.036984 
2607.000000	99.036989 
2606.000000	99.036985 
2605.000000	99.037240 
2604.000000	99.037871 
2603.000000	99.038759 
2602.000000	99.039640 
2601.000000	99.040337 
2600.000000	99.040917 
2599.000000	99.041543 
2598.000000	99.042139 
2597.000000	99.042367 
2596.000000	99.042054 
2595.000000	99.041506 
2594.000000	99.041293 
2593.000000	99.041710 
2592.000000	99.042568 
2591.000000	99.043447 
2590.000000	99.044088 
2589.000000	99.044515 
2588.000000	99.044863 
2587.000000	99.045186 
2586.000000	99.045425 
2585.000000	99.045513 
2584.000000	99.045460 
2583.000000	99.045342 
2582.000000	99.045217 
2581.000000	99.045133 
2580.000000	99.045200 
2579.000000	99.045534 
2578.000000	99.046105 
2577.000000	99.046682 
2576.000000	99.047044 
2575.000000	99.047178 
2574.000000	99.047242 
2573.000000	99.047416 
2572.000000	99.047831 
2571.000000	99.048554 
2570.000000	99.049508 
2569.000000	99.050447 
2568.000000	99.051103 
2567.000000	99.051400 
2566.000000	99.051454 
2565.000000	99.051447 
2564.000000	99.051509 
2563.000000	99.051695 
2562.000000	99.052004 
2561.000000	99.052383 
2560.000000	99.052734 
2559.000000	99.052979 
2558.000000	99.053104 
2557.000000	99.053162 
2556.000000	99.053237 
2555.000000	99.053395 
2554.000000	99.053660 
2553.000000	99.054002 
2552.000000	99.054325 
2551.000000	99.054529 
2550.000000	99.054587 
2549.000000	99.054548 
2548.000000	99.054495 
2547.000000	99.054493 
2546.000000	99.054576 
2545.000000	99.054731 
2544.000000	99.054915 
2543.000000	99.055079 
2542.000000	99.055179 
2541.000000	99.055163 
2540.000000	99.055014 
2539.000000	99.054834 
2538.000000	99.054794 
2537.000000	99.054951 
2536.000000	99.055152 
2535.000000	99.055193 
2534.000000	99.055074 
2533.000000	99.054979 
2532.000000	99.054981 
2531.000000	99.054932 
2530.000000	99.054729 
2529.000000	99.054558 
2528.000000	99.054685 
2527.000000	99.055102 
2526.000000	99.055514 
2525.000000	99.055707 
2524.000000	99.055782 
2523.000000	99.056002 
2522.000000	99.056492 
2521.000000	99.057145 
2520.000000	99.057746 
2519.000000	99.058089 
2518.000000	99.057996 
2517.000000	99.057368 
2516.000000	99.056329 
2515.000000	99.055271 
2514.000000	99.054587 
2513.000000	99.054412 
2512.000000	99.054721 
2511.000000	99.055553 
2510.000000	99.056935 
2509.000000	99.058629 
2508.000000	99.060173 
2507.000000	99.061265 
2506.000000	99.061881 
2505.000000	99.061981 
2504.000000	99.061401 
2503.000000	99.060201 
2502.000000	99.058932 
2501.000000	99.058292 
2500.000000	99.058583 
2499.000000	99.059636 
2498.000000	99.061091 
2497.000000	99.062583 
2496.000000	99.063759 
2495.000000	99.064358 
2494.000000	99.064368 
2493.000000	99.064027 
2492.000000	99.063630 
2491.000000	99.063362 
2490.000000	99.063299 
2489.000000	99.063507 
2488.000000	99.064065 
2487.000000	99.064986 
2486.000000	99.066051 
2485.000000	99.066779 
2484.000000	99.066781 
2483.000000	99.066115 
2482.000000	99.065214 
2481.000000	99.064513 
2480.000000	99.064166 
2479.000000	99.064149 
2478.000000	99.064396 
2477.000000	99.064734 
2476.000000	99.064917 
2475.000000	99.064872 
2474.000000	99.064802 
2473.000000	99.064917 
2472.000000	99.065145 
2471.000000	99.065249 
2470.000000	99.065133 
2469.000000	99.064906 
2468.000000	99.064692 
2467.000000	99.064497 
2466.000000	99.064282 
2465.000000	99.064054 
2464.000000	99.063855 
2463.000000	99.063714 
2462.000000	99.063648 
2461.000000	99.063661 
2460.000000	99.063722 
2459.000000	99.063755 
2458.000000	99.063698 
2457.000000	99.063558 
2456.000000	99.063403 
2455.000000	99.063307 
2454.000000	99.063300 
2453.000000	99.063367 
2452.000000	99.063451 
2451.000000	99.063484 
2450.000000	99.063421 
2449.000000	99.063274 
2448.000000	99.063138 
2447.000000	99.063133 
2446.000000	99.063315 
2445.000000	99.063630 
2444.000000	99.063954 
2443.000000	99.064182 
2442.000000	99.064285 
2441.000000	99.064308 
2440.000000	99.064347 
2439.000000	99.064497 
2438.000000	99.064793 
2437.000000	99.065186 
2436.000000	99.065556 
2435.000000	99.065805 
2434.000000	99.065912 
2433.000000	99.065958 
2432.000000	99.066072 
2431.000000	99.066349 
2430.000000	99.066788 
2429.000000	99.067252 
2428.000000	99.067539 
2427.000000	99.067529 
2426.000000	99.067304 
2425.000000	99.067112 
2424.000000	99.067176 
2423.000000	99.067580 
2422.000000	99.068312 
2421.000000	99.069318 
2420.000000	99.070399 
2419.000000	99.071131 
2418.000000	99.071085 
2417.000000	99.070209 
2416.000000	99.068968 
2415.000000	99.068001 
2414.000000	99.067614 
2413.000000	99.067730 
2412.000000	99.068194 
2411.000000	99.068905 
2410.000000	99.069674 
2409.000000	99.070234 
2408.000000	99.070489 
2407.000000	99.070508 
2406.000000	99.070265 
2405.000000	99.069752 
2404.000000	99.069466 
2403.000000	99.070207 
2402.000000	99.071994 
2401.000000	99.073590 
2400.000000	99.073632 
2399.000000	99.072117 
2398.000000	99.070360 
2397.000000	99.069661 
2396.000000	99.070421 
2395.000000	99.072247 
2394.000000	99.074229 
2393.000000	99.075319 
2392.000000	99.075021 
2391.000000	99.073831 
2390.000000	99.072676 
2389.000000	99.072124 
2388.000000	99.072552 
2387.000000	99.074613 
2386.000000	99.078583 
2385.000000	99.083261 
2384.000000	99.086557 
2383.000000	99.087643 
2382.000000	99.087765 
2381.000000	99.088662 
2380.000000	99.090827 
2379.000000	99.093788 
2378.000000	99.097311 
2377.000000	99.101382 
2376.000000	99.105297 
2375.000000	99.107794 
2374.000000	99.108226 
2373.000000	99.106904 
2372.000000	99.104459 
2371.000000	99.101563 
2370.000000	99.099220 
2369.000000	99.098444 
2368.000000	99.099193 
2367.000000	99.100193 
2366.000000	99.100365 
2365.000000	99.100088 
2364.000000	99.100502 
2363.000000	99.101781 
2362.000000	99.102735 
2361.000000	99.102321 
2360.000000	99.100993 
2359.000000	99.099932 
2358.000000	99.099480 
2357.000000	99.099219 
2356.000000	99.099362 
2355.000000	99.100718 
2354.000000	99.103071 
2353.000000	99.104716 
2352.000000	99.104260 
2351.000000	99.102152 
2350.000000	99.099880 
2349.000000	99.098356 
2348.000000	99.097562 
2347.000000	99.097171 
2346.000000	99.096932 
2345.000000	99.096621 
2344.000000	99.096140 
2343.000000	99.095589 
2342.000000	99.094884 
2341.000000	99.093619 
2340.000000	99.091728 
2339.000000	99.090007 
2338.000000	99.089360 
2337.000000	99.089709 
2336.000000	99.090059 
2335.000000	99.089711 
2334.000000	99.088962 
2333.000000	99.088494 
2332.000000	99.088383 
2331.000000	99.088020 
2330.000000	99.086860 
2329.000000	99.084941 
2328.000000	99.082694 
2327.000000	99.080452 
2326.000000	99.078241 
2325.000000	99.075908 
2324.000000	99.073542 
2323.000000	99.071792 
2322.000000	99.071502 
2321.000000	99.072751 
2320.000000	99.074306 
2319.000000	99.074571 
2318.000000	99.073163 
2317.000000	99.071177 
2316.000000	99.069927 
2315.000000	99.069700 
2314.000000	99.069950 
2313.000000	99.070274 
2312.000000	99.070693 
2311.000000	99.071052 
2310.000000	99.070687 
2309.000000	99.068978 
2308.000000	99.066132 
2307.000000	99.063219 
2306.000000	99.061448 
2305.000000	99.061419 
2304.000000	99.063005 
2303.000000	99.065530 
2302.000000	99.067949 
2301.000000	99.069323 
2300.000000	99.069563 
2299.000000	99.069545 
2298.000000	99.070006 
2297.000000	99.070319 
2296.000000	99.069038 
2295.000000	99.065801 
2294.000000	99.062108 
2293.000000	99.059795 
2292.000000	99.059285 
2291.000000	99.059785 
2290.000000	99.060630 
2289.000000	99.061791 
2288.000000	99.063327 
2287.000000	99.065055 
2286.000000	99.066671 
2285.000000	99.067726 
2284.000000	99.067741 
2283.000000	99.066917 
2282.000000	99.066407 
2281.000000	99.067133 
2280.000000	99.068650 
2279.000000	99.070019 
2278.000000	99.071585 
2277.000000	99.074700 
2276.000000	99.079595 
2275.000000	99.084625 
2274.000000	99.088063 
2273.000000	99.089842 
2272.000000	99.091019 
2271.000000	99.092386 
2270.000000	99.094197 
2269.000000	99.096694 
2268.000000	99.100053 
2267.000000	99.103856 
2266.000000	99.107128 
2265.000000	99.109001 
2264.000000	99.109158 
2263.000000	99.107843 
2262.000000	99.105967 
2261.000000	99.105051 
2260.000000	99.106400 
2259.000000	99.110029 
2258.000000	99.114504 
2257.000000	99.118056 
2256.000000	99.120037 
2255.000000	99.121046 
2254.000000	99.121936 
2253.000000	99.123138 
2252.000000	99.124770 
2251.000000	99.126777 
2250.000000	99.128694 
2249.000000	99.129780 
2248.000000	99.129803 
2247.000000	99.129441 
2246.000000	99.129573 
2245.000000	99.130426 
2244.000000	99.131665 
2243.000000	99.133061 
2242.000000	99.134662 
2241.000000	99.136403 
2240.000000	99.138064 
2239.000000	99.139567 
2238.000000	99.140979 
2237.000000	99.142307 
2236.000000	99.143486 
2235.000000	99.144524 
2234.000000	99.145517 
2233.000000	99.146551 
2232.000000	99.147626 
2231.000000	99.148705 
2230.000000	99.149769 
2229.000000	99.150832 
2228.000000	99.151912 
2227.000000	99.153010 
2226.000000	99.154119 
2225.000000	99.155234 
2224.000000	99.156350 
2223.000000	99.157465 
2222.000000	99.158585 
2221.000000	99.159711 
2220.000000	99.160848 
2219.000000	99.162002 
2218.000000	99.163183 
2217.000000	99.164397 
2216.000000	99.165638 
2215.000000	99.166893 
2214.000000	99.168148 
2213.000000	99.169402 
2212.000000	99.170666 
2211.000000	99.171959 
2210.000000	99.173293 
2209.000000	99.174670 
2208.000000	99.176083 
2207.000000	99.177515 
2206.000000	99.178952 
2205.000000	99.180391 
2204.000000	99.181848 
2203.000000	99.183352 
2202.000000	99.184922 
2201.000000	99.186560 
2200.000000	99.188249 
2199.000000	99.189988 
2198.000000	99.191722 
2197.000000	99.193353 
2196.000000	99.194914 
2195.000000	99.196546 
2194.000000	99.198359 
2193.000000	99.200306 
2192.000000	99.202205 
2191.000000	99.203959 
2190.000000	99.205780 
2189.000000	99.208078 
2188.000000	99.211021 
2187.000000	99.214183 
2186.000000	99.216702 
2185.000000	99.218006 
2184.000000	99.218397 
2183.000000	99.218861 
2182.000000	99.220061 
2181.000000	99.221799 
2180.000000	99.223618 
2179.000000	99.225663 
2178.000000	99.228564 
2177.000000	99.232541 
2176.000000	99.236902 
2175.000000	99.240419 
2174.000000	99.242149 
2173.000000	99.242163 
2172.000000	99.241863 
2171.000000	99.243256 
2170.000000	99.247332 
2169.000000	99.253038 
2168.000000	99.257997 
2167.000000	99.260568 
2166.000000	99.260861 
2165.000000	99.260069 
2164.000000	99.259565 
2163.000000	99.260791 
2162.000000	99.265108 
2161.000000	99.272514 
2160.000000	99.280437 
2159.000000	99.285174 
2158.000000	99.285026 
2157.000000	99.281175 
2156.000000	99.275906 
2155.000000	99.270905 
2154.000000	99.267463 
2153.000000	99.266776 
2152.000000	99.268772 
2151.000000	99.271199 
2150.000000	99.271265 
2149.000000	99.268707 
2148.000000	99.266469 
2147.000000	99.267457 
2146.000000	99.270895 
2145.000000	99.272860 
2144.000000	99.270558 
2143.000000	99.264920 
2142.000000	99.258926 
2141.000000	99.254191 
2140.000000	99.250236 
2139.000000	99.246664 
2138.000000	99.244514 
2137.000000	99.244891 
2136.000000	99.246969 
2135.000000	99.248206 
2134.000000	99.246812 
2133.000000	99.243509 
2132.000000	99.240460 
2131.000000	99.238441 
2130.000000	99.235618 
2129.000000	99.229526 
2128.000000	99.220014 
2127.000000	99.209827 
2126.000000	99.202143 
2125.000000	99.198163 
2124.000000	99.197210 
2123.000000	99.198212 
2122.000000	99.200341 
2121.000000	99.202550 
2120.000000	99.203589 
2119.000000	99.202741 
2118.000000	99.200007 
2117.000000	99.195648 
2116.000000	99.190248 
2115.000000	99.185133 
2114.000000	99.181737 
2113.000000	99.180242 
2112.000000	99.179431 
2111.000000	99.178343 
2110.000000	99.177450 
2109.000000	99.177412 
2108.000000	99.177269 
2107.000000	99.174965 
2106.000000	99.169856 
2105.000000	99.164129 
2104.000000	99.161169 
2103.000000	99.162513 
2102.000000	99.166593 
2101.000000	99.170185 
2100.000000	99.171279 
2099.000000	99.170662 
2098.000000	99.170858 
2097.000000	99.173702 
2096.000000	99.178789 
2095.000000	99.184080 
2094.000000	99.187758 
2093.000000	99.189431 
2092.000000	99.189732 
2091.000000	99.189191 
2090.000000	99.187938 
2089.000000	99.186256 
2088.000000	99.184673 
2087.000000	99.183208 
2086.000000	99.181175 
2085.000000	99.178500 
2084.000000	99.176864 
2083.000000	99.178455 
2082.000000	99.183429 
2081.000000	99.189465 
2080.000000	99.194123 
2079.000000	99.197094 
2078.000000	99.199711 
2077.000000	99.203042 
2076.000000	99.206927 
2075.000000	99.210369 
2074.000000	99.212318 
2073.000000	99.212400 
2072.000000	99.211406 
2071.000000	99.210802 
2070.000000	99.211526 
2069.000000	99.213355 
2068.000000	99.215514 
2067.000000	99.217596 
2066.000000	99.219712 
2065.000000	99.222156 
2064.000000	99.225172 
2063.000000	99.228763 
2062.000000	99.232506 
2061.000000	99.235774 
2060.000000	99.238331 
2059.000000	99.240508 
2058.000000	99.242834 
2057.000000	99.245508 
2056.000000	99.248305 
2055.000000	99.250912 
2054.000000	99.253262 
2053.000000	99.255511 
2052.000000	99.257869 
2051.000000	99.260425 
2050.000000	99.263121 
2049.000000	99.265828 
2048.000000	99.268452 
2047.000000	99.270993 
2046.000000	99.273517 
2045.000000	99.276053 
2044.000000	99.278532 
2043.000000	99.280865 
2042.000000	99.283074 
2041.000000	99.285308 
2040.000000	99.287724 
2039.000000	99.290359 
2038.000000	99.293064 
2037.000000	99.295541 
2036.000000	99.297524 
2035.000000	99.298948 
2034.000000	99.299847 
2033.000000	99.300190 
2032.000000	99.300267 
2031.000000	99.301124 
2030.000000	99.303848 
2029.000000	99.308048 
2028.000000	99.311523 
2027.000000	99.312507 
2026.000000	99.311369 
2025.000000	99.309973 
2024.000000	99.309804 
2023.000000	99.311465 
2022.000000	99.314967 
2021.000000	99.319146 
2020.000000	99.321691 
2019.000000	99.321114 
2018.000000	99.318270 
2017.000000	99.315247 
2016.000000	99.313217 
2015.000000	99.312395 
2014.000000	99.312996 
2013.000000	99.314591 
2012.000000	99.315495 
2011.000000	99.314618 
2010.000000	99.313470 
2009.000000	99.314642 
2008.000000	99.318387 
2007.000000	99.322136 
2006.000000	99.323413 
2005.000000	99.321865 
2004.000000	99.318721 
2003.000000	99.315601 
2002.000000	99.313713 
2001.000000	99.312723 
2000.000000	99.310234 
1999.000000	99.303659 
1998.000000	99.292927 
1997.000000	99.280688 
1996.000000	99.269989 
1995.000000	99.262872 
1994.000000	99.261057 
1993.000000	99.265656 
1992.000000	99.274895 
1991.000000	99.283592 
1990.000000	99.286897 
1989.000000	99.284227 
1988.000000	99.279357 
1987.000000	99.277400 
1986.000000	99.281184 
1985.000000	99.289472 
1984.000000	99.297708 
1983.000000	99.301260 
1982.000000	99.298728 
1981.000000	99.292737 
1980.000000	99.288135 
1979.000000	99.288754 
1978.000000	99.294625 
1977.000000	99.301311 
1976.000000	99.303306 
1975.000000	99.299424 
1974.000000	99.294150 
1973.000000	99.293103 
1972.000000	99.297380 
1971.000000	99.303225 
1970.000000	99.306920 
1969.000000	99.308853 
1968.000000	99.312335 
1967.000000	99.318893 
1966.000000	99.325666 
1965.000000	99.328112 
1964.000000	99.324593 
1963.000000	99.317588 
1962.000000	99.311171 
1961.000000	99.307609 
1960.000000	99.306198 
1959.000000	99.304731 
1958.000000	99.301427 
1957.000000	99.295815 
1956.000000	99.288716 
1955.000000	99.281462 
1954.000000	99.274590 
1953.000000	99.267369 
1952.000000	99.259197 
1951.000000	99.251434 
1950.000000	99.247039 
1949.000000	99.247876 
1948.000000	99.252654 
1947.000000	99.257504 
1946.000000	99.258564 
1945.000000	99.254279 
1944.000000	99.245992 
1943.000000	99.237286 
1942.000000	99.231781 
1941.000000	99.230392 
1940.000000	99.231165 
1939.000000	99.231661 
1938.000000	99.230896 
1937.000000	99.229327 
1936.000000	99.227771 
1935.000000	99.226455 
1934.000000	99.224770 
1933.000000	99.221951 
1932.000000	99.218308 
1931.000000	99.215475 
1930.000000	99.214803 
1929.000000	99.215530 
1928.000000	99.215241 
1927.000000	99.212421 
1926.000000	99.207742 
1925.000000	99.202861 
1924.000000	99.198857 
1923.000000	99.195999 
1922.000000	99.194303 
1921.000000	99.193564 
1920.000000	99.193155 
1919.000000	99.192278 
1918.000000	99.190537 
1917.000000	99.188243 
1916.000000	99.186039 
1915.000000	99.184350 
1914.000000	99.183239 
1913.000000	99.182441 
1912.000000	99.181439 
1911.000000	99.179777 
1910.000000	99.177432 
1909.000000	99.174856 
1908.000000	99.172548 
1907.000000	99.170747 
1906.000000	99.169492 
1905.000000	99.168577 
1904.000000	99.167313 
1903.000000	99.164701 
1902.000000	99.160282 
1901.000000	99.154844 
1900.000000	99.150031 
1899.000000	99.147158 
1898.000000	99.146364 
1897.000000	99.146561 
1896.000000	99.146306 
1895.000000	99.145096 
1894.000000	99.143768 
1893.000000	99.143345 
1892.000000	99.143720 
1891.000000	99.143840 
1890.000000	99.143021 
1889.000000	99.141674 
1888.000000	99.140599 
1887.000000	99.140101 
1886.000000	99.140034 
1885.000000	99.140115 
1884.000000	99.139981 
1883.000000	99.139349 
1882.000000	99.138293 
1881.000000	99.137096 
1880.000000	99.135734 
1879.000000	99.133800 
1878.000000	99.130928 
1877.000000	99.127237 
1876.000000	99.123633 
1875.000000	99.121760 
1874.000000	99.123070 
1873.000000	99.127340 
1872.000000	99.132100 
1871.000000	99.134318 
1870.000000	99.132883 
1869.000000	99.129343 
1868.000000	99.125908 
1867.000000	99.123083 
1866.000000	99.120388 
1865.000000	99.117964 
1864.000000	99.116612 
1863.000000	99.117196 
1862.000000	99.120234 
1861.000000	99.125380 
1860.000000	99.131019 
1859.000000	99.135275 
1858.000000	99.137845 
1857.000000	99.139983 
1856.000000	99.142625 
1855.000000	99.145358 
1854.000000	99.147294 
1853.000000	99.148104 
1852.000000	99.147908 
1851.000000	99.146891 
1850.000000	99.145530 
1849.000000	99.144661 
1848.000000	99.144766 
1847.000000	99.145611 
1846.000000	99.146857 
1845.000000	99.148366 
1844.000000	99.149622 
1843.000000	99.149964 
1842.000000	99.149871 
1841.000000	99.150752 
1840.000000	99.153360 
1839.000000	99.156962 
1838.000000	99.159888 
1837.000000	99.161045 
1836.000000	99.160685 
1835.000000	99.159822 
1834.000000	99.159356 
1833.000000	99.159681 
1832.000000	99.160685 
1831.000000	99.161760 
1830.000000	99.162129 
1829.000000	99.161614 
1828.000000	99.160851 
1827.000000	99.160453 
1826.000000	99.160481 
1825.000000	99.160959 
1824.000000	99.162067 
1823.000000	99.163654 
1822.000000	99.165060 
1821.000000	99.165558 
1820.000000	99.164957 
1819.000000	99.163775 
1818.000000	99.162892 
1817.000000	99.162830 
1816.000000	99.163345 
1815.000000	99.163763 
1814.000000	99.163820 
1813.000000	99.163979 
1812.000000	99.164868 
1811.000000	99.166487 
1810.000000	99.168199 
1809.000000	99.169575 
1808.000000	99.170595 
1807.000000	99.171051 
1806.000000	99.170515 
1805.000000	99.169001 
1804.000000	99.167173 
1803.000000	99.165718 
1802.000000	99.164923 
1801.000000	99.164935 
1800.000000	99.165760 
1799.000000	99.166928 
1798.000000	99.167765 
1797.000000	99.168104 
1796.000000	99.168373 
1795.000000	99.168956 
1794.000000	99.169715 
1793.000000	99.170255 
1792.000000	99.170724 
1791.000000	99.171630 
1790.000000	99.172915 
1789.000000	99.174118 
1788.000000	99.175115 
1787.000000	99.176176 
1786.000000	99.177398 
1785.000000	99.178275 
1784.000000	99.178221 
1783.000000	99.177509 
1782.000000	99.177179 
1781.000000	99.177800 
1780.000000	99.178699 
1779.000000	99.178813 
1778.000000	99.178187 
1777.000000	99.177914 
1776.000000	99.178848 
1775.000000	99.181039 
1774.000000	99.184080 
1773.000000	99.187184 
1772.000000	99.189219 
1771.000000	99.189752 
1770.000000	99.189452 
1769.000000	99.189146 
1768.000000	99.189213 
1767.000000	99.189512 
1766.000000	99.189663 
1765.000000	99.189579 
1764.000000	99.189588 
1763.000000	99.190283 
1762.000000	99.191990 
1761.000000	99.194135 
1760.000000	99.195731 
1759.000000	99.196365 
1758.000000	99.196290 
1757.000000	99.196071 
1756.000000	99.196072 
1755.000000	99.196220 
1754.000000	99.196241 
1753.000000	99.195948 
1752.000000	99.195726 
1751.000000	99.196686 
1750.000000	99.199260 
1749.000000	99.202153 
1748.000000	99.203710 
1747.000000	99.203365 
1746.000000	99.201596 
1745.000000	99.199169 
1744.000000	99.196847 
1743.000000	99.195351 
1742.000000	99.194882 
1741.000000	99.194931 
1740.000000	99.194742 
1739.000000	99.193880 
1738.000000	99.192284 
1737.000000	99.189788 
1736.000000	99.186138 
1735.000000	99.181643 
1734.000000	99.178284 
1733.000000	99.177976 
1732.000000	99.180121 
1731.000000	99.182839 
1730.000000	99.184370 
1729.000000	99.183691 
1728.000000	99.181162 
1727.000000	99.177973 
1726.000000	99.174824 
1725.000000	99.171514 
1724.000000	99.168046 
1723.000000	99.165349 
1722.000000	99.164332 
1721.000000	99.164823 
1720.000000	99.165759 
1719.000000	99.165816 
1718.000000	99.163891 
1717.000000	99.160150 
1716.000000	99.155874 
1715.000000	99.151497 
1714.000000	99.146743 
1713.000000	99.141928 
1712.000000	99.137712 
1711.000000	99.134254 
1710.000000	99.131089 
1709.000000	99.127822 
1708.000000	99.124610 
1707.000000	99.121950 
1706.000000	99.120089 
1705.000000	99.118378 
1704.000000	99.115140 
1703.000000	99.108873 
1702.000000	99.099319 
1701.000000	99.089011 
1700.000000	99.082809 
1699.000000	99.081052 
1698.000000	99.079444 
1697.000000	99.075735 
1696.000000	99.070606 
1695.000000	99.065625 
1694.000000	99.061368 
1693.000000	99.057016 
1692.000000	99.051597 
1691.000000	99.045016 
1690.000000	99.038253 
1689.000000	99.032136 
1688.000000	99.026245 
1687.000000	99.019549 
1686.000000	99.011606 
1685.000000	99.003067 
1684.000000	98.995870 
1683.000000	98.990805 
1682.000000	98.986446 
1681.000000	98.981180 
1680.000000	98.974389 
1679.000000	98.966889 
1678.000000	98.959940 
1677.000000	98.953769 
1676.000000	98.947576 
1675.000000	98.941199 
1674.000000	98.935744 
1673.000000	98.931827 
1672.000000	98.928623 
1671.000000	98.924749 
1670.000000	98.919352 
1669.000000	98.912761 
1668.000000	98.906239 
1667.000000	98.900660 
1666.000000	98.895313 
1665.000000	98.888604 
1664.000000	98.879958 
1663.000000	98.871181 
1662.000000	98.865266 
1661.000000	98.862973 
1660.000000	98.862205 
1659.000000	98.861114 
1658.000000	98.859562 
1657.000000	98.857690 
1656.000000	98.854117 
1655.000000	98.847059 
1654.000000	98.835830 
1653.000000	98.822399 
1652.000000	98.812882 
1651.000000	98.811123 
1650.000000	98.813021 
1649.000000	98.812609 
1648.000000	98.806986 
1647.000000	98.796860 
1646.000000	98.786840 
1645.000000	98.782041 
1644.000000	98.783702 
1643.000000	98.788959 
1642.000000	98.793802 
1641.000000	98.795916 
1640.000000	98.795881 
1639.000000	98.795940 
1638.000000	98.797371 
1637.000000	98.798897 
1636.000000	98.797396 
1635.000000	98.792933 
1634.000000	98.790712 
1633.000000	98.793142 
1632.000000	98.797746 
1631.000000	98.801833 
1630.000000	98.804366 
1629.000000	98.805598 
1628.000000	98.806342 
1627.000000	98.808013 
1626.000000	98.812213 
1625.000000	98.819647 
1624.000000	98.829256 
1623.000000	98.838686 
1622.000000	98.846628 
1621.000000	98.853724 
1620.000000	98.860364 
1619.000000	98.865950 
1618.000000	98.870223 
1617.000000	98.874078 
1616.000000	98.879016 
1615.000000	98.885797 
1614.000000	98.893307 
1613.000000	98.899565 
1612.000000	98.903698 
1611.000000	98.906410 
1610.000000	98.909379 
1609.000000	98.914025 
1608.000000	98.920515 
1607.000000	98.928015 
1606.000000	98.935658 
1605.000000	98.943225 
1604.000000	98.951046 
1603.000000	98.959467 
1602.000000	98.968019 
1601.000000	98.975493 
1600.000000	98.981508 
1599.000000	98.987353 
1598.000000	98.994574 
1597.000000	99.003230 
1596.000000	99.012133 
1595.000000	99.020242 
1594.000000	99.027156 
1593.000000	99.032633 
1592.000000	99.036719 
1591.000000	99.040313 
1590.000000	99.044765 
1589.000000	99.050570 
1588.000000	99.057044 
1587.000000	99.063315 
1586.000000	99.068685 
1585.000000	99.072323 
1584.000000	99.073652 
1583.000000	99.073423 
1582.000000	99.073960 
1581.000000	99.077114 
1580.000000	99.082562 
1579.000000	99.088676 
1578.000000	99.094075 
1577.000000	99.097515 
1576.000000	99.098454 
1575.000000	99.099492 
1574.000000	99.103569 
1573.000000	99.109432 
1572.000000	99.114484 
1571.000000	99.118579 
1570.000000	99.123554 
1569.000000	99.129369 
1568.000000	99.133263 
1567.000000	99.134062 
1566.000000	99.133352 
1565.000000	99.133285 
1564.000000	99.134545 
1563.000000	99.136280 
1562.000000	99.137485 
1561.000000	99.138179 
1560.000000	99.138381 
1559.000000	99.138434 
1558.000000	99.138166 
1557.000000	99.139109 
1556.000000	99.142323 
1555.000000	99.146238 
1554.000000	99.149346 
1553.000000	99.150780 
1552.000000	99.150921 
1551.000000	99.151299 
1550.000000	99.153252 
1549.000000	99.156074 
1548.000000	99.157751 
1547.000000	99.157627 
1546.000000	99.156836 
1545.000000	99.156944 
1544.000000	99.158126 
1543.000000	99.159119 
1542.000000	99.159288 
1541.000000	99.159564 
1540.000000	99.160678 
1539.000000	99.162062 
1538.000000	99.163513 
1537.000000	99.165084 
1536.000000	99.166448 
1535.000000	99.167568 
1534.000000	99.168860 
1533.000000	99.170462 
1532.000000	99.171860 
1531.000000	99.172713 
1530.000000	99.173234 
1529.000000	99.173767 
1528.000000	99.174482 
1527.000000	99.175364 
1526.000000	99.176322 
1525.000000	99.177251 
1524.000000	99.178084 
1523.000000	99.178925 
1522.000000	99.180177 
1521.000000	99.181980 
1520.000000	99.183588 
1519.000000	99.184354 
1518.000000	99.184501 
1517.000000	99.184703 
1516.000000	99.185323 
1515.000000	99.186079 
1514.000000	99.186707 
1513.000000	99.187218 
1512.000000	99.187649 
1511.000000	99.187888 
1510.000000	99.187816 
1509.000000	99.187825 
1508.000000	99.189338 
1507.000000	99.193351 
1506.000000	99.196786 
1505.000000	99.197239 
1504.000000	99.196392 
1503.000000	99.195634 
1502.000000	99.195329 
1501.000000	99.195736 
1500.000000	99.196594 
1499.000000	99.197198 
1498.000000	99.197191 
1497.000000	99.197544 
1496.000000	99.199357 
1495.000000	99.201583 
1494.000000	99.202049 
1493.000000	99.199923 
1492.000000	99.196067 
1491.000000	99.192507 
1490.000000	99.190918 
1489.000000	99.190825 
1488.000000	99.190377 
1487.000000	99.188677 
1486.000000	99.186538 
1485.000000	99.185285 
1484.000000	99.185317 
1483.000000	99.185944 
1482.000000	99.185988 
1481.000000	99.184587 
1480.000000	99.181758 
1479.000000	99.178115 
1478.000000	99.174305 
1477.000000	99.170870 
1476.000000	99.168094 
1475.000000	99.165604 
1474.000000	99.163111 
1473.000000	99.161348 
1472.000000	99.160633 
1471.000000	99.159663 
1470.000000	99.157353 
1469.000000	99.154069 
1468.000000	99.150857 
1467.000000	99.148537 
1466.000000	99.147189 
1465.000000	99.146148 
1464.000000	99.144476 
1463.000000	99.142030 
1462.000000	99.139310 
1461.000000	99.136547 
1460.000000	99.133328 
1459.000000	99.129046 
1458.000000	99.123366 
1457.000000	99.116931 
1456.000000	99.111248 
1455.000000	99.107375 
1454.000000	99.104946 
1453.000000	99.102507 
1452.000000	99.098715 
1451.000000	99.093449 
1450.000000	99.088098 
1449.000000	99.084610 
1448.000000	99.083846 
1447.000000	99.084450 
1446.000000	99.084543 
1445.000000	99.083744 
1444.000000	99.082159 
1443.000000	99.079414 
1442.000000	99.075331 
1441.000000	99.070601 
1440.000000	99.066238 
1439.000000	99.062768 
1438.000000	99.059833 
1437.000000	99.056993 
1436.000000	99.054071 
1435.000000	99.050810 
1434.000000	99.047487 
1433.000000	99.044976 
1432.000000	99.043993 
1431.000000	99.044736 
1430.000000	99.046220 
1429.000000	99.046691 
1428.000000	99.045262 
1427.000000	99.042378 
1426.000000	99.039393 
1425.000000	99.037690 
1424.000000	99.037710 
1423.000000	99.038131 
1422.000000	99.036526 
1421.000000	99.031638 
1420.000000	99.024926 
1419.000000	99.020136 
1418.000000	99.018318 
1417.000000	99.016779 
1416.000000	99.014091 
1415.000000	99.010443 
1414.000000	99.005691 
1413.000000	98.999458 
1412.000000	98.992407 
1411.000000	98.986481 
1410.000000	98.982885 
1409.000000	98.981439 
1408.000000	98.982007 
1407.000000	98.984797 
1406.000000	98.989776 
1405.000000	98.996785 
1404.000000	99.005523 
1403.000000	99.014722 
1402.000000	99.022478 
1401.000000	99.028376 
1400.000000	99.034298 
1399.000000	99.041769 
1398.000000	99.048163 
1397.000000	99.048706 
1396.000000	99.042525 
1395.000000	99.035439 
1394.000000	99.035634 
1393.000000	99.045660 
1392.000000	99.061728 
1391.000000	99.078433 
1390.000000	99.091951 
1389.000000	99.100837 
1388.000000	99.105498 
1387.000000	99.107222 
1386.000000	99.107288 
1385.000000	99.106942 
1384.000000	99.107466 
1383.000000	99.109693 
1382.000000	99.113624 
1381.000000	99.118818 
1380.000000	99.124866 
1379.000000	99.131203 
1378.000000	99.136913 
1377.000000	99.141459 
1376.000000	99.145719 
1375.000000	99.151699 
1374.000000	99.160387 
1373.000000	99.170034 
1372.000000	99.178189 
1371.000000	99.184648 
1370.000000	99.191089 
1369.000000	99.198499 
1368.000000	99.206175 
1367.000000	99.213134 
1366.000000	99.219333 
1365.000000	99.225128 
1364.000000	99.230314 
1363.000000	99.234519 
1362.000000	99.238029 
1361.000000	99.241487 
1360.000000	99.245245 
1359.000000	99.249606 
1358.000000	99.255138 
1357.000000	99.261957 
1356.000000	99.268951 
1355.000000	99.274592 
1354.000000	99.278439 
1353.000000	99.281212 
1352.000000	99.283272 
1351.000000	99.284145 
1350.000000	99.284316 
1349.000000	99.285233 
1348.000000	99.287711 
1347.000000	99.291599 
1346.000000	99.296402 
1345.000000	99.301243 
1344.000000	99.304767 
1343.000000	99.306313 
1342.000000	99.306759 
1341.000000	99.307188 
1340.000000	99.307088 
1339.000000	99.305384 
1338.000000	99.303036 
1337.000000	99.302692 
1336.000000	99.305523 
1335.000000	99.310090 
1334.000000	99.314558 
1333.000000	99.318492 
1332.000000	99.321830 
1331.000000	99.323484 
1330.000000	99.322291 
1329.000000	99.318808 
1328.000000	99.315290 
1327.000000	99.313850 
1326.000000	99.314884 
1325.000000	99.316967 
1324.000000	99.318482 
1323.000000	99.319149 
1322.000000	99.319577 
1321.000000	99.319766 
1320.000000	99.318974 
1319.000000	99.317277 
1318.000000	99.316135 
1317.000000	99.316614 
1316.000000	99.317764 
1315.000000	99.317734 
1314.000000	99.316121 
1313.000000	99.314435 
1312.000000	99.314301 
1311.000000	99.315952 
1310.000000	99.318566 
1309.000000	99.321177 
1308.000000	99.322865 
1307.000000	99.322723 
1306.000000	99.320451 
1305.000000	99.316867 
1304.000000	99.313800 
1303.000000	99.313200 
1302.000000	99.315830 
1301.000000	99.320434 
1300.000000	99.324318 
1299.000000	99.325223 
1298.000000	99.322847 
1297.000000	99.318751 
1296.000000	99.315090 
1295.000000	99.313680 
1294.000000	99.315500 
1293.000000	99.319966 
1292.000000	99.324537 
1291.000000	99.326093 
1290.000000	99.323688 
1289.000000	99.319757 
1288.000000	99.317831 
1287.000000	99.318833 
1286.000000	99.320364 
1285.000000	99.319896 
1284.000000	99.317776 
1283.000000	99.316429 
1282.000000	99.317118 
1281.000000	99.318667 
1280.000000	99.319467 
1279.000000	99.319406 
1278.000000	99.319174 
1277.000000	99.318812 
1276.000000	99.318004 
1275.000000	99.317287 
1274.000000	99.317777 
1273.000000	99.319728 
1272.000000	99.322158 
1271.000000	99.323735 
1270.000000	99.323423 
1269.000000	99.320812 
1268.000000	99.316907 
1267.000000	99.314198 
1266.000000	99.314471 
1265.000000	99.316581 
1264.000000	99.317585 
1263.000000	99.315911 
1262.000000	99.312417 
1261.000000	99.308848 
1260.000000	99.306775 
1259.000000	99.307615 
1258.000000	99.311562 
1257.000000	99.316339 
1256.000000	99.318889 
1255.000000	99.318757 
1254.000000	99.318279 
1253.000000	99.319023 
1252.000000	99.319830 
1251.000000	99.319161 
1250.000000	99.317608 
1249.000000	99.316903 
1248.000000	99.317828 
1247.000000	99.320028 
1246.000000	99.322249 
1245.000000	99.321680 
1244.000000	99.315134 
1243.000000	99.303165 
1242.000000	99.292079 
1241.000000	99.289211 
1240.000000	99.295710 
1239.000000	99.305205 
1238.000000	99.309749 
1237.000000	99.306122 
1236.000000	99.296468 
1235.000000	99.284562 
1234.000000	99.272518 
1233.000000	99.260481 
1232.000000	99.248181 
1231.000000	99.235770 
1230.000000	99.223018 
1229.000000	99.208700 
1228.000000	99.191915 
1227.000000	99.173851 
1226.000000	99.157004 
1225.000000	99.141969 
1224.000000	99.125772 
1223.000000	99.104097 
1222.000000	99.074959 
1221.000000	99.040038 
1220.000000	99.003017 
1219.000000	98.966797 
1218.000000	98.931447 
1217.000000	98.894237 
1216.000000	98.852035 
1215.000000	98.804146 
1214.000000	98.752906 
1213.000000	98.701544 
1212.000000	98.651531 
1211.000000	98.601635 
1210.000000	98.549329 
1209.000000	98.493459 
1208.000000	98.435636 
1207.000000	98.378473 
1206.000000	98.322591 
1205.000000	98.266563 
1204.000000	98.209650 
1203.000000	98.152580 
1202.000000	98.095242 
1201.000000	98.035899 
1200.000000	97.974077 
1199.000000	97.912442 
1198.000000	97.853939 
1197.000000	97.798282 
1196.000000	97.742776 
1195.000000	97.685263 
1194.000000	97.624820 
1193.000000	97.560930 
1192.000000	97.493864 
1191.000000	97.425307 
1190.000000	97.357246 
1189.000000	97.290677 
1188.000000	97.226000 
1187.000000	97.163236 
1186.000000	97.100846 
1185.000000	97.035820 
1184.000000	96.966247 
1183.000000	96.892791 
1182.000000	96.816982 
1181.000000	96.739619 
1180.000000	96.661558 
1179.000000	96.583879 
1178.000000	96.505795 
1177.000000	96.424231 
1176.000000	96.337154 
1175.000000	96.245891 
1174.000000	96.153043 
1173.000000	96.059821 
1172.000000	95.966635 
1171.000000	95.874209 
1170.000000	95.782488 
1169.000000	95.690373 
1168.000000	95.598146 
1167.000000	95.508868 
1166.000000	95.427090 
1165.000000	95.358792 
1164.000000	95.312946 
1163.000000	95.298726 
1162.000000	95.317996 
1161.000000	95.361735 
1160.000000	95.414457 
1159.000000	95.460477 
1158.000000	95.487003 
1157.000000	95.486217 
1156.000000	95.457208 
1155.000000	95.404665 
1154.000000	95.334753 
1153.000000	95.253324 
1152.000000	95.167277 
1151.000000	95.083500 
1150.000000	95.004522 
1149.000000	94.927839 
1148.000000	94.850554 
1147.000000	94.771811 
1146.000000	94.690435 
1145.000000	94.604646 
1144.000000	94.515867 
1143.000000	94.429022 
1142.000000	94.346913 
1141.000000	94.267293 
1140.000000	94.186684 
1139.000000	94.103411 
1138.000000	94.015994 
1137.000000	93.923068 
1136.000000	93.826609 
1135.000000	93.730992 
1134.000000	93.636977 
1133.000000	93.540705 
1132.000000	93.440063 
1131.000000	93.337291 
1130.000000	93.233698 
1129.000000	93.126987 
1128.000000	93.016115 
1127.000000	92.903780 
1126.000000	92.791668 
1125.000000	92.678173 
1124.000000	92.563100 
1123.000000	92.449324 
1122.000000	92.337169 
1121.000000	92.222671 
1120.000000	92.104436 
1119.000000	91.986749 
1118.000000	91.872790 
1117.000000	91.760442 
1116.000000	91.648064 
1115.000000	91.538578 
1114.000000	91.434129 
1113.000000	91.332194 
1112.000000	91.230802 
1111.000000	91.132432 
1110.000000	91.039285 
1109.000000	90.949247 
1108.000000	90.858923 
1107.000000	90.766318 
1106.000000	90.669285 
1105.000000	90.566442 
1104.000000	90.460724 
1103.000000	90.356719 
1102.000000	90.254297 
1101.000000	90.150747 
1100.000000	90.048755 
1099.000000	89.953757 
1098.000000	89.863898 
1097.000000	89.771468 
1096.000000	89.674957 
1095.000000	89.580352 
1094.000000	89.489180 
1093.000000	89.395471 
1092.000000	89.296764 
1091.000000	89.198040 
1090.000000	89.101851 
1089.000000	89.004429 
1088.000000	88.905053 
1087.000000	88.809826 
1086.000000	88.722448 
1085.000000	88.639724 
1084.000000	88.558894 
1083.000000	88.480538 
1082.000000	88.402179 
1081.000000	88.318771 
1080.000000	88.231940 
1079.000000	88.149104 
1078.000000	88.071365 
1077.000000	87.992401 
1076.000000	87.910832 
1075.000000	87.831836 
1074.000000	87.753914 
1073.000000	87.666044 
1072.000000	87.560820 
1071.000000	87.438458 
1070.000000	87.295491 
1069.000000	87.123888 
1068.000000	86.927529 
1067.000000	86.727539 
1066.000000	86.543118 
1065.000000	86.375286 
1064.000000	86.214873 
1063.000000	86.055310 
1062.000000	85.891460 
1061.000000	85.717507 
1060.000000	85.534621 
1059.000000	85.353279 
1058.000000	85.181731 
1057.000000	85.017897 
1056.000000	84.854654 
1055.000000	84.684338 
1054.000000	84.496969 
1053.000000	84.285980 
1052.000000	84.059228 
1051.000000	83.832630 
1050.000000	83.609485 
1049.000000	83.379805 
1048.000000	83.141778 
1047.000000	82.905817 
1046.000000	82.674461 
1045.000000	82.436859 
1044.000000	82.187766 
1043.000000	81.935841 
1042.000000	81.688054 
1041.000000	81.440686 
1040.000000	81.191846 
1039.000000	80.949310 
1038.000000	80.719756 
1037.000000	80.502751 
1036.000000	80.300077 
1035.000000	80.117795 
1034.000000	79.954609 
1033.000000	79.801019 
1032.000000	79.653212 
1031.000000	79.515022 
1030.000000	79.385744 
1029.000000	79.262062 
1028.000000	79.152895 
1027.000000	79.073561 
1026.000000	79.021510 
1025.000000	78.975192 
1024.000000	78.920764 
1023.000000	78.862583 
1022.000000	78.804317 
1021.000000	78.739539 
1020.000000	78.666587 
1019.000000	78.594350 
1018.000000	78.526539 
1017.000000	78.456220 
1016.000000	78.381203 
1015.000000	78.308941 
1014.000000	78.241526 
1013.000000	78.171862 
1012.000000	78.098925 
1011.000000	78.030734 
1010.000000	77.968666 
1009.000000	77.905791 
1008.000000	77.844346 
1007.000000	77.797136 
1006.000000	77.767391 
1005.000000	77.744620 
1004.000000	77.724403 
1003.000000	77.714561 
1002.000000	77.717456 
1001.000000	77.724530 
1000.000000	77.733382 
999.000000	 77.752356 
998.000000	 77.782728 
997.000000	 77.813883 
996.000000	 77.842016 
995.000000	 77.876930 
994.000000	 77.924415 
993.000000	 77.977686 
992.000000	 78.031313 
991.000000	 78.088248 
990.000000	 78.148799 
989.000000	 78.208559 
988.000000	 78.271558 
987.000000	 78.349734 
986.000000	 78.445323 
985.000000	 78.549156 
984.000000	 78.659476 
983.000000	 78.786190 
982.000000	 78.933249 
981.000000	 79.093332 
980.000000	 79.263349 
979.000000	 79.448812 
978.000000	 79.649312 
977.000000	 79.856400 
976.000000	 80.069872 
975.000000	 80.299770 
974.000000	 80.547939 
973.000000	 80.803165 
972.000000	 81.058559 
971.000000	 81.318703 
970.000000	 81.585842 
969.000000	 81.854160 
968.000000	 82.121695 
967.000000	 82.393338 
966.000000	 82.667859 
965.000000	 82.935679 
964.000000	 83.193340 
963.000000	 83.447181 
962.000000	 83.699489 
961.000000	 83.943987 
960.000000	 84.178284 
959.000000	 84.407819 
958.000000	 84.633859 
957.000000	 84.849974 
956.000000	 85.054326 
955.000000	 85.253849 
954.000000	 85.452253 
953.000000	 85.644282 
952.000000	 85.825021 
951.000000	 85.994757 
950.000000	 86.152358 
949.000000	 86.294101 
948.000000	 86.421655 
947.000000	 86.541824 
946.000000	 86.656621 
945.000000	 86.762772 
944.000000	 86.861462 
943.000000	 86.957778 
942.000000	 87.049666 
941.000000	 87.129101 
940.000000	 87.196273 
939.000000	 87.261783 
938.000000	 87.332651 
937.000000	 87.406564 
936.000000	 87.481643 
935.000000	 87.560464 
934.000000	 87.641992 
933.000000	 87.720618 
932.000000	 87.796111 
931.000000	 87.874701 
930.000000	 87.958291 
929.000000	 88.042441 
928.000000	 88.126082 
927.000000	 88.212429 
926.000000	 88.298865 
925.000000	 88.376916 
924.000000	 88.444135 
923.000000	 88.505561 
922.000000	 88.562169 
921.000000	 88.608879 
920.000000	 88.645621 
919.000000	 88.679151 
918.000000	 88.711806 
917.000000	 88.739523 
916.000000	 88.763395 
915.000000	 88.792403 
914.000000	 88.832581 
913.000000	 88.884478 
912.000000	 88.953287 
911.000000	 89.049183 
910.000000	 89.174048 
909.000000	 89.318909 
908.000000	 89.477671 
907.000000	 89.652959 
906.000000	 89.846189 
905.000000	 90.053120 
904.000000	 90.271940 
903.000000	 90.505262 
902.000000	 90.751610 
901.000000	 91.004251 
900.000000	 91.259695 
899.000000	 91.517999 
898.000000	 91.774301 
897.000000	 92.019947 
896.000000	 92.252755 
895.000000	 92.477206 
894.000000	 92.694710 
893.000000	 92.902767 
892.000000	 93.103138 
891.000000	 93.300927 
890.000000	 93.495194 
889.000000	 93.679689 
888.000000	 93.852968 
887.000000	 94.018712 
886.000000	 94.176424 
885.000000	 94.321808 
884.000000	 94.457099 
883.000000	 94.591107 
882.000000	 94.727235 
881.000000	 94.860639 
880.000000	 94.989352 
879.000000	 95.119372 
878.000000	 95.256046 
877.000000	 95.397660 
876.000000	 95.539221 
875.000000	 95.675987 
874.000000	 95.803926 
873.000000	 95.924755 
872.000000	 96.049951 
871.000000	 96.191127 
870.000000	 96.345674 
869.000000	 96.499168 
868.000000	 96.641485 
867.000000	 96.773831 
866.000000	 96.902078 
865.000000	 97.031114 
864.000000	 97.164954 
863.000000	 97.304358 
862.000000	 97.443532 
861.000000	 97.574927 
860.000000	 97.696880 
859.000000	 97.812153 
858.000000	 97.921908 
857.000000	 98.026914 
856.000000	 98.130780 
855.000000	 98.233955 
854.000000	 98.327460 
853.000000	 98.401622 
852.000000	 98.459499 
851.000000	 98.513252 
850.000000	 98.568357 
849.000000	 98.620074 
848.000000	 98.664592 
847.000000	 98.703686 
846.000000	 98.737531 
845.000000	 98.762242 
844.000000	 98.776670 
843.000000	 98.783460 
842.000000	 98.781038 
841.000000	 98.762090 
840.000000	 98.723188 
839.000000	 98.670151 
838.000000	 98.611101 
837.000000	 98.548835 
836.000000	 98.482354 
835.000000	 98.412237 
834.000000	 98.343248 
833.000000	 98.284236 
832.000000	 98.243660 
831.000000	 98.220523 
830.000000	 98.203360 
829.000000	 98.186493 
828.000000	 98.183363 
827.000000	 98.211131 
826.000000	 98.263498 
825.000000	 98.314934 
824.000000	 98.353958 
823.000000	 98.394161 
822.000000	 98.447017 
821.000000	 98.501960 
820.000000	 98.541497 
819.000000	 98.561188 
818.000000	 98.566964 
817.000000	 98.562811 
816.000000	 98.547291 
815.000000	 98.515013 
814.000000	 98.456046 
813.000000	 98.359156 
812.000000	 98.220087 
811.000000	 98.042567 
810.000000	 97.828100 
809.000000	 97.569475 
808.000000	 97.257638 
807.000000	 96.890695 
806.000000	 96.474528 
805.000000	 96.021868 
804.000000	 95.555429 
803.000000	 95.105326 
802.000000	 94.697172 
801.000000	 94.347037 
800.000000	 94.068965 
799.000000	 93.876275 
798.000000	 93.770970 
797.000000	 93.742105 
796.000000	 93.777829 
795.000000	 93.868107 
794.000000	 93.994304 
793.000000	 94.130306 
792.000000	 94.258321 
791.000000	 94.372723 
790.000000	 94.466916 
789.000000	 94.529289 
788.000000	 94.555054 
787.000000	 94.549234 
786.000000	 94.513117 
785.000000	 94.438762 
784.000000	 94.322625 
783.000000	 94.175911 
782.000000	 94.017447 
781.000000	 93.865758 
780.000000	 93.741531 
779.000000	 93.665485 
778.000000	 93.646394 
777.000000	 93.679746 
776.000000	 93.761494 
775.000000	 93.891646 
774.000000	 94.060394 
773.000000	 94.243694 
772.000000	 94.419559 
771.000000	 94.579747 
770.000000	 94.721425 
769.000000	 94.838093 
768.000000	 94.925370 
767.000000	 94.988100 
766.000000	 95.035423 
765.000000	 95.073434 
764.000000	 95.105722 
763.000000	 95.134923 
762.000000	 95.160662 
761.000000	 95.182154 
760.000000	 95.204882 
759.000000	 95.237753 
758.000000	 95.281930 
757.000000	 95.330202 
756.000000	 95.379088 
755.000000	 95.433358 
754.000000	 95.496740 
753.000000	 95.566638 
752.000000	 95.640071 
751.000000	 95.716264 
750.000000	 95.791203 
749.000000	 95.858281 
748.000000	 95.917904 
747.000000	 95.979907 
746.000000	 96.053899 
745.000000	 96.142622 
744.000000	 96.244736 
743.000000	 96.356761 
742.000000	 96.472517 
741.000000	 96.588807 
740.000000	 96.711160 
739.000000	 96.845563 
738.000000	 96.985500 
737.000000	 97.116522 
736.000000	 97.233180 
735.000000	 97.341857 
734.000000	 97.447890 
733.000000	 97.549926 
732.000000	 97.645575 
731.000000	 97.731166 
730.000000	 97.796508 
729.000000	 97.832617 
728.000000	 97.846473 
727.000000	 97.857654 
726.000000	 97.879036 
725.000000	 97.911163 
724.000000	 97.955336 
723.000000	 98.017713 
722.000000	 98.096402 
721.000000	 98.177019 
720.000000	 98.247307 
719.000000	 98.307500 
718.000000	 98.362396 
717.000000	 98.413356 
716.000000	 98.462591 
715.000000	 98.514369 
714.000000	 98.565712 
713.000000	 98.604780 
712.000000	 98.624783 
711.000000	 98.632805 
710.000000	 98.640177 
709.000000	 98.650243 
708.000000	 98.659139 
707.000000	 98.660904 
706.000000	 98.647655 
705.000000	 98.611983 
704.000000	 98.553598 
703.000000	 98.477843 
702.000000	 98.384070 
701.000000	 98.260998 
700.000000	 98.095990 
699.000000	 97.884946 
698.000000	 97.636670 
697.000000	 97.378315 
696.000000	 97.156366 
695.000000	 97.018057 
694.000000	 96.984250 
693.000000	 97.043517 
692.000000	 97.167503 
691.000000	 97.322572 
690.000000	 97.474281 
689.000000	 97.600958 
688.000000	 97.707943 
687.000000	 97.814451 
686.000000	 97.923628 
685.000000	 98.020155 
684.000000	 98.095617 
683.000000	 98.157208 
682.000000	 98.211602 
681.000000	 98.259768 
680.000000	 98.309884 
679.000000	 98.374678 
678.000000	 98.449096 
677.000000	 98.510412 
676.000000	 98.549197 
675.000000	 98.582826 
674.000000	 98.631465 
673.000000	 98.696595 
672.000000	 98.769819 
671.000000	 98.846057 
670.000000	 98.917615 
669.000000	 98.963984 
668.000000	 98.971705 
667.000000	 98.974016 
666.000000	 99.017049 
665.000000	 99.096010 
664.000000	 99.179632 
663.000000	 99.246753 
662.000000	 99.290723 
661.000000	 99.315694 
660.000000	 99.332693 
659.000000	 99.352068 
658.000000	 99.370981 
657.000000	 99.374136 
656.000000	 99.356168 
655.000000	 99.334728 
654.000000	 99.329101 
653.000000	 99.330959 
652.000000	 99.315637 
651.000000	 99.281954 
650.000000	 99.264482 

