4000.000000	99.577769 
3999.000000	99.577295 
3998.000000	99.576554 
3997.000000	99.575513 
3996.000000	99.574295 
3995.000000	99.573216 
3994.000000	99.572624 
3993.000000	99.572648 
3992.000000	99.573068 
3991.000000	99.573436 
3990.000000	99.573420 
3989.000000	99.573061 
3988.000000	99.572731 
3987.000000	99.572809 
3986.000000	99.573361 
3985.000000	99.574054 
3984.000000	99.574396 
3983.000000	99.574117 
3982.000000	99.573289 
3981.000000	99.572217 
3980.000000	99.571170 
3979.000000	99.570235 
3978.000000	99.569449 
3977.000000	99.568942 
3976.000000	99.568878 
3975.000000	99.569274 
3974.000000	99.569919 
3973.000000	99.570454 
3972.000000	99.570580 
3971.000000	99.570222 
3970.000000	99.569498 
3969.000000	99.568636 
3968.000000	99.567877 
3967.000000	99.567374 
3966.000000	99.567154 
3965.000000	99.567162 
3964.000000	99.567299 
3963.000000	99.567410 
3962.000000	99.567297 
3961.000000	99.566824 
3960.000000	99.566048 
3959.000000	99.565223 
3958.000000	99.564619 
3957.000000	99.564308 
3956.000000	99.564162 
3955.000000	99.564021 
3954.000000	99.563844 
3953.000000	99.563689 
3952.000000	99.563591 
3951.000000	99.563548 
3950.000000	99.563563 
3949.000000	99.563671 
3948.000000	99.563862 
3947.000000	99.563992 
3946.000000	99.563871 
3945.000000	99.563463 
3944.000000	99.562990 
3943.000000	99.562736 
3942.000000	99.562752 
3941.000000	99.562818 
3940.000000	99.562627 
3939.000000	99.561975 
3938.000000	99.560867 
3937.000000	99.559543 
3936.000000	99.558466 
3935.000000	99.558138 
3934.000000	99.558834 
3933.000000	99.560404 
3932.000000	99.562225 
3931.000000	99.563493 
3930.000000	99.563748 
3929.000000	99.563112 
3928.000000	99.562197 
3927.000000	99.561661 
3926.000000	99.561781 
3925.000000	99.562305 
3924.000000	99.562658 
3923.000000	99.562465 
3922.000000	99.561815 
3921.000000	99.561111 
3920.000000	99.560748 
3919.000000	99.560945 
3918.000000	99.561753 
3917.000000	99.563002 
3916.000000	99.564284 
3915.000000	99.565163 
3914.000000	99.565530 
3913.000000	99.565638 
3912.000000	99.565746 
3911.000000	99.565912 
3910.000000	99.566087 
3909.000000	99.566275 
3908.000000	99.566492 
3907.000000	99.566485 
3906.000000	99.565741 
3905.000000	99.563897 
3904.000000	99.561150 
3903.000000	99.558407 
3902.000000	99.556803 
3901.000000	99.556915 
3900.000000	99.558524 
3899.000000	99.560744 
3898.000000	99.562593 
3897.000000	99.563628 
3896.000000	99.563886 
3895.000000	99.563548 
3894.000000	99.562735 
3893.000000	99.561508 
3892.000000	99.560014 
3891.000000	99.558557 
3890.000000	99.557506 
3889.000000	99.557023 
3888.000000	99.556998 
3887.000000	99.557339 
3886.000000	99.558021 
3885.000000	99.558783 
3884.000000	99.559202 
3883.000000	99.559194 
3882.000000	99.559118 
3881.000000	99.559308 
3880.000000	99.559672 
3879.000000	99.559877 
3878.000000	99.559920 
3877.000000	99.560135 
3876.000000	99.560813 
3875.000000	99.561825 
3874.000000	99.562572 
3873.000000	99.562518 
3872.000000	99.561819 
3871.000000	99.561268 
3870.000000	99.561466 
3869.000000	99.562243 
3868.000000	99.563013 
3867.000000	99.563442 
3866.000000	99.563686 
3865.000000	99.564034 
3864.000000	99.564394 
3863.000000	99.564475 
3862.000000	99.564280 
3861.000000	99.564222 
3860.000000	99.564732 
3859.000000	99.565918 
3858.000000	99.567455 
3857.000000	99.568734 
3856.000000	99.569249 
3855.000000	99.569182 
3854.000000	99.569448 
3853.000000	99.570377 
3852.000000	99.571288 
3851.000000	99.571731 
3850.000000	99.571706 
3849.000000	99.571447 
3848.000000	99.571118 
3847.000000	99.570763 
3846.000000	99.570380 
3845.000000	99.569979 
3844.000000	99.569699 
3843.000000	99.569824 
3842.000000	99.570441 
3841.000000	99.571297 
3840.000000	99.572039 
3839.000000	99.572470 
3838.000000	99.572577 
3837.000000	99.572451 
3836.000000	99.572226 
3835.000000	99.572123 
3834.000000	99.572377 
3833.000000	99.573130 
3832.000000	99.574287 
3831.000000	99.575456 
3830.000000	99.576189 
3829.000000	99.576253 
3828.000000	99.575673 
3827.000000	99.574740 
3826.000000	99.573837 
3825.000000	99.573147 
3824.000000	99.572618 
3823.000000	99.572290 
3822.000000	99.572416 
3821.000000	99.573046 
3820.000000	99.573865 
3819.000000	99.574654 
3818.000000	99.575342 
3817.000000	99.575856 
3816.000000	99.576072 
3815.000000	99.575796 
3814.000000	99.575025 
3813.000000	99.574154 
3812.000000	99.573719 
3811.000000	99.573978 
3810.000000	99.574758 
3809.000000	99.575614 
3808.000000	99.576202 
3807.000000	99.576454 
3806.000000	99.576384 
3805.000000	99.575954 
3804.000000	99.575147 
3803.000000	99.574213 
3802.000000	99.573621 
3801.000000	99.573483 
3800.000000	99.573439 
3799.000000	99.573174 
3798.000000	99.572717 
3797.000000	99.572322 
3796.000000	99.572144 
3795.000000	99.572065 
3794.000000	99.571884 
3793.000000	99.571589 
3792.000000	99.571344 
3791.000000	99.571278 
3790.000000	99.571334 
3789.000000	99.571338 
3788.000000	99.571186 
3787.000000	99.570887 
3786.000000	99.570516 
3785.000000	99.570148 
3784.000000	99.569797 
3783.000000	99.569390 
3782.000000	99.568889 
3781.000000	99.568510 
3780.000000	99.568659 
3779.000000	99.569495 
3778.000000	99.570583 
3777.000000	99.571220 
3776.000000	99.570994 
3775.000000	99.570121 
3774.000000	99.569151 
3773.000000	99.568361 
3772.000000	99.567670 
3771.000000	99.566960 
3770.000000	99.566043 
3769.000000	99.564691 
3768.000000	99.563169 
3767.000000	99.562175 
3766.000000	99.562234 
3765.000000	99.563196 
3764.000000	99.564207 
3763.000000	99.564368 
3762.000000	99.563528 
3761.000000	99.562453 
3760.000000	99.561974 
3759.000000	99.562244 
3758.000000	99.563039 
3757.000000	99.564266 
3756.000000	99.565761 
3755.000000	99.567148 
3754.000000	99.568258 
3753.000000	99.569507 
3752.000000	99.571197 
3751.000000	99.572329 
3750.000000	99.571829 
3749.000000	99.570706 
3748.000000	99.570581 
3747.000000	99.571316 
3746.000000	99.571702 
3745.000000	99.571131 
3744.000000	99.569806 
3743.000000	99.568046 
3742.000000	99.566019 
3741.000000	99.563857 
3740.000000	99.561618 
3739.000000	99.559051 
3738.000000	99.556277 
3737.000000	99.554451 
3736.000000	99.554822 
3735.000000	99.557011 
3734.000000	99.559042 
3733.000000	99.559646 
3732.000000	99.559201 
3731.000000	99.558568 
3730.000000	99.558002 
3729.000000	99.557234 
3728.000000	99.556371 
3727.000000	99.555964 
3726.000000	99.556111 
3725.000000	99.556178 
3724.000000	99.555734 
3723.000000	99.555201 
3722.000000	99.555150 
3721.000000	99.555646 
3720.000000	99.556063 
3719.000000	99.555529 
3718.000000	99.553794 
3717.000000	99.551327 
3716.000000	99.548749 
3715.000000	99.546336 
3714.000000	99.544082 
3713.000000	99.542249 
3712.000000	99.541280 
3711.000000	99.541195 
3710.000000	99.541328 
3709.000000	99.540783 
3708.000000	99.539163 
3707.000000	99.536752 
3706.000000	99.534265 
3705.000000	99.532405 
3704.000000	99.531457 
3703.000000	99.531090 
3702.000000	99.530439 
3701.000000	99.528784 
3700.000000	99.526170 
3699.000000	99.523169 
3698.000000	99.520332 
3697.000000	99.517951 
3696.000000	99.516010 
3695.000000	99.514365 
3694.000000	99.513146 
3693.000000	99.512808 
3692.000000	99.513541 
3691.000000	99.514746 
3690.000000	99.515178 
3689.000000	99.514032 
3688.000000	99.511756 
3687.000000	99.509269 
3686.000000	99.506741 
3685.000000	99.503936 
3684.000000	99.500910 
3683.000000	99.497917 
3682.000000	99.495061 
3681.000000	99.492217 
3680.000000	99.489301 
3679.000000	99.486134 
3678.000000	99.482585 
3677.000000	99.479589 
3676.000000	99.478744 
3675.000000	99.479453 
3674.000000	99.479096 
3673.000000	99.476131 
3672.000000	99.470906 
3671.000000	99.465871 
3670.000000	99.463602 
3669.000000	99.463820 
3668.000000	99.464477 
3667.000000	99.464527 
3666.000000	99.464040 
3665.000000	99.463136 
3664.000000	99.461458 
3663.000000	99.458515 
3662.000000	99.454299 
3661.000000	99.449131 
3660.000000	99.443271 
3659.000000	99.436981 
3658.000000	99.431125 
3657.000000	99.426995 
3656.000000	99.424775 
3655.000000	99.423041 
3654.000000	99.420044 
3653.000000	99.414730 
3652.000000	99.406730 
3651.000000	99.396731 
3650.000000	99.386687 
3649.000000	99.378882 
3648.000000	99.374523 
3647.000000	99.373072 
3646.000000	99.373019 
3645.000000	99.373189 
3644.000000	99.373196 
3643.000000	99.373122 
3642.000000	99.373509 
3641.000000	99.374805 
3640.000000	99.376811 
3639.000000	99.378290 
3638.000000	99.377413 
3637.000000	99.372961 
3636.000000	99.365251 
3635.000000	99.356124 
3634.000000	99.347492 
3633.000000	99.339784 
3632.000000	99.331962 
3631.000000	99.323448 
3630.000000	99.316361 
3629.000000	99.313440 
3628.000000	99.313398 
3627.000000	99.313496 
3626.000000	99.313359 
3625.000000	99.313874 
3624.000000	99.315370 
3623.000000	99.317261 
3622.000000	99.318863 
3621.000000	99.320677 
3620.000000	99.323429 
3619.000000	99.325963 
3618.000000	99.326380 
3617.000000	99.325303 
3616.000000	99.325443 
3615.000000	99.328708 
3614.000000	99.333966 
3613.000000	99.337795 
3612.000000	99.338175 
3611.000000	99.336605 
3610.000000	99.335979 
3609.000000	99.337467 
3608.000000	99.339540 
3607.000000	99.340499 
3606.000000	99.341264 
3605.000000	99.344126 
3604.000000	99.349853 
3603.000000	99.356756 
3602.000000	99.362221 
3601.000000	99.365074 
3600.000000	99.365782 
3599.000000	99.365070 
3598.000000	99.363379 
3597.000000	99.361351 
3596.000000	99.360162 
3595.000000	99.361145 
3594.000000	99.364352 
3593.000000	99.368317 
3592.000000	99.371254 
3591.000000	99.371951 
3590.000000	99.370381 
3589.000000	99.367904 
3588.000000	99.366181 
3587.000000	99.365174 
3586.000000	99.363952 
3585.000000	99.362712 
3584.000000	99.362620 
3583.000000	99.364065 
3582.000000	99.366098 
3581.000000	99.367165 
3580.000000	99.366349 
3579.000000	99.363876 
3578.000000	99.360616 
3577.000000	99.357534 
3576.000000	99.355347 
3575.000000	99.354414 
3574.000000	99.354501 
3573.000000	99.354842 
3572.000000	99.354818 
3571.000000	99.354416 
3570.000000	99.353898 
3569.000000	99.353482 
3568.000000	99.353314 
3567.000000	99.353207 
3566.000000	99.352724 
3565.000000	99.351822 
3564.000000	99.350896 
3563.000000	99.350398 
3562.000000	99.350549 
3561.000000	99.351082 
3560.000000	99.351356 
3559.000000	99.350824 
3558.000000	99.349521 
3557.000000	99.348033 
3556.000000	99.347002 
3555.000000	99.346566 
3554.000000	99.346261 
3553.000000	99.345349 
3552.000000	99.343469 
3551.000000	99.341030 
3550.000000	99.338818 
3549.000000	99.337266 
3548.000000	99.336301 
3547.000000	99.335638 
3546.000000	99.335081 
3545.000000	99.334487 
3544.000000	99.333691 
3543.000000	99.332662 
3542.000000	99.331651 
3541.000000	99.330997 
3540.000000	99.330777 
3539.000000	99.330690 
3538.000000	99.330356 
3537.000000	99.329659 
3536.000000	99.328757 
3535.000000	99.327842 
3534.000000	99.326938 
3533.000000	99.325977 
3532.000000	99.324969 
3531.000000	99.324021 
3530.000000	99.323173 
3529.000000	99.322297 
3528.000000	99.321217 
3527.000000	99.319935 
3526.000000	99.318666 
3525.000000	99.317663 
3524.000000	99.316979 
3523.000000	99.316424 
3522.000000	99.315750 
3521.000000	99.314868 
3520.000000	99.313930 
3519.000000	99.313192 
3518.000000	99.312804 
3517.000000	99.312663 
3516.000000	99.312438 
3515.000000	99.311828 
3514.000000	99.310793 
3513.000000	99.309543 
3512.000000	99.308342 
3511.000000	99.307278 
3510.000000	99.306273 
3509.000000	99.305249 
3508.000000	99.304238 
3507.000000	99.303355 
3506.000000	99.302686 
3505.000000	99.302199 
3504.000000	99.301722 
3503.000000	99.301065 
3502.000000	99.300204 
3501.000000	99.299314 
3500.000000	99.298572 
3499.000000	99.297946 
3498.000000	99.297225 
3497.000000	99.296271 
3496.000000	99.295153 
3495.000000	99.294051 
3494.000000	99.293061 
3493.000000	99.292154 
3492.000000	99.291298 
3491.000000	99.290529 
3490.000000	99.289893 
3489.000000	99.289393 
3488.000000	99.288968 
3487.000000	99.288498 
3486.000000	99.287855 
3485.000000	99.286986 
3484.000000	99.285970 
3483.000000	99.284968 
3482.000000	99.284075 
3481.000000	99.283268 
3480.000000	99.282490 
3479.000000	99.281726 
3478.000000	99.280973 
3477.000000	99.280175 
3476.000000	99.279275 
3475.000000	99.278328 
3474.000000	99.277494 
3473.000000	99.276849 
3472.000000	99.276276 
3471.000000	99.275577 
3470.000000	99.274711 
3469.000000	99.273842 
3468.000000	99.273139 
3467.000000	99.272579 
3466.000000	99.271978 
3465.000000	99.271218 
3464.000000	99.270344 
3463.000000	99.269455 
3462.000000	99.268601 
3461.000000	99.267806 
3460.000000	99.267111 
3459.000000	99.266512 
3458.000000	99.265879 
3457.000000	99.265037 
3456.000000	99.263942 
3455.000000	99.262714 
3454.000000	99.261525 
3453.000000	99.260485 
3452.000000	99.259616 
3451.000000	99.258887 
3450.000000	99.258246 
3449.000000	99.257650 
3448.000000	99.257052 
3447.000000	99.256337 
3446.000000	99.255337 
3445.000000	99.254004 
3444.000000	99.252528 
3443.000000	99.251232 
3442.000000	99.250274 
3441.000000	99.249479 
3440.000000	99.248526 
3439.000000	99.247248 
3438.000000	99.245726 
3437.000000	99.244148 
3436.000000	99.242693 
3435.000000	99.241521 
3434.000000	99.240745 
3433.000000	99.240331 
3432.000000	99.240036 
3431.000000	99.239541 
3430.000000	99.238719 
3429.000000	99.237774 
3428.000000	99.237078 
3427.000000	99.236770 
3426.000000	99.236502 
3425.000000	99.235679 
3424.000000	99.234015 
3423.000000	99.231801 
3422.000000	99.229665 
3421.000000	99.228062 
3420.000000	99.227114 
3419.000000	99.226816 
3418.000000	99.227117 
3417.000000	99.227717 
3416.000000	99.228057 
3415.000000	99.227706 
3414.000000	99.226707 
3413.000000	99.225493 
3412.000000	99.224489 
3411.000000	99.223875 
3410.000000	99.223607 
3409.000000	99.223484 
3408.000000	99.223139 
3407.000000	99.222208 
3406.000000	99.220687 
3405.000000	99.219142 
3404.000000	99.218352 
3403.000000	99.218648 
3402.000000	99.219638 
3401.000000	99.220592 
3400.000000	99.221133 
3399.000000	99.221472 
3398.000000	99.221989 
3397.000000	99.222731 
3396.000000	99.223322 
3395.000000	99.223325 
3394.000000	99.222597 
3393.000000	99.221344 
3392.000000	99.219986 
3391.000000	99.218972 
3390.000000	99.218608 
3389.000000	99.218976 
3388.000000	99.219925 
3387.000000	99.221155 
3386.000000	99.222385 
3385.000000	99.223479 
3384.000000	99.224406 
3383.000000	99.225082 
3382.000000	99.225290 
3381.000000	99.224905 
3380.000000	99.224166 
3379.000000	99.223626 
3378.000000	99.223677 
3377.000000	99.224206 
3376.000000	99.224764 
3375.000000	99.225052 
3374.000000	99.225167 
3373.000000	99.225402 
3372.000000	99.225890 
3371.000000	99.226522 
3370.000000	99.227099 
3369.000000	99.227486 
3368.000000	99.227663 
3367.000000	99.227733 
3366.000000	99.227872 
3365.000000	99.228187 
3364.000000	99.228621 
3363.000000	99.229022 
3362.000000	99.229313 
3361.000000	99.229541 
3360.000000	99.229793 
3359.000000	99.230098 
3358.000000	99.230447 
3357.000000	99.230842 
3356.000000	99.231310 
3355.000000	99.231842 
3354.000000	99.232379 
3353.000000	99.232870 
3352.000000	99.233322 
3351.000000	99.233778 
3350.000000	99.234276 
3349.000000	99.234820 
3348.000000	99.235389 
3347.000000	99.235957 
3346.000000	99.236511 
3345.000000	99.237053 
3344.000000	99.237591 
3343.000000	99.238137 
3342.000000	99.238703 
3341.000000	99.239290 
3340.000000	99.239891 
3339.000000	99.240493 
3338.000000	99.241102 
3337.000000	99.241741 
3336.000000	99.242437 
3335.000000	99.243183 
3334.000000	99.243938 
3333.000000	99.244681 
3332.000000	99.245422 
3331.000000	99.246171 
3330.000000	99.246910 
3329.000000	99.247607 
3328.000000	99.248259 
3327.000000	99.248902 
3326.000000	99.249575 
3325.000000	99.250289 
3324.000000	99.251010 
3323.000000	99.251707 
3322.000000	99.252402 
3321.000000	99.253154 
3320.000000	99.253994 
3319.000000	99.254891 
3318.000000	99.255771 
3317.000000	99.256592 
3316.000000	99.257354 
3315.000000	99.258076 
3314.000000	99.258778 
3313.000000	99.259490 
3312.000000	99.260253 
3311.000000	99.261084 
3310.000000	99.261934 
3309.000000	99.262704 
3308.000000	99.263348 
3307.000000	99.263897 
3306.000000	99.264415 
3305.000000	99.264955 
3304.000000	99.265567 
3303.000000	99.266284 
3302.000000	99.267078 
3301.000000	99.267846 
3300.000000	99.268494 
3299.000000	99.269017 
3298.000000	99.269492 
3297.000000	99.270012 
3296.000000	99.270612 
3295.000000	99.271243 
3294.000000	99.271809 
3293.000000	99.272261 
3292.000000	99.272663 
3291.000000	99.273128 
3290.000000	99.273672 
3289.000000	99.274189 
3288.000000	99.274584 
3287.000000	99.274902 
3286.000000	99.275301 
3285.000000	99.275877 
3284.000000	99.276578 
3283.000000	99.277262 
3282.000000	99.277848 
3281.000000	99.278377 
3280.000000	99.278959 
3279.000000	99.279653 
3278.000000	99.280406 
3277.000000	99.281094 
3276.000000	99.281621 
3275.000000	99.281972 
3274.000000	99.282181 
3273.000000	99.282319 
3272.000000	99.282520 
3271.000000	99.282965 
3270.000000	99.283776 
3269.000000	99.284890 
3268.000000	99.286081 
3267.000000	99.287119 
3266.000000	99.287865 
3265.000000	99.288270 
3264.000000	99.288440 
3263.000000	99.288700 
3262.000000	99.289436 
3261.000000	99.290763 
3260.000000	99.292365 
3259.000000	99.293739 
3258.000000	99.294627 
3257.000000	99.295189 
3256.000000	99.295805 
3255.000000	99.296692 
3254.000000	99.297738 
3253.000000	99.298699 
3252.000000	99.299545 
3251.000000	99.300492 
3250.000000	99.301675 
3249.000000	99.302882 
3248.000000	99.303759 
3247.000000	99.304215 
3246.000000	99.304486 
3245.000000	99.304828 
3244.000000	99.305300 
3243.000000	99.305864 
3242.000000	99.306516 
3241.000000	99.307221 
3240.000000	99.307964 
3239.000000	99.308965 
3238.000000	99.310660 
3237.000000	99.313268 
3236.000000	99.316380 
3235.000000	99.319127 
3234.000000	99.320858 
3233.000000	99.321544 
3232.000000	99.321630 
3231.000000	99.321647 
3230.000000	99.321928 
3229.000000	99.322535 
3228.000000	99.323286 
3227.000000	99.323888 
3226.000000	99.324171 
3225.000000	99.324249 
3224.000000	99.324457 
3223.000000	99.325083 
3222.000000	99.326144 
3221.000000	99.327361 
3220.000000	99.328366 
3219.000000	99.328981 
3218.000000	99.329357 
3217.000000	99.329874 
3216.000000	99.330877 
3215.000000	99.332450 
3214.000000	99.334337 
3213.000000	99.336070 
3212.000000	99.337260 
3211.000000	99.337831 
3210.000000	99.338023 
3209.000000	99.338226 
3208.000000	99.338737 
3207.000000	99.339637 
3206.000000	99.340803 
3205.000000	99.341984 
3204.000000	99.342959 
3203.000000	99.343711 
3202.000000	99.344417 
3201.000000	99.345239 
3200.000000	99.346165 
3199.000000	99.347096 
3198.000000	99.348031 
3197.000000	99.349057 
3196.000000	99.350192 
3195.000000	99.351347 
3194.000000	99.352436 
3193.000000	99.353417 
3192.000000	99.354191 
3191.000000	99.354615 
3190.000000	99.354703 
3189.000000	99.354729 
3188.000000	99.355023 
3187.000000	99.355706 
3186.000000	99.356721 
3185.000000	99.358026 
3184.000000	99.359566 
3183.000000	99.361085 
3182.000000	99.362237 
3181.000000	99.363005 
3180.000000	99.363854 
3179.000000	99.365312 
3178.000000	99.367370 
3177.000000	99.369343 
3176.000000	99.370463 
3175.000000	99.370594 
3174.000000	99.370364 
3173.000000	99.370504 
3172.000000	99.371001 
3171.000000	99.371206 
3170.000000	99.370845 
3169.000000	99.370584 
3168.000000	99.371254 
3167.000000	99.372830 
3166.000000	99.374564 
3165.000000	99.375947 
3164.000000	99.377132 
3163.000000	99.378308 
3162.000000	99.379245 
3161.000000	99.379687 
3160.000000	99.379775 
3159.000000	99.379808 
3158.000000	99.379823 
3157.000000	99.379682 
3156.000000	99.379432 
3155.000000	99.379311 
3154.000000	99.379455 
3153.000000	99.379786 
3152.000000	99.380209 
3151.000000	99.380785 
3150.000000	99.381657 
3149.000000	99.382867 
3148.000000	99.384246 
3147.000000	99.385492 
3146.000000	99.386389 
3145.000000	99.386960 
3144.000000	99.387378 
3143.000000	99.387776 
3142.000000	99.388169 
3141.000000	99.388557 
3140.000000	99.388994 
3139.000000	99.389523 
3138.000000	99.390105 
3137.000000	99.390676 
3136.000000	99.391229 
3135.000000	99.391804 
3134.000000	99.392406 
3133.000000	99.392990 
3132.000000	99.393504 
3131.000000	99.393943 
3130.000000	99.394350 
3129.000000	99.394802 
3128.000000	99.395362 
3127.000000	99.396034 
3126.000000	99.396766 
3125.000000	99.397472 
3124.000000	99.398083 
3123.000000	99.398591 
3122.000000	99.399016 
3121.000000	99.399405 
3120.000000	99.399819 
3119.000000	99.400302 
3118.000000	99.400866 
3117.000000	99.401485 
3116.000000	99.402138 
3115.000000	99.402819 
3114.000000	99.403512 
3113.000000	99.404184 
3112.000000	99.404803 
3111.000000	99.405373 
3110.000000	99.405934 
3109.000000	99.406547 
3108.000000	99.407264 
3107.000000	99.408074 
3106.000000	99.408867 
3105.000000	99.409470 
3104.000000	99.409795 
3103.000000	99.409955 
3102.000000	99.410212 
3101.000000	99.410756 
3100.000000	99.411588 
3099.000000	99.412585 
3098.000000	99.413632 
3097.000000	99.414658 
3096.000000	99.415599 
3095.000000	99.416416 
3094.000000	99.417131 
3093.000000	99.417757 
3092.000000	99.418208 
3091.000000	99.418388 
3090.000000	99.418424 
3089.000000	99.418665 
3088.000000	99.419339 
3087.000000	99.420264 
3086.000000	99.421012 
3085.000000	99.421320 
3084.000000	99.421242 
3083.000000	99.420952 
3082.000000	99.420567 
3081.000000	99.420285 
3080.000000	99.420466 
3079.000000	99.421404 
3078.000000	99.423078 
3077.000000	99.425159 
3076.000000	99.427204 
3075.000000	99.428866 
3074.000000	99.429948 
3073.000000	99.430419 
3072.000000	99.430421 
3071.000000	99.430202 
3070.000000	99.429969 
3069.000000	99.429798 
3068.000000	99.429700 
3067.000000	99.429781 
3066.000000	99.430262 
3065.000000	99.431292 
3064.000000	99.432727 
3063.000000	99.434102 
3062.000000	99.434942 
3061.000000	99.435130 
3060.000000	99.434934 
3059.000000	99.434754 
3058.000000	99.434815 
3057.000000	99.435115 
3056.000000	99.435590 
3055.000000	99.436203 
3054.000000	99.436880 
3053.000000	99.437463 
3052.000000	99.437767 
3051.000000	99.437723 
3050.000000	99.437459 
3049.000000	99.437263 
3048.000000	99.437391 
3047.000000	99.437830 
3046.000000	99.438233 
3045.000000	99.438174 
3044.000000	99.437553 
3043.000000	99.436729 
3042.000000	99.436260 
3041.000000	99.436405 
3040.000000	99.436971 
3039.000000	99.437519 
3038.000000	99.437759 
3037.000000	99.437687 
3036.000000	99.437380 
3035.000000	99.436824 
3034.000000	99.435991 
3033.000000	99.435032 
3032.000000	99.434216 
3031.000000	99.433670 
3030.000000	99.433280 
3029.000000	99.432926 
3028.000000	99.432707 
3027.000000	99.432809 
3026.000000	99.433189 
3025.000000	99.433487 
3024.000000	99.433286 
3023.000000	99.432427 
3022.000000	99.431090 
3021.000000	99.429569 
3020.000000	99.427912 
3019.000000	99.425895 
3018.000000	99.423483 
3017.000000	99.421229 
3016.000000	99.419906 
3015.000000	99.419594 
3014.000000	99.419457 
3013.000000	99.418757 
3012.000000	99.417883 
3011.000000	99.417811 
3010.000000	99.418707 
3009.000000	99.419609 
3008.000000	99.419588 
3007.000000	99.418706 
3006.000000	99.417527 
3005.000000	99.416159 
3004.000000	99.414272 
3003.000000	99.411877 
3002.000000	99.409574 
3001.000000	99.407972 
3000.000000	99.407181 
2999.000000	99.407017 
2998.000000	99.407380 
2997.000000	99.408183 
2996.000000	99.409027 
2995.000000	99.409209 
2994.000000	99.408263 
2993.000000	99.406339 
2992.000000	99.403942 
2991.000000	99.401297 
2990.000000	99.398170 
2989.000000	99.394463 
2988.000000	99.390820 
2987.000000	99.388332 
2986.000000	99.387598 
2985.000000	99.388204 
2984.000000	99.389045 
2983.000000	99.389020 
2982.000000	99.387523 
2981.000000	99.384722 
2980.000000	99.381619 
2979.000000	99.379513 
2978.000000	99.378893 
2977.000000	99.378880 
2976.000000	99.377970 
2975.000000	99.375318 
2974.000000	99.371156 
2973.000000	99.366206 
2972.000000	99.361164 
2971.000000	99.356726 
2970.000000	99.353497 
2969.000000	99.351343 
2968.000000	99.349020 
2967.000000	99.345053 
2966.000000	99.339178 
2965.000000	99.332609 
2964.000000	99.326785 
2963.000000	99.322194 
2962.000000	99.318578 
2961.000000	99.315669 
2960.000000	99.313168 
2959.000000	99.310439 
2958.000000	99.306984 
2957.000000	99.303240 
2956.000000	99.300382 
2955.000000	99.299344 
2954.000000	99.300433 
2953.000000	99.303597 
2952.000000	99.308232 
2951.000000	99.312710 
2950.000000	99.315074 
2949.000000	99.314641 
2948.000000	99.312324 
2947.000000	99.309154 
2946.000000	99.305249 
2945.000000	99.300661 
2944.000000	99.296172 
2943.000000	99.292198 
2942.000000	99.287336 
2941.000000	99.279259 
2940.000000	99.267233 
2939.000000	99.253295 
2938.000000	99.240911 
2937.000000	99.232661 
2936.000000	99.228739 
2935.000000	99.226791 
2934.000000	99.223240 
2933.000000	99.215582 
2932.000000	99.203931 
2931.000000	99.190342 
2930.000000	99.177059 
2929.000000	99.165705 
2928.000000	99.157347 
2927.000000	99.152063 
2926.000000	99.148448 
2925.000000	99.144778 
2924.000000	99.141163 
2923.000000	99.139731 
2922.000000	99.142249 
2921.000000	99.148167 
2920.000000	99.155452 
2919.000000	99.162816 
2918.000000	99.170659 
2917.000000	99.180049 
2916.000000	99.191253 
2915.000000	99.203199 
2914.000000	99.214248 
2913.000000	99.223579 
2912.000000	99.231932 
2911.000000	99.240849 
2910.000000	99.251132 
2909.000000	99.262138 
2908.000000	99.272305 
2907.000000	99.280220 
2906.000000	99.285422 
2905.000000	99.288678 
2904.000000	99.291265 
2903.000000	99.293603 
2902.000000	99.294880 
2901.000000	99.295016 
2900.000000	99.295803 
2899.000000	99.299826 
2898.000000	99.307288 
2897.000000	99.315260 
2896.000000	99.320631 
2895.000000	99.323114 
2894.000000	99.324897 
2893.000000	99.328070 
2892.000000	99.333129 
2891.000000	99.339378 
2890.000000	99.345713 
2889.000000	99.350893 
2888.000000	99.353865 
2887.000000	99.354389 
2886.000000	99.353407 
2885.000000	99.352622 
2884.000000	99.353431 
2883.000000	99.355967 
2882.000000	99.359132 
2881.000000	99.361758 
2880.000000	99.363583 
2879.000000	99.364858 
2878.000000	99.365341 
2877.000000	99.364470 
2876.000000	99.362612 
2875.000000	99.361317 
2874.000000	99.361844 
2873.000000	99.363871 
2872.000000	99.365946 
2871.000000	99.366696 
2870.000000	99.365387 
2869.000000	99.362178 
2868.000000	99.358402 
2867.000000	99.355895 
2866.000000	99.355129 
2865.000000	99.354425 
2864.000000	99.351707 
2863.000000	99.346612 
2862.000000	99.340156 
2861.000000	99.332987 
2860.000000	99.325173 
2859.000000	99.317394 
2858.000000	99.310787 
2857.000000	99.305343 
2856.000000	99.299740 
2855.000000	99.293474 
2854.000000	99.288359 
2853.000000	99.287145 
2852.000000	99.291116 
2851.000000	99.299480 
2850.000000	99.310626 
2849.000000	99.323332 
2848.000000	99.337004 
2847.000000	99.351324 
2846.000000	99.365749 
2845.000000	99.379065 
2844.000000	99.389582 
2843.000000	99.396224 
2842.000000	99.399712 
2841.000000	99.402522 
2840.000000	99.407284 
2839.000000	99.414822 
2838.000000	99.423633 
2837.000000	99.431373 
2836.000000	99.436958 
2835.000000	99.441150 
2834.000000	99.445177 
2833.000000	99.449143 
2832.000000	99.452041 
2831.000000	99.453002 
2830.000000	99.452080 
2829.000000	99.449978 
2828.000000	99.447617 
2827.000000	99.446065 
2826.000000	99.446317 
2825.000000	99.448612 
2824.000000	99.452099 
2823.000000	99.455459 
2822.000000	99.457944 
2821.000000	99.459806 
2820.000000	99.461830 
2819.000000	99.464528 
2818.000000	99.467649 
2817.000000	99.470369 
2816.000000	99.471985 
2815.000000	99.472400 
2814.000000	99.471909 
2813.000000	99.470742 
2812.000000	99.469168 
2811.000000	99.467994 
2810.000000	99.468422 
2809.000000	99.470947 
2808.000000	99.474521 
2807.000000	99.477164 
2806.000000	99.477608 
2805.000000	99.476330 
2804.000000	99.475089 
2803.000000	99.475437 
2802.000000	99.477502 
2801.000000	99.480052 
2800.000000	99.481617 
2799.000000	99.481662 
2798.000000	99.480738 
2797.000000	99.479646 
2796.000000	99.478615 
2795.000000	99.477377 
2794.000000	99.475930 
2793.000000	99.474915 
2792.000000	99.475023 
2791.000000	99.476200 
2790.000000	99.477680 
2789.000000	99.478791 
2788.000000	99.479538 
2787.000000	99.480319 
2786.000000	99.481245 
2785.000000	99.481911 
2784.000000	99.481811 
2783.000000	99.480844 
2782.000000	99.479405 
2781.000000	99.478108 
2780.000000	99.477433 
2779.000000	99.477524 
2778.000000	99.478202 
2777.000000	99.479144 
2776.000000	99.480093 
2775.000000	99.480926 
2774.000000	99.481566 
2773.000000	99.481945 
2772.000000	99.482094 
2771.000000	99.482190 
2770.000000	99.482381 
2769.000000	99.482583 
2768.000000	99.482561 
2767.000000	99.482265 
2766.000000	99.481966 
2765.000000	99.481945 
2764.000000	99.482104 
2763.000000	99.482029 
2762.000000	99.481456 
2761.000000	99.480558 
2760.000000	99.479783 
2759.000000	99.479440 
2758.000000	99.479536 
2757.000000	99.479940 
2756.000000	99.480499 
2755.000000	99.481017 
2754.000000	99.481246 
2753.000000	99.481062 
2752.000000	99.480645 
2751.000000	99.480397 
2750.000000	99.480592 
2749.000000	99.481146 
2748.000000	99.481710 
2747.000000	99.481992 
2746.000000	99.481983 
2745.000000	99.481890 
2744.000000	99.481907 
2743.000000	99.482035 
2742.000000	99.482132 
2741.000000	99.482129 
2740.000000	99.482138 
2739.000000	99.482313 
2738.000000	99.482663 
2737.000000	99.483076 
2736.000000	99.483486 
2735.000000	99.483904 
2734.000000	99.484262 
2733.000000	99.484360 
2732.000000	99.484061 
2731.000000	99.483477 
2730.000000	99.482893 
2729.000000	99.482522 
2728.000000	99.482397 
2727.000000	99.482466 
2726.000000	99.482668 
2725.000000	99.482925 
2724.000000	99.483210 
2723.000000	99.483662 
2722.000000	99.484509 
2721.000000	99.485770 
2720.000000	99.487064 
2719.000000	99.487818 
2718.000000	99.487747 
2717.000000	99.487089 
2716.000000	99.486410 
2715.000000	99.486183 
2714.000000	99.486537 
2713.000000	99.487301 
2712.000000	99.488130 
2711.000000	99.488634 
2710.000000	99.488616 
2709.000000	99.488293 
2708.000000	99.488131 
2707.000000	99.488277 
2706.000000	99.488299 
2705.000000	99.487744 
2704.000000	99.486912 
2703.000000	99.486688 
2702.000000	99.487539 
2701.000000	99.489004 
2700.000000	99.490276 
2699.000000	99.491173 
2698.000000	99.492228 
2697.000000	99.493893 
2696.000000	99.495865 
2695.000000	99.497285 
2694.000000	99.497625 
2693.000000	99.497245 
2692.000000	99.497035 
2691.000000	99.497427 
2690.000000	99.497898 
2689.000000	99.497644 
2688.000000	99.496569 
2687.000000	99.495336 
2686.000000	99.494548 
2685.000000	99.494221 
2684.000000	99.494163 
2683.000000	99.494408 
2682.000000	99.494967 
2681.000000	99.495433 
2680.000000	99.495231 
2679.000000	99.494268 
2678.000000	99.493094 
2677.000000	99.492491 
2676.000000	99.493008 
2675.000000	99.494717 
2674.000000	99.497080 
2673.000000	99.499096 
2672.000000	99.499971 
2671.000000	99.499693 
2670.000000	99.498854 
2669.000000	99.497957 
2668.000000	99.497101 
2667.000000	99.496347 
2666.000000	99.495975 
2665.000000	99.496146 
2664.000000	99.496453 
2663.000000	99.496072 
2662.000000	99.494462 
2661.000000	99.491950 
2660.000000	99.489589 
2659.000000	99.488295 
2658.000000	99.488120 
2657.000000	99.488510 
2656.000000	99.489152 
2655.000000	99.490254 
2654.000000	99.491831 
2653.000000	99.493229 
2652.000000	99.493807 
2651.000000	99.493834 
2650.000000	99.494169 
2649.000000	99.495140 
2648.000000	99.496248 
2647.000000	99.497060 
2646.000000	99.497908 
2645.000000	99.499407 
2644.000000	99.501504 
2643.000000	99.503198 
2642.000000	99.503201 
2641.000000	99.500921 
2640.000000	99.497071 
2639.000000	99.493443 
2638.000000	99.491499 
2637.000000	99.491137 
2636.000000	99.491128 
2635.000000	99.490647 
2634.000000	99.489995 
2633.000000	99.489812 
2632.000000	99.490278 
2631.000000	99.491349 
2630.000000	99.493009 
2629.000000	99.494845 
2628.000000	99.496000 
2627.000000	99.496163 
2626.000000	99.496152 
2625.000000	99.496932 
2624.000000	99.498363 
2623.000000	99.499535 
2622.000000	99.500087 
2621.000000	99.500509 
2620.000000	99.501139 
2619.000000	99.501560 
2618.000000	99.501168 
2617.000000	99.499918 
2616.000000	99.498339 
2615.000000	99.497093 
2614.000000	99.496614 
2613.000000	99.496905 
2612.000000	99.497527 
2611.000000	99.497928 
2610.000000	99.497837 
2609.000000	99.497291 
2608.000000	99.496495 
2607.000000	99.495963 
2606.000000	99.496616 
2605.000000	99.499178 
2604.000000	99.503257 
2603.000000	99.507301 
2602.000000	99.509892 
2601.000000	99.511043 
2600.000000	99.512002 
2599.000000	99.513761 
2598.000000	99.515816 
2597.000000	99.516549 
2596.000000	99.514791 
2595.000000	99.510876 
2594.000000	99.506427 
2593.000000	99.503081 
2592.000000	99.501478 
2591.000000	99.501386 
2590.000000	99.502230 
2589.000000	99.503347 
2588.000000	99.504070 
2587.000000	99.503967 
2586.000000	99.503112 
2585.000000	99.502059 
2584.000000	99.501447 
2583.000000	99.501547 
2582.000000	99.502034 
2581.000000	99.502179 
2580.000000	99.501468 
2579.000000	99.500156 
2578.000000	99.499147 
2577.000000	99.499189 
2576.000000	99.500204 
2575.000000	99.501381 
2574.000000	99.501903 
2573.000000	99.501628 
2572.000000	99.501174 
2571.000000	99.501331 
2570.000000	99.502260 
2569.000000	99.503333 
2568.000000	99.503857 
2567.000000	99.503837 
2566.000000	99.503813 
2565.000000	99.504067 
2564.000000	99.504367 
2563.000000	99.504505 
2562.000000	99.504626 
2561.000000	99.504822 
2560.000000	99.504774 
2559.000000	99.504127 
2558.000000	99.503066 
2557.000000	99.502293 
2556.000000	99.502493 
2555.000000	99.503910 
2554.000000	99.506182 
2553.000000	99.508347 
2552.000000	99.509410 
2551.000000	99.509148 
2550.000000	99.508260 
2549.000000	99.507577 
2548.000000	99.507175 
2547.000000	99.506635 
2546.000000	99.505900 
2545.000000	99.505457 
2544.000000	99.505754 
2543.000000	99.506739 
2542.000000	99.507853 
2541.000000	99.508292 
2540.000000	99.507499 
2539.000000	99.505734 
2538.000000	99.504036 
2537.000000	99.503204 
2536.000000	99.502980 
2535.000000	99.502661 
2534.000000	99.502158 
2533.000000	99.501821 
2532.000000	99.501424 
2531.000000	99.500240 
2530.000000	99.498342 
2529.000000	99.497036 
2528.000000	99.497449 
2527.000000	99.499282 
2526.000000	99.501227 
2525.000000	99.502384 
2524.000000	99.502840 
2523.000000	99.503127 
2522.000000	99.503721 
2521.000000	99.504838 
2520.000000	99.506167 
2519.000000	99.506841 
2518.000000	99.506159 
2517.000000	99.504407 
2516.000000	99.502683 
2515.000000	99.501779 
2514.000000	99.501623 
2513.000000	99.501902 
2512.000000	99.502732 
2511.000000	99.504409 
2510.000000	99.506761 
2509.000000	99.509151 
2508.000000	99.511056 
2507.000000	99.512326 
2506.000000	99.512843 
2505.000000	99.512297 
2504.000000	99.510538 
2503.000000	99.508082 
2502.000000	99.506017 
2501.000000	99.505266 
2500.000000	99.506008 
2499.000000	99.507812 
2498.000000	99.510060 
2497.000000	99.512130 
2496.000000	99.513371 
2495.000000	99.513351 
2494.000000	99.512333 
2493.000000	99.511295 
2492.000000	99.511177 
2491.000000	99.512120 
2490.000000	99.513588 
2489.000000	99.515126 
2488.000000	99.516801 
2487.000000	99.518801 
2486.000000	99.520672 
2485.000000	99.521249 
2484.000000	99.519653 
2483.000000	99.516276 
2482.000000	99.512674 
2481.000000	99.510199 
2480.000000	99.508814 
2479.000000	99.507591 
2478.000000	99.506126 
2477.000000	99.505042 
2476.000000	99.505094 
2475.000000	99.506336 
2474.000000	99.508292 
2473.000000	99.510413 
2472.000000	99.512069 
2471.000000	99.512626 
2470.000000	99.512025 
2469.000000	99.511063 
2468.000000	99.510638 
2467.000000	99.510823 
2466.000000	99.511025 
2465.000000	99.510885 
2464.000000	99.510595 
2463.000000	99.510442 
2462.000000	99.510444 
2461.000000	99.510443 
2460.000000	99.510233 
2459.000000	99.509584 
2458.000000	99.508356 
2457.000000	99.506681 
2456.000000	99.504891 
2455.000000	99.503354 
2454.000000	99.502471 
2453.000000	99.502544 
2452.000000	99.503345 
2451.000000	99.504028 
2450.000000	99.503849 
2449.000000	99.502953 
2448.000000	99.502161 
2447.000000	99.502086 
2446.000000	99.502759 
2445.000000	99.503928 
2444.000000	99.505260 
2443.000000	99.506248 
2442.000000	99.506423 
2441.000000	99.505811 
2440.000000	99.505030 
2439.000000	99.504725 
2438.000000	99.504987 
2437.000000	99.505433 
2436.000000	99.505658 
2435.000000	99.505496 
2434.000000	99.505000 
2433.000000	99.504430 
2432.000000	99.504184 
2431.000000	99.504501 
2430.000000	99.505190 
2429.000000	99.505717 
2428.000000	99.505642 
2427.000000	99.504945 
2426.000000	99.503991 
2425.000000	99.503278 
2424.000000	99.503120 
2423.000000	99.503549 
2422.000000	99.504446 
2421.000000	99.505688 
2420.000000	99.507043 
2419.000000	99.507990 
2418.000000	99.508004 
2417.000000	99.507089 
2416.000000	99.505795 
2415.000000	99.504579 
2414.000000	99.503395 
2413.000000	99.502144 
2412.000000	99.501118 
2411.000000	99.500702 
2410.000000	99.500849 
2409.000000	99.501099 
2408.000000	99.501068 
2407.000000	99.500714 
2406.000000	99.500202 
2405.000000	99.499762 
2404.000000	99.499584 
2403.000000	99.499634 
2402.000000	99.499624 
2401.000000	99.499285 
2400.000000	99.498628 
2399.000000	99.497848 
2398.000000	99.497089 
2397.000000	99.496374 
2396.000000	99.495778 
2395.000000	99.495446 
2394.000000	99.495360 
2393.000000	99.495258 
2392.000000	99.494911 
2391.000000	99.494352 
2390.000000	99.493722 
2389.000000	99.493038 
2388.000000	99.492281 
2387.000000	99.491557 
2386.000000	99.490990 
2385.000000	99.490498 
2384.000000	99.489869 
2383.000000	99.489084 
2382.000000	99.488380 
2381.000000	99.487928 
2380.000000	99.487578 
2379.000000	99.487050 
2378.000000	99.486314 
2377.000000	99.485643 
2376.000000	99.485253 
2375.000000	99.485046 
2374.000000	99.484763 
2373.000000	99.484283 
2372.000000	99.483637 
2371.000000	99.482835 
2370.000000	99.481889 
2369.000000	99.480997 
2368.000000	99.480460 
2367.000000	99.480371 
2366.000000	99.480590 
2365.000000	99.480938 
2364.000000	99.481178 
2363.000000	99.480868 
2362.000000	99.479589 
2361.000000	99.477453 
2360.000000	99.475192 
2359.000000	99.473520 
2358.000000	99.472686 
2357.000000	99.472606 
2356.000000	99.473135 
2355.000000	99.474038 
2354.000000	99.475075 
2353.000000	99.475841 
2352.000000	99.475975 
2351.000000	99.475474 
2350.000000	99.474597 
2349.000000	99.473667 
2348.000000	99.472942 
2347.000000	99.472684 
2346.000000	99.472901 
2345.000000	99.473169 
2344.000000	99.473168 
2343.000000	99.472982 
2342.000000	99.472878 
2341.000000	99.472769 
2340.000000	99.472502 
2339.000000	99.472262 
2338.000000	99.472423 
2337.000000	99.472975 
2336.000000	99.473355 
2335.000000	99.473281 
2334.000000	99.473183 
2333.000000	99.473690 
2332.000000	99.474721 
2331.000000	99.475771 
2330.000000	99.476361 
2329.000000	99.476512 
2328.000000	99.476336 
2327.000000	99.476182 
2326.000000	99.476242 
2325.000000	99.476412 
2324.000000	99.476390 
2323.000000	99.476309 
2322.000000	99.476733 
2321.000000	99.477834 
2320.000000	99.478951 
2319.000000	99.479423 
2318.000000	99.479362 
2317.000000	99.479510 
2316.000000	99.480167 
2315.000000	99.481180 
2314.000000	99.482254 
2313.000000	99.483475 
2312.000000	99.484862 
2311.000000	99.486343 
2310.000000	99.487659 
2309.000000	99.488684 
2308.000000	99.489330 
2307.000000	99.489695 
2306.000000	99.489977 
2305.000000	99.490508 
2304.000000	99.491491 
2303.000000	99.492946 
2302.000000	99.494617 
2301.000000	99.496204 
2300.000000	99.497532 
2299.000000	99.498764 
2298.000000	99.500063 
2297.000000	99.501355 
2296.000000	99.502293 
2295.000000	99.502818 
2294.000000	99.503353 
2293.000000	99.504482 
2292.000000	99.506318 
2291.000000	99.508399 
2290.000000	99.510053 
2289.000000	99.510993 
2288.000000	99.511411 
2287.000000	99.511747 
2286.000000	99.512367 
2285.000000	99.513283 
2284.000000	99.514190 
2283.000000	99.514796 
2282.000000	99.515237 
2281.000000	99.515972 
2280.000000	99.517220 
2279.000000	99.518664 
2278.000000	99.519852 
2277.000000	99.520713 
2276.000000	99.521484 
2275.000000	99.522226 
2274.000000	99.522726 
2273.000000	99.522935 
2272.000000	99.523141 
2271.000000	99.523655 
2270.000000	99.524548 
2269.000000	99.525795 
2268.000000	99.527399 
2267.000000	99.529230 
2266.000000	99.530900 
2265.000000	99.531992 
2264.000000	99.532300 
2263.000000	99.531764 
2262.000000	99.530510 
2261.000000	99.529097 
2260.000000	99.528362 
2259.000000	99.528632 
2258.000000	99.529324 
2257.000000	99.529797 
2256.000000	99.530367 
2255.000000	99.531903 
2254.000000	99.534508 
2253.000000	99.537156 
2252.000000	99.538877 
2251.000000	99.539720 
2250.000000	99.540133 
2249.000000	99.539961 
2248.000000	99.538570 
2247.000000	99.536063 
2246.000000	99.533456 
2245.000000	99.531851 
2244.000000	99.531572 
2243.000000	99.532195 
2242.000000	99.533229 
2241.000000	99.534489 
2240.000000	99.536076 
2239.000000	99.538191 
2238.000000	99.540787 
2237.000000	99.543271 
2236.000000	99.544700 
2235.000000	99.544463 
2234.000000	99.542850 
2233.000000	99.540908 
2232.000000	99.539605 
2231.000000	99.539085 
2230.000000	99.538778 
2229.000000	99.538147 
2228.000000	99.537302 
2227.000000	99.536836 
2226.000000	99.537109 
2225.000000	99.537940 
2224.000000	99.538912 
2223.000000	99.539845 
2222.000000	99.540755 
2221.000000	99.541540 
2220.000000	99.542010 
2219.000000	99.542187 
2218.000000	99.542389 
2217.000000	99.542884 
2216.000000	99.543586 
2215.000000	99.544169 
2214.000000	99.544460 
2213.000000	99.544573 
2212.000000	99.544728 
2211.000000	99.545022 
2210.000000	99.545430 
2209.000000	99.545923 
2208.000000	99.546487 
2207.000000	99.547062 
2206.000000	99.547537 
2205.000000	99.547869 
2204.000000	99.548111 
2203.000000	99.548396 
2202.000000	99.548868 
2201.000000	99.549598 
2200.000000	99.550452 
2199.000000	99.551143 
2198.000000	99.551508 
2197.000000	99.551683 
2196.000000	99.552013 
2195.000000	99.552735 
2194.000000	99.553776 
2193.000000	99.554839 
2192.000000	99.555674 
2191.000000	99.556216 
2190.000000	99.556626 
2189.000000	99.557305 
2188.000000	99.558619 
2187.000000	99.560220 
2186.000000	99.560886 
2185.000000	99.559635 
2184.000000	99.557063 
2183.000000	99.555105 
2182.000000	99.554955 
2181.000000	99.555978 
2180.000000	99.556891 
2179.000000	99.557568 
2178.000000	99.558863 
2177.000000	99.561143 
2176.000000	99.563771 
2175.000000	99.565801 
2174.000000	99.566634 
2173.000000	99.566344 
2172.000000	99.565979 
2171.000000	99.567190 
2170.000000	99.570753 
2169.000000	99.575334 
2168.000000	99.578325 
2167.000000	99.578242 
2166.000000	99.575948 
2165.000000	99.573852 
2164.000000	99.574062 
2163.000000	99.577046 
2162.000000	99.581288 
2161.000000	99.583904 
2160.000000	99.582310 
2159.000000	99.575971 
2158.000000	99.566970 
2157.000000	99.558630 
2156.000000	99.553211 
2155.000000	99.551019 
2154.000000	99.551272 
2153.000000	99.553258 
2152.000000	99.556508 
2151.000000	99.560086 
2150.000000	99.562481 
2149.000000	99.562937 
2148.000000	99.562505 
2147.000000	99.562697 
2146.000000	99.563079 
2145.000000	99.561443 
2144.000000	99.556767 
2143.000000	99.550912 
2142.000000	99.546838 
2141.000000	99.545557 
2140.000000	99.545726 
2139.000000	99.545632 
2138.000000	99.544846 
2137.000000	99.544044 
2136.000000	99.543804 
2135.000000	99.543884 
2134.000000	99.543641 
2133.000000	99.543014 
2132.000000	99.542614 
2131.000000	99.542454 
2130.000000	99.541132 
2129.000000	99.537213 
2128.000000	99.531409 
2127.000000	99.526439 
2126.000000	99.524239 
2125.000000	99.524422 
2124.000000	99.525698 
2123.000000	99.527776 
2122.000000	99.530923 
2121.000000	99.534406 
2120.000000	99.536809 
2119.000000	99.537670 
2118.000000	99.537543 
2117.000000	99.536778 
2116.000000	99.535341 
2115.000000	99.533764 
2114.000000	99.533216 
2113.000000	99.534092 
2112.000000	99.535209 
2111.000000	99.535160 
2110.000000	99.534002 
2109.000000	99.533001 
2108.000000	99.532949 
2107.000000	99.533213 
2106.000000	99.532537 
2105.000000	99.530564 
2104.000000	99.528485 
2103.000000	99.528090 
2102.000000	99.529967 
2101.000000	99.532775 
2100.000000	99.534520 
2099.000000	99.534504 
2098.000000	99.533747 
2097.000000	99.533767 
2096.000000	99.535310 
2095.000000	99.538114 
2094.000000	99.541246 
2093.000000	99.543595 
2092.000000	99.544580 
2091.000000	99.544615 
2090.000000	99.544691 
2089.000000	99.545283 
2088.000000	99.545801 
2087.000000	99.545227 
2086.000000	99.543199 
2085.000000	99.540595 
2084.000000	99.539172 
2083.000000	99.540326 
2082.000000	99.543879 
2081.000000	99.548075 
2080.000000	99.551268 
2079.000000	99.553660 
2078.000000	99.556847 
2077.000000	99.561747 
2076.000000	99.567355 
2075.000000	99.571548 
2074.000000	99.572590 
2073.000000	99.569971 
2072.000000	99.564976 
2071.000000	99.560233 
2070.000000	99.557886 
2069.000000	99.557982 
2068.000000	99.558737 
2067.000000	99.558507 
2066.000000	99.557183 
2065.000000	99.555970 
2064.000000	99.556283 
2063.000000	99.558667 
2062.000000	99.562157 
2061.000000	99.564691 
2060.000000	99.564971 
2059.000000	99.563872 
2058.000000	99.563551 
2057.000000	99.565077 
2056.000000	99.567613 
2055.000000	99.569801 
2054.000000	99.571287 
2053.000000	99.572546 
2052.000000	99.573906 
2051.000000	99.575224 
2050.000000	99.576163 
2049.000000	99.576468 
2048.000000	99.576165 
2047.000000	99.575689 
2046.000000	99.575591 
2045.000000	99.575953 
2044.000000	99.576308 
2043.000000	99.576246 
2042.000000	99.575863 
2041.000000	99.575505 
2040.000000	99.575337 
2039.000000	99.575284 
2038.000000	99.575247 
2037.000000	99.575193 
2036.000000	99.575105 
2035.000000	99.574962 
2034.000000	99.574764 
2033.000000	99.574548 
2032.000000	99.574351 
2031.000000	99.574189 
2030.000000	99.574060 
2029.000000	99.573933 
2028.000000	99.573766 
2027.000000	99.573536 
2026.000000	99.573254 
2025.000000	99.572952 
2024.000000	99.572655 
2023.000000	99.572367 
2022.000000	99.572070 
2021.000000	99.571743 
2020.000000	99.571374 
2019.000000	99.570975 
2018.000000	99.570567 
2017.000000	99.570158 
2016.000000	99.569714 
2015.000000	99.569197 
2014.000000	99.568626 
2013.000000	99.568074 
2012.000000	99.567588 
2011.000000	99.567159 
2010.000000	99.566801 
2009.000000	99.566593 
2008.000000	99.566586 
2007.000000	99.566708 
2006.000000	99.566791 
2005.000000	99.566711 
2004.000000	99.566476 
2003.000000	99.566204 
2002.000000	99.566009 
2001.000000	99.565863 
2000.000000	99.565525 
1999.000000	99.564706 
1998.000000	99.563390 
1997.000000	99.562014 
1996.000000	99.561167 
1995.000000	99.561098 
1994.000000	99.561654 
1993.000000	99.562625 
1992.000000	99.563899 
1991.000000	99.565184 
1990.000000	99.565796 
1989.000000	99.565151 
1988.000000	99.563666 
1987.000000	99.562966 
1986.000000	99.564445 
1985.000000	99.567872 
1984.000000	99.571287 
1983.000000	99.572819 
1982.000000	99.572216 
1981.000000	99.570470 
1980.000000	99.568810 
1979.000000	99.567994 
1978.000000	99.568268 
1977.000000	99.569117 
1976.000000	99.569337 
1975.000000	99.568290 
1974.000000	99.567060 
1973.000000	99.567505 
1972.000000	99.569954 
1971.000000	99.572588 
1970.000000	99.573587 
1969.000000	99.573319 
1968.000000	99.573710 
1967.000000	99.575581 
1966.000000	99.577610 
1965.000000	99.578271 
1964.000000	99.577726 
1963.000000	99.577194 
1962.000000	99.577256 
1961.000000	99.577556 
1960.000000	99.577748 
1959.000000	99.577835 
1958.000000	99.577596 
1957.000000	99.576551 
1956.000000	99.574566 
1955.000000	99.571796 
1954.000000	99.568051 
1953.000000	99.563102 
1952.000000	99.557807 
1951.000000	99.554169 
1950.000000	99.553741 
1949.000000	99.556181 
1948.000000	99.559558 
1947.000000	99.562058 
1946.000000	99.562951 
1945.000000	99.562080 
1944.000000	99.559451 
1943.000000	99.555752 
1942.000000	99.552405 
1941.000000	99.550186 
1940.000000	99.548542 
1939.000000	99.546710 
1938.000000	99.544911 
1937.000000	99.544035 
1936.000000	99.544419 
1935.000000	99.545352 
1934.000000	99.545793 
1933.000000	99.545337 
1932.000000	99.544390 
1931.000000	99.543700 
1930.000000	99.543788 
1929.000000	99.544506 
1928.000000	99.545100 
1927.000000	99.544862 
1926.000000	99.543695 
1925.000000	99.542006 
1924.000000	99.540322 
1923.000000	99.539060 
1922.000000	99.538438 
1921.000000	99.538357 
1920.000000	99.538467 
1919.000000	99.538376 
1918.000000	99.537934 
1917.000000	99.537288 
1916.000000	99.536670 
1915.000000	99.536203 
1914.000000	99.535867 
1913.000000	99.535588 
1912.000000	99.535289 
1911.000000	99.534925 
1910.000000	99.534495 
1909.000000	99.534025 
1908.000000	99.533534 
1907.000000	99.533029 
1906.000000	99.532508 
1905.000000	99.531971 
1904.000000	99.531419 
1903.000000	99.530848 
1902.000000	99.530262 
1901.000000	99.529671 
1900.000000	99.529099 
1899.000000	99.528566 
1898.000000	99.528082 
1897.000000	99.527637 
1896.000000	99.527203 
1895.000000	99.526763 
1894.000000	99.526326 
1893.000000	99.525934 
1892.000000	99.525606 
1891.000000	99.525287 
1890.000000	99.524892 
1889.000000	99.524436 
1888.000000	99.524050 
1887.000000	99.523832 
1886.000000	99.523706 
1885.000000	99.523459 
1884.000000	99.522905 
1883.000000	99.522053 
1882.000000	99.521119 
1881.000000	99.520356 
1880.000000	99.519953 
1879.000000	99.519992 
1878.000000	99.520251 
1877.000000	99.520176 
1876.000000	99.519401 
1875.000000	99.518397 
1874.000000	99.518220 
1873.000000	99.519273 
1872.000000	99.520619 
1871.000000	99.520841 
1870.000000	99.519488 
1869.000000	99.517362 
1868.000000	99.515302 
1867.000000	99.513286 
1866.000000	99.511209 
1865.000000	99.509319 
1864.000000	99.507970 
1863.000000	99.507712 
1862.000000	99.509257 
1861.000000	99.512588 
1860.000000	99.516214 
1859.000000	99.518367 
1858.000000	99.519045 
1857.000000	99.519755 
1856.000000	99.521464 
1855.000000	99.523642 
1854.000000	99.525189 
1853.000000	99.525497 
1852.000000	99.524663 
1851.000000	99.523202 
1850.000000	99.521664 
1849.000000	99.520453 
1848.000000	99.519788 
1847.000000	99.519818 
1846.000000	99.520540 
1845.000000	99.521170 
1844.000000	99.520193 
1843.000000	99.517277 
1842.000000	99.514299 
1841.000000	99.513138 
1840.000000	99.514056 
1839.000000	99.516147 
1838.000000	99.518355 
1837.000000	99.520175 
1836.000000	99.521478 
1835.000000	99.522268 
1834.000000	99.522715 
1833.000000	99.523096 
1832.000000	99.523619 
1831.000000	99.524030 
1830.000000	99.523872 
1829.000000	99.523359 
1828.000000	99.523319 
1827.000000	99.524039 
1826.000000	99.524921 
1825.000000	99.525445 
1824.000000	99.525638 
1823.000000	99.525537 
1822.000000	99.524857 
1821.000000	99.523218 
1820.000000	99.520618 
1819.000000	99.517631 
1818.000000	99.515298 
1817.000000	99.514485 
1816.000000	99.514921 
1815.000000	99.515506 
1814.000000	99.515819 
1813.000000	99.516619 
1812.000000	99.518729 
1811.000000	99.521736 
1810.000000	99.524593 
1809.000000	99.526815 
1808.000000	99.528020 
1807.000000	99.527584 
1806.000000	99.525595 
1805.000000	99.523283 
1804.000000	99.521853 
1803.000000	99.521361 
1802.000000	99.521200 
1801.000000	99.521180 
1800.000000	99.521203 
1799.000000	99.520783 
1798.000000	99.520034 
1797.000000	99.519771 
1796.000000	99.520392 
1795.000000	99.521572 
1794.000000	99.522840 
1793.000000	99.523954 
1792.000000	99.524766 
1791.000000	99.524872 
1790.000000	99.524344 
1789.000000	99.524040 
1788.000000	99.524759 
1787.000000	99.526566 
1786.000000	99.528701 
1785.000000	99.529983 
1784.000000	99.529658 
1783.000000	99.528237 
1782.000000	99.526982 
1781.000000	99.526492 
1780.000000	99.526139 
1779.000000	99.525050 
1778.000000	99.523547 
1777.000000	99.522648 
1776.000000	99.522835 
1775.000000	99.524051 
1774.000000	99.526185 
1773.000000	99.528898 
1772.000000	99.531143 
1771.000000	99.531675 
1770.000000	99.530350 
1769.000000	99.527976 
1768.000000	99.525564 
1767.000000	99.523519 
1766.000000	99.521689 
1765.000000	99.520129 
1764.000000	99.519207 
1763.000000	99.519156 
1762.000000	99.519645 
1761.000000	99.520056 
1760.000000	99.520128 
1759.000000	99.519855 
1758.000000	99.519194 
1757.000000	99.518079 
1756.000000	99.516739 
1755.000000	99.515422 
1754.000000	99.513887 
1753.000000	99.511824 
1752.000000	99.509930 
1751.000000	99.509880 
1750.000000	99.511979 
1749.000000	99.514159 
1748.000000	99.514487 
1747.000000	99.512960 
1746.000000	99.510549 
1745.000000	99.507997 
1744.000000	99.505788 
1743.000000	99.504240 
1742.000000	99.503448 
1741.000000	99.503492 
1740.000000	99.504254 
1739.000000	99.505068 
1738.000000	99.505340 
1737.000000	99.505069 
1736.000000	99.504291 
1735.000000	99.502803 
1734.000000	99.501500 
1733.000000	99.502176 
1732.000000	99.505404 
1731.000000	99.509853 
1730.000000	99.513704 
1729.000000	99.515956 
1728.000000	99.516831 
1727.000000	99.516961 
1726.000000	99.516508 
1725.000000	99.515491 
1724.000000	99.514336 
1723.000000	99.513594 
1722.000000	99.513602 
1721.000000	99.514555 
1720.000000	99.516320 
1719.000000	99.517848 
1718.000000	99.517375 
1717.000000	99.514808 
1716.000000	99.511547 
1715.000000	99.508443 
1714.000000	99.506232 
1713.000000	99.505612 
1712.000000	99.506313 
1711.000000	99.507468 
1710.000000	99.508408 
1709.000000	99.509006 
1708.000000	99.509347 
1707.000000	99.509195 
1706.000000	99.508528 
1705.000000	99.507941 
1704.000000	99.507407 
1703.000000	99.505794 
1702.000000	99.502382 
1701.000000	99.498133 
1700.000000	99.495587 
1699.000000	99.494887 
1698.000000	99.494901 
1697.000000	99.495100 
1696.000000	99.495181 
1695.000000	99.494490 
1694.000000	99.493223 
1693.000000	99.491944 
1692.000000	99.490355 
1691.000000	99.488191 
1690.000000	99.485698 
1689.000000	99.483229 
1688.000000	99.480782 
1687.000000	99.478095 
1686.000000	99.475387 
1685.000000	99.473520 
1684.000000	99.473042 
1683.000000	99.472594 
1682.000000	99.471085 
1681.000000	99.468415 
1680.000000	99.465397 
1679.000000	99.463030 
1678.000000	99.461521 
1677.000000	99.460187 
1676.000000	99.458491 
1675.000000	99.456809 
1674.000000	99.455355 
1673.000000	99.453903 
1672.000000	99.452424 
1671.000000	99.451399 
1670.000000	99.451215 
1669.000000	99.450669 
1668.000000	99.448516 
1667.000000	99.445481 
1666.000000	99.442295 
1665.000000	99.439031 
1664.000000	99.435998 
1663.000000	99.434062 
1662.000000	99.433610 
1661.000000	99.433632 
1660.000000	99.433050 
1659.000000	99.431904 
1658.000000	99.430405 
1657.000000	99.427942 
1656.000000	99.423009 
1655.000000	99.415807 
1654.000000	99.409387 
1653.000000	99.407121 
1652.000000	99.405302 
1651.000000	99.405436 
1650.000000	99.406455 
1649.000000	99.405446 
1648.000000	99.401749 
1647.000000	99.397771 
1646.000000	99.395072 
1645.000000	99.394105 
1644.000000	99.395312 
1643.000000	99.397898 
1642.000000	99.400224 
1641.000000	99.401235 
1640.000000	99.401190 
1639.000000	99.401102 
1638.000000	99.401621 
1637.000000	99.402367 
1636.000000	99.402060 
1635.000000	99.400801 
1634.000000	99.400921 
1633.000000	99.403472 
1632.000000	99.406750 
1631.000000	99.409655 
1630.000000	99.412177 
1629.000000	99.413859 
1628.000000	99.413901 
1627.000000	99.413235 
1626.000000	99.413980 
1625.000000	99.417040 
1624.000000	99.421476 
1623.000000	99.425798 
1622.000000	99.429157 
1621.000000	99.431256 
1620.000000	99.431987 
1619.000000	99.431709 
1618.000000	99.431662 
1617.000000	99.432605 
1616.000000	99.433815 
1615.000000	99.435483 
1614.000000	99.438002 
1613.000000	99.440342 
1612.000000	99.441936 
1611.000000	99.443260 
1610.000000	99.444720 
1609.000000	99.445820 
1608.000000	99.446350 
1607.000000	99.447180 
1606.000000	99.448835 
1605.000000	99.450806 
1604.000000	99.452912 
1603.000000	99.455757 
1602.000000	99.459305 
1601.000000	99.462324 
1600.000000	99.464055 
1599.000000	99.465315 
1598.000000	99.467290 
1597.000000	99.470123 
1596.000000	99.473157 
1595.000000	99.475917 
1594.000000	99.478267 
1593.000000	99.479917 
1592.000000	99.480690 
1591.000000	99.481052 
1590.000000	99.481768 
1589.000000	99.483044 
1588.000000	99.484664 
1587.000000	99.486591 
1586.000000	99.488619 
1585.000000	99.489943 
1584.000000	99.490037 
1583.000000	99.489447 
1582.000000	99.489247 
1581.000000	99.489855 
1580.000000	99.491010 
1579.000000	99.492503 
1578.000000	99.494340 
1577.000000	99.496180 
1576.000000	99.497287 
1575.000000	99.497882 
1574.000000	99.498864 
1573.000000	99.500039 
1572.000000	99.500966 
1571.000000	99.501844 
1570.000000	99.503087 
1569.000000	99.504424 
1568.000000	99.505415 
1567.000000	99.506217 
1566.000000	99.507027 
1565.000000	99.507881 
1564.000000	99.508790 
1563.000000	99.509785 
1562.000000	99.510813 
1561.000000	99.511728 
1560.000000	99.512363 
1559.000000	99.512980 
1558.000000	99.513703 
1557.000000	99.514379 
1556.000000	99.515078 
1555.000000	99.515785 
1554.000000	99.516456 
1553.000000	99.517104 
1552.000000	99.517793 
1551.000000	99.518543 
1550.000000	99.519335 
1549.000000	99.520108 
1548.000000	99.520819 
1547.000000	99.521470 
1546.000000	99.522078 
1545.000000	99.522673 
1544.000000	99.523284 
1543.000000	99.523916 
1542.000000	99.524570 
1541.000000	99.525271 
1540.000000	99.525999 
1539.000000	99.526673 
1538.000000	99.527296 
1537.000000	99.527922 
1536.000000	99.528548 
1535.000000	99.529155 
1534.000000	99.529818 
1533.000000	99.530674 
1532.000000	99.531576 
1531.000000	99.532176 
1530.000000	99.532436 
1529.000000	99.532641 
1528.000000	99.532945 
1527.000000	99.533319 
1526.000000	99.533753 
1525.000000	99.534420 
1524.000000	99.535431 
1523.000000	99.536768 
1522.000000	99.538607 
1521.000000	99.540944 
1520.000000	99.542731 
1519.000000	99.543230 
1518.000000	99.542314 
1517.000000	99.540509 
1516.000000	99.538904 
1515.000000	99.538322 
1514.000000	99.538812 
1513.000000	99.539764 
1512.000000	99.540411 
1511.000000	99.540229 
1510.000000	99.539193 
1509.000000	99.537797 
1508.000000	99.537554 
1507.000000	99.539805 
1506.000000	99.541642 
1505.000000	99.540481 
1504.000000	99.538566 
1503.000000	99.536814 
1502.000000	99.535242 
1501.000000	99.534541 
1500.000000	99.535546 
1499.000000	99.537875 
1498.000000	99.540194 
1497.000000	99.542765 
1496.000000	99.546674 
1495.000000	99.550480 
1494.000000	99.552019 
1493.000000	99.550819 
1492.000000	99.547596 
1491.000000	99.543586 
1490.000000	99.540156 
1489.000000	99.538024 
1488.000000	99.535951 
1487.000000	99.532639 
1486.000000	99.529651 
1485.000000	99.528553 
1484.000000	99.528622 
1483.000000	99.528274 
1482.000000	99.526450 
1481.000000	99.523684 
1480.000000	99.521140 
1479.000000	99.519249 
1478.000000	99.517686 
1477.000000	99.516093 
1476.000000	99.513948 
1475.000000	99.510006 
1474.000000	99.504362 
1473.000000	99.499873 
1472.000000	99.498815 
1471.000000	99.498453 
1470.000000	99.496037 
1469.000000	99.492305 
1468.000000	99.489326 
1467.000000	99.488058 
1466.000000	99.488093 
1465.000000	99.488411 
1464.000000	99.487972 
1463.000000	99.486629 
1462.000000	99.485274 
1461.000000	99.484723 
1460.000000	99.484333 
1459.000000	99.482438 
1458.000000	99.477841 
1457.000000	99.473292 
1456.000000	99.472694 
1455.000000	99.475257 
1454.000000	99.477916 
1453.000000	99.479157 
1452.000000	99.479430 
1451.000000	99.479671 
1450.000000	99.480363 
1449.000000	99.481856 
1448.000000	99.484118 
1447.000000	99.486114 
1446.000000	99.487146 
1445.000000	99.487945 
1444.000000	99.489262 
1443.000000	99.490447 
1442.000000	99.490599 
1441.000000	99.490033 
1440.000000	99.489957 
1439.000000	99.490803 
1438.000000	99.491393 
1437.000000	99.490620 
1436.000000	99.488902 
1435.000000	99.486681 
1434.000000	99.484281 
1433.000000	99.482796 
1432.000000	99.483115 
1431.000000	99.485036 
1430.000000	99.487072 
1429.000000	99.488341 
1428.000000	99.489558 
1427.000000	99.491419 
1426.000000	99.493452 
1425.000000	99.494656 
1424.000000	99.495225 
1423.000000	99.496030 
1422.000000	99.496995 
1421.000000	99.497661 
1420.000000	99.498088 
1419.000000	99.498591 
1418.000000	99.498629 
1417.000000	99.498063 
1416.000000	99.497770 
1415.000000	99.498106 
1414.000000	99.498590 
1413.000000	99.498744 
1412.000000	99.498713 
1411.000000	99.498827 
1410.000000	99.499006 
1409.000000	99.499214 
1408.000000	99.499780 
1407.000000	99.500795 
1406.000000	99.501864 
1405.000000	99.502717 
1404.000000	99.503687 
1403.000000	99.504938 
1402.000000	99.506002 
1401.000000	99.506505 
1400.000000	99.506679 
1399.000000	99.507160 
1398.000000	99.508145 
1397.000000	99.509286 
1396.000000	99.510270 
1395.000000	99.511064 
1394.000000	99.511707 
1393.000000	99.512302 
1392.000000	99.513183 
1391.000000	99.514535 
1390.000000	99.516159 
1389.000000	99.517604 
1388.000000	99.518579 
1387.000000	99.519132 
1386.000000	99.519480 
1385.000000	99.519816 
1384.000000	99.520300 
1383.000000	99.521019 
1382.000000	99.521904 
1381.000000	99.522821 
1380.000000	99.523696 
1379.000000	99.524541 
1378.000000	99.525354 
1377.000000	99.526088 
1376.000000	99.526791 
1375.000000	99.527671 
1374.000000	99.528852 
1373.000000	99.530108 
1372.000000	99.531144 
1371.000000	99.532043 
1370.000000	99.533158 
1369.000000	99.534595 
1368.000000	99.536151 
1367.000000	99.537592 
1366.000000	99.538822 
1365.000000	99.539845 
1364.000000	99.540677 
1363.000000	99.541440 
1362.000000	99.542352 
1361.000000	99.543413 
1360.000000	99.544420 
1359.000000	99.545366 
1358.000000	99.546506 
1357.000000	99.547957 
1356.000000	99.549507 
1355.000000	99.550898 
1354.000000	99.552129 
1353.000000	99.553273 
1352.000000	99.554071 
1351.000000	99.554177 
1350.000000	99.553934 
1349.000000	99.553986 
1348.000000	99.554660 
1347.000000	99.555816 
1346.000000	99.557271 
1345.000000	99.558857 
1344.000000	99.560323 
1343.000000	99.561485 
1342.000000	99.562426 
1341.000000	99.563280 
1340.000000	99.563968 
1339.000000	99.564389 
1338.000000	99.564751 
1337.000000	99.565547 
1336.000000	99.567071 
1335.000000	99.569041 
1334.000000	99.570853 
1333.000000	99.572172 
1332.000000	99.573095 
1331.000000	99.573893 
1330.000000	99.574654 
1329.000000	99.575071 
1328.000000	99.574699 
1327.000000	99.573472 
1326.000000	99.571979 
1325.000000	99.570944 
1324.000000	99.570900 
1323.000000	99.571923 
1322.000000	99.573450 
1321.000000	99.574589 
1320.000000	99.574940 
1319.000000	99.574899 
1318.000000	99.575037 
1317.000000	99.575455 
1316.000000	99.575837 
1315.000000	99.575840 
1314.000000	99.575330 
1313.000000	99.574635 
1312.000000	99.574545 
1311.000000	99.575619 
1310.000000	99.577478 
1309.000000	99.579059 
1308.000000	99.579621 
1307.000000	99.579132 
1306.000000	99.577923 
1305.000000	99.576287 
1304.000000	99.574897 
1303.000000	99.574702 
1302.000000	99.576036 
1301.000000	99.578085 
1300.000000	99.579534 
1299.000000	99.579517 
1298.000000	99.577965 
1297.000000	99.575626 
1296.000000	99.573843 
1295.000000	99.573845 
1294.000000	99.575759 
1293.000000	99.578505 
1292.000000	99.580718 
1291.000000	99.581572 
1290.000000	99.580937 
1289.000000	99.579387 
1288.000000	99.577991 
1287.000000	99.577393 
1286.000000	99.577073 
1285.000000	99.576146 
1284.000000	99.574787 
1283.000000	99.574102 
1282.000000	99.574579 
1281.000000	99.575540 
1280.000000	99.576224 
1279.000000	99.576498 
1278.000000	99.576164 
1277.000000	99.574706 
1276.000000	99.572288 
1275.000000	99.570226 
1274.000000	99.569651 
1273.000000	99.570389 
1272.000000	99.571805 
1271.000000	99.573807 
1270.000000	99.576160 
1269.000000	99.577832 
1268.000000	99.578257 
1267.000000	99.578394 
1266.000000	99.579232 
1265.000000	99.580114 
1264.000000	99.579648 
1263.000000	99.577491 
1262.000000	99.574276 
1261.000000	99.570617 
1260.000000	99.567313 
1259.000000	99.565823 
1258.000000	99.566902 
1257.000000	99.569316 
1256.000000	99.570931 
1255.000000	99.570914 
1254.000000	99.570273 
1253.000000	99.570568 
1252.000000	99.572367 
1251.000000	99.574534 
1250.000000	99.574813 
1249.000000	99.572062 
1248.000000	99.568233 
1247.000000	99.566959 
1246.000000	99.569322 
1245.000000	99.572295 
1244.000000	99.572187 
1243.000000	99.568461 
1242.000000	99.563485 
1241.000000	99.559818 
1240.000000	99.558703 
1239.000000	99.559966 
1238.000000	99.561968 
1237.000000	99.562361 
1236.000000	99.559948 
1235.000000	99.555401 
1234.000000	99.549791 
1233.000000	99.543441 
1232.000000	99.536765 
1231.000000	99.530675 
1230.000000	99.525088 
1229.000000	99.518430 
1228.000000	99.509986 
1227.000000	99.501643 
1226.000000	99.495864 
1225.000000	99.492473 
1224.000000	99.488645 
1223.000000	99.481532 
1222.000000	99.470142 
1221.000000	99.455588 
1220.000000	99.440580 
1219.000000	99.427840 
1218.000000	99.417581 
1217.000000	99.406935 
1216.000000	99.392675 
1215.000000	99.374005 
1214.000000	99.352519 
1213.000000	99.330665 
1212.000000	99.310676 
1211.000000	99.293277 
1210.000000	99.276439 
1209.000000	99.256897 
1208.000000	99.233869 
1207.000000	99.209977 
1206.000000	99.187767 
1205.000000	99.167080 
1204.000000	99.146905 
1203.000000	99.127572 
1202.000000	99.109230 
1201.000000	99.090056 
1200.000000	99.068322 
1199.000000	99.045106 
1198.000000	99.022813 
1197.000000	99.001948 
1196.000000	98.981243 
1195.000000	98.960010 
1194.000000	98.938433 
1193.000000	98.916088 
1192.000000	98.892082 
1191.000000	98.866504 
1190.000000	98.840442 
1189.000000	98.814902 
1188.000000	98.790627 
1187.000000	98.768160 
1186.000000	98.746820 
1185.000000	98.724368 
1184.000000	98.698806 
1183.000000	98.670065 
1182.000000	98.639459 
1181.000000	98.608551 
1180.000000	98.579110 
1179.000000	98.552423 
1178.000000	98.527100 
1177.000000	98.499025 
1176.000000	98.465332 
1175.000000	98.427581 
1174.000000	98.389609 
1173.000000	98.353243 
1172.000000	98.317866 
1171.000000	98.283030 
1170.000000	98.249099 
1169.000000	98.215711 
1168.000000	98.181694 
1167.000000	98.146857 
1166.000000	98.112970 
1165.000000	98.083379 
1164.000000	98.062325 
1163.000000	98.053355 
1162.000000	98.056689 
1161.000000	98.068403 
1160.000000	98.083007 
1159.000000	98.096360 
1158.000000	98.105624 
1157.000000	98.107973 
1156.000000	98.101198 
1155.000000	98.085383 
1154.000000	98.062842 
1153.000000	98.036334 
1152.000000	98.007947 
1151.000000	97.979278 
1150.000000	97.951614 
1149.000000	97.925560 
1148.000000	97.900616 
1147.000000	97.875011 
1146.000000	97.846484 
1145.000000	97.814411 
1144.000000	97.781234 
1143.000000	97.750704 
1142.000000	97.724356 
1141.000000	97.700683 
1140.000000	97.677528 
1139.000000	97.653655 
1138.000000	97.628082 
1137.000000	97.600086 
1136.000000	97.570529 
1135.000000	97.541399 
1134.000000	97.513268 
1133.000000	97.484753 
1132.000000	97.454952 
1131.000000	97.424581 
1130.000000	97.394029 
1129.000000	97.362052 
1128.000000	97.327278 
1127.000000	97.289595 
1126.000000	97.249785 
1125.000000	97.209387 
1124.000000	97.170971 
1123.000000	97.136293 
1122.000000	97.103686 
1121.000000	97.069567 
1120.000000	97.033086 
1119.000000	96.996877 
1118.000000	96.962705 
1117.000000	96.929304 
1116.000000	96.895504 
1115.000000	96.862497 
1114.000000	96.831397 
1113.000000	96.801078 
1112.000000	96.770245 
1111.000000	96.739683 
1110.000000	96.710791 
1109.000000	96.683407 
1108.000000	96.656430 
1107.000000	96.628916 
1106.000000	96.599894 
1105.000000	96.568472 
1104.000000	96.534589 
1103.000000	96.498615 
1102.000000	96.460866 
1101.000000	96.422980 
1100.000000	96.388923 
1099.000000	96.360491 
1098.000000	96.334548 
1097.000000	96.306943 
1096.000000	96.278521 
1095.000000	96.253112 
1094.000000	96.230840 
1093.000000	96.208331 
1092.000000	96.184867 
1091.000000	96.162695 
1090.000000	96.141007 
1089.000000	96.115613 
1088.000000	96.086088 
1087.000000	96.057957 
1086.000000	96.035645 
1085.000000	96.017455 
1084.000000	95.999401 
1083.000000	95.980019 
1082.000000	95.959770 
1081.000000	95.939318 
1080.000000	95.919844 
1079.000000	95.901834 
1078.000000	95.882842 
1077.000000	95.859891 
1076.000000	95.834116 
1075.000000	95.808935 
1074.000000	95.783704 
1073.000000	95.753901 
1072.000000	95.717599 
1071.000000	95.676606 
1070.000000	95.631101 
1069.000000	95.578968 
1068.000000	95.521563 
1067.000000	95.464333 
1066.000000	95.409725 
1065.000000	95.354513 
1064.000000	95.296123 
1063.000000	95.236486 
1062.000000	95.177736 
1061.000000	95.119192 
1060.000000	95.060986 
1059.000000	95.006002 
1058.000000	94.955731 
1057.000000	94.907849 
1056.000000	94.859255 
1055.000000	94.807722 
1054.000000	94.750311 
1053.000000	94.685281 
1052.000000	94.616318 
1051.000000	94.549167 
1050.000000	94.483288 
1049.000000	94.413831 
1048.000000	94.342204 
1047.000000	94.275672 
1046.000000	94.215193 
1045.000000	94.152673 
1044.000000	94.082532 
1043.000000	94.008496 
1042.000000	93.936303 
1041.000000	93.866451 
1040.000000	93.797426 
1039.000000	93.730001 
1038.000000	93.664731 
1037.000000	93.600479 
1036.000000	93.538703 
1035.000000	93.484380 
1034.000000	93.439826 
1033.000000	93.401922 
1032.000000	93.367119 
1031.000000	93.334468 
1030.000000	93.302827 
1029.000000	93.271111 
1028.000000	93.242895 
1027.000000	93.224608 
1026.000000	93.216954 
1025.000000	93.213328 
1024.000000	93.208042 
1023.000000	93.200486 
1022.000000	93.190326 
1021.000000	93.175559 
1020.000000	93.157434 
1019.000000	93.140959 
1018.000000	93.128013 
1017.000000	93.115206 
1016.000000	93.100228 
1015.000000	93.084966 
1014.000000	93.070905 
1013.000000	93.056802 
1012.000000	93.042137 
1011.000000	93.027767 
1010.000000	93.012824 
1009.000000	92.996603 
1008.000000	92.983339 
1007.000000	92.978529 
1006.000000	92.980576 
1005.000000	92.983116 
1004.000000	92.985653 
1003.000000	92.993975 
1002.000000	93.009495 
1001.000000	93.026561 
1000.000000	93.041556 
999.000000	 93.056343 
998.000000	 93.070906 
997.000000	 93.081392 
996.000000	 93.088607 
995.000000	 93.100625 
994.000000	 93.123163 
993.000000	 93.153324 
992.000000	 93.185035 
991.000000	 93.214517 
990.000000	 93.238989 
989.000000	 93.257322 
988.000000	 93.274381 
987.000000	 93.297852 
986.000000	 93.328675 
985.000000	 93.361393 
984.000000	 93.395390 
983.000000	 93.437511 
982.000000	 93.490923 
981.000000	 93.549712 
980.000000	 93.608069 
979.000000	 93.667408 
978.000000	 93.730314 
977.000000	 93.794801 
976.000000	 93.859247 
975.000000	 93.926597 
974.000000	 93.998929 
973.000000	 94.073258 
972.000000	 94.146932 
971.000000	 94.222108 
970.000000	 94.300852 
969.000000	 94.380563 
968.000000	 94.458047 
967.000000	 94.533714 
966.000000	 94.608304 
965.000000	 94.679803 
964.000000	 94.747057 
963.000000	 94.812426 
962.000000	 94.877805 
961.000000	 94.941909 
960.000000	 95.004334 
959.000000	 95.067984 
958.000000	 95.134189 
957.000000	 95.199368 
956.000000	 95.259981 
955.000000	 95.317413 
954.000000	 95.374931 
953.000000	 95.432857 
952.000000	 95.489518 
951.000000	 95.544041 
950.000000	 95.595637 
949.000000	 95.642808 
948.000000	 95.685611 
947.000000	 95.726297 
946.000000	 95.766005 
945.000000	 95.803372 
944.000000	 95.837364 
943.000000	 95.868094 
942.000000	 95.893993 
941.000000	 95.912716 
940.000000	 95.926778 
939.000000	 95.943893 
938.000000	 95.968744 
937.000000	 95.997880 
936.000000	 96.025311 
935.000000	 96.049448 
934.000000	 96.072138 
933.000000	 96.094847 
932.000000	 96.119137 
931.000000	 96.147892 
930.000000	 96.182643 
929.000000	 96.221250 
928.000000	 96.260008 
927.000000	 96.296013 
926.000000	 96.326865 
925.000000	 96.351397 
924.000000	 96.371834 
923.000000	 96.391497 
922.000000	 96.409032 
921.000000	 96.419078 
920.000000	 96.420599 
919.000000	 96.420293 
918.000000	 96.425040 
917.000000	 96.434873 
916.000000	 96.446286 
915.000000	 96.458563 
914.000000	 96.473567 
913.000000	 96.492672 
912.000000	 96.517349 
911.000000	 96.549829 
910.000000	 96.589902 
909.000000	 96.633747 
908.000000	 96.678802 
907.000000	 96.727221 
906.000000	 96.782147 
905.000000	 96.843405 
904.000000	 96.909067 
903.000000	 96.978227 
902.000000	 97.049909 
901.000000	 97.122221 
900.000000	 97.194901 
899.000000	 97.269475 
898.000000	 97.344365 
897.000000	 97.412936 
896.000000	 97.469760 
895.000000	 97.516892 
894.000000	 97.561434 
893.000000	 97.608603 
892.000000	 97.659429 
891.000000	 97.712914 
890.000000	 97.767196 
889.000000	 97.819933 
888.000000	 97.870190 
887.000000	 97.919147 
886.000000	 97.967245 
885.000000	 98.012317 
884.000000	 98.052806 
883.000000	 98.091297 
882.000000	 98.132120 
881.000000	 98.176136 
880.000000	 98.220357 
879.000000	 98.262356 
878.000000	 98.302733 
877.000000	 98.342959 
876.000000	 98.382337 
875.000000	 98.417827 
874.000000	 98.447056 
873.000000	 98.472095 
872.000000	 98.499877 
871.000000	 98.536710 
870.000000	 98.581247 
869.000000	 98.624779 
868.000000	 98.659778 
867.000000	 98.686864 
866.000000	 98.712824 
865.000000	 98.743111 
864.000000	 98.777528 
863.000000	 98.812341 
862.000000	 98.844908 
861.000000	 98.875949 
860.000000	 98.907881 
859.000000	 98.941705 
858.000000	 98.976557 
857.000000	 99.012405 
856.000000	 99.050855 
855.000000	 99.091228 
854.000000	 99.127618 
853.000000	 99.153285 
852.000000	 99.167790 
851.000000	 99.176928 
850.000000	 99.185666 
849.000000	 99.194379 
848.000000	 99.202534 
847.000000	 99.211908 
846.000000	 99.223670 
845.000000	 99.235386 
844.000000	 99.243897 
843.000000	 99.248997 
842.000000	 99.251060 
841.000000	 99.246684 
840.000000	 99.230845 
839.000000	 99.203906 
838.000000	 99.173626 
837.000000	 99.148552 
836.000000	 99.130756 
835.000000	 99.116524 
834.000000	 99.103189 
833.000000	 99.092851 
832.000000	 99.087705 
831.000000	 99.083259 
830.000000	 99.070997 
829.000000	 99.050719 
828.000000	 99.036463 
827.000000	 99.044014 
826.000000	 99.072542 
825.000000	 99.104703 
824.000000	 99.126165 
823.000000	 99.138298 
822.000000	 99.149539 
821.000000	 99.161631 
820.000000	 99.168939 
819.000000	 99.166428 
818.000000	 99.154261 
817.000000	 99.137099 
816.000000	 99.120637 
815.000000	 99.105989 
814.000000	 99.086065 
813.000000	 99.050770 
812.000000	 98.997666 
811.000000	 98.934278 
810.000000	 98.867637 
809.000000	 98.794916 
808.000000	 98.707824 
807.000000	 98.602848 
806.000000	 98.482953 
805.000000	 98.351817 
804.000000	 98.212459 
803.000000	 98.071984 
802.000000	 97.942647 
801.000000	 97.835756 
800.000000	 97.755545 
799.000000	 97.698889 
798.000000	 97.660463 
797.000000	 97.639304 
796.000000	 97.639736 
795.000000	 97.663626 
794.000000	 97.703206 
793.000000	 97.745311 
792.000000	 97.781246 
791.000000	 97.807597 
790.000000	 97.819831 
789.000000	 97.813599 
788.000000	 97.793543 
787.000000	 97.772567 
786.000000	 97.757766 
785.000000	 97.742115 
784.000000	 97.714244 
783.000000	 97.672262 
782.000000	 97.624196 
781.000000	 97.579018 
780.000000	 97.541700 
779.000000	 97.514148 
778.000000	 97.497237 
777.000000	 97.494215 
776.000000	 97.513202 
775.000000	 97.560981 
774.000000	 97.631458 
773.000000	 97.705731 
772.000000	 97.767977 
771.000000	 97.816822 
770.000000	 97.857560 
769.000000	 97.889702 
768.000000	 97.909366 
767.000000	 97.920113 
766.000000	 97.932456 
765.000000	 97.951832 
764.000000	 97.973162 
763.000000	 97.988652 
762.000000	 97.996593 
761.000000	 98.001212 
760.000000	 98.007592 
759.000000	 98.018751 
758.000000	 98.035193 
757.000000	 98.055317 
756.000000	 98.076898 
755.000000	 98.099161 
754.000000	 98.123520 
753.000000	 98.152530 
752.000000	 98.187819 
751.000000	 98.227310 
750.000000	 98.263981 
749.000000	 98.289860 
748.000000	 98.303684 
747.000000	 98.313877 
746.000000	 98.331769 
745.000000	 98.361244 
744.000000	 98.396022 
743.000000	 98.426951 
742.000000	 98.450826 
741.000000	 98.471410 
740.000000	 98.492995 
739.000000	 98.515544 
738.000000	 98.537341 
737.000000	 98.560173 
736.000000	 98.588047 
735.000000	 98.620867 
734.000000	 98.653857 
733.000000	 98.684960 
732.000000	 98.718100 
731.000000	 98.754865 
730.000000	 98.787015 
729.000000	 98.803588 
728.000000	 98.804645 
727.000000	 98.801510 
726.000000	 98.803106 
725.000000	 98.810073 
724.000000	 98.822966 
723.000000	 98.846187 
722.000000	 98.878639 
721.000000	 98.907669 
720.000000	 98.919823 
719.000000	 98.915146 
718.000000	 98.905985 
717.000000	 98.904459 
716.000000	 98.915069 
715.000000	 98.935395 
714.000000	 98.958581 
713.000000	 98.977133 
712.000000	 98.988386 
711.000000	 98.994998 
710.000000	 98.999576 
709.000000	 99.002182 
708.000000	 99.004532 
707.000000	 99.011644 
706.000000	 99.023424 
705.000000	 99.030709 
704.000000	 99.025444 
703.000000	 99.009229 
702.000000	 98.987020 
701.000000	 98.956425 
700.000000	 98.908713 
699.000000	 98.839904 
698.000000	 98.754597 
697.000000	 98.662149 
696.000000	 98.576044 
695.000000	 98.513157 
694.000000	 98.487943 
693.000000	 98.503726 
692.000000	 98.550098 
691.000000	 98.610138 
690.000000	 98.669020 
689.000000	 98.720484 
688.000000	 98.768305 
687.000000	 98.819324 
686.000000	 98.874805 
685.000000	 98.929727 
684.000000	 98.979682 
683.000000	 99.024628 
682.000000	 99.064297 
681.000000	 99.095760 
680.000000	 99.119385 
679.000000	 99.142330 
678.000000	 99.168200 
677.000000	 99.185203 
676.000000	 99.180190 
675.000000	 99.161912 
674.000000	 99.154411 
673.000000	 99.169506 
672.000000	 99.199953 
671.000000	 99.237359 
670.000000	 99.282541 
669.000000	 99.328957 
668.000000	 99.343784 
667.000000	 99.318850 
666.000000	 99.300760 
665.000000	 99.309924 
664.000000	 99.339929 
663.000000	 99.381966 
662.000000	 99.429094 
661.000000	 99.477630 
660.000000	 99.529875 
659.000000	 99.587907 
658.000000	 99.640181 
657.000000	 99.662081 
656.000000	 99.643097 
655.000000	 99.606312 
654.000000	 99.587000 
653.000000	 99.589748 
652.000000	 99.588764 
651.000000	 99.566898 
650.000000	 99.533687 

