4000.000000	99.085020 
3999.000000	99.084941 
3998.000000	99.084768 
3997.000000	99.084646 
3996.000000	99.084646 
3995.000000	99.084745 
3994.000000	99.084899 
3993.000000	99.085087 
3992.000000	99.085280 
3991.000000	99.085402 
3990.000000	99.085357 
3989.000000	99.085081 
3988.000000	99.084615 
3987.000000	99.084114 
3986.000000	99.083780 
3985.000000	99.083749 
3984.000000	99.083991 
3983.000000	99.084346 
3982.000000	99.084681 
3981.000000	99.084960 
3980.000000	99.085184 
3979.000000	99.085332 
3978.000000	99.085376 
3977.000000	99.085327 
3976.000000	99.085203 
3975.000000	99.084973 
3974.000000	99.084600 
3973.000000	99.084120 
3972.000000	99.083657 
3971.000000	99.083345 
3970.000000	99.083250 
3969.000000	99.083347 
3968.000000	99.083530 
3967.000000	99.083655 
3966.000000	99.083617 
3965.000000	99.083409 
3964.000000	99.083103 
3963.000000	99.082813 
3962.000000	99.082617 
3961.000000	99.082520 
3960.000000	99.082449 
3959.000000	99.082291 
3958.000000	99.082000 
3957.000000	99.081644 
3956.000000	99.081337 
3955.000000	99.081126 
3954.000000	99.080965 
3953.000000	99.080779 
3952.000000	99.080514 
3951.000000	99.080154 
3950.000000	99.079705 
3949.000000	99.079192 
3948.000000	99.078679 
3947.000000	99.078266 
3946.000000	99.078026 
3945.000000	99.077937 
3944.000000	99.077874 
3943.000000	99.077692 
3942.000000	99.077328 
3941.000000	99.076839 
3940.000000	99.076322 
3939.000000	99.075821 
3938.000000	99.075361 
3937.000000	99.074971 
3936.000000	99.074659 
3935.000000	99.074361 
3934.000000	99.074047 
3933.000000	99.073817 
3932.000000	99.073795 
3931.000000	99.073954 
3930.000000	99.074091 
3929.000000	99.074016 
3928.000000	99.073705 
3927.000000	99.073135 
3926.000000	99.072239 
3925.000000	99.071128 
3924.000000	99.070235 
3923.000000	99.069841 
3922.000000	99.069629 
3921.000000	99.069152 
3920.000000	99.068577 
3919.000000	99.068386 
3918.000000	99.068583 
3917.000000	99.068751 
3916.000000	99.068768 
3915.000000	99.068873 
3914.000000	99.069082 
3913.000000	99.069083 
3912.000000	99.068747 
3911.000000	99.068128 
3910.000000	99.067409 
3909.000000	99.066701 
3908.000000	99.066147 
3907.000000	99.065847 
3906.000000	99.065766 
3905.000000	99.065745 
3904.000000	99.065666 
3903.000000	99.065567 
3902.000000	99.065490 
3901.000000	99.065323 
3900.000000	99.064974 
3899.000000	99.064524 
3898.000000	99.064103 
3897.000000	99.063732 
3896.000000	99.063349 
3895.000000	99.062955 
3894.000000	99.062709 
3893.000000	99.062698 
3892.000000	99.062768 
3891.000000	99.062671 
3890.000000	99.062496 
3889.000000	99.062405 
3888.000000	99.062263 
3887.000000	99.061878 
3886.000000	99.061289 
3885.000000	99.060716 
3884.000000	99.060361 
3883.000000	99.060111 
3882.000000	99.059725 
3881.000000	99.059187 
3880.000000	99.058664 
3879.000000	99.058315 
3878.000000	99.058168 
3877.000000	99.058064 
3876.000000	99.057857 
3875.000000	99.057542 
3874.000000	99.057231 
3873.000000	99.057067 
3872.000000	99.056990 
3871.000000	99.056730 
3870.000000	99.056177 
3869.000000	99.055689 
3868.000000	99.055709 
3867.000000	99.056079 
3866.000000	99.056240 
3865.000000	99.056110 
3864.000000	99.056039 
3863.000000	99.056140 
3862.000000	99.056160 
3861.000000	99.055876 
3860.000000	99.055365 
3859.000000	99.054679 
3858.000000	99.053778 
3857.000000	99.052805 
3856.000000	99.052337 
3855.000000	99.052917 
3854.000000	99.053959 
3853.000000	99.054126 
3852.000000	99.054159 
3851.000000	99.055129 
3850.000000	99.056318 
3849.000000	99.057010 
3848.000000	99.057340 
3847.000000	99.057524 
3846.000000	99.057586 
3845.000000	99.057562 
3844.000000	99.057574 
3843.000000	99.057682 
3842.000000	99.057847 
3841.000000	99.057944 
3840.000000	99.057956 
3839.000000	99.057995 
3838.000000	99.058131 
3837.000000	99.058294 
3836.000000	99.058409 
3835.000000	99.058452 
3834.000000	99.058432 
3833.000000	99.058392 
3832.000000	99.058392 
3831.000000	99.058468 
3830.000000	99.058603 
3829.000000	99.058725 
3828.000000	99.058764 
3827.000000	99.058720 
3826.000000	99.058675 
3825.000000	99.058710 
3824.000000	99.058824 
3823.000000	99.058959 
3822.000000	99.059047 
3821.000000	99.059057 
3820.000000	99.059053 
3819.000000	99.059108 
3818.000000	99.059174 
3817.000000	99.059205 
3816.000000	99.059224 
3815.000000	99.059274 
3814.000000	99.059358 
3813.000000	99.059428 
3812.000000	99.059422 
3811.000000	99.059351 
3810.000000	99.059315 
3809.000000	99.059386 
3808.000000	99.059489 
3807.000000	99.059455 
3806.000000	99.059325 
3805.000000	99.059353 
3804.000000	99.059522 
3803.000000	99.059534 
3802.000000	99.059218 
3801.000000	99.058646 
3800.000000	99.058383 
3799.000000	99.058703 
3798.000000	99.058891 
3797.000000	99.058555 
3796.000000	99.058271 
3795.000000	99.058720 
3794.000000	99.059852 
3793.000000	99.061088 
3792.000000	99.062103 
3791.000000	99.063010 
3790.000000	99.063730 
3789.000000	99.064075 
3788.000000	99.064266 
3787.000000	99.064864 
3786.000000	99.065980 
3785.000000	99.067059 
3784.000000	99.067711 
3783.000000	99.068122 
3782.000000	99.068407 
3781.000000	99.068229 
3780.000000	99.067376 
3779.000000	99.066093 
3778.000000	99.065075 
3777.000000	99.064555 
3776.000000	99.064012 
3775.000000	99.063175 
3774.000000	99.062658 
3773.000000	99.062963 
3772.000000	99.063596 
3771.000000	99.063554 
3770.000000	99.062599 
3769.000000	99.061613 
3768.000000	99.061499 
3767.000000	99.061890 
3766.000000	99.061913 
3765.000000	99.061577 
3764.000000	99.061707 
3763.000000	99.062599 
3762.000000	99.063458 
3761.000000	99.063772 
3760.000000	99.064075 
3759.000000	99.064464 
3758.000000	99.064191 
3757.000000	99.062940 
3756.000000	99.061480 
3755.000000	99.060525 
3754.000000	99.060163 
3753.000000	99.060644 
3752.000000	99.062032 
3751.000000	99.062253 
3750.000000	99.058705 
3749.000000	99.052834 
3748.000000	99.048563 
3747.000000	99.046689 
3746.000000	99.045681 
3745.000000	99.044364 
3744.000000	99.042407 
3743.000000	99.043011 
3742.000000	99.047019 
3741.000000	99.048883 
3740.000000	99.046840 
3739.000000	99.044720 
3738.000000	99.045375 
3737.000000	99.047782 
3736.000000	99.050011 
3735.000000	99.052093 
3734.000000	99.053985 
3733.000000	99.053815 
3732.000000	99.051071 
3731.000000	99.048707 
3730.000000	99.049021 
3729.000000	99.050307 
3728.000000	99.050003 
3727.000000	99.048826 
3726.000000	99.049385 
3725.000000	99.052111 
3724.000000	99.053967 
3723.000000	99.052494 
3722.000000	99.048718 
3721.000000	99.045456 
3720.000000	99.044339 
3719.000000	99.044261 
3718.000000	99.043040 
3717.000000	99.039589 
3716.000000	99.034435 
3715.000000	99.028362 
3714.000000	99.022138 
3713.000000	99.016957 
3712.000000	99.013059 
3711.000000	99.009544 
3710.000000	99.006859 
3709.000000	99.005843 
3708.000000	99.005620 
3707.000000	99.004539 
3706.000000	99.001863 
3705.000000	98.997849 
3704.000000	98.993174 
3703.000000	98.988657 
3702.000000	98.984665 
3701.000000	98.981292 
3700.000000	98.979120 
3699.000000	98.977718 
3698.000000	98.974993 
3697.000000	98.969985 
3696.000000	98.964227 
3695.000000	98.959404 
3694.000000	98.955109 
3693.000000	98.950306 
3692.000000	98.945658 
3691.000000	98.942445 
3690.000000	98.939905 
3689.000000	98.935567 
3688.000000	98.929998 
3687.000000	98.927018 
3686.000000	98.927365 
3685.000000	98.927770 
3684.000000	98.926389 
3683.000000	98.924313 
3682.000000	98.922304 
3681.000000	98.918904 
3680.000000	98.912592 
3679.000000	98.904774 
3678.000000	98.897802 
3677.000000	98.892561 
3676.000000	98.888008 
3675.000000	98.884077 
3674.000000	98.884682 
3673.000000	98.889423 
3672.000000	98.891646 
3671.000000	98.889993 
3670.000000	98.887786 
3669.000000	98.886325 
3668.000000	98.885319 
3667.000000	98.883356 
3666.000000	98.879995 
3665.000000	98.877084 
3664.000000	98.876255 
3663.000000	98.877074 
3662.000000	98.878029 
3661.000000	98.878364 
3660.000000	98.878590 
3659.000000	98.879490 
3658.000000	98.880659 
3657.000000	98.880753 
3656.000000	98.879125 
3655.000000	98.877935 
3654.000000	98.878913 
3653.000000	98.880669 
3652.000000	98.882161 
3651.000000	98.884477 
3650.000000	98.886856 
3649.000000	98.885881 
3648.000000	98.881507 
3647.000000	98.878167 
3646.000000	98.878894 
3645.000000	98.882774 
3644.000000	98.887360 
3643.000000	98.891214 
3642.000000	98.894465 
3641.000000	98.897417 
3640.000000	98.899839 
3639.000000	98.901617 
3638.000000	98.903559 
3637.000000	98.906656 
3636.000000	98.910221 
3635.000000	98.912224 
3634.000000	98.911808 
3633.000000	98.910421 
3632.000000	98.909804 
3631.000000	98.910322 
3630.000000	98.911409 
3629.000000	98.911340 
3628.000000	98.909766 
3627.000000	98.909693 
3626.000000	98.911531 
3625.000000	98.913234 
3624.000000	98.914782 
3623.000000	98.917036 
3622.000000	98.919605 
3621.000000	98.921405 
3620.000000	98.922175 
3619.000000	98.922507 
3618.000000	98.923427 
3617.000000	98.925609 
3616.000000	98.928178 
3615.000000	98.929554 
3614.000000	98.929145 
3613.000000	98.927729 
3612.000000	98.926685 
3611.000000	98.926828 
3610.000000	98.928146 
3609.000000	98.930608 
3608.000000	98.934094 
3607.000000	98.937903 
3606.000000	98.941033 
3605.000000	98.942923 
3604.000000	98.944061 
3603.000000	98.945445 
3602.000000	98.947380 
3601.000000	98.949713 
3600.000000	98.952784 
3599.000000	98.956903 
3598.000000	98.960979 
3597.000000	98.963369 
3596.000000	98.963177 
3595.000000	98.960939 
3594.000000	98.958201 
3593.000000	98.956832 
3592.000000	98.957712 
3591.000000	98.960417 
3590.000000	98.963869 
3589.000000	98.966969 
3588.000000	98.968342 
3587.000000	98.967110 
3586.000000	98.964440 
3585.000000	98.962202 
3584.000000	98.960924 
3583.000000	98.960400 
3582.000000	98.960279 
3581.000000	98.960044 
3580.000000	98.959167 
3579.000000	98.957532 
3578.000000	98.955326 
3577.000000	98.953178 
3576.000000	98.952043 
3575.000000	98.952552 
3574.000000	98.954361 
3573.000000	98.956293 
3572.000000	98.957363 
3571.000000	98.957378 
3570.000000	98.956642 
3569.000000	98.955420 
3568.000000	98.953932 
3567.000000	98.952646 
3566.000000	98.952441 
3565.000000	98.953695 
3564.000000	98.955402 
3563.000000	98.956318 
3562.000000	98.956306 
3561.000000	98.956045 
3560.000000	98.956058 
3559.000000	98.956235 
3558.000000	98.956109 
3557.000000	98.955458 
3556.000000	98.954610 
3555.000000	98.954050 
3554.000000	98.953904 
3553.000000	98.953905 
3552.000000	98.953791 
3551.000000	98.953540 
3550.000000	98.953199 
3549.000000	98.952778 
3548.000000	98.952365 
3547.000000	98.952127 
3546.000000	98.952107 
3545.000000	98.952201 
3544.000000	98.952278 
3543.000000	98.952264 
3542.000000	98.952167 
3541.000000	98.952047 
3540.000000	98.951978 
3539.000000	98.952004 
3538.000000	98.952112 
3537.000000	98.952234 
3536.000000	98.952268 
3535.000000	98.952151 
3534.000000	98.951886 
3533.000000	98.951551 
3532.000000	98.951274 
3531.000000	98.951155 
3530.000000	98.951205 
3529.000000	98.951342 
3528.000000	98.951484 
3527.000000	98.951616 
3526.000000	98.951728 
3525.000000	98.951752 
3524.000000	98.951619 
3523.000000	98.951345 
3522.000000	98.951036 
3521.000000	98.950792 
3520.000000	98.950621 
3519.000000	98.950468 
3518.000000	98.950288 
3517.000000	98.950089 
3516.000000	98.949915 
3515.000000	98.949810 
3514.000000	98.949794 
3513.000000	98.949848 
3512.000000	98.949882 
3511.000000	98.949788 
3510.000000	98.949523 
3509.000000	98.949152 
3508.000000	98.948795 
3507.000000	98.948506 
3506.000000	98.948218 
3505.000000	98.947830 
3504.000000	98.947316 
3503.000000	98.946787 
3502.000000	98.946429 
3501.000000	98.946361 
3500.000000	98.946547 
3499.000000	98.946771 
3498.000000	98.946757 
3497.000000	98.946374 
3496.000000	98.945711 
3495.000000	98.945006 
3494.000000	98.944410 
3493.000000	98.943890 
3492.000000	98.943345 
3491.000000	98.942735 
3490.000000	98.942113 
3489.000000	98.941578 
3488.000000	98.941205 
3487.000000	98.940995 
3486.000000	98.940870 
3485.000000	98.940714 
3484.000000	98.940441 
3483.000000	98.940028 
3482.000000	98.939484 
3481.000000	98.938826 
3480.000000	98.938095 
3479.000000	98.937390 
3478.000000	98.936830 
3477.000000	98.936453 
3476.000000	98.936170 
3475.000000	98.935820 
3474.000000	98.935322 
3473.000000	98.934732 
3472.000000	98.934157 
3471.000000	98.933630 
3470.000000	98.933112 
3469.000000	98.932577 
3468.000000	98.932046 
3467.000000	98.931523 
3466.000000	98.930948 
3465.000000	98.930258 
3464.000000	98.929475 
3463.000000	98.928715 
3462.000000	98.928079 
3461.000000	98.927547 
3460.000000	98.927009 
3459.000000	98.926414 
3458.000000	98.925839 
3457.000000	98.925372 
3456.000000	98.924972 
3455.000000	98.924522 
3454.000000	98.923970 
3453.000000	98.923385 
3452.000000	98.922875 
3451.000000	98.922483 
3450.000000	98.922151 
3449.000000	98.921774 
3448.000000	98.921293 
3447.000000	98.920727 
3446.000000	98.920127 
3445.000000	98.919537 
3444.000000	98.918976 
3443.000000	98.918449 
3442.000000	98.917953 
3441.000000	98.917478 
3440.000000	98.917025 
3439.000000	98.916604 
3438.000000	98.916217 
3437.000000	98.915828 
3436.000000	98.915389 
3435.000000	98.914897 
3434.000000	98.914431 
3433.000000	98.914086 
3432.000000	98.913869 
3431.000000	98.913664 
3430.000000	98.913315 
3429.000000	98.912761 
3428.000000	98.912085 
3427.000000	98.911459 
3426.000000	98.910988 
3425.000000	98.910652 
3424.000000	98.910376 
3423.000000	98.910123 
3422.000000	98.909899 
3421.000000	98.909705 
3420.000000	98.909530 
3419.000000	98.909373 
3418.000000	98.909234 
3417.000000	98.909089 
3416.000000	98.908890 
3415.000000	98.908592 
3414.000000	98.908205 
3413.000000	98.907813 
3412.000000	98.907546 
3411.000000	98.907479 
3410.000000	98.907580 
3409.000000	98.907732 
3408.000000	98.907813 
3407.000000	98.907710 
3406.000000	98.907351 
3405.000000	98.906785 
3404.000000	98.906255 
3403.000000	98.906076 
3402.000000	98.906398 
3401.000000	98.907075 
3400.000000	98.907739 
3399.000000	98.908076 
3398.000000	98.908046 
3397.000000	98.907873 
3396.000000	98.907771 
3395.000000	98.907708 
3394.000000	98.907533 
3393.000000	98.907268 
3392.000000	98.907107 
3391.000000	98.907090 
3390.000000	98.906981 
3389.000000	98.906608 
3388.000000	98.906169 
3387.000000	98.906026 
3386.000000	98.906253 
3385.000000	98.906542 
3384.000000	98.906560 
3383.000000	98.906273 
3382.000000	98.905914 
3381.000000	98.905715 
3380.000000	98.905686 
3379.000000	98.905634 
3378.000000	98.905447 
3377.000000	98.905362 
3376.000000	98.905809 
3375.000000	98.906948 
3374.000000	98.908451 
3373.000000	98.909777 
3372.000000	98.910587 
3371.000000	98.910812 
3370.000000	98.910519 
3369.000000	98.909926 
3368.000000	98.909426 
3367.000000	98.909308 
3366.000000	98.909458 
3365.000000	98.909519 
3364.000000	98.909388 
3363.000000	98.909356 
3362.000000	98.909689 
3361.000000	98.910236 
3360.000000	98.910570 
3359.000000	98.910459 
3358.000000	98.910109 
3357.000000	98.909983 
3356.000000	98.910404 
3355.000000	98.911271 
3354.000000	98.912131 
3353.000000	98.912609 
3352.000000	98.912760 
3351.000000	98.912959 
3350.000000	98.913484 
3349.000000	98.914290 
3348.000000	98.915146 
3347.000000	98.915861 
3346.000000	98.916361 
3345.000000	98.916659 
3344.000000	98.916838 
3343.000000	98.916971 
3342.000000	98.917019 
3341.000000	98.916900 
3340.000000	98.916682 
3339.000000	98.916605 
3338.000000	98.916825 
3337.000000	98.917211 
3336.000000	98.917489 
3335.000000	98.917574 
3334.000000	98.917671 
3333.000000	98.918016 
3332.000000	98.918606 
3331.000000	98.919228 
3330.000000	98.919704 
3329.000000	98.920061 
3328.000000	98.920446 
3327.000000	98.920930 
3326.000000	98.921433 
3325.000000	98.921819 
3324.000000	98.922073 
3323.000000	98.922314 
3322.000000	98.922657 
3321.000000	98.923066 
3320.000000	98.923398 
3319.000000	98.923576 
3318.000000	98.923650 
3317.000000	98.923743 
3316.000000	98.923945 
3315.000000	98.924253 
3314.000000	98.924606 
3313.000000	98.924929 
3312.000000	98.925197 
3311.000000	98.925428 
3310.000000	98.925650 
3309.000000	98.925875 
3308.000000	98.926093 
3307.000000	98.926295 
3306.000000	98.926487 
3305.000000	98.926677 
3304.000000	98.926858 
3303.000000	98.927010 
3302.000000	98.927144 
3301.000000	98.927323 
3300.000000	98.927639 
3299.000000	98.928138 
3298.000000	98.928763 
3297.000000	98.929364 
3296.000000	98.929790 
3295.000000	98.929989 
3294.000000	98.930086 
3293.000000	98.930315 
3292.000000	98.930807 
3291.000000	98.931446 
3290.000000	98.931972 
3289.000000	98.932256 
3288.000000	98.932386 
3287.000000	98.932498 
3286.000000	98.932596 
3285.000000	98.932601 
3284.000000	98.932502 
3283.000000	98.932416 
3282.000000	98.932500 
3281.000000	98.932803 
3280.000000	98.933123 
3279.000000	98.933112 
3278.000000	98.932657 
3277.000000	98.932118 
3276.000000	98.932036 
3275.000000	98.932554 
3274.000000	98.933356 
3273.000000	98.934059 
3272.000000	98.934420 
3271.000000	98.934247 
3270.000000	98.933514 
3269.000000	98.932684 
3268.000000	98.932540 
3267.000000	98.933503 
3266.000000	98.935314 
3265.000000	98.937401 
3264.000000	98.939383 
3263.000000	98.941067 
3262.000000	98.942253 
3261.000000	98.942824 
3260.000000	98.942885 
3259.000000	98.942623 
3258.000000	98.942116 
3257.000000	98.941439 
3256.000000	98.940799 
3255.000000	98.940407 
3254.000000	98.940337 
3253.000000	98.940631 
3252.000000	98.941341 
3251.000000	98.942270 
3250.000000	98.942875 
3249.000000	98.942762 
3248.000000	98.942176 
3247.000000	98.941754 
3246.000000	98.941780 
3245.000000	98.941952 
3244.000000	98.941953 
3243.000000	98.941986 
3242.000000	98.942594 
3241.000000	98.944069 
3240.000000	98.946105 
3239.000000	98.947907 
3238.000000	98.948740 
3237.000000	98.948445 
3236.000000	98.947516 
3235.000000	98.946684 
3234.000000	98.946301 
3233.000000	98.946282 
3232.000000	98.946526 
3231.000000	98.947131 
3230.000000	98.948094 
3229.000000	98.949023 
3228.000000	98.949345 
3227.000000	98.948775 
3226.000000	98.947521 
3225.000000	98.946180 
3224.000000	98.945439 
3223.000000	98.945659 
3222.000000	98.946618 
3221.000000	98.947681 
3220.000000	98.948427 
3219.000000	98.949045 
3218.000000	98.949912 
3217.000000	98.950905 
3216.000000	98.951438 
3215.000000	98.951250 
3214.000000	98.950891 
3213.000000	98.951224 
3212.000000	98.952536 
3211.000000	98.954346 
3210.000000	98.955994 
3209.000000	98.957236 
3208.000000	98.958160 
3207.000000	98.958800 
3206.000000	98.959094 
3205.000000	98.959142 
3204.000000	98.959267 
3203.000000	98.959725 
3202.000000	98.960476 
3201.000000	98.961315 
3200.000000	98.962123 
3199.000000	98.962900 
3198.000000	98.963663 
3197.000000	98.964461 
3196.000000	98.965455 
3195.000000	98.966754 
3194.000000	98.968103 
3193.000000	98.968916 
3192.000000	98.968796 
3191.000000	98.968031 
3190.000000	98.967458 
3189.000000	98.967685 
3188.000000	98.968571 
3187.000000	98.969474 
3186.000000	98.969935 
3185.000000	98.970025 
3184.000000	98.970068 
3183.000000	98.970210 
3182.000000	98.970369 
3181.000000	98.970490 
3180.000000	98.970688 
3179.000000	98.971121 
3178.000000	98.971807 
3177.000000	98.972572 
3176.000000	98.973134 
3175.000000	98.973315 
3174.000000	98.973258 
3173.000000	98.973418 
3172.000000	98.974144 
3171.000000	98.975317 
3170.000000	98.976446 
3169.000000	98.977153 
3168.000000	98.977522 
3167.000000	98.977892 
3166.000000	98.978466 
3165.000000	98.979167 
3164.000000	98.979821 
3163.000000	98.980363 
3162.000000	98.980833 
3161.000000	98.981287 
3160.000000	98.981754 
3159.000000	98.982227 
3158.000000	98.982678 
3157.000000	98.983078 
3156.000000	98.983441 
3155.000000	98.983810 
3154.000000	98.984215 
3153.000000	98.984653 
3152.000000	98.985102 
3151.000000	98.985536 
3150.000000	98.985939 
3149.000000	98.986310 
3148.000000	98.986664 
3147.000000	98.987031 
3146.000000	98.987430 
3145.000000	98.987857 
3144.000000	98.988285 
3143.000000	98.988697 
3142.000000	98.989101 
3141.000000	98.989505 
3140.000000	98.989904 
3139.000000	98.990284 
3138.000000	98.990642 
3137.000000	98.990990 
3136.000000	98.991335 
3135.000000	98.991673 
3134.000000	98.991992 
3133.000000	98.992288 
3132.000000	98.992573 
3131.000000	98.992866 
3130.000000	98.993171 
3129.000000	98.993466 
3128.000000	98.993730 
3127.000000	98.993981 
3126.000000	98.994260 
3125.000000	98.994574 
3124.000000	98.994867 
3123.000000	98.995085 
3122.000000	98.995240 
3121.000000	98.995411 
3120.000000	98.995674 
3119.000000	98.996044 
3118.000000	98.996453 
3117.000000	98.996781 
3116.000000	98.996943 
3115.000000	98.996967 
3114.000000	98.997001 
3113.000000	98.997152 
3112.000000	98.997377 
3111.000000	98.997557 
3110.000000	98.997691 
3109.000000	98.997893 
3108.000000	98.998209 
3107.000000	98.998542 
3106.000000	98.998789 
3105.000000	98.998974 
3104.000000	98.999215 
3103.000000	98.999612 
3102.000000	99.000185 
3101.000000	99.000875 
3100.000000	99.001528 
3099.000000	99.001972 
3098.000000	99.002151 
3097.000000	99.002171 
3096.000000	99.002259 
3095.000000	99.002574 
3094.000000	99.003101 
3093.000000	99.003691 
3092.000000	99.004235 
3091.000000	99.004716 
3090.000000	99.005082 
3089.000000	99.005212 
3088.000000	99.005154 
3087.000000	99.005305 
3086.000000	99.006058 
3085.000000	99.007215 
3084.000000	99.008052 
3083.000000	99.008092 
3082.000000	99.007610 
3081.000000	99.007274 
3080.000000	99.007430 
3079.000000	99.007881 
3078.000000	99.008171 
3077.000000	99.007877 
3076.000000	99.006765 
3075.000000	99.004989 
3074.000000	99.003191 
3073.000000	99.002238 
3072.000000	99.002769 
3071.000000	99.004956 
3070.000000	99.008360 
3069.000000	99.011704 
3068.000000	99.013023 
3067.000000	99.010835 
3066.000000	99.005712 
3065.000000	99.000463 
3064.000000	98.998018 
3063.000000	98.998907 
3062.000000	99.001106 
3061.000000	99.002384 
3060.000000	99.002537 
3059.000000	99.003109 
3058.000000	99.005243 
3057.000000	99.008237 
3056.000000	99.010249 
3055.000000	99.010199 
3054.000000	99.008723 
3053.000000	99.007312 
3052.000000	99.006798 
3051.000000	99.006861 
3050.000000	99.006850 
3049.000000	99.006583 
3048.000000	99.005955 
3047.000000	99.004179 
3046.000000	99.000298 
3045.000000	98.994595 
3044.000000	98.988857 
3043.000000	98.984738 
3042.000000	98.982249 
3041.000000	98.980223 
3040.000000	98.977922 
3039.000000	98.975672 
3038.000000	98.974099 
3037.000000	98.973271 
3036.000000	98.972561 
3035.000000	98.971006 
3034.000000	98.967869 
3033.000000	98.963079 
3032.000000	98.957143 
3031.000000	98.950584 
3030.000000	98.943348 
3029.000000	98.934914 
3028.000000	98.925147 
3027.000000	98.914836 
3026.000000	98.905189 
3025.000000	98.896839 
3024.000000	98.889376 
3023.000000	98.881780 
3022.000000	98.873233 
3021.000000	98.863576 
3020.000000	98.853190 
3019.000000	98.842670 
3018.000000	98.832744 
3017.000000	98.824148 
3016.000000	98.816975 
3015.000000	98.810052 
3014.000000	98.801520 
3013.000000	98.790328 
3012.000000	98.776811 
3011.000000	98.761680 
3010.000000	98.745195 
3009.000000	98.727892 
3008.000000	98.711491 
3007.000000	98.698038 
3006.000000	98.688039 
3005.000000	98.679924 
3004.000000	98.671244 
3003.000000	98.660000 
3002.000000	98.645366 
3001.000000	98.628433 
3000.000000	98.612362 
2999.000000	98.600475 
2998.000000	98.593483 
2997.000000	98.589231 
2996.000000	98.585362 
2995.000000	98.580926 
2994.000000	98.574444 
2993.000000	98.562133 
2992.000000	98.540831 
2991.000000	98.513091 
2990.000000	98.487306 
2989.000000	98.471173 
2988.000000	98.465874 
2987.000000	98.467160 
2986.000000	98.470806 
2985.000000	98.475751 
2984.000000	98.482244 
2983.000000	98.489043 
2982.000000	98.493701 
2981.000000	98.494915 
2980.000000	98.493611 
2979.000000	98.491741 
2978.000000	98.490586 
2977.000000	98.490226 
2976.000000	98.490022 
2975.000000	98.489259 
2974.000000	98.487581 
2973.000000	98.485315 
2972.000000	98.483563 
2971.000000	98.483774 
2970.000000	98.486907 
2969.000000	98.492857 
2968.000000	98.500767 
2967.000000	98.509911 
2966.000000	98.520137 
2965.000000	98.531355 
2964.000000	98.542899 
2963.000000	98.553811 
2962.000000	98.563676 
2961.000000	98.572709 
2960.000000	98.580964 
2959.000000	98.588037 
2958.000000	98.593954 
2957.000000	98.599786 
2956.000000	98.606506 
2955.000000	98.613296 
2954.000000	98.617937 
2953.000000	98.619615 
2952.000000	98.620892 
2951.000000	98.625968 
2950.000000	98.636528 
2949.000000	98.649635 
2948.000000	98.660168 
2947.000000	98.665167 
2946.000000	98.665657 
2945.000000	98.664797 
2944.000000	98.664942 
2943.000000	98.666674 
2942.000000	98.669759 
2941.000000	98.673709 
2940.000000	98.677352 
2939.000000	98.679059 
2938.000000	98.678264 
2937.000000	98.676483 
2936.000000	98.676218 
2935.000000	98.678828 
2934.000000	98.683681 
2933.000000	98.689069 
2932.000000	98.693380 
2931.000000	98.695506 
2930.000000	98.694894 
2929.000000	98.691758 
2928.000000	98.687126 
2927.000000	98.682434 
2926.000000	98.678930 
2925.000000	98.677169 
2924.000000	98.676804 
2923.000000	98.676909 
2922.000000	98.676741 
2921.000000	98.676094 
2920.000000	98.674782 
2919.000000	98.672218 
2918.000000	98.668089 
2917.000000	98.663181 
2916.000000	98.658774 
2915.000000	98.655249 
2914.000000	98.652052 
2913.000000	98.649071 
2912.000000	98.647017 
2911.000000	98.646001 
2910.000000	98.644659 
2909.000000	98.641646 
2908.000000	98.637429 
2907.000000	98.633525 
2906.000000	98.630102 
2905.000000	98.625359 
2904.000000	98.617671 
2903.000000	98.607961 
2902.000000	98.599784 
2901.000000	98.597153 
2900.000000	98.602046 
2899.000000	98.613100 
2898.000000	98.626060 
2897.000000	98.636417 
2896.000000	98.642473 
2895.000000	98.646080 
2894.000000	98.650257 
2893.000000	98.656147 
2892.000000	98.662267 
2891.000000	98.666404 
2890.000000	98.667917 
2889.000000	98.668186 
2888.000000	98.669108 
2887.000000	98.671448 
2886.000000	98.674693 
2885.000000	98.678230 
2884.000000	98.682263 
2883.000000	98.687494 
2882.000000	98.694274 
2881.000000	98.702433 
2880.000000	98.711779 
2879.000000	98.722320 
2878.000000	98.733876 
2877.000000	98.745629 
2876.000000	98.756152 
2875.000000	98.763949 
2874.000000	98.768329 
2873.000000	98.770196 
2872.000000	98.771898 
2871.000000	98.775728 
2870.000000	98.782259 
2869.000000	98.790233 
2868.000000	98.798093 
2867.000000	98.805471 
2866.000000	98.813246 
2865.000000	98.822571 
2864.000000	98.833879 
2863.000000	98.846324 
2862.000000	98.857877 
2861.000000	98.866548 
2860.000000	98.872291 
2859.000000	98.877598 
2858.000000	98.885467 
2857.000000	98.896442 
2856.000000	98.908024 
2855.000000	98.917252 
2854.000000	98.923359 
2853.000000	98.927679 
2852.000000	98.931564 
2851.000000	98.935158 
2850.000000	98.938212 
2849.000000	98.941093 
2848.000000	98.944436 
2847.000000	98.948325 
2846.000000	98.952384 
2845.000000	98.956354 
2844.000000	98.960115 
2843.000000	98.963468 
2842.000000	98.966535 
2841.000000	98.970076 
2840.000000	98.974590 
2839.000000	98.979118 
2838.000000	98.981792 
2837.000000	98.981816 
2836.000000	98.980338 
2835.000000	98.979326 
2834.000000	98.980168 
2833.000000	98.983400 
2832.000000	98.988663 
2831.000000	98.994408 
2830.000000	98.998661 
2829.000000	99.000982 
2828.000000	99.003017 
2827.000000	99.006244 
2826.000000	99.009699 
2825.000000	99.011090 
2824.000000	99.009885 
2823.000000	99.008222 
2822.000000	99.008696 
2821.000000	99.012013 
2820.000000	99.016906 
2819.000000	99.021460 
2818.000000	99.024331 
2817.000000	99.025362 
2816.000000	99.025457 
2815.000000	99.025549 
2814.000000	99.025638 
2813.000000	99.025173 
2812.000000	99.024222 
2811.000000	99.023590 
2810.000000	99.023713 
2809.000000	99.024200 
2808.000000	99.024689 
2807.000000	99.025470 
2806.000000	99.026855 
2805.000000	99.028463 
2804.000000	99.029644 
2803.000000	99.030345 
2802.000000	99.031100 
2801.000000	99.032232 
2800.000000	99.033419 
2799.000000	99.034100 
2798.000000	99.034155 
2797.000000	99.034103 
2796.000000	99.034605 
2795.000000	99.035752 
2794.000000	99.036914 
2793.000000	99.037397 
2792.000000	99.037143 
2791.000000	99.036677 
2790.000000	99.036513 
2789.000000	99.036869 
2788.000000	99.037863 
2787.000000	99.039516 
2786.000000	99.041473 
2785.000000	99.043084 
2784.000000	99.044006 
2783.000000	99.044473 
2782.000000	99.044870 
2781.000000	99.045256 
2780.000000	99.045517 
2779.000000	99.045743 
2778.000000	99.046136 
2777.000000	99.046642 
2776.000000	99.047026 
2775.000000	99.047214 
2774.000000	99.047301 
2773.000000	99.047276 
2772.000000	99.047043 
2771.000000	99.046761 
2770.000000	99.046914 
2769.000000	99.047898 
2768.000000	99.049655 
2767.000000	99.051686 
2766.000000	99.053327 
2765.000000	99.054143 
2764.000000	99.054176 
2763.000000	99.053925 
2762.000000	99.053921 
2761.000000	99.054313 
2760.000000	99.054985 
2759.000000	99.055893 
2758.000000	99.057013 
2757.000000	99.058119 
2756.000000	99.058973 
2755.000000	99.059683 
2754.000000	99.060439 
2753.000000	99.060973 
2752.000000	99.060779 
2751.000000	99.059896 
2750.000000	99.059020 
2749.000000	99.058651 
2748.000000	99.058501 
2747.000000	99.058025 
2746.000000	99.057161 
2745.000000	99.056302 
2744.000000	99.055832 
2743.000000	99.056007 
2742.000000	99.057059 
2741.000000	99.058983 
2740.000000	99.061276 
2739.000000	99.063223 
2738.000000	99.064499 
2737.000000	99.065305 
2736.000000	99.065965 
2735.000000	99.066566 
2734.000000	99.067000 
2733.000000	99.067189 
2732.000000	99.067181 
2731.000000	99.067097 
2730.000000	99.067065 
2729.000000	99.067221 
2728.000000	99.067715 
2727.000000	99.068610 
2726.000000	99.069711 
2725.000000	99.070608 
2724.000000	99.071031 
2723.000000	99.071132 
2722.000000	99.071301 
2721.000000	99.071707 
2720.000000	99.072161 
2719.000000	99.072443 
2718.000000	99.072574 
2717.000000	99.072722 
2716.000000	99.072991 
2715.000000	99.073394 
2714.000000	99.073919 
2713.000000	99.074511 
2712.000000	99.075039 
2711.000000	99.075387 
2710.000000	99.075587 
2709.000000	99.075757 
2708.000000	99.075986 
2707.000000	99.076255 
2706.000000	99.076510 
2705.000000	99.076733 
2704.000000	99.076942 
2703.000000	99.077149 
2702.000000	99.077345 
2701.000000	99.077516 
2700.000000	99.077659 
2699.000000	99.077775 
2698.000000	99.077868 
2697.000000	99.077939 
2696.000000	99.077987 
2695.000000	99.078021 
2694.000000	99.078063 
2693.000000	99.078125 
2692.000000	99.078188 
2691.000000	99.078209 
2690.000000	99.078167 
2689.000000	99.078108 
2688.000000	99.078124 
2687.000000	99.078266 
2686.000000	99.078441 
2685.000000	99.078482 
2684.000000	99.078328 
2683.000000	99.078091 
2682.000000	99.077891 
2681.000000	99.077742 
2680.000000	99.077611 
2679.000000	99.077480 
2678.000000	99.077316 
2677.000000	99.077127 
2676.000000	99.077046 
2675.000000	99.077197 
2674.000000	99.077416 
2673.000000	99.077337 
2672.000000	99.076862 
2671.000000	99.076310 
2670.000000	99.075905 
2669.000000	99.075383 
2668.000000	99.074426 
2667.000000	99.073296 
2666.000000	99.072629 
2665.000000	99.072710 
2664.000000	99.073304 
2663.000000	99.074144 
2662.000000	99.075193 
2661.000000	99.076313 
2660.000000	99.077114 
2659.000000	99.077335 
2658.000000	99.077051 
2657.000000	99.076392 
2656.000000	99.075406 
2655.000000	99.074396 
2654.000000	99.073946 
2653.000000	99.074156 
2652.000000	99.074174 
2651.000000	99.073072 
2650.000000	99.071084 
2649.000000	99.069442 
2648.000000	99.068890 
2647.000000	99.069031 
2646.000000	99.069235 
2645.000000	99.069584 
2644.000000	99.070390 
2643.000000	99.071366 
2642.000000	99.071905 
2641.000000	99.071912 
2640.000000	99.071836 
2639.000000	99.072044 
2638.000000	99.072590 
2637.000000	99.073445 
2636.000000	99.074483 
2635.000000	99.075327 
2634.000000	99.075602 
2633.000000	99.075347 
2632.000000	99.074980 
2631.000000	99.074852 
2630.000000	99.075073 
2629.000000	99.075573 
2628.000000	99.076110 
2627.000000	99.076399 
2626.000000	99.076498 
2625.000000	99.076835 
2624.000000	99.077559 
2623.000000	99.078121 
2622.000000	99.077927 
2621.000000	99.077153 
2620.000000	99.076494 
2619.000000	99.076212 
2618.000000	99.075982 
2617.000000	99.075653 
2616.000000	99.075532 
2615.000000	99.075767 
2614.000000	99.076056 
2613.000000	99.076261 
2612.000000	99.076772 
2611.000000	99.077860 
2610.000000	99.079135 
2609.000000	99.080016 
2608.000000	99.080446 
2607.000000	99.080755 
2606.000000	99.081107 
2605.000000	99.081467 
2604.000000	99.081857 
2603.000000	99.082213 
2602.000000	99.082231 
2601.000000	99.081716 
2600.000000	99.080953 
2599.000000	99.080463 
2598.000000	99.080434 
2597.000000	99.080675 
2596.000000	99.080961 
2595.000000	99.081148 
2594.000000	99.081086 
2593.000000	99.080732 
2592.000000	99.080356 
2591.000000	99.080359 
2590.000000	99.080809 
2589.000000	99.081379 
2588.000000	99.081706 
2587.000000	99.081751 
2586.000000	99.081634 
2585.000000	99.081389 
2584.000000	99.081024 
2583.000000	99.080672 
2582.000000	99.080474 
2581.000000	99.080406 
2580.000000	99.080357 
2579.000000	99.080304 
2578.000000	99.080279 
2577.000000	99.080278 
2576.000000	99.080302 
2575.000000	99.080406 
2574.000000	99.080605 
2573.000000	99.080817 
2572.000000	99.080907 
2571.000000	99.080831 
2570.000000	99.080658 
2569.000000	99.080454 
2568.000000	99.080234 
2567.000000	99.080062 
2566.000000	99.080062 
2565.000000	99.080245 
2564.000000	99.080417 
2563.000000	99.080392 
2562.000000	99.080195 
2561.000000	99.079988 
2560.000000	99.079843 
2559.000000	99.079753 
2558.000000	99.079761 
2557.000000	99.079858 
2556.000000	99.079809 
2555.000000	99.079419 
2554.000000	99.078984 
2553.000000	99.079070 
2552.000000	99.079768 
2551.000000	99.080544 
2550.000000	99.080939 
2549.000000	99.081076 
2548.000000	99.081215 
2547.000000	99.081204 
2546.000000	99.080695 
2545.000000	99.079713 
2544.000000	99.078778 
2543.000000	99.078506 
2542.000000	99.079156 
2541.000000	99.080409 
2540.000000	99.081536 
2539.000000	99.081998 
2538.000000	99.081794 
2537.000000	99.081054 
2536.000000	99.079522 
2535.000000	99.076990 
2534.000000	99.074307 
2533.000000	99.073130 
2532.000000	99.074218 
2531.000000	99.076616 
2530.000000	99.078770 
2529.000000	99.080270 
2528.000000	99.081706 
2527.000000	99.083261 
2526.000000	99.084308 
2525.000000	99.084407 
2524.000000	99.084019 
2523.000000	99.083993 
2522.000000	99.084631 
2521.000000	99.085501 
2520.000000	99.085992 
2519.000000	99.085918 
2518.000000	99.085618 
2517.000000	99.085454 
2516.000000	99.085255 
2515.000000	99.084550 
2514.000000	99.083407 
2513.000000	99.082570 
2512.000000	99.082428 
2511.000000	99.082302 
2510.000000	99.081346 
2509.000000	99.079882 
2508.000000	99.079156 
2507.000000	99.079761 
2506.000000	99.080980 
2505.000000	99.081693 
2504.000000	99.081515 
2503.000000	99.080749 
2502.000000	99.079814 
2501.000000	99.079095 
2500.000000	99.079005 
2499.000000	99.079704 
2498.000000	99.080892 
2497.000000	99.082133 
2496.000000	99.083217 
2495.000000	99.083967 
2494.000000	99.084008 
2493.000000	99.083129 
2492.000000	99.081713 
2491.000000	99.080542 
2490.000000	99.080035 
2489.000000	99.080015 
2488.000000	99.080089 
2487.000000	99.080071 
2486.000000	99.080042 
2485.000000	99.080143 
2484.000000	99.080415 
2483.000000	99.080748 
2482.000000	99.080951 
2481.000000	99.080916 
2480.000000	99.080722 
2479.000000	99.080547 
2478.000000	99.080481 
2477.000000	99.080466 
2476.000000	99.080448 
2475.000000	99.080467 
2474.000000	99.080591 
2473.000000	99.080817 
2472.000000	99.081084 
2471.000000	99.081338 
2470.000000	99.081543 
2469.000000	99.081652 
2468.000000	99.081627 
2467.000000	99.081487 
2466.000000	99.081314 
2465.000000	99.081189 
2464.000000	99.081163 
2463.000000	99.081251 
2462.000000	99.081407 
2461.000000	99.081515 
2460.000000	99.081486 
2459.000000	99.081354 
2458.000000	99.081249 
2457.000000	99.081267 
2456.000000	99.081385 
2455.000000	99.081498 
2454.000000	99.081517 
2453.000000	99.081425 
2452.000000	99.081248 
2451.000000	99.081037 
2450.000000	99.080867 
2449.000000	99.080802 
2448.000000	99.080821 
2447.000000	99.080829 
2446.000000	99.080771 
2445.000000	99.080708 
2444.000000	99.080738 
2443.000000	99.080872 
2442.000000	99.081011 
2441.000000	99.081035 
2440.000000	99.080884 
2439.000000	99.080569 
2438.000000	99.080175 
2437.000000	99.079840 
2436.000000	99.079645 
2435.000000	99.079491 
2434.000000	99.079146 
2433.000000	99.078476 
2432.000000	99.077605 
2431.000000	99.076839 
2430.000000	99.076407 
2429.000000	99.076334 
2428.000000	99.076519 
2427.000000	99.076882 
2426.000000	99.077373 
2425.000000	99.077813 
2424.000000	99.077836 
2423.000000	99.077131 
2422.000000	99.075834 
2421.000000	99.074668 
2420.000000	99.074351 
2419.000000	99.074947 
2418.000000	99.075924 
2417.000000	99.076769 
2416.000000	99.077349 
2415.000000	99.077593 
2414.000000	99.077298 
2413.000000	99.076527 
2412.000000	99.075851 
2411.000000	99.075826 
2410.000000	99.076422 
2409.000000	99.077229 
2408.000000	99.078060 
2407.000000	99.079010 
2406.000000	99.080035 
2405.000000	99.080949 
2404.000000	99.081751 
2403.000000	99.082486 
2402.000000	99.082848 
2401.000000	99.082408 
2400.000000	99.081282 
2399.000000	99.080175 
2398.000000	99.079633 
2397.000000	99.079677 
2396.000000	99.080222 
2395.000000	99.081405 
2394.000000	99.083245 
2393.000000	99.085307 
2392.000000	99.087084 
2391.000000	99.088536 
2390.000000	99.089971 
2389.000000	99.091521 
2388.000000	99.093018 
2387.000000	99.094300 
2386.000000	99.095397 
2385.000000	99.096404 
2384.000000	99.097328 
2383.000000	99.098161 
2382.000000	99.099040 
2381.000000	99.100240 
2380.000000	99.101874 
2379.000000	99.103539 
2378.000000	99.104481 
2377.000000	99.104359 
2376.000000	99.103821 
2375.000000	99.104002 
2374.000000	99.105352 
2373.000000	99.107264 
2372.000000	99.109002 
2371.000000	99.110701 
2370.000000	99.112991 
2369.000000	99.115845 
2368.000000	99.118243 
2367.000000	99.119133 
2366.000000	99.118397 
2365.000000	99.116954 
2364.000000	99.116126 
2363.000000	99.116578 
2362.000000	99.117947 
2361.000000	99.119232 
2360.000000	99.119698 
2359.000000	99.119670 
2358.000000	99.120105 
2357.000000	99.121565 
2356.000000	99.123703 
2355.000000	99.125647 
2354.000000	99.126825 
2353.000000	99.127058 
2352.000000	99.126518 
2351.000000	99.125466 
2350.000000	99.124032 
2349.000000	99.122476 
2348.000000	99.121286 
2347.000000	99.121094 
2346.000000	99.121759 
2345.000000	99.122225 
2344.000000	99.121784 
2343.000000	99.120922 
2342.000000	99.120773 
2341.000000	99.121467 
2340.000000	99.122097 
2339.000000	99.121787 
2338.000000	99.120620 
2337.000000	99.119303 
2336.000000	99.118439 
2335.000000	99.118251 
2334.000000	99.118762 
2333.000000	99.119478 
2332.000000	99.119370 
2331.000000	99.117536 
2330.000000	99.114039 
2329.000000	99.110265 
2328.000000	99.107520 
2327.000000	99.106424 
2326.000000	99.106340 
2325.000000	99.106044 
2324.000000	99.104693 
2323.000000	99.102622 
2322.000000	99.101465 
2321.000000	99.102289 
2320.000000	99.104459 
2319.000000	99.106059 
2318.000000	99.106078 
2317.000000	99.105106 
2316.000000	99.104105 
2315.000000	99.103158 
2314.000000	99.101749 
2313.000000	99.100199 
2312.000000	99.099609 
2311.000000	99.100846 
2310.000000	99.103451 
2309.000000	99.106079 
2308.000000	99.107174 
2307.000000	99.105750 
2306.000000	99.101872 
2305.000000	99.096731 
2304.000000	99.091698 
2303.000000	99.087176 
2302.000000	99.082724 
2301.000000	99.078353 
2300.000000	99.074873 
2299.000000	99.072786 
2298.000000	99.071435 
2297.000000	99.070069 
2296.000000	99.068883 
2295.000000	99.068408 
2294.000000	99.068031 
2293.000000	99.066485 
2292.000000	99.063668 
2291.000000	99.061068 
2290.000000	99.059852 
2289.000000	99.059442 
2288.000000	99.058445 
2287.000000	99.056461 
2286.000000	99.054356 
2285.000000	99.053008 
2284.000000	99.052408 
2283.000000	99.051824 
2282.000000	99.050487 
2281.000000	99.048187 
2280.000000	99.045699 
2279.000000	99.044523 
2278.000000	99.045757 
2277.000000	99.048990 
2276.000000	99.052465 
2275.000000	99.054516 
2274.000000	99.054637 
2273.000000	99.053071 
2272.000000	99.049851 
2271.000000	99.044851 
2270.000000	99.038979 
2269.000000	99.034663 
2268.000000	99.034141 
2267.000000	99.037402 
2266.000000	99.042111 
2265.000000	99.045637 
2264.000000	99.047030 
2263.000000	99.046980 
2262.000000	99.046760 
2261.000000	99.047525 
2260.000000	99.049739 
2259.000000	99.052427 
2258.000000	99.053522 
2257.000000	99.051879 
2256.000000	99.048539 
2255.000000	99.045291 
2254.000000	99.042388 
2253.000000	99.038987 
2252.000000	99.035625 
2251.000000	99.034504 
2250.000000	99.036767 
2249.000000	99.040800 
2248.000000	99.043926 
2247.000000	99.045006 
2246.000000	99.044445 
2245.000000	99.042476 
2244.000000	99.038796 
2243.000000	99.033817 
2242.000000	99.029104 
2241.000000	99.026063 
2240.000000	99.024636 
2239.000000	99.023669 
2238.000000	99.022286 
2237.000000	99.020531 
2236.000000	99.018668 
2235.000000	99.016323 
2234.000000	99.012819 
2233.000000	99.008491 
2232.000000	99.005269 
2231.000000	99.005454 
2230.000000	99.009962 
2229.000000	99.017624 
2228.000000	99.025865 
2227.000000	99.032149 
2226.000000	99.035019 
2225.000000	99.034351 
2224.000000	99.031100 
2223.000000	99.026693 
2222.000000	99.022529 
2221.000000	99.019727 
2220.000000	99.018683 
2219.000000	99.018784 
2218.000000	99.019180 
2217.000000	99.020099 
2216.000000	99.022720 
2215.000000	99.027234 
2214.000000	99.031563 
2213.000000	99.032915 
2212.000000	99.030476 
2211.000000	99.026072 
2210.000000	99.022581 
2209.000000	99.021795 
2208.000000	99.023518 
2207.000000	99.025827 
2206.000000	99.026355 
2205.000000	99.024069 
2204.000000	99.019888 
2203.000000	99.015465 
2202.000000	99.011624 
2201.000000	99.008465 
2200.000000	99.006350 
2199.000000	99.005662 
2198.000000	99.005816 
2197.000000	99.005671 
2196.000000	99.005087 
2195.000000	99.005185 
2194.000000	99.006788 
2193.000000	99.009322 
2192.000000	99.011326 
2191.000000	99.011502 
2190.000000	99.009356 
2189.000000	99.005595 
2188.000000	99.002181 
2187.000000	99.001097 
2186.000000	99.002857 
2185.000000	99.006518 
2184.000000	99.010765 
2183.000000	99.014463 
2182.000000	99.016361 
2181.000000	99.015657 
2180.000000	99.013236 
2179.000000	99.011196 
2178.000000	99.010445 
2177.000000	99.009860 
2176.000000	99.008225 
2175.000000	99.005863 
2174.000000	99.003760 
2173.000000	99.002122 
2172.000000	99.000646 
2171.000000	98.999472 
2170.000000	98.999113 
2169.000000	98.999891 
2168.000000	99.001881 
2167.000000	99.004834 
2166.000000	99.007663 
2165.000000	99.008926 
2164.000000	99.008341 
2163.000000	99.007103 
2162.000000	99.006587 
2161.000000	99.007413 
2160.000000	99.009810 
2159.000000	99.013547 
2158.000000	99.017202 
2157.000000	99.019126 
2156.000000	99.019533 
2155.000000	99.020237 
2154.000000	99.022124 
2153.000000	99.024022 
2152.000000	99.024532 
2151.000000	99.023953 
2150.000000	99.023831 
2149.000000	99.025170 
2148.000000	99.027720 
2147.000000	99.030471 
2146.000000	99.032321 
2145.000000	99.032683 
2144.000000	99.031965 
2143.000000	99.031416 
2142.000000	99.031855 
2141.000000	99.032875 
2140.000000	99.033617 
2139.000000	99.033841 
2138.000000	99.033830 
2137.000000	99.033685 
2136.000000	99.033362 
2135.000000	99.033178 
2134.000000	99.033599 
2133.000000	99.034574 
2132.000000	99.035485 
2131.000000	99.035745 
2130.000000	99.035197 
2129.000000	99.034117 
2128.000000	99.033051 
2127.000000	99.032480 
2126.000000	99.032450 
2125.000000	99.032574 
2124.000000	99.032543 
2123.000000	99.032572 
2122.000000	99.032972 
2121.000000	99.033399 
2120.000000	99.033090 
2119.000000	99.031856 
2118.000000	99.030367 
2117.000000	99.029364 
2116.000000	99.028854 
2115.000000	99.028417 
2114.000000	99.027961 
2113.000000	99.027798 
2112.000000	99.028028 
2111.000000	99.028211 
2110.000000	99.027781 
2109.000000	99.026559 
2108.000000	99.024846 
2107.000000	99.023053 
2106.000000	99.021305 
2105.000000	99.019382 
2104.000000	99.017117 
2103.000000	99.014904 
2102.000000	99.013566 
2101.000000	99.013549 
2100.000000	99.014412 
2099.000000	99.015182 
2098.000000	99.015316 
2097.000000	99.015215 
2096.000000	99.015631 
2095.000000	99.016582 
2094.000000	99.016981 
2093.000000	99.015714 
2092.000000	99.013079 
2091.000000	99.010881 
2090.000000	99.010644 
2089.000000	99.011996 
2088.000000	99.013091 
2087.000000	99.012590 
2086.000000	99.010867 
2085.000000	99.009361 
2084.000000	99.009149 
2083.000000	99.010212 
2082.000000	99.011695 
2081.000000	99.012669 
2080.000000	99.012797 
2079.000000	99.012434 
2078.000000	99.012238 
2077.000000	99.012720 
2076.000000	99.014055 
2075.000000	99.015996 
2074.000000	99.017760 
2073.000000	99.018443 
2072.000000	99.017855 
2071.000000	99.016644 
2070.000000	99.015472 
2069.000000	99.014334 
2068.000000	99.013015 
2067.000000	99.011701 
2066.000000	99.010695 
2065.000000	99.009857 
2064.000000	99.008884 
2063.000000	99.007996 
2062.000000	99.007756 
2061.000000	99.008273 
2060.000000	99.008982 
2059.000000	99.009278 
2058.000000	99.009032 
2057.000000	99.008450 
2056.000000	99.007709 
2055.000000	99.006796 
2054.000000	99.005610 
2053.000000	99.004154 
2052.000000	99.002685 
2051.000000	99.001616 
2050.000000	99.001119 
2049.000000	99.000868 
2048.000000	99.000291 
2047.000000	98.999151 
2046.000000	98.997704 
2045.000000	98.996447 
2044.000000	98.995699 
2043.000000	98.995412 
2042.000000	98.995304 
2041.000000	98.995058 
2040.000000	98.994530 
2039.000000	98.993794 
2038.000000	98.993024 
2037.000000	98.992322 
2036.000000	98.991683 
2035.000000	98.991104 
2034.000000	98.990609 
2033.000000	98.990134 
2032.000000	98.989530 
2031.000000	98.988722 
2030.000000	98.987807 
2029.000000	98.986971 
2028.000000	98.986306 
2027.000000	98.985782 
2026.000000	98.985355 
2025.000000	98.985081 
2024.000000	98.985046 
2023.000000	98.985188 
2022.000000	98.985262 
2021.000000	98.985069 
2020.000000	98.984683 
2019.000000	98.984400 
2018.000000	98.984427 
2017.000000	98.984681 
2016.000000	98.984865 
2015.000000	98.984765 
2014.000000	98.984392 
2013.000000	98.983917 
2012.000000	98.983538 
2011.000000	98.983423 
2010.000000	98.983698 
2009.000000	98.984395 
2008.000000	98.985425 
2007.000000	98.986549 
2006.000000	98.987431 
2005.000000	98.987803 
2004.000000	98.987688 
2003.000000	98.987442 
2002.000000	98.987383 
2001.000000	98.987471 
2000.000000	98.987468 
1999.000000	98.987257 
1998.000000	98.986925 
1997.000000	98.986671 
1996.000000	98.986693 
1995.000000	98.987132 
1994.000000	98.987948 
1993.000000	98.988797 
1992.000000	98.989193 
1991.000000	98.988918 
1990.000000	98.988169 
1989.000000	98.987401 
1988.000000	98.987012 
1987.000000	98.987124 
1986.000000	98.987532 
1985.000000	98.987881 
1984.000000	98.987997 
1983.000000	98.988018 
1982.000000	98.988126 
1981.000000	98.988177 
1980.000000	98.987792 
1979.000000	98.986819 
1978.000000	98.985596 
1977.000000	98.984647 
1976.000000	98.984187 
1975.000000	98.984096 
1974.000000	98.984203 
1973.000000	98.984555 
1972.000000	98.985383 
1971.000000	98.986822 
1970.000000	98.988527 
1969.000000	98.989631 
1968.000000	98.989469 
1967.000000	98.988223 
1966.000000	98.986861 
1965.000000	98.986105 
1964.000000	98.985813 
1963.000000	98.985573 
1962.000000	98.985403 
1961.000000	98.985615 
1960.000000	98.986236 
1959.000000	98.986936 
1958.000000	98.987501 
1957.000000	98.988014 
1956.000000	98.988572 
1955.000000	98.989105 
1954.000000	98.989529 
1953.000000	98.989778 
1952.000000	98.989574 
1951.000000	98.988574 
1950.000000	98.986975 
1949.000000	98.985767 
1948.000000	98.985968 
1947.000000	98.987486 
1946.000000	98.988859 
1945.000000	98.988456 
1944.000000	98.986114 
1943.000000	98.983655 
1942.000000	98.983276 
1941.000000	98.985311 
1940.000000	98.987962 
1939.000000	98.989341 
1938.000000	98.989533 
1937.000000	98.990279 
1936.000000	98.992808 
1935.000000	98.996314 
1934.000000	98.998865 
1933.000000	98.999743 
1932.000000	99.000165 
1931.000000	99.001684 
1930.000000	99.004188 
1929.000000	99.006057 
1928.000000	99.006361 
1927.000000	99.005833 
1926.000000	99.005727 
1925.000000	99.006297 
1924.000000	99.006942 
1923.000000	99.007398 
1922.000000	99.007889 
1921.000000	99.008319 
1920.000000	99.007870 
1919.000000	99.005643 
1918.000000	99.001679 
1917.000000	98.997547 
1916.000000	98.995389 
1915.000000	98.996040 
1914.000000	98.998578 
1913.000000	99.001400 
1912.000000	99.003619 
1911.000000	99.005364 
1910.000000	99.006637 
1909.000000	99.006982 
1908.000000	99.006734 
1907.000000	99.007161 
1906.000000	99.008950 
1905.000000	99.011069 
1904.000000	99.011982 
1903.000000	99.011568 
1902.000000	99.010719 
1901.000000	99.010008 
1900.000000	99.009572 
1899.000000	99.009655 
1898.000000	99.010514 
1897.000000	99.011980 
1896.000000	99.013632 
1895.000000	99.015207 
1894.000000	99.016367 
1893.000000	99.016654 
1892.000000	99.016142 
1891.000000	99.015629 
1890.000000	99.015669 
1889.000000	99.015848 
1888.000000	99.015669 
1887.000000	99.015463 
1886.000000	99.015837 
1885.000000	99.016868 
1884.000000	99.018187 
1883.000000	99.019552 
1882.000000	99.020844 
1881.000000	99.021800 
1880.000000	99.022322 
1879.000000	99.022797 
1878.000000	99.023797 
1877.000000	99.025426 
1876.000000	99.027118 
1875.000000	99.028224 
1874.000000	99.028555 
1873.000000	99.028262 
1872.000000	99.027673 
1871.000000	99.027199 
1870.000000	99.027121 
1869.000000	99.027352 
1868.000000	99.027661 
1867.000000	99.028160 
1866.000000	99.029044 
1865.000000	99.030104 
1864.000000	99.030833 
1863.000000	99.030901 
1862.000000	99.030404 
1861.000000	99.029830 
1860.000000	99.029776 
1859.000000	99.030530 
1858.000000	99.031880 
1857.000000	99.033212 
1856.000000	99.034099 
1855.000000	99.034659 
1854.000000	99.035214 
1853.000000	99.035802 
1852.000000	99.036264 
1851.000000	99.036583 
1850.000000	99.036979 
1849.000000	99.037681 
1848.000000	99.038644 
1847.000000	99.039571 
1846.000000	99.040169 
1845.000000	99.040392 
1844.000000	99.040464 
1843.000000	99.040719 
1842.000000	99.041233 
1841.000000	99.041761 
1840.000000	99.042054 
1839.000000	99.042063 
1838.000000	99.041932 
1837.000000	99.041856 
1836.000000	99.041952 
1835.000000	99.042245 
1834.000000	99.042637 
1833.000000	99.042974 
1832.000000	99.043162 
1831.000000	99.043194 
1830.000000	99.043153 
1829.000000	99.043237 
1828.000000	99.043577 
1827.000000	99.044050 
1826.000000	99.044432 
1825.000000	99.044665 
1824.000000	99.044827 
1823.000000	99.044960 
1822.000000	99.044895 
1821.000000	99.044499 
1820.000000	99.044090 
1819.000000	99.044256 
1818.000000	99.045247 
1817.000000	99.046518 
1816.000000	99.047215 
1815.000000	99.047306 
1814.000000	99.047415 
1813.000000	99.047920 
1812.000000	99.048540 
1811.000000	99.049050 
1810.000000	99.049815 
1809.000000	99.050854 
1808.000000	99.051416 
1807.000000	99.050950 
1806.000000	99.049663 
1805.000000	99.048110 
1804.000000	99.046732 
1803.000000	99.045909 
1802.000000	99.045764 
1801.000000	99.045978 
1800.000000	99.046028 
1799.000000	99.045975 
1798.000000	99.046382 
1797.000000	99.047351 
1796.000000	99.048443 
1795.000000	99.049277 
1794.000000	99.049772 
1793.000000	99.049929 
1792.000000	99.049675 
1791.000000	99.049298 
1790.000000	99.049264 
1789.000000	99.049520 
1788.000000	99.049790 
1787.000000	99.050043 
1786.000000	99.050410 
1785.000000	99.050819 
1784.000000	99.051052 
1783.000000	99.051078 
1782.000000	99.050951 
1781.000000	99.050766 
1780.000000	99.050603 
1779.000000	99.050558 
1778.000000	99.050732 
1777.000000	99.051103 
1776.000000	99.051544 
1775.000000	99.051869 
1774.000000	99.051992 
1773.000000	99.052001 
1772.000000	99.052072 
1771.000000	99.052280 
1770.000000	99.052573 
1769.000000	99.052855 
1768.000000	99.053094 
1767.000000	99.053315 
1766.000000	99.053549 
1765.000000	99.053801 
1764.000000	99.054062 
1763.000000	99.054324 
1762.000000	99.054594 
1761.000000	99.054888 
1760.000000	99.055194 
1759.000000	99.055475 
1758.000000	99.055729 
1757.000000	99.056011 
1756.000000	99.056372 
1755.000000	99.056751 
1754.000000	99.057022 
1753.000000	99.057159 
1752.000000	99.057294 
1751.000000	99.057459 
1750.000000	99.057514 
1749.000000	99.057439 
1748.000000	99.057447 
1747.000000	99.057698 
1746.000000	99.058070 
1745.000000	99.058481 
1744.000000	99.058964 
1743.000000	99.059464 
1742.000000	99.059861 
1741.000000	99.060111 
1740.000000	99.060211 
1739.000000	99.060249 
1738.000000	99.060335 
1737.000000	99.060283 
1736.000000	99.059867 
1735.000000	99.059520 
1734.000000	99.059257 
1733.000000	99.058835 
1732.000000	99.058543 
1731.000000	99.058150 
1730.000000	99.057450 
1729.000000	99.056748 
1728.000000	99.056391 
1727.000000	99.056385 
1726.000000	99.056480 
1725.000000	99.056615 
1724.000000	99.056664 
1723.000000	99.056515 
1722.000000	99.056230 
1721.000000	99.055840 
1720.000000	99.055348 
1719.000000	99.054883 
1718.000000	99.054459 
1717.000000	99.053715 
1716.000000	99.052648 
1715.000000	99.051804 
1714.000000	99.051409 
1713.000000	99.051123 
1712.000000	99.050532 
1711.000000	99.049649 
1710.000000	99.048724 
1709.000000	99.047876 
1708.000000	99.047045 
1707.000000	99.046184 
1706.000000	99.045332 
1705.000000	99.044453 
1704.000000	99.043488 
1703.000000	99.042447 
1702.000000	99.041396 
1701.000000	99.040401 
1700.000000	99.039390 
1699.000000	99.038373 
1698.000000	99.037390 
1697.000000	99.036383 
1696.000000	99.035332 
1695.000000	99.034258 
1694.000000	99.033195 
1693.000000	99.032146 
1692.000000	99.031096 
1691.000000	99.030052 
1690.000000	99.029020 
1689.000000	99.027991 
1688.000000	99.026951 
1687.000000	99.025891 
1686.000000	99.024815 
1685.000000	99.023742 
1684.000000	99.022651 
1683.000000	99.021538 
1682.000000	99.020439 
1681.000000	99.019342 
1680.000000	99.018251 
1679.000000	99.017182 
1678.000000	99.016107 
1677.000000	99.015001 
1676.000000	99.013907 
1675.000000	99.012897 
1674.000000	99.011977 
1673.000000	99.011133 
1672.000000	99.010325 
1671.000000	99.009520 
1670.000000	99.008651 
1669.000000	99.007640 
1668.000000	99.006610 
1667.000000	99.005689 
1666.000000	99.004767 
1665.000000	99.003702 
1664.000000	99.002585 
1663.000000	99.001716 
1662.000000	99.001120 
1661.000000	99.000574 
1660.000000	99.000093 
1659.000000	98.999778 
1658.000000	98.999538 
1657.000000	98.999080 
1656.000000	98.998290 
1655.000000	98.997197 
1654.000000	98.996665 
1653.000000	98.995773 
1652.000000	98.994443 
1651.000000	98.994685 
1650.000000	98.995340 
1649.000000	98.995046 
1648.000000	98.994275 
1647.000000	98.993222 
1646.000000	98.992126 
1645.000000	98.991771 
1644.000000	98.992371 
1643.000000	98.993441 
1642.000000	98.994450 
1641.000000	98.995154 
1640.000000	98.995582 
1639.000000	98.995634 
1638.000000	98.995323 
1637.000000	98.995389 
1636.000000	98.996667 
1635.000000	98.998280 
1634.000000	98.999394 
1633.000000	98.999687 
1632.000000	98.998705 
1631.000000	98.997128 
1630.000000	98.995824 
1629.000000	98.995116 
1628.000000	98.995308 
1627.000000	98.996688 
1626.000000	98.998415 
1625.000000	98.999263 
1624.000000	98.999420 
1623.000000	99.000161 
1622.000000	99.001957 
1621.000000	99.004119 
1620.000000	99.005896 
1619.000000	99.006872 
1618.000000	99.007489 
1617.000000	99.007920 
1616.000000	99.008932 
1615.000000	99.011788 
1614.000000	99.015394 
1613.000000	99.018018 
1612.000000	99.020324 
1611.000000	99.023495 
1610.000000	99.026300 
1609.000000	99.027088 
1608.000000	99.026884 
1607.000000	99.027798 
1606.000000	99.029409 
1605.000000	99.030510 
1604.000000	99.031738 
1603.000000	99.033874 
1602.000000	99.036361 
1601.000000	99.038446 
1600.000000	99.040594 
1599.000000	99.043341 
1598.000000	99.046049 
1597.000000	99.047921 
1596.000000	99.049021 
1595.000000	99.049764 
1594.000000	99.050066 
1593.000000	99.050051 
1592.000000	99.050689 
1591.000000	99.052595 
1590.000000	99.054864 
1589.000000	99.056375 
1588.000000	99.057479 
1587.000000	99.059088 
1586.000000	99.060862 
1585.000000	99.061628 
1584.000000	99.061763 
1583.000000	99.062158 
1582.000000	99.062588 
1581.000000	99.062669 
1580.000000	99.062707 
1579.000000	99.062677 
1578.000000	99.062148 
1577.000000	99.061462 
1576.000000	99.061400 
1575.000000	99.062464 
1574.000000	99.063935 
1573.000000	99.064705 
1572.000000	99.064703 
1571.000000	99.064705 
1570.000000	99.065002 
1569.000000	99.065301 
1568.000000	99.065763 
1567.000000	99.066226 
1566.000000	99.066301 
1565.000000	99.066077 
1564.000000	99.066041 
1563.000000	99.066154 
1562.000000	99.066173 
1561.000000	99.065947 
1560.000000	99.066103 
1559.000000	99.066346 
1558.000000	99.066278 
1557.000000	99.066417 
1556.000000	99.066668 
1555.000000	99.066817 
1554.000000	99.066886 
1553.000000	99.066924 
1552.000000	99.066957 
1551.000000	99.066965 
1550.000000	99.066979 
1549.000000	99.067022 
1548.000000	99.067075 
1547.000000	99.067101 
1546.000000	99.067081 
1545.000000	99.067034 
1544.000000	99.066999 
1543.000000	99.067014 
1542.000000	99.067096 
1541.000000	99.067238 
1540.000000	99.067341 
1539.000000	99.067364 
1538.000000	99.067411 
1537.000000	99.067520 
1536.000000	99.067608 
1535.000000	99.067669 
1534.000000	99.067681 
1533.000000	99.067542 
1532.000000	99.067271 
1531.000000	99.067036 
1530.000000	99.066923 
1529.000000	99.066858 
1528.000000	99.066742 
1527.000000	99.066691 
1526.000000	99.066926 
1525.000000	99.067448 
1524.000000	99.068005 
1523.000000	99.068480 
1522.000000	99.068991 
1521.000000	99.069250 
1520.000000	99.068954 
1519.000000	99.068163 
1518.000000	99.067062 
1517.000000	99.066105 
1516.000000	99.065612 
1515.000000	99.065490 
1514.000000	99.065405 
1513.000000	99.065229 
1512.000000	99.065001 
1511.000000	99.064684 
1510.000000	99.064399 
1509.000000	99.064341 
1508.000000	99.064951 
1507.000000	99.065782 
1506.000000	99.065763 
1505.000000	99.065159 
1504.000000	99.064674 
1503.000000	99.064242 
1502.000000	99.063885 
1501.000000	99.063610 
1500.000000	99.063057 
1499.000000	99.061870 
1498.000000	99.060416 
1497.000000	99.059406 
1496.000000	99.058719 
1495.000000	99.058365 
1494.000000	99.058792 
1493.000000	99.059974 
1492.000000	99.061403 
1491.000000	99.062521 
1490.000000	99.062721 
1489.000000	99.061570 
1488.000000	99.059162 
1487.000000	99.056662 
1486.000000	99.055137 
1485.000000	99.054015 
1484.000000	99.052712 
1483.000000	99.051386 
1482.000000	99.050629 
1481.000000	99.050365 
1480.000000	99.049644 
1479.000000	99.048043 
1478.000000	99.046232 
1477.000000	99.045052 
1476.000000	99.044453 
1475.000000	99.044570 
1474.000000	99.045764 
1473.000000	99.047271 
1472.000000	99.047113 
1471.000000	99.045331 
1470.000000	99.043735 
1469.000000	99.042592 
1468.000000	99.041183 
1467.000000	99.039759 
1466.000000	99.039277 
1465.000000	99.039760 
1464.000000	99.040255 
1463.000000	99.039924 
1462.000000	99.038976 
1461.000000	99.037353 
1460.000000	99.034821 
1459.000000	99.030894 
1458.000000	99.025523 
1457.000000	99.017806 
1456.000000	99.008959 
1455.000000	99.002570 
1454.000000	98.999102 
1453.000000	98.998700 
1452.000000	99.001747 
1451.000000	99.006252 
1450.000000	99.009648 
1449.000000	99.011107 
1448.000000	99.010603 
1447.000000	99.008981 
1446.000000	99.007092 
1445.000000	99.006434 
1444.000000	99.007885 
1443.000000	99.010170 
1442.000000	99.012190 
1441.000000	99.013782 
1440.000000	99.014790 
1439.000000	99.013979 
1438.000000	99.012349 
1437.000000	99.011585 
1436.000000	99.010503 
1435.000000	99.007726 
1434.000000	99.004144 
1433.000000	99.000633 
1432.000000	98.997415 
1431.000000	98.993818 
1430.000000	98.989706 
1429.000000	98.986389 
1428.000000	98.983981 
1427.000000	98.981440 
1426.000000	98.977555 
1425.000000	98.973345 
1424.000000	98.970283 
1423.000000	98.966806 
1422.000000	98.960704 
1421.000000	98.951963 
1420.000000	98.942724 
1419.000000	98.934057 
1418.000000	98.926739 
1417.000000	98.921369 
1416.000000	98.915888 
1415.000000	98.908032 
1414.000000	98.897986 
1413.000000	98.887998 
1412.000000	98.880013 
1411.000000	98.873721 
1410.000000	98.868091 
1409.000000	98.863211 
1408.000000	98.859642 
1407.000000	98.858036 
1406.000000	98.858361 
1405.000000	98.860501 
1404.000000	98.864714 
1403.000000	98.870750 
1402.000000	98.878093 
1401.000000	98.886217 
1400.000000	98.894108 
1399.000000	98.899331 
1398.000000	98.899218 
1397.000000	98.892296 
1396.000000	98.879114 
1395.000000	98.864888 
1394.000000	98.858446 
1393.000000	98.864712 
1392.000000	98.880055 
1391.000000	98.896157 
1390.000000	98.906945 
1389.000000	98.911289 
1388.000000	98.911117 
1387.000000	98.908883 
1386.000000	98.906493 
1385.000000	98.905153 
1384.000000	98.905178 
1383.000000	98.905937 
1382.000000	98.906796 
1381.000000	98.907851 
1380.000000	98.909974 
1379.000000	98.913983 
1378.000000	98.919785 
1377.000000	98.926569 
1376.000000	98.933551 
1375.000000	98.940251 
1374.000000	98.946363 
1373.000000	98.952202 
1372.000000	98.958312 
1371.000000	98.964760 
1370.000000	98.971010 
1369.000000	98.976690 
1368.000000	98.981818 
1367.000000	98.986300 
1366.000000	98.990238 
1365.000000	98.994380 
1364.000000	98.999626 
1363.000000	99.005718 
1362.000000	99.011078 
1361.000000	99.014581 
1360.000000	99.016819 
1359.000000	99.019399 
1358.000000	99.023601 
1357.000000	99.029640 
1356.000000	99.036507 
1355.000000	99.042621 
1354.000000	99.047316 
1353.000000	99.051379 
1352.000000	99.055291 
1351.000000	99.058328 
1350.000000	99.059440 
1349.000000	99.059548 
1348.000000	99.060519 
1347.000000	99.062583 
1346.000000	99.064728 
1345.000000	99.066689 
1344.000000	99.068916 
1343.000000	99.070830 
1342.000000	99.071245 
1341.000000	99.070700 
1340.000000	99.071562 
1339.000000	99.074810 
1338.000000	99.078601 
1337.000000	99.081090 
1336.000000	99.082503 
1335.000000	99.083670 
1334.000000	99.084400 
1333.000000	99.084191 
1332.000000	99.083348 
1331.000000	99.082436 
1330.000000	99.081395 
1329.000000	99.080235 
1328.000000	99.079760 
1327.000000	99.080706 
1326.000000	99.082409 
1325.000000	99.083571 
1324.000000	99.083682 
1323.000000	99.083003 
1322.000000	99.082055 
1321.000000	99.081638 
1320.000000	99.082728 
1319.000000	99.085504 
1318.000000	99.088702 
1317.000000	99.090399 
1316.000000	99.089453 
1315.000000	99.086259 
1314.000000	99.082629 
1313.000000	99.080639 
1312.000000	99.080871 
1311.000000	99.081974 
1310.000000	99.082388 
1309.000000	99.082153 
1308.000000	99.082237 
1307.000000	99.082701 
1306.000000	99.082484 
1305.000000	99.081279 
1304.000000	99.080249 
1303.000000	99.080428 
1302.000000	99.081438 
1301.000000	99.082173 
1300.000000	99.082071 
1299.000000	99.081439 
1298.000000	99.081246 
1297.000000	99.082585 
1296.000000	99.085615 
1295.000000	99.088838 
1294.000000	99.090273 
1293.000000	99.089513 
1292.000000	99.087848 
1291.000000	99.086505 
1290.000000	99.085655 
1289.000000	99.085126 
1288.000000	99.084862 
1287.000000	99.084330 
1286.000000	99.082642 
1285.000000	99.079803 
1284.000000	99.076854 
1283.000000	99.074413 
1282.000000	99.071854 
1281.000000	99.068439 
1280.000000	99.064699 
1279.000000	99.061762 
1278.000000	99.059863 
1277.000000	99.058401 
1276.000000	99.056966 
1275.000000	99.055403 
1274.000000	99.053164 
1273.000000	99.049536 
1272.000000	99.044641 
1271.000000	99.039674 
1270.000000	99.035804 
1269.000000	99.033038 
1268.000000	99.030287 
1267.000000	99.026372 
1266.000000	99.020990 
1265.000000	99.014820 
1264.000000	99.008781 
1263.000000	99.003281 
1262.000000	98.998243 
1261.000000	98.993703 
1260.000000	98.990106 
1259.000000	98.987754 
1258.000000	98.986174 
1257.000000	98.984350 
1256.000000	98.981658 
1255.000000	98.978451 
1254.000000	98.975565 
1253.000000	98.973304 
1252.000000	98.971228 
1251.000000	98.969108 
1250.000000	98.967748 
1249.000000	98.968348 
1248.000000	98.971060 
1247.000000	98.974415 
1246.000000	98.976099 
1245.000000	98.973957 
1244.000000	98.966849 
1243.000000	98.956160 
1242.000000	98.946722 
1241.000000	98.944103 
1240.000000	98.949488 
1239.000000	98.957756 
1238.000000	98.962036 
1237.000000	98.960084 
1236.000000	98.954811 
1235.000000	98.949644 
1234.000000	98.945309 
1233.000000	98.940973 
1232.000000	98.936103 
1231.000000	98.930278 
1230.000000	98.923057 
1229.000000	98.915285 
1228.000000	98.909300 
1227.000000	98.906616 
1226.000000	98.906089 
1225.000000	98.905339 
1224.000000	98.903302 
1223.000000	98.900513 
1222.000000	98.897598 
1221.000000	98.894598 
1220.000000	98.891429 
1219.000000	98.888016 
1218.000000	98.884034 
1217.000000	98.879113 
1216.000000	98.873193 
1215.000000	98.866202 
1214.000000	98.857465 
1213.000000	98.845931 
1212.000000	98.831199 
1211.000000	98.814499 
1210.000000	98.798657 
1209.000000	98.786487 
1208.000000	98.778445 
1207.000000	98.771843 
1206.000000	98.763112 
1205.000000	98.751060 
1204.000000	98.737306 
1203.000000	98.723738 
1202.000000	98.710672 
1201.000000	98.697645 
1200.000000	98.684775 
1199.000000	98.672471 
1198.000000	98.660497 
1197.000000	98.647971 
1196.000000	98.633823 
1195.000000	98.617191 
1194.000000	98.598278 
1193.000000	98.579037 
1192.000000	98.562032 
1191.000000	98.547905 
1190.000000	98.534505 
1189.000000	98.519212 
1188.000000	98.501584 
1187.000000	98.483273 
1186.000000	98.466068 
1185.000000	98.450636 
1184.000000	98.436411 
1183.000000	98.421908 
1182.000000	98.405719 
1181.000000	98.388004 
1180.000000	98.370419 
1179.000000	98.353800 
1178.000000	98.336715 
1177.000000	98.317367 
1176.000000	98.296155 
1175.000000	98.274910 
1174.000000	98.253936 
1173.000000	98.231448 
1172.000000	98.206201 
1171.000000	98.179429 
1170.000000	98.153692 
1169.000000	98.130540 
1168.000000	98.109596 
1167.000000	98.089519 
1166.000000	98.070033 
1165.000000	98.053625 
1164.000000	98.044738 
1163.000000	98.046252 
1162.000000	98.056668 
1161.000000	98.071270 
1160.000000	98.085540 
1159.000000	98.096330 
1158.000000	98.100502 
1157.000000	98.094737 
1156.000000	98.077702 
1155.000000	98.051994 
1154.000000	98.023523 
1153.000000	97.998495 
1152.000000	97.979879 
1151.000000	97.965611 
1150.000000	97.950277 
1149.000000	97.929699 
1148.000000	97.904319 
1147.000000	97.877971 
1146.000000	97.853788 
1145.000000	97.831910 
1144.000000	97.810532 
1143.000000	97.787936 
1142.000000	97.763668 
1141.000000	97.738949 
1140.000000	97.715928 
1139.000000	97.695557 
1138.000000	97.676171 
1137.000000	97.654970 
1136.000000	97.630653 
1135.000000	97.603720 
1134.000000	97.574682 
1133.000000	97.543283 
1132.000000	97.509594 
1131.000000	97.474952 
1130.000000	97.441638 
1129.000000	97.411808 
1128.000000	97.385905 
1127.000000	97.361263 
1126.000000	97.333418 
1125.000000	97.300444 
1124.000000	97.265276 
1123.000000	97.232254 
1122.000000	97.202082 
1121.000000	97.172056 
1120.000000	97.140418 
1119.000000	97.107995 
1118.000000	97.075761 
1117.000000	97.043419 
1116.000000	97.010787 
1115.000000	96.978473 
1114.000000	96.946770 
1113.000000	96.915588 
1112.000000	96.885441 
1111.000000	96.856466 
1110.000000	96.826660 
1109.000000	96.793664 
1108.000000	96.758569 
1107.000000	96.725610 
1106.000000	96.697277 
1105.000000	96.671651 
1104.000000	96.644999 
1103.000000	96.615621 
1102.000000	96.584668 
1101.000000	96.554494 
1100.000000	96.526797 
1099.000000	96.501633 
1098.000000	96.477487 
1097.000000	96.452701 
1096.000000	96.426705 
1095.000000	96.399337 
1094.000000	96.369625 
1093.000000	96.336285 
1092.000000	96.299162 
1091.000000	96.259350 
1090.000000	96.218354 
1089.000000	96.177982 
1088.000000	96.140291 
1087.000000	96.106049 
1086.000000	96.073510 
1085.000000	96.040255 
1084.000000	96.006082 
1083.000000	95.972535 
1082.000000	95.939870 
1081.000000	95.906518 
1080.000000	95.871714 
1079.000000	95.836691 
1078.000000	95.802967 
1077.000000	95.771419 
1076.000000	95.743300 
1075.000000	95.719888 
1074.000000	95.700576 
1073.000000	95.683100 
1072.000000	95.665080 
1071.000000	95.642436 
1070.000000	95.607234 
1069.000000	95.552466 
1068.000000	95.481381 
1067.000000	95.409587 
1066.000000	95.354213 
1065.000000	95.320968 
1064.000000	95.302433 
1063.000000	95.285475 
1062.000000	95.258755 
1061.000000	95.216575 
1060.000000	95.160307 
1059.000000	95.097613 
1058.000000	95.038396 
1057.000000	94.989275 
1056.000000	94.950352 
1055.000000	94.915943 
1054.000000	94.878824 
1053.000000	94.835532 
1052.000000	94.788072 
1051.000000	94.740161 
1050.000000	94.693086 
1049.000000	94.646431 
1048.000000	94.600572 
1047.000000	94.555892 
1046.000000	94.511470 
1045.000000	94.466980 
1044.000000	94.423861 
1043.000000	94.382313 
1042.000000	94.339741 
1041.000000	94.295264 
1040.000000	94.253360 
1039.000000	94.219388 
1038.000000	94.193640 
1037.000000	94.173461 
1036.000000	94.158718 
1035.000000	94.150628 
1034.000000	94.147262 
1033.000000	94.144693 
1032.000000	94.140397 
1031.000000	94.131578 
1030.000000	94.114371 
1029.000000	94.091362 
1028.000000	94.076436 
1027.000000	94.083292 
1026.000000	94.109157 
1025.000000	94.136596 
1024.000000	94.151925 
1023.000000	94.155546 
1022.000000	94.154651 
1021.000000	94.153889 
1020.000000	94.154759 
1019.000000	94.157238 
1018.000000	94.159038 
1017.000000	94.157735 
1016.000000	94.155270 
1015.000000	94.156356 
1014.000000	94.161796 
1013.000000	94.167570 
1012.000000	94.170748 
1011.000000	94.171915 
1010.000000	94.171987 
1009.000000	94.171840 
1008.000000	94.175310 
1007.000000	94.187130 
1006.000000	94.206786 
1005.000000	94.228856 
1004.000000	94.250076 
1003.000000	94.271859 
1002.000000	94.295732 
1001.000000	94.320965 
1000.000000	94.346948 
999.000000	 94.373301 
998.000000	 94.397671 
997.000000	 94.418395 
996.000000	 94.439461 
995.000000	 94.467504 
994.000000	 94.503104 
993.000000	 94.539843 
992.000000	 94.572667 
991.000000	 94.602408 
990.000000	 94.631243 
989.000000	 94.659055 
988.000000	 94.686261 
987.000000	 94.716000 
986.000000	 94.751352 
985.000000	 94.793240 
984.000000	 94.841624 
983.000000	 94.895413 
982.000000	 94.951044 
981.000000	 95.004646 
980.000000	 95.056371 
979.000000	 95.109974 
978.000000	 95.168135 
977.000000	 95.231006 
976.000000	 95.298300 
975.000000	 95.368869 
974.000000	 95.438910 
973.000000	 95.505007 
972.000000	 95.568910 
971.000000	 95.635292 
970.000000	 95.704910 
969.000000	 95.773924 
968.000000	 95.839841 
967.000000	 95.904000 
966.000000	 95.967943 
965.000000	 96.031183 
964.000000	 96.093040 
963.000000	 96.153408 
962.000000	 96.211568 
961.000000	 96.267256 
960.000000	 96.322372 
959.000000	 96.378106 
958.000000	 96.430962 
957.000000	 96.475827 
956.000000	 96.513067 
955.000000	 96.548742 
954.000000	 96.587414 
953.000000	 96.628205 
952.000000	 96.668347 
951.000000	 96.706503 
950.000000	 96.741440 
949.000000	 96.771163 
948.000000	 96.795144 
947.000000	 96.815060 
946.000000	 96.832342 
945.000000	 96.847107 
944.000000	 96.860150 
943.000000	 96.873851 
942.000000	 96.890461 
941.000000	 96.910945 
940.000000	 96.934921 
939.000000	 96.959582 
938.000000	 96.979881 
937.000000	 96.993162 
936.000000	 97.003259 
935.000000	 97.016848 
934.000000	 97.035878 
933.000000	 97.056919 
932.000000	 97.077573 
931.000000	 97.099203 
930.000000	 97.122505 
929.000000	 97.144243 
928.000000	 97.160153 
927.000000	 97.168907 
926.000000	 97.172527 
925.000000	 97.175104 
924.000000	 97.181414 
923.000000	 97.194028 
922.000000	 97.210814 
921.000000	 97.226936 
920.000000	 97.239311 
919.000000	 97.247355 
918.000000	 97.250746 
917.000000	 97.249985 
916.000000	 97.248765 
915.000000	 97.251784 
914.000000	 97.259455 
913.000000	 97.268177 
912.000000	 97.276687 
911.000000	 97.288904 
910.000000	 97.309424 
909.000000	 97.339227 
908.000000	 97.376553 
907.000000	 97.418792 
906.000000	 97.462394 
905.000000	 97.504068 
904.000000	 97.543770 
903.000000	 97.584638 
902.000000	 97.629225 
901.000000	 97.677364 
900.000000	 97.727512 
899.000000	 97.777591 
898.000000	 97.824254 
897.000000	 97.864162 
896.000000	 97.896962 
895.000000	 97.925450 
894.000000	 97.952669 
893.000000	 97.980456 
892.000000	 98.010547 
891.000000	 98.044735 
890.000000	 98.083400 
889.000000	 98.125227 
888.000000	 98.167885 
887.000000	 98.207610 
886.000000	 98.239812 
885.000000	 98.263153 
884.000000	 98.282280 
883.000000	 98.303432 
882.000000	 98.327593 
881.000000	 98.351296 
880.000000	 98.373741 
879.000000	 98.398732 
878.000000	 98.428725 
877.000000	 98.460865 
876.000000	 98.490405 
875.000000	 98.515048 
874.000000	 98.535110 
873.000000	 98.552611 
872.000000	 98.571129 
871.000000	 98.593413 
870.000000	 98.618223 
869.000000	 98.642581 
868.000000	 98.667540 
867.000000	 98.697639 
866.000000	 98.733278 
865.000000	 98.768073 
864.000000	 98.796653 
863.000000	 98.821426 
862.000000	 98.847834 
861.000000	 98.875318 
860.000000	 98.897690 
859.000000	 98.911789 
858.000000	 98.921389 
857.000000	 98.932063 
856.000000	 98.946048 
855.000000	 98.963677 
854.000000	 98.985878 
853.000000	 99.011640 
852.000000	 99.034946 
851.000000	 99.048667 
850.000000	 99.052394 
849.000000	 99.053813 
848.000000	 99.060859 
847.000000	 99.073924 
846.000000	 99.086903 
845.000000	 99.094199 
844.000000	 99.094962 
843.000000	 99.092022 
842.000000	 99.089165 
841.000000	 99.088653 
840.000000	 99.088772 
839.000000	 99.083837 
838.000000	 99.069387 
837.000000	 99.048130 
836.000000	 99.028391 
835.000000	 99.015554 
834.000000	 99.007433 
833.000000	 98.999900 
832.000000	 98.994257 
831.000000	 98.995234 
830.000000	 99.002551 
829.000000	 99.008896 
828.000000	 99.008008 
827.000000	 99.002145 
826.000000	 98.999163 
825.000000	 99.003208 
824.000000	 99.010692 
823.000000	 99.015714 
822.000000	 99.017217 
821.000000	 99.018985 
820.000000	 99.023664 
819.000000	 99.029530 
818.000000	 99.033648 
817.000000	 99.035686 
816.000000	 99.036261 
815.000000	 99.032726 
814.000000	 99.019920 
813.000000	 98.995391 
812.000000	 98.960945 
811.000000	 98.917943 
810.000000	 98.863534 
809.000000	 98.793362 
808.000000	 98.706584 
807.000000	 98.606928 
806.000000	 98.499963 
805.000000	 98.390696 
804.000000	 98.283271 
803.000000	 98.181880 
802.000000	 98.092007 
801.000000	 98.020421 
800.000000	 97.971861 
799.000000	 97.945100 
798.000000	 97.934991 
797.000000	 97.939511 
796.000000	 97.960740 
795.000000	 97.996603 
794.000000	 98.036739 
793.000000	 98.071353 
792.000000	 98.100575 
791.000000	 98.129885 
790.000000	 98.159269 
789.000000	 98.182021 
788.000000	 98.191914 
787.000000	 98.186383 
786.000000	 98.164559 
785.000000	 98.127745 
784.000000	 98.081906 
783.000000	 98.035791 
782.000000	 97.996215 
781.000000	 97.967046 
780.000000	 97.950561 
779.000000	 97.945977 
778.000000	 97.948887 
777.000000	 97.957017 
776.000000	 97.974990 
775.000000	 98.008530 
774.000000	 98.055309 
773.000000	 98.106332 
772.000000	 98.155125 
771.000000	 98.200516 
770.000000	 98.241630 
769.000000	 98.275731 
768.000000	 98.301113 
767.000000	 98.318304 
766.000000	 98.329123 
765.000000	 98.337826 
764.000000	 98.350881 
763.000000	 98.370299 
762.000000	 98.388364 
761.000000	 98.395001 
760.000000	 98.390806 
759.000000	 98.387884 
758.000000	 98.396937 
757.000000	 98.417264 
756.000000	 98.439466 
755.000000	 98.453755 
754.000000	 98.456036 
753.000000	 98.451017 
752.000000	 98.450658 
751.000000	 98.465441 
750.000000	 98.494801 
749.000000	 98.527565 
748.000000	 98.552655 
747.000000	 98.567975 
746.000000	 98.579296 
745.000000	 98.593480 
744.000000	 98.613332 
743.000000	 98.636874 
742.000000	 98.660822 
741.000000	 98.685448 
740.000000	 98.714760 
739.000000	 98.750292 
738.000000	 98.786484 
737.000000	 98.814744 
736.000000	 98.830574 
735.000000	 98.834850 
734.000000	 98.831428 
733.000000	 98.827121 
732.000000	 98.831164 
731.000000	 98.848604 
730.000000	 98.873925 
729.000000	 98.896090 
728.000000	 98.910538 
727.000000	 98.921692 
726.000000	 98.933682 
725.000000	 98.944203 
724.000000	 98.949110 
723.000000	 98.948348 
722.000000	 98.945686 
721.000000	 98.946132 
720.000000	 98.954242 
719.000000	 98.971017 
718.000000	 98.991610 
717.000000	 99.009051 
716.000000	 99.019503 
715.000000	 99.021664 
714.000000	 99.014757 
713.000000	 99.002343 
712.000000	 98.995644 
711.000000	 99.004913 
710.000000	 99.026552 
709.000000	 99.045730 
708.000000	 99.052707 
707.000000	 99.049729 
706.000000	 99.040790 
705.000000	 99.023629 
704.000000	 98.996714 
703.000000	 98.967009 
702.000000	 98.944312 
701.000000	 98.929820 
700.000000	 98.914431 
699.000000	 98.887525 
698.000000	 98.846242 
697.000000	 98.798841 
696.000000	 98.759716 
695.000000	 98.738523 
694.000000	 98.734522 
693.000000	 98.742555 
692.000000	 98.761087 
691.000000	 98.789970 
690.000000	 98.823743 
689.000000	 98.855299 
688.000000	 98.884564 
687.000000	 98.914162 
686.000000	 98.937736 
685.000000	 98.943941 
684.000000	 98.933485 
683.000000	 98.922149 
682.000000	 98.923804 
681.000000	 98.937903 
680.000000	 98.955028 
679.000000	 98.967325 
678.000000	 98.971300 
677.000000	 98.968541 
676.000000	 98.968571 
675.000000	 98.981456 
674.000000	 99.004203 
673.000000	 99.021477 
672.000000	 99.023947 
671.000000	 99.018890 
670.000000	 99.021131 
669.000000	 99.038515 
668.000000	 99.059733 
667.000000	 99.069735 
666.000000	 99.069598 
665.000000	 99.062474 
664.000000	 99.055264 
663.000000	 99.061599 
662.000000	 99.085734 
661.000000	 99.111534 
660.000000	 99.119785 
659.000000	 99.109127 
658.000000	 99.091807 
657.000000	 99.076658 
656.000000	 99.065079 
655.000000	 99.059185 
654.000000	 99.061088 
653.000000	 99.066826 
652.000000	 99.071133 
651.000000	 99.075490 
650.000000	 99.084308 

