4000.000000	98.994881 
3999.000000	98.993412 
3998.000000	98.992419 
3997.000000	98.992429 
3996.000000	98.993321 
3995.000000	98.994342 
3994.000000	98.994940 
3993.000000	98.995244 
3992.000000	98.995639 
3991.000000	98.996105 
3990.000000	98.996118 
3989.000000	98.995194 
3988.000000	98.993396 
3987.000000	98.991344 
3986.000000	98.989807 
3985.000000	98.989266 
3984.000000	98.989696 
3983.000000	98.990732 
3982.000000	98.992009 
3981.000000	98.993372 
3980.000000	98.994766 
3979.000000	98.996019 
3978.000000	98.996854 
3977.000000	98.997104 
3976.000000	98.996819 
3975.000000	98.996112 
3974.000000	98.995001 
3973.000000	98.993481 
3972.000000	98.991752 
3971.000000	98.990277 
3970.000000	98.989575 
3969.000000	98.989874 
3968.000000	98.990915 
3967.000000	98.992061 
3966.000000	98.992684 
3965.000000	98.992535 
3964.000000	98.991797 
3963.000000	98.990909 
3962.000000	98.990303 
3961.000000	98.990131 
3960.000000	98.990207 
3959.000000	98.990180 
3958.000000	98.989903 
3957.000000	98.989572 
3956.000000	98.989476 
3955.000000	98.989647 
3954.000000	98.989831 
3953.000000	98.989776 
3952.000000	98.989436 
3951.000000	98.988922 
3950.000000	98.988344 
3949.000000	98.987756 
3948.000000	98.987232 
3947.000000	98.986906 
3946.000000	98.986852 
3945.000000	98.986958 
3944.000000	98.986987 
3943.000000	98.986782 
3942.000000	98.986400 
3941.000000	98.986013 
3940.000000	98.985727 
3939.000000	98.985505 
3938.000000	98.985282 
3937.000000	98.985039 
3936.000000	98.984798 
3935.000000	98.984574 
3934.000000	98.984372 
3933.000000	98.984196 
3932.000000	98.984043 
3931.000000	98.983891 
3930.000000	98.983704 
3929.000000	98.983471 
3928.000000	98.983245 
3927.000000	98.983076 
3926.000000	98.982913 
3925.000000	98.982694 
3924.000000	98.982516 
3923.000000	98.982540 
3922.000000	98.982637 
3921.000000	98.982480 
3920.000000	98.982033 
3919.000000	98.981553 
3918.000000	98.981147 
3917.000000	98.980678 
3916.000000	98.980159 
3915.000000	98.979880 
3914.000000	98.980009 
3913.000000	98.980360 
3912.000000	98.980626 
3911.000000	98.980656 
3910.000000	98.980514 
3909.000000	98.980360 
3908.000000	98.980347 
3907.000000	98.980509 
3906.000000	98.980733 
3905.000000	98.980838 
3904.000000	98.980728 
3903.000000	98.980506 
3902.000000	98.980321 
3901.000000	98.980154 
3900.000000	98.979911 
3899.000000	98.979600 
3898.000000	98.979321 
3897.000000	98.979123 
3896.000000	98.978988 
3895.000000	98.978890 
3894.000000	98.978861 
3893.000000	98.978890 
3892.000000	98.978894 
3891.000000	98.978812 
3890.000000	98.978695 
3889.000000	98.978603 
3888.000000	98.978511 
3887.000000	98.978382 
3886.000000	98.978219 
3885.000000	98.978054 
3884.000000	98.977915 
3883.000000	98.977795 
3882.000000	98.977682 
3881.000000	98.977573 
3880.000000	98.977477 
3879.000000	98.977408 
3878.000000	98.977368 
3877.000000	98.977351 
3876.000000	98.977339 
3875.000000	98.977320 
3874.000000	98.977289 
3873.000000	98.977248 
3872.000000	98.977199 
3871.000000	98.977142 
3870.000000	98.977079 
3869.000000	98.977027 
3868.000000	98.977007 
3867.000000	98.977022 
3866.000000	98.977047 
3865.000000	98.977062 
3864.000000	98.977074 
3863.000000	98.977104 
3862.000000	98.977153 
3861.000000	98.977211 
3860.000000	98.977276 
3859.000000	98.977340 
3858.000000	98.977377 
3857.000000	98.977393 
3856.000000	98.977489 
3855.000000	98.977761 
3854.000000	98.978123 
3853.000000	98.978339 
3852.000000	98.978504 
3851.000000	98.978823 
3850.000000	98.979225 
3849.000000	98.979561 
3848.000000	98.979836 
3847.000000	98.980110 
3846.000000	98.980401 
3845.000000	98.980691 
3844.000000	98.980970 
3843.000000	98.981231 
3842.000000	98.981469 
3841.000000	98.981675 
3840.000000	98.981841 
3839.000000	98.981971 
3838.000000	98.982070 
3837.000000	98.982140 
3836.000000	98.982186 
3835.000000	98.982210 
3834.000000	98.982218 
3833.000000	98.982220 
3832.000000	98.982231 
3831.000000	98.982258 
3830.000000	98.982297 
3829.000000	98.982339 
3828.000000	98.982374 
3827.000000	98.982402 
3826.000000	98.982424 
3825.000000	98.982445 
3824.000000	98.982469 
3823.000000	98.982497 
3822.000000	98.982517 
3821.000000	98.982515 
3820.000000	98.982488 
3819.000000	98.982444 
3818.000000	98.982383 
3817.000000	98.982301 
3816.000000	98.982199 
3815.000000	98.982087 
3814.000000	98.981976 
3813.000000	98.981863 
3812.000000	98.981738 
3811.000000	98.981603 
3810.000000	98.981465 
3809.000000	98.981327 
3808.000000	98.981187 
3807.000000	98.981046 
3806.000000	98.980909 
3805.000000	98.980783 
3804.000000	98.980668 
3803.000000	98.980559 
3802.000000	98.980452 
3801.000000	98.980358 
3800.000000	98.980291 
3799.000000	98.980259 
3798.000000	98.980256 
3797.000000	98.980267 
3796.000000	98.980272 
3795.000000	98.980303 
3794.000000	98.980417 
3793.000000	98.980630 
3792.000000	98.980892 
3791.000000	98.981149 
3790.000000	98.981375 
3789.000000	98.981566 
3788.000000	98.981784 
3787.000000	98.982130 
3786.000000	98.982619 
3785.000000	98.983093 
3784.000000	98.983425 
3783.000000	98.983690 
3782.000000	98.983985 
3781.000000	98.984152 
3780.000000	98.983953 
3779.000000	98.983371 
3778.000000	98.982735 
3777.000000	98.982359 
3776.000000	98.982191 
3775.000000	98.982085 
3774.000000	98.982212 
3773.000000	98.982837 
3772.000000	98.983790 
3771.000000	98.984389 
3770.000000	98.984118 
3769.000000	98.983285 
3768.000000	98.982764 
3767.000000	98.982857 
3766.000000	98.983134 
3765.000000	98.983317 
3764.000000	98.983818 
3763.000000	98.985076 
3762.000000	98.986620 
3761.000000	98.987615 
3760.000000	98.988016 
3759.000000	98.988195 
3758.000000	98.988170 
3757.000000	98.987704 
3756.000000	98.986937 
3755.000000	98.986273 
3754.000000	98.986015 
3753.000000	98.986756 
3752.000000	98.988736 
3751.000000	98.989856 
3750.000000	98.987123 
3749.000000	98.981331 
3748.000000	98.976083 
3747.000000	98.972637 
3746.000000	98.970104 
3745.000000	98.967561 
3744.000000	98.964356 
3743.000000	98.964423 
3742.000000	98.970541 
3741.000000	98.975853 
3740.000000	98.975395 
3739.000000	98.972796 
3738.000000	98.972767 
3737.000000	98.975239 
3736.000000	98.977068 
3735.000000	98.977053 
3734.000000	98.976087 
3733.000000	98.973935 
3732.000000	98.970091 
3731.000000	98.966807 
3730.000000	98.966408 
3729.000000	98.967455 
3728.000000	98.967300 
3727.000000	98.966394 
3726.000000	98.967120 
3725.000000	98.969686 
3724.000000	98.970609 
3723.000000	98.966628 
3722.000000	98.958994 
3721.000000	98.952199 
3720.000000	98.949360 
3719.000000	98.949494 
3718.000000	98.949354 
3717.000000	98.946612 
3716.000000	98.941244 
3715.000000	98.934258 
3714.000000	98.926451 
3713.000000	98.918780 
3712.000000	98.911488 
3711.000000	98.904102 
3710.000000	98.897615 
3709.000000	98.893095 
3708.000000	98.889329 
3707.000000	98.884264 
3706.000000	98.877163 
3705.000000	98.868693 
3704.000000	98.859870 
3703.000000	98.851384 
3702.000000	98.843166 
3701.000000	98.835015 
3700.000000	98.827604 
3699.000000	98.821088 
3698.000000	98.814151 
3697.000000	98.806261 
3696.000000	98.799083 
3695.000000	98.794588 
3694.000000	98.792500 
3693.000000	98.790815 
3692.000000	98.788163 
3691.000000	98.784169 
3690.000000	98.778399 
3689.000000	98.770689 
3688.000000	98.763136 
3687.000000	98.758649 
3686.000000	98.756847 
3685.000000	98.754655 
3684.000000	98.750588 
3683.000000	98.745778 
3682.000000	98.741434 
3681.000000	98.737035 
3680.000000	98.731221 
3679.000000	98.723872 
3678.000000	98.715931 
3677.000000	98.708112 
3676.000000	98.700344 
3675.000000	98.693060 
3674.000000	98.688440 
3673.000000	98.686836 
3672.000000	98.685314 
3671.000000	98.681914 
3670.000000	98.676840 
3669.000000	98.670917 
3668.000000	98.665404 
3667.000000	98.660554 
3666.000000	98.655715 
3665.000000	98.650876 
3664.000000	98.646480 
3663.000000	98.642594 
3662.000000	98.638891 
3661.000000	98.635220 
3660.000000	98.631889 
3659.000000	98.629291 
3658.000000	98.627092 
3657.000000	98.624228 
3656.000000	98.620128 
3655.000000	98.616413 
3654.000000	98.615115 
3653.000000	98.615853 
3652.000000	98.617041 
3651.000000	98.617448 
3650.000000	98.614997 
3649.000000	98.607577 
3648.000000	98.597167 
3647.000000	98.588938 
3646.000000	98.585707 
3645.000000	98.586414 
3644.000000	98.588185 
3643.000000	98.588731 
3642.000000	98.587602 
3641.000000	98.585746 
3640.000000	98.584415 
3639.000000	98.584319 
3638.000000	98.585561 
3637.000000	98.587833 
3636.000000	98.589818 
3635.000000	98.589514 
3634.000000	98.586226 
3633.000000	98.581875 
3632.000000	98.578834 
3631.000000	98.577034 
3630.000000	98.573827 
3629.000000	98.565459 
3628.000000	98.553638 
3627.000000	98.547558 
3626.000000	98.549807 
3625.000000	98.554539 
3624.000000	98.558465 
3623.000000	98.562157 
3622.000000	98.565982 
3621.000000	98.569135 
3620.000000	98.571067 
3619.000000	98.572412 
3618.000000	98.575339 
3617.000000	98.581929 
3616.000000	98.591094 
3615.000000	98.599380 
3614.000000	98.604233 
3613.000000	98.605659 
3612.000000	98.605814 
3611.000000	98.606762 
3610.000000	98.608817 
3609.000000	98.611648 
3608.000000	98.615609 
3607.000000	98.621525 
3606.000000	98.629475 
3605.000000	98.638103 
3604.000000	98.645812 
3603.000000	98.651870 
3602.000000	98.656100 
3601.000000	98.659007 
3600.000000	98.662235 
3599.000000	98.667365 
3598.000000	98.673627 
3597.000000	98.678545 
3596.000000	98.680265 
3595.000000	98.678946 
3594.000000	98.676572 
3593.000000	98.676204 
3592.000000	98.680061 
3591.000000	98.687982 
3590.000000	98.697426 
3589.000000	98.704321 
3588.000000	98.704907 
3587.000000	98.699275 
3586.000000	98.692760 
3585.000000	98.690227 
3584.000000	98.691182 
3583.000000	98.692804 
3582.000000	98.693505 
3581.000000	98.693119 
3580.000000	98.691875 
3579.000000	98.689970 
3578.000000	98.687540 
3577.000000	98.685052 
3576.000000	98.683420 
3575.000000	98.683365 
3574.000000	98.684743 
3573.000000	98.686606 
3572.000000	98.688104 
3571.000000	98.689050 
3570.000000	98.689717 
3569.000000	98.690089 
3568.000000	98.689451 
3567.000000	98.687251 
3566.000000	98.684682 
3565.000000	98.683709 
3564.000000	98.684150 
3563.000000	98.684240 
3562.000000	98.683064 
3561.000000	98.681051 
3560.000000	98.679027 
3559.000000	98.677481 
3558.000000	98.676503 
3557.000000	98.676056 
3556.000000	98.676215 
3555.000000	98.676934 
3554.000000	98.677721 
3553.000000	98.677873 
3552.000000	98.677187 
3551.000000	98.676095 
3550.000000	98.674929 
3549.000000	98.673558 
3548.000000	98.671977 
3547.000000	98.670628 
3546.000000	98.669868 
3545.000000	98.669584 
3544.000000	98.669418 
3543.000000	98.669095 
3542.000000	98.668559 
3541.000000	98.667930 
3540.000000	98.667358 
3539.000000	98.666879 
3538.000000	98.666442 
3537.000000	98.665989 
3536.000000	98.665503 
3535.000000	98.665005 
3534.000000	98.664509 
3533.000000	98.664017 
3532.000000	98.663528 
3531.000000	98.663042 
3530.000000	98.662559 
3529.000000	98.662078 
3528.000000	98.661600 
3527.000000	98.661124 
3526.000000	98.660652 
3525.000000	98.660181 
3524.000000	98.659706 
3523.000000	98.659224 
3522.000000	98.658735 
3521.000000	98.658244 
3520.000000	98.657758 
3519.000000	98.657282 
3518.000000	98.656818 
3517.000000	98.656363 
3516.000000	98.655910 
3515.000000	98.655453 
3514.000000	98.654984 
3513.000000	98.654504 
3512.000000	98.654011 
3511.000000	98.653506 
3510.000000	98.652992 
3509.000000	98.652473 
3508.000000	98.651952 
3507.000000	98.651429 
3506.000000	98.650901 
3505.000000	98.650359 
3504.000000	98.649798 
3503.000000	98.649221 
3502.000000	98.648631 
3501.000000	98.648030 
3500.000000	98.647414 
3499.000000	98.646771 
3498.000000	98.646096 
3497.000000	98.645388 
3496.000000	98.644656 
3495.000000	98.643912 
3494.000000	98.643163 
3493.000000	98.642408 
3492.000000	98.641645 
3491.000000	98.640872 
3490.000000	98.640089 
3489.000000	98.639300 
3488.000000	98.638507 
3487.000000	98.637707 
3486.000000	98.636897 
3485.000000	98.636073 
3484.000000	98.635234 
3483.000000	98.634381 
3482.000000	98.633516 
3481.000000	98.632641 
3480.000000	98.631757 
3479.000000	98.630868 
3478.000000	98.629973 
3477.000000	98.629069 
3476.000000	98.628151 
3475.000000	98.627214 
3474.000000	98.626258 
3473.000000	98.625293 
3472.000000	98.624323 
3471.000000	98.623354 
3470.000000	98.622381 
3469.000000	98.621401 
3468.000000	98.620418 
3467.000000	98.619434 
3466.000000	98.618432 
3465.000000	98.617404 
3464.000000	98.616352 
3463.000000	98.615281 
3462.000000	98.614153 
3461.000000	98.612888 
3460.000000	98.611430 
3459.000000	98.609877 
3458.000000	98.608494 
3457.000000	98.607505 
3456.000000	98.606915 
3455.000000	98.606452 
3454.000000	98.605788 
3453.000000	98.604867 
3452.000000	98.603901 
3451.000000	98.603153 
3450.000000	98.602717 
3449.000000	98.602445 
3448.000000	98.602009 
3447.000000	98.601088 
3446.000000	98.599590 
3445.000000	98.597760 
3444.000000	98.596024 
3443.000000	98.594626 
3442.000000	98.593472 
3441.000000	98.592329 
3440.000000	98.591161 
3439.000000	98.590162 
3438.000000	98.589429 
3437.000000	98.588725 
3436.000000	98.587717 
3435.000000	98.586459 
3434.000000	98.585434 
3433.000000	98.585034 
3432.000000	98.585065 
3431.000000	98.584864 
3430.000000	98.583911 
3429.000000	98.582235 
3428.000000	98.580303 
3427.000000	98.578569 
3426.000000	98.577177 
3425.000000	98.576093 
3424.000000	98.575346 
3423.000000	98.575020 
3422.000000	98.575004 
3421.000000	98.574863 
3420.000000	98.574119 
3419.000000	98.572724 
3418.000000	98.571225 
3417.000000	98.570343 
3416.000000	98.570332 
3415.000000	98.570742 
3414.000000	98.570802 
3413.000000	98.570084 
3412.000000	98.568772 
3411.000000	98.567398 
3410.000000	98.566497 
3409.000000	98.566425 
3408.000000	98.567171 
3407.000000	98.568145 
3406.000000	98.568446 
3405.000000	98.567667 
3404.000000	98.566353 
3403.000000	98.565505 
3402.000000	98.565645 
3401.000000	98.566556 
3400.000000	98.567737 
3399.000000	98.568883 
3398.000000	98.569946 
3397.000000	98.570970 
3396.000000	98.571889 
3395.000000	98.572443 
3394.000000	98.572382 
3393.000000	98.571797 
3392.000000	98.571164 
3391.000000	98.570855 
3390.000000	98.570736 
3389.000000	98.570480 
3388.000000	98.570116 
3387.000000	98.570009 
3386.000000	98.570341 
3385.000000	98.570908 
3384.000000	98.571398 
3383.000000	98.571682 
3382.000000	98.571792 
3381.000000	98.571797 
3380.000000	98.571787 
3379.000000	98.571909 
3378.000000	98.572362 
3377.000000	98.573327 
3376.000000	98.574829 
3375.000000	98.576615 
3374.000000	98.578260 
3373.000000	98.579485 
3372.000000	98.580329 
3371.000000	98.580931 
3370.000000	98.581293 
3369.000000	98.581356 
3368.000000	98.581247 
3367.000000	98.581251 
3366.000000	98.581537 
3365.000000	98.582031 
3364.000000	98.582604 
3363.000000	98.583257 
3362.000000	98.584063 
3361.000000	98.584949 
3360.000000	98.585676 
3359.000000	98.586064 
3358.000000	98.586236 
3357.000000	98.586602 
3356.000000	98.587487 
3355.000000	98.588784 
3354.000000	98.589994 
3353.000000	98.590702 
3352.000000	98.590970 
3351.000000	98.591264 
3350.000000	98.592025 
3349.000000	98.593353 
3348.000000	98.595039 
3347.000000	98.596740 
3346.000000	98.598168 
3345.000000	98.599206 
3344.000000	98.599926 
3343.000000	98.600480 
3342.000000	98.600947 
3341.000000	98.601322 
3340.000000	98.601666 
3339.000000	98.602157 
3338.000000	98.602902 
3337.000000	98.603790 
3336.000000	98.604586 
3335.000000	98.605183 
3334.000000	98.605717 
3333.000000	98.606425 
3332.000000	98.607401 
3331.000000	98.608526 
3330.000000	98.609596 
3329.000000	98.610527 
3328.000000	98.611411 
3327.000000	98.612373 
3326.000000	98.613417 
3325.000000	98.614425 
3324.000000	98.615326 
3323.000000	98.616182 
3322.000000	98.617104 
3321.000000	98.618087 
3320.000000	98.618993 
3319.000000	98.619721 
3318.000000	98.620322 
3317.000000	98.620966 
3316.000000	98.621788 
3315.000000	98.622787 
3314.000000	98.623850 
3313.000000	98.624842 
3312.000000	98.625704 
3311.000000	98.626473 
3310.000000	98.627224 
3309.000000	98.627995 
3308.000000	98.628772 
3307.000000	98.629541 
3306.000000	98.630300 
3305.000000	98.631005 
3304.000000	98.631553 
3303.000000	98.631877 
3302.000000	98.632091 
3301.000000	98.632501 
3300.000000	98.633362 
3299.000000	98.634640 
3298.000000	98.635983 
3297.000000	98.637074 
3296.000000	98.637920 
3295.000000	98.638736 
3294.000000	98.639659 
3293.000000	98.640654 
3292.000000	98.641659 
3291.000000	98.642683 
3290.000000	98.643737 
3289.000000	98.644715 
3288.000000	98.645457 
3287.000000	98.645932 
3286.000000	98.646358 
3285.000000	98.647066 
3284.000000	98.648153 
3283.000000	98.649302 
3282.000000	98.650072 
3281.000000	98.650370 
3280.000000	98.650507 
3279.000000	98.650761 
3278.000000	98.651062 
3277.000000	98.651203 
3276.000000	98.651176 
3275.000000	98.651144 
3274.000000	98.651242 
3273.000000	98.651538 
3272.000000	98.652039 
3271.000000	98.652657 
3270.000000	98.653285 
3269.000000	98.654031 
3268.000000	98.655263 
3267.000000	98.657252 
3266.000000	98.659836 
3265.000000	98.662579 
3264.000000	98.665171 
3263.000000	98.667498 
3262.000000	98.669427 
3261.000000	98.670715 
3260.000000	98.671131 
3259.000000	98.670632 
3258.000000	98.669492 
3257.000000	98.668317 
3256.000000	98.667735 
3255.000000	98.667962 
3254.000000	98.668766 
3253.000000	98.669848 
3252.000000	98.671119 
3251.000000	98.672499 
3250.000000	98.673660 
3249.000000	98.674257 
3248.000000	98.674371 
3247.000000	98.674481 
3246.000000	98.674944 
3245.000000	98.675676 
3244.000000	98.676380 
3243.000000	98.676977 
3242.000000	98.677705 
3241.000000	98.678848 
3240.000000	98.680367 
3239.000000	98.681788 
3238.000000	98.682539 
3237.000000	98.682476 
3236.000000	98.682050 
3235.000000	98.681912 
3234.000000	98.682339 
3233.000000	98.683202 
3232.000000	98.684398 
3231.000000	98.686033 
3230.000000	98.688078 
3229.000000	98.690038 
3228.000000	98.691223 
3227.000000	98.691319 
3226.000000	98.690635 
3225.000000	98.689872 
3224.000000	98.689637 
3223.000000	98.690129 
3222.000000	98.691171 
3221.000000	98.692446 
3220.000000	98.693731 
3219.000000	98.694928 
3218.000000	98.695929 
3217.000000	98.696588 
3216.000000	98.696915 
3215.000000	98.697244 
3214.000000	98.698009 
3213.000000	98.699331 
3212.000000	98.700952 
3211.000000	98.702659 
3210.000000	98.704628 
3209.000000	98.707118 
3208.000000	98.709873 
3207.000000	98.712087 
3206.000000	98.713152 
3205.000000	98.713315 
3204.000000	98.713491 
3203.000000	98.714382 
3202.000000	98.715909 
3201.000000	98.717570 
3200.000000	98.719072 
3199.000000	98.720426 
3198.000000	98.721622 
3197.000000	98.722580 
3196.000000	98.723427 
3195.000000	98.724486 
3194.000000	98.725799 
3193.000000	98.726932 
3192.000000	98.727462 
3191.000000	98.727537 
3190.000000	98.727749 
3189.000000	98.728568 
3188.000000	98.730036 
3187.000000	98.731890 
3186.000000	98.733746 
3185.000000	98.735217 
3184.000000	98.736110 
3183.000000	98.736625 
3182.000000	98.737205 
3181.000000	98.738100 
3180.000000	98.739166 
3179.000000	98.740135 
3178.000000	98.740948 
3177.000000	98.741726 
3176.000000	98.742533 
3175.000000	98.743357 
3174.000000	98.744311 
3173.000000	98.745625 
3172.000000	98.747351 
3171.000000	98.749193 
3170.000000	98.750748 
3169.000000	98.751910 
3168.000000	98.752928 
3167.000000	98.754094 
3166.000000	98.755429 
3165.000000	98.756704 
3164.000000	98.757739 
3163.000000	98.758606 
3162.000000	98.759516 
3161.000000	98.760595 
3160.000000	98.761800 
3159.000000	98.763011 
3158.000000	98.764140 
3157.000000	98.765161 
3156.000000	98.766093 
3155.000000	98.767000 
3154.000000	98.767965 
3153.000000	98.769039 
3152.000000	98.770210 
3151.000000	98.771395 
3150.000000	98.772493 
3149.000000	98.773453 
3148.000000	98.774306 
3147.000000	98.775150 
3146.000000	98.776058 
3145.000000	98.777010 
3144.000000	98.777906 
3143.000000	98.778679 
3142.000000	98.779404 
3141.000000	98.780243 
3140.000000	98.781268 
3139.000000	98.782386 
3138.000000	98.783442 
3137.000000	98.784374 
3136.000000	98.785240 
3135.000000	98.786104 
3134.000000	98.786973 
3133.000000	98.787821 
3132.000000	98.788656 
3131.000000	98.789501 
3130.000000	98.790339 
3129.000000	98.791105 
3128.000000	98.791753 
3127.000000	98.792364 
3126.000000	98.793140 
3125.000000	98.794225 
3124.000000	98.795520 
3123.000000	98.796686 
3122.000000	98.797449 
3121.000000	98.797935 
3120.000000	98.798692 
3119.000000	98.800212 
3118.000000	98.802379 
3117.000000	98.804413 
3116.000000	98.805555 
3115.000000	98.805736 
3114.000000	98.805503 
3113.000000	98.805310 
3112.000000	98.805061 
3111.000000	98.804549 
3110.000000	98.804046 
3109.000000	98.804089 
3108.000000	98.804722 
3107.000000	98.805358 
3106.000000	98.805509 
3105.000000	98.805475 
3104.000000	98.806086 
3103.000000	98.807899 
3102.000000	98.810798 
3101.000000	98.814153 
3100.000000	98.817129 
3099.000000	98.819026 
3098.000000	98.819623 
3097.000000	98.819389 
3096.000000	98.819227 
3095.000000	98.819746 
3094.000000	98.820835 
3093.000000	98.821997 
3092.000000	98.822921 
3091.000000	98.823553 
3090.000000	98.823821 
3089.000000	98.823737 
3088.000000	98.823836 
3087.000000	98.825018 
3086.000000	98.827540 
3085.000000	98.830434 
3084.000000	98.832419 
3083.000000	98.833229 
3082.000000	98.833614 
3081.000000	98.834170 
3080.000000	98.834697 
3079.000000	98.834797 
3078.000000	98.834517 
3077.000000	98.834049 
3076.000000	98.833278 
3075.000000	98.832146 
3074.000000	98.831240 
3073.000000	98.831462 
3072.000000	98.833167 
3071.000000	98.835947 
3070.000000	98.839057 
3069.000000	98.841520 
3068.000000	98.841929 
3067.000000	98.839119 
3066.000000	98.833630 
3065.000000	98.828132 
3064.000000	98.825579 
3063.000000	98.826740 
3062.000000	98.829793 
3061.000000	98.832238 
3060.000000	98.833079 
3059.000000	98.833243 
3058.000000	98.834247 
3057.000000	98.836614 
3056.000000	98.839415 
3055.000000	98.841278 
3054.000000	98.841731 
3053.000000	98.841350 
3052.000000	98.840687 
3051.000000	98.839516 
3050.000000	98.837400 
3049.000000	98.834505 
3048.000000	98.831187 
3047.000000	98.827033 
3046.000000	98.821265 
3045.000000	98.814336 
3044.000000	98.808360 
3043.000000	98.805367 
3042.000000	98.805373 
3041.000000	98.806394 
3040.000000	98.806071 
3039.000000	98.803156 
3038.000000	98.798055 
3037.000000	98.792537 
3036.000000	98.788559 
3035.000000	98.786665 
3034.000000	98.785451 
3033.000000	98.782768 
3032.000000	98.777270 
3031.000000	98.768925 
3030.000000	98.758374 
3029.000000	98.746207 
3028.000000	98.733080 
3027.000000	98.720093 
3026.000000	98.708568 
3025.000000	98.699226 
3024.000000	98.691378 
3023.000000	98.682946 
3022.000000	98.671776 
3021.000000	98.657510 
3020.000000	98.642286 
3019.000000	98.629212 
3018.000000	98.619845 
3017.000000	98.613011 
3016.000000	98.605851 
3015.000000	98.595869 
3014.000000	98.582326 
3013.000000	98.566192 
3012.000000	98.548882 
3011.000000	98.530871 
3010.000000	98.511631 
3009.000000	98.491043 
3008.000000	98.470478 
3007.000000	98.452016 
3006.000000	98.436626 
3005.000000	98.423382 
3004.000000	98.410253 
3003.000000	98.395314 
3002.000000	98.377686 
3001.000000	98.358322 
3000.000000	98.339958 
2999.000000	98.325200 
2998.000000	98.314222 
2997.000000	98.305106 
2996.000000	98.296598 
2995.000000	98.288964 
2994.000000	98.280870 
2993.000000	98.267066 
2992.000000	98.242355 
2991.000000	98.208768 
2990.000000	98.176629 
2989.000000	98.156439 
2988.000000	98.150592 
2987.000000	98.153938 
2986.000000	98.160805 
2985.000000	98.169565 
2984.000000	98.180262 
2983.000000	98.190676 
2982.000000	98.196964 
2981.000000	98.197466 
2980.000000	98.194311 
2979.000000	98.191101 
2978.000000	98.189872 
2977.000000	98.190151 
2976.000000	98.190000 
2975.000000	98.187750 
2974.000000	98.183544 
2973.000000	98.179633 
2972.000000	98.178779 
2971.000000	98.182041 
2970.000000	98.188321 
2969.000000	98.196056 
2968.000000	98.204821 
2967.000000	98.215125 
2966.000000	98.227238 
2965.000000	98.240779 
2964.000000	98.255060 
2963.000000	98.269234 
2962.000000	98.282181 
2961.000000	98.292861 
2960.000000	98.301005 
2959.000000	98.307299 
2958.000000	98.312918 
2957.000000	98.318935 
2956.000000	98.325848 
2955.000000	98.333221 
2954.000000	98.340003 
2953.000000	98.345949 
2952.000000	98.352861 
2951.000000	98.363568 
2950.000000	98.378829 
2949.000000	98.395457 
2948.000000	98.408415 
2947.000000	98.414942 
2946.000000	98.416385 
2945.000000	98.416278 
2944.000000	98.417025 
2943.000000	98.418757 
2942.000000	98.420769 
2941.000000	98.422753 
2940.000000	98.424396 
2939.000000	98.424851 
2938.000000	98.423537 
2937.000000	98.421340 
2936.000000	98.420447 
2935.000000	98.422660 
2934.000000	98.427841 
2933.000000	98.433935 
2932.000000	98.438324 
2931.000000	98.439260 
2930.000000	98.436514 
2929.000000	98.431304 
2928.000000	98.425802 
2927.000000	98.422334 
2926.000000	98.422346 
2925.000000	98.425372 
2924.000000	98.428953 
2923.000000	98.430193 
2922.000000	98.428082 
2921.000000	98.424294 
2920.000000	98.421342 
2919.000000	98.419917 
2918.000000	98.418347 
2917.000000	98.414617 
2916.000000	98.408544 
2915.000000	98.401907 
2914.000000	98.396891 
2913.000000	98.394568 
2912.000000	98.394393 
2911.000000	98.394681 
2910.000000	98.393696 
2909.000000	98.390773 
2908.000000	98.386598 
2907.000000	98.382205 
2906.000000	98.377578 
2905.000000	98.371268 
2904.000000	98.361679 
2903.000000	98.349278 
2902.000000	98.337960 
2901.000000	98.333568 
2900.000000	98.339969 
2899.000000	98.355724 
2898.000000	98.374286 
2897.000000	98.388594 
2896.000000	98.396186 
2895.000000	98.399874 
2894.000000	98.403924 
2893.000000	98.410061 
2892.000000	98.416896 
2891.000000	98.422212 
2890.000000	98.425159 
2889.000000	98.426585 
2888.000000	98.427974 
2887.000000	98.430336 
2886.000000	98.433889 
2885.000000	98.438454 
2884.000000	98.444033 
2883.000000	98.451024 
2882.000000	98.459961 
2881.000000	98.471083 
2880.000000	98.484050 
2879.000000	98.497952 
2878.000000	98.511636 
2877.000000	98.524220 
2876.000000	98.535301 
2875.000000	98.544634 
2874.000000	98.551832 
2873.000000	98.556883 
2872.000000	98.561078 
2871.000000	98.566790 
2870.000000	98.575640 
2869.000000	98.586885 
2868.000000	98.598212 
2867.000000	98.608370 
2866.000000	98.618650 
2865.000000	98.631331 
2864.000000	98.646777 
2863.000000	98.662393 
2862.000000	98.674635 
2861.000000	98.682049 
2860.000000	98.686560 
2859.000000	98.692010 
2858.000000	98.701112 
2857.000000	98.713369 
2856.000000	98.725858 
2855.000000	98.736148 
2854.000000	98.744283 
2853.000000	98.751881 
2852.000000	98.759739 
2851.000000	98.767082 
2850.000000	98.773292 
2849.000000	98.779255 
2848.000000	98.786225 
2847.000000	98.793922 
2846.000000	98.800649 
2845.000000	98.805138 
2844.000000	98.807604 
2843.000000	98.809148 
2842.000000	98.810911 
2841.000000	98.813838 
2840.000000	98.818368 
2839.000000	98.823800 
2838.000000	98.828443 
2837.000000	98.830943 
2836.000000	98.831444 
2835.000000	98.831478 
2834.000000	98.832968 
2833.000000	98.837162 
2832.000000	98.843776 
2831.000000	98.850861 
2830.000000	98.856179 
2829.000000	98.859272 
2828.000000	98.861843 
2827.000000	98.865665 
2826.000000	98.870452 
2825.000000	98.874290 
2824.000000	98.875871 
2823.000000	98.875760 
2822.000000	98.875659 
2821.000000	98.876969 
2820.000000	98.879953 
2819.000000	98.883817 
2818.000000	98.887465 
2817.000000	98.890372 
2816.000000	98.892694 
2815.000000	98.894587 
2814.000000	98.895873 
2813.000000	98.896566 
2812.000000	98.897194 
2811.000000	98.898047 
2810.000000	98.898560 
2809.000000	98.898185 
2808.000000	98.897575 
2807.000000	98.898070 
2806.000000	98.900020 
2805.000000	98.902378 
2804.000000	98.904132 
2803.000000	98.905465 
2802.000000	98.907203 
2801.000000	98.909557 
2800.000000	98.911774 
2799.000000	98.912895 
2798.000000	98.912660 
2797.000000	98.911787 
2796.000000	98.911405 
2795.000000	98.912076 
2794.000000	98.913393 
2793.000000	98.914553 
2792.000000	98.915134 
2791.000000	98.915190 
2790.000000	98.914955 
2789.000000	98.914874 
2788.000000	98.915650 
2787.000000	98.917671 
2786.000000	98.920391 
2785.000000	98.922733 
2784.000000	98.924217 
2783.000000	98.925233 
2782.000000	98.926184 
2781.000000	98.926915 
2780.000000	98.927216 
2779.000000	98.927375 
2778.000000	98.927841 
2777.000000	98.928603 
2776.000000	98.929308 
2775.000000	98.929775 
2774.000000	98.930085 
2773.000000	98.930326 
2772.000000	98.930589 
2771.000000	98.931078 
2770.000000	98.931933 
2769.000000	98.933035 
2768.000000	98.934274 
2767.000000	98.935825 
2766.000000	98.937753 
2765.000000	98.939482 
2764.000000	98.940211 
2763.000000	98.939916 
2762.000000	98.939505 
2761.000000	98.939859 
2760.000000	98.941080 
2759.000000	98.942795 
2758.000000	98.944633 
2757.000000	98.946181 
2756.000000	98.947010 
2755.000000	98.947165 
2754.000000	98.947250 
2753.000000	98.947614 
2752.000000	98.947809 
2751.000000	98.947301 
2750.000000	98.946350 
2749.000000	98.945698 
2748.000000	98.945559 
2747.000000	98.945481 
2746.000000	98.945086 
2745.000000	98.944523 
2744.000000	98.944200 
2743.000000	98.944516 
2742.000000	98.945830 
2741.000000	98.948212 
2740.000000	98.951135 
2739.000000	98.953729 
2738.000000	98.955454 
2737.000000	98.956377 
2736.000000	98.956873 
2735.000000	98.957275 
2734.000000	98.957726 
2733.000000	98.958096 
2732.000000	98.958103 
2731.000000	98.957722 
2730.000000	98.957403 
2729.000000	98.957677 
2728.000000	98.958608 
2727.000000	98.959880 
2726.000000	98.961254 
2725.000000	98.962675 
2724.000000	98.964046 
2723.000000	98.965263 
2722.000000	98.966414 
2721.000000	98.967580 
2720.000000	98.968515 
2719.000000	98.968871 
2718.000000	98.968708 
2717.000000	98.968490 
2716.000000	98.968561 
2715.000000	98.968966 
2714.000000	98.969778 
2713.000000	98.971101 
2712.000000	98.972614 
2711.000000	98.973580 
2710.000000	98.973633 
2709.000000	98.973282 
2708.000000	98.973340 
2707.000000	98.973925 
2706.000000	98.974418 
2705.000000	98.974329 
2704.000000	98.973858 
2703.000000	98.973570 
2702.000000	98.973743 
2701.000000	98.974182 
2700.000000	98.974542 
2699.000000	98.974712 
2698.000000	98.974831 
2697.000000	98.974993 
2696.000000	98.975068 
2695.000000	98.974946 
2694.000000	98.974862 
2693.000000	98.975238 
2692.000000	98.976122 
2691.000000	98.977001 
2690.000000	98.977316 
2689.000000	98.977095 
2688.000000	98.976912 
2687.000000	98.977237 
2686.000000	98.977922 
2685.000000	98.978397 
2684.000000	98.978303 
2683.000000	98.977907 
2682.000000	98.977902 
2681.000000	98.978767 
2680.000000	98.980246 
2679.000000	98.981459 
2678.000000	98.981695 
2677.000000	98.981054 
2676.000000	98.980281 
2675.000000	98.979999 
2674.000000	98.980214 
2673.000000	98.980506 
2672.000000	98.980464 
2671.000000	98.979926 
2670.000000	98.978993 
2669.000000	98.977846 
2668.000000	98.976572 
2667.000000	98.975268 
2666.000000	98.974280 
2665.000000	98.974109 
2664.000000	98.974882 
2663.000000	98.976069 
2662.000000	98.976925 
2661.000000	98.977154 
2660.000000	98.976939 
2659.000000	98.976467 
2658.000000	98.975773 
2657.000000	98.974993 
2656.000000	98.974434 
2655.000000	98.974264 
2654.000000	98.974320 
2653.000000	98.974273 
2652.000000	98.973834 
2651.000000	98.972874 
2650.000000	98.971598 
2649.000000	98.970569 
2648.000000	98.970227 
2647.000000	98.970418 
2646.000000	98.970696 
2645.000000	98.971086 
2644.000000	98.972018 
2643.000000	98.973511 
2642.000000	98.974929 
2641.000000	98.975734 
2640.000000	98.976125 
2639.000000	98.976638 
2638.000000	98.977416 
2637.000000	98.978097 
2636.000000	98.978206 
2635.000000	98.977501 
2634.000000	98.976180 
2633.000000	98.974977 
2632.000000	98.974724 
2631.000000	98.975574 
2630.000000	98.976850 
2629.000000	98.977708 
2628.000000	98.977946 
2627.000000	98.977909 
2626.000000	98.977874 
2625.000000	98.977859 
2624.000000	98.977974 
2623.000000	98.978478 
2622.000000	98.979391 
2621.000000	98.980335 
2620.000000	98.980927 
2619.000000	98.981152 
2618.000000	98.981223 
2617.000000	98.981249 
2616.000000	98.981154 
2615.000000	98.980844 
2614.000000	98.980332 
2613.000000	98.979781 
2612.000000	98.979441 
2611.000000	98.979470 
2610.000000	98.979807 
2609.000000	98.980264 
2608.000000	98.980758 
2607.000000	98.981375 
2606.000000	98.982201 
2605.000000	98.983172 
2604.000000	98.984058 
2603.000000	98.984552 
2602.000000	98.984460 
2601.000000	98.983916 
2600.000000	98.983418 
2599.000000	98.983433 
2598.000000	98.983953 
2597.000000	98.984542 
2596.000000	98.984786 
2595.000000	98.984593 
2594.000000	98.984049 
2593.000000	98.983257 
2592.000000	98.982460 
2591.000000	98.982036 
2590.000000	98.982168 
2589.000000	98.982657 
2588.000000	98.983101 
2587.000000	98.983271 
2586.000000	98.983158 
2585.000000	98.982793 
2584.000000	98.982213 
2583.000000	98.981593 
2582.000000	98.981204 
2581.000000	98.981162 
2580.000000	98.981327 
2579.000000	98.981448 
2578.000000	98.981385 
2577.000000	98.981159 
2576.000000	98.980857 
2575.000000	98.980585 
2574.000000	98.980444 
2573.000000	98.980468 
2572.000000	98.980583 
2571.000000	98.980646 
2570.000000	98.980598 
2569.000000	98.980507 
2568.000000	98.980470 
2567.000000	98.980536 
2566.000000	98.980701 
2565.000000	98.980927 
2564.000000	98.981159 
2563.000000	98.981342 
2562.000000	98.981446 
2561.000000	98.981471 
2560.000000	98.981448 
2559.000000	98.981461 
2558.000000	98.981576 
2557.000000	98.981685 
2556.000000	98.981521 
2555.000000	98.981017 
2554.000000	98.980613 
2553.000000	98.980914 
2552.000000	98.982005 
2551.000000	98.983271 
2550.000000	98.984018 
2549.000000	98.984095 
2548.000000	98.983702 
2547.000000	98.982965 
2546.000000	98.982068 
2545.000000	98.981597 
2544.000000	98.982204 
2543.000000	98.983885 
2542.000000	98.985836 
2541.000000	98.987180 
2540.000000	98.987667 
2539.000000	98.987561 
2538.000000	98.987130 
2537.000000	98.986285 
2536.000000	98.984640 
2535.000000	98.982051 
2534.000000	98.979348 
2533.000000	98.978211 
2532.000000	98.979770 
2531.000000	98.983493 
2530.000000	98.987462 
2529.000000	98.990155 
2528.000000	98.991570 
2527.000000	98.992508 
2526.000000	98.993478 
2525.000000	98.994460 
2524.000000	98.995278 
2523.000000	98.995770 
2522.000000	98.995810 
2521.000000	98.995479 
2520.000000	98.995061 
2519.000000	98.994693 
2518.000000	98.994244 
2517.000000	98.993706 
2516.000000	98.993348 
2515.000000	98.993286 
2514.000000	98.993230 
2513.000000	98.992912 
2512.000000	98.992417 
2511.000000	98.991882 
2510.000000	98.991255 
2509.000000	98.990695 
2508.000000	98.990809 
2507.000000	98.991975 
2506.000000	98.993598 
2505.000000	98.994494 
2504.000000	98.994032 
2503.000000	98.992569 
2502.000000	98.990966 
2501.000000	98.989944 
2500.000000	98.989864 
2499.000000	98.990724 
2498.000000	98.992222 
2497.000000	98.993913 
2496.000000	98.995410 
2495.000000	98.996402 
2494.000000	98.996585 
2493.000000	98.995824 
2492.000000	98.994384 
2491.000000	98.992823 
2490.000000	98.991626 
2489.000000	98.990995 
2488.000000	98.990848 
2487.000000	98.990936 
2486.000000	98.991033 
2485.000000	98.991145 
2484.000000	98.991457 
2483.000000	98.991996 
2482.000000	98.992447 
2481.000000	98.992440 
2480.000000	98.991950 
2479.000000	98.991292 
2478.000000	98.990796 
2477.000000	98.990514 
2476.000000	98.990325 
2475.000000	98.990183 
2474.000000	98.990187 
2473.000000	98.990442 
2472.000000	98.990917 
2471.000000	98.991431 
2470.000000	98.991735 
2469.000000	98.991665 
2468.000000	98.991250 
2467.000000	98.990677 
2466.000000	98.990147 
2465.000000	98.989797 
2464.000000	98.989702 
2463.000000	98.989837 
2462.000000	98.989978 
2461.000000	98.989796 
2460.000000	98.989180 
2459.000000	98.988429 
2458.000000	98.988040 
2457.000000	98.988243 
2456.000000	98.988835 
2455.000000	98.989374 
2454.000000	98.989558 
2453.000000	98.989381 
2452.000000	98.989050 
2451.000000	98.988844 
2450.000000	98.988958 
2449.000000	98.989391 
2448.000000	98.989935 
2447.000000	98.990311 
2446.000000	98.990402 
2445.000000	98.990362 
2444.000000	98.990469 
2443.000000	98.990857 
2442.000000	98.991400 
2441.000000	98.991828 
2440.000000	98.991935 
2439.000000	98.991673 
2438.000000	98.991160 
2437.000000	98.990668 
2436.000000	98.990435 
2435.000000	98.990384 
2434.000000	98.990122 
2433.000000	98.989356 
2432.000000	98.988289 
2431.000000	98.987511 
2430.000000	98.987414 
2429.000000	98.987901 
2428.000000	98.988636 
2427.000000	98.989442 
2426.000000	98.990299 
2425.000000	98.991036 
2424.000000	98.991289 
2423.000000	98.990823 
2422.000000	98.989819 
2421.000000	98.988839 
2420.000000	98.988395 
2419.000000	98.988577 
2418.000000	98.989115 
2417.000000	98.989652 
2416.000000	98.990021 
2415.000000	98.990245 
2414.000000	98.990399 
2413.000000	98.990596 
2412.000000	98.990978 
2411.000000	98.991582 
2410.000000	98.992226 
2409.000000	98.992639 
2408.000000	98.992734 
2407.000000	98.992686 
2406.000000	98.992757 
2405.000000	98.993065 
2404.000000	98.993555 
2403.000000	98.994093 
2402.000000	98.994555 
2401.000000	98.994883 
2400.000000	98.995115 
2399.000000	98.995335 
2398.000000	98.995602 
2397.000000	98.995945 
2396.000000	98.996421 
2395.000000	98.997111 
2394.000000	98.998017 
2393.000000	98.998979 
2392.000000	98.999792 
2391.000000	99.000421 
2390.000000	99.001046 
2389.000000	99.001850 
2388.000000	99.002801 
2387.000000	99.003680 
2386.000000	99.004324 
2385.000000	99.004771 
2384.000000	99.005190 
2383.000000	99.005722 
2382.000000	99.006397 
2381.000000	99.007178 
2380.000000	99.007970 
2379.000000	99.008611 
2378.000000	99.008955 
2377.000000	99.009051 
2376.000000	99.009231 
2375.000000	99.009860 
2374.000000	99.011001 
2373.000000	99.012313 
2372.000000	99.013345 
2371.000000	99.014009 
2370.000000	99.014584 
2369.000000	99.015254 
2368.000000	99.015771 
2367.000000	99.015720 
2366.000000	99.015012 
2365.000000	99.014061 
2364.000000	99.013497 
2363.000000	99.013689 
2362.000000	99.014618 
2361.000000	99.015919 
2360.000000	99.017043 
2359.000000	99.017651 
2358.000000	99.017889 
2357.000000	99.018262 
2356.000000	99.019050 
2355.000000	99.019938 
2354.000000	99.020437 
2353.000000	99.020360 
2352.000000	99.019920 
2351.000000	99.019311 
2350.000000	99.018468 
2349.000000	99.017413 
2348.000000	99.016494 
2347.000000	99.016204 
2346.000000	99.016418 
2345.000000	99.016293 
2344.000000	99.015261 
2343.000000	99.013796 
2342.000000	99.013113 
2341.000000	99.013833 
2340.000000	99.015344 
2339.000000	99.016276 
2338.000000	99.015915 
2337.000000	99.014768 
2336.000000	99.013794 
2335.000000	99.013337 
2334.000000	99.013241 
2333.000000	99.013390 
2332.000000	99.013631 
2331.000000	99.013278 
2330.000000	99.011508 
2329.000000	99.008518 
2328.000000	99.005358 
2327.000000	99.002897 
2326.000000	99.000916 
2325.000000	98.998932 
2324.000000	98.997175 
2323.000000	98.996413 
2322.000000	98.997128 
2321.000000	98.998995 
2320.000000	99.001237 
2319.000000	99.002983 
2318.000000	99.003790 
2317.000000	99.003880 
2316.000000	99.003849 
2315.000000	99.003873 
2314.000000	99.003322 
2313.000000	99.001647 
2312.000000	98.999261 
2311.000000	98.997403 
2310.000000	98.997002 
2309.000000	98.997874 
2308.000000	98.998753 
2307.000000	98.998210 
2306.000000	98.995832 
2305.000000	98.992599 
2304.000000	98.989970 
2303.000000	98.988504 
2302.000000	98.987622 
2301.000000	98.986683 
2300.000000	98.985657 
2299.000000	98.984624 
2298.000000	98.983278 
2297.000000	98.981508 
2296.000000	98.979939 
2295.000000	98.979278 
2294.000000	98.979266 
2293.000000	98.978934 
2292.000000	98.977767 
2291.000000	98.976155 
2290.000000	98.974683 
2289.000000	98.973519 
2288.000000	98.972596 
2287.000000	98.971943 
2286.000000	98.971533 
2285.000000	98.971100 
2284.000000	98.970438 
2283.000000	98.969659 
2282.000000	98.968876 
2281.000000	98.967820 
2280.000000	98.966191 
2279.000000	98.964376 
2278.000000	98.963380 
2277.000000	98.963815 
2276.000000	98.965234 
2275.000000	98.966537 
2274.000000	98.966952 
2273.000000	98.966380 
2272.000000	98.964927 
2271.000000	98.962576 
2270.000000	98.959692 
2269.000000	98.957605 
2268.000000	98.957901 
2267.000000	98.960872 
2266.000000	98.964840 
2265.000000	98.967464 
2264.000000	98.967665 
2263.000000	98.966064 
2262.000000	98.964308 
2261.000000	98.964074 
2260.000000	98.966131 
2259.000000	98.969542 
2258.000000	98.971913 
2257.000000	98.971381 
2256.000000	98.968369 
2255.000000	98.965120 
2254.000000	98.963422 
2253.000000	98.963311 
2252.000000	98.964030 
2251.000000	98.965236 
2250.000000	98.966919 
2249.000000	98.968751 
2248.000000	98.970110 
2247.000000	98.970540 
2246.000000	98.969922 
2245.000000	98.968387 
2244.000000	98.966156 
2243.000000	98.963433 
2242.000000	98.960549 
2241.000000	98.958132 
2240.000000	98.956650 
2239.000000	98.955644 
2238.000000	98.954022 
2237.000000	98.951405 
2236.000000	98.948512 
2235.000000	98.945806 
2234.000000	98.942779 
2233.000000	98.939438 
2232.000000	98.937525 
2231.000000	98.938777 
2230.000000	98.942748 
2229.000000	98.947537 
2228.000000	98.952151 
2227.000000	98.956697 
2226.000000	98.960401 
2225.000000	98.961327 
2224.000000	98.958629 
2223.000000	98.953895 
2222.000000	98.949797 
2221.000000	98.947965 
2220.000000	98.948424 
2219.000000	98.950287 
2218.000000	98.952480 
2217.000000	98.954455 
2216.000000	98.956617 
2215.000000	98.959507 
2214.000000	98.962339 
2213.000000	98.963094 
2212.000000	98.960650 
2211.000000	98.956442 
2210.000000	98.953659 
2209.000000	98.954430 
2208.000000	98.958099 
2207.000000	98.961883 
2206.000000	98.963267 
2205.000000	98.961733 
2204.000000	98.958419 
2203.000000	98.954758 
2202.000000	98.951621 
2201.000000	98.949511 
2200.000000	98.948537 
2199.000000	98.947918 
2198.000000	98.946401 
2197.000000	98.943858 
2196.000000	98.941876 
2195.000000	98.942074 
2194.000000	98.944379 
2193.000000	98.947465 
2192.000000	98.950207 
2191.000000	98.951878 
2190.000000	98.951654 
2189.000000	98.949290 
2188.000000	98.946179 
2187.000000	98.944577 
2186.000000	98.945532 
2185.000000	98.948484 
2184.000000	98.952469 
2183.000000	98.956660 
2182.000000	98.959841 
2181.000000	98.960960 
2180.000000	98.960683 
2179.000000	98.961028 
2178.000000	98.962747 
2177.000000	98.964222 
2176.000000	98.963688 
2175.000000	98.961427 
2174.000000	98.959045 
2173.000000	98.957445 
2172.000000	98.956390 
2171.000000	98.955534 
2170.000000	98.955116 
2169.000000	98.955721 
2168.000000	98.957713 
2167.000000	98.960747 
2166.000000	98.963581 
2165.000000	98.964994 
2164.000000	98.965068 
2163.000000	98.965079 
2162.000000	98.966133 
2161.000000	98.968281 
2160.000000	98.970896 
2159.000000	98.973247 
2158.000000	98.974756 
2157.000000	98.975322 
2156.000000	98.975566 
2155.000000	98.976309 
2154.000000	98.977620 
2153.000000	98.978765 
2152.000000	98.979152 
2151.000000	98.978939 
2150.000000	98.978710 
2149.000000	98.978877 
2148.000000	98.979444 
2147.000000	98.980169 
2146.000000	98.980715 
2145.000000	98.980901 
2144.000000	98.980806 
2143.000000	98.980647 
2142.000000	98.980564 
2141.000000	98.980530 
2140.000000	98.980464 
2139.000000	98.980323 
2138.000000	98.980122 
2137.000000	98.979873 
2136.000000	98.979581 
2135.000000	98.979272 
2134.000000	98.978965 
2133.000000	98.978652 
2132.000000	98.978302 
2131.000000	98.977880 
2130.000000	98.977372 
2129.000000	98.976778 
2128.000000	98.976116 
2127.000000	98.975401 
2126.000000	98.974644 
2125.000000	98.973849 
2124.000000	98.973009 
2123.000000	98.972149 
2122.000000	98.971343 
2121.000000	98.970600 
2120.000000	98.969810 
2119.000000	98.968839 
2118.000000	98.967682 
2117.000000	98.966443 
2116.000000	98.965243 
2115.000000	98.964201 
2114.000000	98.963406 
2113.000000	98.962806 
2112.000000	98.962179 
2111.000000	98.961325 
2110.000000	98.960239 
2109.000000	98.959072 
2108.000000	98.958070 
2107.000000	98.957385 
2106.000000	98.956695 
2105.000000	98.955141 
2104.000000	98.952110 
2103.000000	98.948198 
2102.000000	98.945072 
2101.000000	98.943998 
2100.000000	98.944855 
2099.000000	98.946530 
2098.000000	98.947996 
2097.000000	98.949001 
2096.000000	98.949794 
2095.000000	98.950269 
2094.000000	98.949346 
2093.000000	98.945730 
2092.000000	98.939832 
2091.000000	98.934666 
2090.000000	98.933421 
2089.000000	98.936100 
2088.000000	98.939202 
2087.000000	98.939360 
2086.000000	98.936916 
2085.000000	98.934919 
2084.000000	98.935315 
2083.000000	98.937096 
2082.000000	98.938122 
2081.000000	98.937816 
2080.000000	98.937553 
2079.000000	98.938861 
2078.000000	98.941979 
2077.000000	98.946224 
2076.000000	98.951138 
2075.000000	98.956558 
2074.000000	98.961571 
2073.000000	98.964374 
2072.000000	98.963781 
2071.000000	98.960439 
2070.000000	98.956222 
2069.000000	98.952737 
2068.000000	98.950712 
2067.000000	98.950219 
2066.000000	98.950634 
2065.000000	98.950713 
2064.000000	98.949736 
2063.000000	98.948566 
2062.000000	98.948745 
2061.000000	98.950558 
2060.000000	98.952769 
2059.000000	98.954155 
2058.000000	98.954503 
2057.000000	98.954093 
2056.000000	98.952814 
2055.000000	98.950285 
2054.000000	98.946620 
2053.000000	98.942743 
2052.000000	98.939891 
2051.000000	98.938701 
2050.000000	98.938559 
2049.000000	98.937891 
2048.000000	98.935539 
2047.000000	98.931938 
2046.000000	98.928668 
2045.000000	98.926991 
2044.000000	98.927010 
2043.000000	98.927777 
2042.000000	98.928169 
2041.000000	98.927772 
2040.000000	98.927208 
2039.000000	98.927460 
2038.000000	98.928712 
2037.000000	98.930127 
2036.000000	98.930805 
2035.000000	98.930638 
2034.000000	98.930033 
2033.000000	98.929148 
2032.000000	98.927734 
2031.000000	98.925642 
2030.000000	98.923279 
2029.000000	98.921533 
2028.000000	98.921104 
2027.000000	98.921880 
2026.000000	98.923160 
2025.000000	98.924621 
2024.000000	98.926635 
2023.000000	98.929166 
2022.000000	98.930853 
2021.000000	98.930238 
2020.000000	98.927683 
2019.000000	98.925403 
2018.000000	98.925080 
2017.000000	98.926034 
2016.000000	98.926240 
2015.000000	98.924750 
2014.000000	98.922460 
2013.000000	98.920876 
2012.000000	98.920845 
2011.000000	98.922350 
2010.000000	98.924889 
2009.000000	98.927961 
2008.000000	98.931270 
2007.000000	98.934446 
2006.000000	98.936598 
2005.000000	98.936753 
2004.000000	98.935068 
2003.000000	98.933078 
2002.000000	98.932230 
2001.000000	98.932415 
2000.000000	98.932500 
1999.000000	98.931820 
1998.000000	98.930772 
1997.000000	98.930155 
1996.000000	98.930321 
1995.000000	98.931049 
1994.000000	98.931906 
1993.000000	98.932556 
1992.000000	98.932881 
1991.000000	98.932926 
1990.000000	98.932780 
1989.000000	98.932537 
1988.000000	98.932342 
1987.000000	98.932316 
1986.000000	98.932400 
1985.000000	98.932417 
1984.000000	98.932309 
1983.000000	98.932216 
1982.000000	98.932277 
1981.000000	98.932391 
1980.000000	98.932302 
1979.000000	98.931930 
1978.000000	98.931512 
1977.000000	98.931324 
1976.000000	98.931339 
1975.000000	98.931336 
1974.000000	98.931283 
1973.000000	98.931394 
1972.000000	98.931790 
1971.000000	98.932342 
1970.000000	98.932768 
1969.000000	98.932862 
1968.000000	98.932593 
1967.000000	98.932108 
1966.000000	98.931726 
1965.000000	98.931664 
1964.000000	98.931911 
1963.000000	98.932270 
1962.000000	98.932552 
1961.000000	98.932739 
1960.000000	98.932946 
1959.000000	98.933271 
1958.000000	98.933708 
1957.000000	98.934182 
1956.000000	98.934571 
1955.000000	98.934772 
1954.000000	98.934824 
1953.000000	98.934951 
1952.000000	98.935303 
1951.000000	98.935687 
1950.000000	98.935751 
1949.000000	98.935465 
1948.000000	98.935185 
1947.000000	98.934984 
1946.000000	98.934149 
1945.000000	98.931802 
1944.000000	98.928166 
1943.000000	98.925035 
1942.000000	98.924301 
1941.000000	98.926084 
1940.000000	98.928640 
1939.000000	98.930218 
1938.000000	98.930809 
1937.000000	98.931869 
1936.000000	98.934426 
1935.000000	98.937575 
1934.000000	98.939286 
1933.000000	98.938861 
1932.000000	98.937979 
1931.000000	98.938876 
1930.000000	98.941644 
1929.000000	98.944197 
1928.000000	98.945014 
1927.000000	98.944650 
1926.000000	98.944311 
1925.000000	98.944084 
1924.000000	98.943438 
1923.000000	98.942741 
1922.000000	98.942904 
1921.000000	98.943691 
1920.000000	98.943621 
1919.000000	98.941623 
1918.000000	98.938210 
1917.000000	98.935053 
1916.000000	98.933377 
1915.000000	98.933139 
1914.000000	98.933748 
1913.000000	98.934845 
1912.000000	98.936247 
1911.000000	98.937473 
1910.000000	98.937680 
1909.000000	98.936571 
1908.000000	98.935123 
1907.000000	98.934723 
1906.000000	98.935702 
1905.000000	98.937082 
1904.000000	98.937747 
1903.000000	98.937508 
1902.000000	98.936854 
1901.000000	98.936260 
1900.000000	98.935912 
1899.000000	98.935716 
1898.000000	98.935389 
1897.000000	98.934702 
1896.000000	98.933826 
1895.000000	98.933238 
1894.000000	98.933105 
1893.000000	98.933122 
1892.000000	98.933094 
1891.000000	98.933193 
1890.000000	98.933389 
1889.000000	98.933185 
1888.000000	98.932397 
1887.000000	98.931579 
1886.000000	98.931343 
1885.000000	98.931782 
1884.000000	98.932668 
1883.000000	98.933813 
1882.000000	98.934884 
1881.000000	98.935369 
1880.000000	98.935260 
1879.000000	98.935395 
1878.000000	98.936680 
1877.000000	98.939069 
1876.000000	98.941559 
1875.000000	98.943160 
1874.000000	98.943464 
1873.000000	98.942516 
1872.000000	98.940857 
1871.000000	98.939371 
1870.000000	98.938542 
1869.000000	98.937886 
1868.000000	98.937017 
1867.000000	98.936792 
1866.000000	98.937983 
1865.000000	98.939761 
1864.000000	98.940388 
1863.000000	98.939064 
1862.000000	98.936750 
1861.000000	98.935295 
1860.000000	98.935989 
1859.000000	98.938982 
1858.000000	98.943233 
1857.000000	98.946932 
1856.000000	98.948894 
1855.000000	98.949501 
1854.000000	98.949922 
1853.000000	98.950670 
1852.000000	98.951450 
1851.000000	98.952019 
1850.000000	98.952730 
1849.000000	98.954153 
1848.000000	98.956355 
1847.000000	98.958695 
1846.000000	98.960235 
1845.000000	98.960480 
1844.000000	98.960101 
1843.000000	98.960542 
1842.000000	98.962185 
1841.000000	98.964005 
1840.000000	98.965057 
1839.000000	98.965217 
1838.000000	98.964884 
1837.000000	98.964322 
1836.000000	98.963570 
1835.000000	98.962837 
1834.000000	98.962390 
1833.000000	98.962259 
1832.000000	98.962275 
1831.000000	98.962233 
1830.000000	98.962163 
1829.000000	98.962410 
1828.000000	98.963093 
1827.000000	98.963780 
1826.000000	98.964007 
1825.000000	98.963763 
1824.000000	98.963437 
1823.000000	98.963251 
1822.000000	98.962801 
1821.000000	98.961732 
1820.000000	98.960717 
1819.000000	98.961093 
1818.000000	98.963360 
1817.000000	98.966146 
1816.000000	98.967522 
1815.000000	98.967323 
1814.000000	98.966877 
1813.000000	98.967192 
1812.000000	98.968041 
1811.000000	98.968980 
1810.000000	98.970037 
1809.000000	98.970821 
1808.000000	98.970535 
1807.000000	98.969126 
1806.000000	98.967391 
1805.000000	98.965924 
1804.000000	98.964729 
1803.000000	98.963761 
1802.000000	98.963043 
1801.000000	98.962353 
1800.000000	98.961507 
1799.000000	98.961079 
1798.000000	98.961835 
1797.000000	98.963610 
1796.000000	98.965609 
1795.000000	98.967391 
1794.000000	98.968951 
1793.000000	98.969999 
1792.000000	98.969967 
1791.000000	98.969251 
1790.000000	98.968925 
1789.000000	98.969222 
1788.000000	98.969769 
1787.000000	98.970436 
1786.000000	98.971319 
1785.000000	98.972111 
1784.000000	98.972313 
1783.000000	98.971972 
1782.000000	98.971494 
1781.000000	98.971182 
1780.000000	98.971011 
1779.000000	98.970997 
1778.000000	98.971411 
1777.000000	98.972359 
1776.000000	98.973555 
1775.000000	98.974439 
1774.000000	98.974793 
1773.000000	98.975095 
1772.000000	98.975722 
1771.000000	98.976399 
1770.000000	98.976834 
1769.000000	98.977061 
1768.000000	98.977215 
1767.000000	98.977305 
1766.000000	98.977333 
1765.000000	98.977461 
1764.000000	98.977884 
1763.000000	98.978721 
1762.000000	98.979922 
1761.000000	98.981225 
1760.000000	98.982124 
1759.000000	98.982374 
1758.000000	98.982449 
1757.000000	98.983230 
1756.000000	98.984885 
1755.000000	98.986277 
1754.000000	98.986555 
1753.000000	98.986506 
1752.000000	98.987564 
1751.000000	98.989213 
1750.000000	98.989351 
1749.000000	98.987611 
1748.000000	98.985957 
1747.000000	98.985747 
1746.000000	98.986236 
1745.000000	98.986383 
1744.000000	98.986123 
1743.000000	98.985961 
1742.000000	98.986344 
1741.000000	98.987470 
1740.000000	98.989182 
1739.000000	98.990980 
1738.000000	98.992174 
1737.000000	98.992317 
1736.000000	98.991635 
1735.000000	98.991137 
1734.000000	98.990384 
1733.000000	98.988236 
1732.000000	98.985228 
1731.000000	98.982118 
1730.000000	98.979408 
1729.000000	98.977478 
1728.000000	98.976416 
1727.000000	98.976069 
1726.000000	98.976148 
1725.000000	98.976506 
1724.000000	98.976847 
1723.000000	98.977089 
1722.000000	98.977364 
1721.000000	98.977567 
1720.000000	98.977753 
1719.000000	98.978767 
1718.000000	98.980963 
1717.000000	98.981894 
1716.000000	98.979652 
1715.000000	98.976100 
1714.000000	98.973320 
1713.000000	98.970742 
1712.000000	98.967256 
1711.000000	98.963488 
1710.000000	98.960858 
1709.000000	98.959437 
1708.000000	98.958080 
1707.000000	98.956288 
1706.000000	98.954728 
1705.000000	98.953407 
1704.000000	98.951463 
1703.000000	98.948692 
1702.000000	98.945921 
1701.000000	98.944084 
1700.000000	98.942663 
1699.000000	98.941368 
1698.000000	98.940624 
1697.000000	98.939839 
1696.000000	98.938129 
1695.000000	98.935445 
1694.000000	98.932541 
1693.000000	98.929900 
1692.000000	98.927488 
1691.000000	98.925293 
1690.000000	98.923233 
1689.000000	98.921219 
1688.000000	98.919326 
1687.000000	98.917637 
1686.000000	98.916234 
1685.000000	98.914913 
1684.000000	98.912943 
1683.000000	98.910304 
1682.000000	98.907583 
1681.000000	98.905049 
1680.000000	98.902873 
1679.000000	98.900966 
1678.000000	98.898943 
1677.000000	98.896609 
1676.000000	98.894217 
1675.000000	98.892099 
1674.000000	98.890251 
1673.000000	98.888596 
1672.000000	98.887102 
1671.000000	98.885627 
1670.000000	98.883492 
1669.000000	98.880142 
1668.000000	98.876471 
1667.000000	98.873529 
1666.000000	98.871221 
1665.000000	98.869061 
1664.000000	98.866927 
1663.000000	98.864922 
1662.000000	98.862570 
1661.000000	98.859714 
1660.000000	98.857546 
1659.000000	98.857156 
1658.000000	98.857972 
1657.000000	98.858375 
1656.000000	98.857660 
1655.000000	98.856165 
1654.000000	98.854440 
1653.000000	98.850792 
1652.000000	98.847098 
1651.000000	98.846323 
1650.000000	98.846305 
1649.000000	98.845834 
1648.000000	98.844854 
1647.000000	98.842351 
1646.000000	98.838817 
1645.000000	98.836329 
1644.000000	98.835484 
1643.000000	98.835666 
1642.000000	98.836020 
1641.000000	98.835783 
1640.000000	98.834892 
1639.000000	98.833779 
1638.000000	98.832918 
1637.000000	98.833045 
1636.000000	98.834632 
1635.000000	98.836422 
1634.000000	98.836670 
1633.000000	98.834712 
1632.000000	98.831569 
1631.000000	98.829468 
1630.000000	98.829265 
1629.000000	98.829850 
1628.000000	98.830412 
1627.000000	98.831519 
1626.000000	98.833166 
1625.000000	98.834323 
1624.000000	98.834741 
1623.000000	98.835560 
1622.000000	98.837809 
1621.000000	98.841404 
1620.000000	98.845733 
1619.000000	98.850173 
1618.000000	98.854301 
1617.000000	98.857755 
1616.000000	98.861615 
1615.000000	98.866471 
1614.000000	98.870528 
1613.000000	98.873149 
1612.000000	98.876387 
1611.000000	98.881499 
1610.000000	98.886181 
1609.000000	98.887956 
1608.000000	98.888263 
1607.000000	98.889923 
1606.000000	98.892758 
1605.000000	98.895239 
1604.000000	98.897515 
1603.000000	98.900320 
1602.000000	98.903398 
1601.000000	98.906408 
1600.000000	98.909990 
1599.000000	98.914590 
1598.000000	98.919494 
1597.000000	98.923785 
1596.000000	98.927176 
1595.000000	98.929528 
1594.000000	98.930596 
1593.000000	98.931146 
1592.000000	98.933070 
1591.000000	98.937301 
1590.000000	98.942473 
1589.000000	98.946763 
1588.000000	98.950007 
1587.000000	98.952882 
1586.000000	98.955070 
1585.000000	98.955835 
1584.000000	98.955866 
1583.000000	98.956262 
1582.000000	98.956941 
1581.000000	98.957517 
1580.000000	98.958273 
1579.000000	98.959305 
1578.000000	98.960149 
1577.000000	98.960669 
1576.000000	98.961401 
1575.000000	98.962773 
1574.000000	98.964230 
1573.000000	98.965444 
1572.000000	98.966969 
1571.000000	98.969365 
1570.000000	98.971965 
1569.000000	98.973861 
1568.000000	98.975446 
1567.000000	98.976888 
1566.000000	98.977740 
1565.000000	98.977946 
1564.000000	98.978089 
1563.000000	98.978346 
1562.000000	98.978756 
1561.000000	98.979466 
1560.000000	98.981717 
1559.000000	98.983957 
1558.000000	98.984291 
1557.000000	98.984212 
1556.000000	98.984563 
1555.000000	98.985178 
1554.000000	98.985770 
1553.000000	98.986065 
1552.000000	98.986122 
1551.000000	98.986090 
1550.000000	98.986195 
1549.000000	98.986502 
1548.000000	98.986882 
1547.000000	98.987136 
1546.000000	98.987142 
1545.000000	98.986951 
1544.000000	98.986798 
1543.000000	98.986939 
1542.000000	98.987462 
1541.000000	98.988184 
1540.000000	98.988641 
1539.000000	98.988717 
1538.000000	98.988644 
1537.000000	98.988525 
1536.000000	98.988419 
1535.000000	98.988401 
1534.000000	98.988263 
1533.000000	98.987720 
1532.000000	98.986939 
1531.000000	98.986350 
1530.000000	98.986078 
1529.000000	98.985935 
1528.000000	98.985718 
1527.000000	98.985476 
1526.000000	98.985329 
1525.000000	98.985148 
1524.000000	98.984734 
1523.000000	98.984208 
1522.000000	98.983882 
1521.000000	98.983667 
1520.000000	98.983161 
1519.000000	98.982199 
1518.000000	98.980946 
1517.000000	98.979729 
1516.000000	98.978769 
1515.000000	98.978081 
1514.000000	98.977580 
1513.000000	98.977231 
1512.000000	98.976898 
1511.000000	98.976319 
1510.000000	98.975477 
1509.000000	98.974649 
1508.000000	98.974375 
1507.000000	98.974811 
1506.000000	98.975207 
1505.000000	98.974641 
1504.000000	98.973181 
1503.000000	98.971561 
1502.000000	98.970334 
1501.000000	98.969428 
1500.000000	98.968261 
1499.000000	98.966493 
1498.000000	98.964569 
1497.000000	98.963062 
1496.000000	98.961853 
1495.000000	98.960907 
1494.000000	98.960526 
1493.000000	98.960661 
1492.000000	98.960785 
1491.000000	98.960248 
1490.000000	98.958671 
1489.000000	98.956110 
1488.000000	98.952943 
1487.000000	98.949974 
1486.000000	98.947566 
1485.000000	98.945135 
1484.000000	98.942487 
1483.000000	98.940331 
1482.000000	98.939506 
1481.000000	98.939680 
1480.000000	98.939423 
1479.000000	98.937915 
1478.000000	98.935563 
1477.000000	98.933063 
1476.000000	98.930811 
1475.000000	98.929461 
1474.000000	98.929506 
1473.000000	98.930036 
1472.000000	98.929383 
1471.000000	98.927599 
1470.000000	98.925717 
1469.000000	98.923593 
1468.000000	98.920670 
1467.000000	98.917568 
1466.000000	98.915848 
1465.000000	98.915963 
1464.000000	98.916537 
1463.000000	98.916146 
1462.000000	98.914735 
1461.000000	98.912559 
1460.000000	98.909544 
1459.000000	98.905330 
1458.000000	98.899678 
1457.000000	98.892072 
1456.000000	98.883037 
1455.000000	98.874319 
1454.000000	98.867230 
1453.000000	98.863045 
1452.000000	98.862361 
1451.000000	98.864181 
1450.000000	98.866908 
1449.000000	98.868874 
1448.000000	98.868175 
1447.000000	98.864673 
1446.000000	98.860597 
1445.000000	98.858649 
1444.000000	98.859701 
1443.000000	98.862239 
1442.000000	98.864207 
1441.000000	98.864591 
1440.000000	98.863537 
1439.000000	98.861766 
1438.000000	98.861076 
1437.000000	98.861811 
1436.000000	98.860812 
1435.000000	98.856057 
1434.000000	98.849423 
1433.000000	98.843071 
1432.000000	98.837809 
1431.000000	98.833367 
1430.000000	98.829610 
1429.000000	98.826740 
1428.000000	98.823981 
1427.000000	98.820446 
1426.000000	98.816064 
1425.000000	98.811857 
1424.000000	98.808172 
1423.000000	98.803508 
1422.000000	98.796710 
1421.000000	98.788118 
1420.000000	98.778506 
1419.000000	98.768070 
1418.000000	98.758082 
1417.000000	98.749617 
1416.000000	98.741337 
1415.000000	98.731847 
1414.000000	98.721415 
1413.000000	98.711427 
1412.000000	98.702930 
1411.000000	98.695631 
1410.000000	98.688954 
1409.000000	98.683034 
1408.000000	98.678567 
1407.000000	98.676614 
1406.000000	98.677670 
1405.000000	98.681244 
1404.000000	98.686306 
1403.000000	98.692230 
1402.000000	98.699582 
1401.000000	98.709142 
1400.000000	98.719986 
1399.000000	98.728304 
1398.000000	98.729490 
1397.000000	98.721152 
1396.000000	98.704649 
1395.000000	98.687496 
1394.000000	98.681025 
1393.000000	98.690404 
1392.000000	98.710305 
1391.000000	98.730916 
1390.000000	98.745516 
1389.000000	98.752547 
1388.000000	98.753567 
1387.000000	98.751248 
1386.000000	98.748515 
1385.000000	98.747394 
1384.000000	98.748057 
1383.000000	98.749344 
1382.000000	98.750520 
1381.000000	98.752308 
1380.000000	98.756130 
1379.000000	98.762540 
1378.000000	98.770712 
1377.000000	98.779395 
1376.000000	98.787820 
1375.000000	98.795694 
1374.000000	98.803201 
1373.000000	98.811190 
1372.000000	98.820245 
1371.000000	98.829824 
1370.000000	98.838742 
1369.000000	98.846480 
1368.000000	98.853463 
1367.000000	98.860040 
1366.000000	98.866229 
1365.000000	98.872381 
1364.000000	98.879286 
1363.000000	98.887182 
1362.000000	98.895063 
1361.000000	98.901694 
1360.000000	98.907104 
1359.000000	98.912630 
1358.000000	98.919734 
1357.000000	98.928748 
1356.000000	98.938262 
1355.000000	98.945971 
1354.000000	98.950838 
1353.000000	98.953981 
1352.000000	98.956835 
1351.000000	98.959595 
1350.000000	98.961900 
1349.000000	98.964542 
1348.000000	98.968297 
1347.000000	98.972144 
1346.000000	98.974520 
1345.000000	98.975591 
1344.000000	98.976728 
1343.000000	98.978242 
1342.000000	98.979438 
1341.000000	98.980641 
1340.000000	98.983279 
1339.000000	98.987459 
1338.000000	98.991454 
1337.000000	98.994147 
1336.000000	98.995901 
1335.000000	98.996875 
1334.000000	98.996465 
1333.000000	98.994818 
1332.000000	98.993324 
1331.000000	98.992907 
1330.000000	98.993015 
1329.000000	98.993032 
1328.000000	98.993247 
1327.000000	98.993681 
1326.000000	98.993275 
1325.000000	98.991624 
1324.000000	98.990078 
1323.000000	98.990030 
1322.000000	98.991348 
1321.000000	98.993311 
1320.000000	98.995981 
1319.000000	98.999327 
1318.000000	99.001846 
1317.000000	99.001574 
1316.000000	98.998382 
1315.000000	98.994330 
1314.000000	98.991742 
1313.000000	98.991228 
1312.000000	98.991637 
1311.000000	98.991594 
1310.000000	98.990908 
1309.000000	98.990508 
1308.000000	98.991099 
1307.000000	98.992164 
1306.000000	98.992547 
1305.000000	98.992182 
1304.000000	98.992409 
1303.000000	98.994207 
1302.000000	98.996714 
1301.000000	98.998044 
1300.000000	98.997407 
1299.000000	98.995952 
1298.000000	98.995549 
1297.000000	98.996898 
1296.000000	98.998917 
1295.000000	98.999827 
1294.000000	98.998750 
1293.000000	98.996250 
1292.000000	98.993597 
1291.000000	98.991964 
1290.000000	98.992230 
1289.000000	98.994755 
1288.000000	98.998634 
1287.000000	99.001545 
1286.000000	99.001460 
1285.000000	98.998597 
1284.000000	98.995061 
1283.000000	98.992592 
1282.000000	98.990905 
1281.000000	98.988597 
1280.000000	98.985354 
1279.000000	98.982275 
1278.000000	98.980347 
1277.000000	98.979574 
1276.000000	98.979494 
1275.000000	98.979689 
1274.000000	98.979570 
1273.000000	98.978361 
1272.000000	98.975793 
1271.000000	98.972514 
1270.000000	98.969381 
1269.000000	98.966506 
1268.000000	98.963329 
1267.000000	98.959349 
1266.000000	98.954437 
1265.000000	98.948659 
1264.000000	98.942364 
1263.000000	98.936364 
1262.000000	98.931337 
1261.000000	98.926955 
1260.000000	98.922201 
1259.000000	98.916643 
1258.000000	98.910979 
1257.000000	98.906347 
1256.000000	98.903660 
1255.000000	98.903402 
1254.000000	98.904954 
1253.000000	98.906062 
1252.000000	98.904437 
1251.000000	98.900696 
1250.000000	98.898619 
1249.000000	98.901389 
1248.000000	98.908254 
1247.000000	98.915450 
1246.000000	98.919080 
1245.000000	98.916085 
1244.000000	98.904783 
1243.000000	98.888028 
1242.000000	98.874992 
1241.000000	98.875083 
1240.000000	98.888194 
1239.000000	98.903371 
1238.000000	98.909190 
1237.000000	98.903771 
1236.000000	98.893232 
1235.000000	98.883203 
1234.000000	98.874602 
1233.000000	98.866006 
1232.000000	98.856166 
1231.000000	98.843917 
1230.000000	98.828798 
1229.000000	98.812968 
1228.000000	98.800459 
1227.000000	98.793219 
1226.000000	98.788949 
1225.000000	98.783642 
1224.000000	98.775226 
1223.000000	98.764070 
1222.000000	98.751214 
1221.000000	98.737243 
1220.000000	98.722274 
1219.000000	98.706004 
1218.000000	98.687875 
1217.000000	98.667602 
1216.000000	98.645312 
1215.000000	98.621018 
1214.000000	98.594370 
1213.000000	98.565060 
1212.000000	98.533075 
1211.000000	98.498651 
1210.000000	98.462665 
1209.000000	98.426992 
1208.000000	98.393367 
1207.000000	98.361511 
1206.000000	98.329333 
1205.000000	98.295533 
1204.000000	98.260939 
1203.000000	98.226730 
1202.000000	98.192619 
1201.000000	98.157765 
1200.000000	98.122337 
1199.000000	98.086982 
1198.000000	98.051664 
1197.000000	98.016176 
1196.000000	97.980623 
1195.000000	97.944116 
1194.000000	97.904253 
1193.000000	97.859790 
1192.000000	97.813114 
1191.000000	97.768073 
1190.000000	97.725608 
1189.000000	97.683529 
1188.000000	97.640296 
1187.000000	97.596731 
1186.000000	97.553893 
1185.000000	97.511406 
1184.000000	97.468350 
1183.000000	97.423978 
1182.000000	97.377278 
1181.000000	97.327740 
1180.000000	97.276831 
1179.000000	97.226663 
1178.000000	97.176792 
1177.000000	97.124483 
1176.000000	97.068578 
1175.000000	97.010712 
1174.000000	96.951893 
1173.000000	96.890602 
1172.000000	96.825947 
1171.000000	96.760496 
1170.000000	96.697850 
1169.000000	96.638779 
1168.000000	96.581663 
1167.000000	96.526100 
1166.000000	96.475061 
1165.000000	96.434366 
1164.000000	96.410635 
1163.000000	96.408159 
1162.000000	96.425987 
1161.000000	96.457823 
1160.000000	96.494364 
1159.000000	96.525161 
1158.000000	96.540174 
1157.000000	96.532839 
1156.000000	96.502911 
1155.000000	96.456042 
1154.000000	96.400721 
1153.000000	96.345211 
1152.000000	96.294861 
1151.000000	96.249353 
1150.000000	96.203120 
1149.000000	96.151431 
1148.000000	96.096155 
1147.000000	96.043208 
1146.000000	95.994760 
1145.000000	95.947016 
1144.000000	95.895662 
1143.000000	95.840151 
1142.000000	95.782475 
1141.000000	95.725207 
1140.000000	95.671357 
1139.000000	95.622497 
1138.000000	95.575563 
1137.000000	95.524543 
1136.000000	95.466649 
1135.000000	95.404431 
1134.000000	95.341185 
1133.000000	95.277212 
1132.000000	95.211661 
1131.000000	95.145122 
1130.000000	95.078956 
1129.000000	95.014125 
1128.000000	94.951034 
1127.000000	94.888149 
1126.000000	94.821232 
1125.000000	94.747660 
1124.000000	94.671519 
1123.000000	94.600246 
1122.000000	94.535422 
1121.000000	94.471048 
1120.000000	94.401868 
1119.000000	94.328943 
1118.000000	94.255813 
1117.000000	94.183990 
1116.000000	94.114256 
1115.000000	94.048010 
1114.000000	93.984845 
1113.000000	93.922249 
1112.000000	93.859277 
1111.000000	93.796766 
1110.000000	93.733149 
1109.000000	93.664881 
1108.000000	93.592453 
1107.000000	93.521604 
1106.000000	93.456518 
1105.000000	93.395559 
1104.000000	93.335227 
1103.000000	93.274496 
1102.000000	93.213784 
1101.000000	93.153586 
1100.000000	93.095360 
1099.000000	93.040724 
1098.000000	92.988410 
1097.000000	92.935407 
1096.000000	92.881337 
1095.000000	92.827592 
1094.000000	92.772189 
1093.000000	92.710257 
1092.000000	92.640318 
1091.000000	92.565696 
1090.000000	92.489529 
1089.000000	92.413195 
1088.000000	92.339724 
1087.000000	92.272882 
1086.000000	92.211840 
1085.000000	92.152201 
1084.000000	92.093025 
1083.000000	92.037097 
1082.000000	91.983760 
1081.000000	91.928196 
1080.000000	91.869214 
1079.000000	91.811171 
1078.000000	91.756441 
1077.000000	91.702541 
1076.000000	91.648750 
1075.000000	91.598810 
1074.000000	91.554269 
1073.000000	91.510649 
1072.000000	91.461491 
1071.000000	91.399676 
1070.000000	91.314509 
1069.000000	91.197551 
1068.000000	91.056240 
1067.000000	90.915223 
1066.000000	90.797492 
1065.000000	90.706861 
1064.000000	90.631484 
1063.000000	90.557002 
1062.000000	90.471988 
1061.000000	90.368696 
1060.000000	90.247212 
1059.000000	90.117616 
1058.000000	89.993382 
1057.000000	89.882600 
1056.000000	89.785603 
1055.000000	89.696485 
1054.000000	89.605251 
1053.000000	89.503570 
1052.000000	89.391246 
1051.000000	89.273783 
1050.000000	89.153482 
1049.000000	89.028768 
1048.000000	88.902014 
1047.000000	88.779835 
1046.000000	88.664420 
1045.000000	88.551417 
1044.000000	88.436733 
1043.000000	88.319472 
1042.000000	88.199141 
1041.000000	88.076868 
1040.000000	87.959018 
1039.000000	87.852869 
1038.000000	87.759309 
1037.000000	87.676015 
1036.000000	87.605072 
1035.000000	87.548935 
1034.000000	87.501512 
1033.000000	87.453026 
1032.000000	87.401484 
1031.000000	87.349586 
1030.000000	87.294684 
1029.000000	87.235405 
1028.000000	87.185493 
1027.000000	87.164409 
1026.000000	87.171805 
1025.000000	87.184750 
1024.000000	87.183218 
1023.000000	87.166328 
1022.000000	87.141959 
1021.000000	87.115017 
1020.000000	87.090048 
1019.000000	87.072122 
1018.000000	87.058902 
1017.000000	87.041656 
1016.000000	87.018442 
1015.000000	86.996983 
1014.000000	86.981532 
1013.000000	86.967064 
1012.000000	86.949637 
1011.000000	86.932381 
1010.000000	86.917827 
1009.000000	86.904226 
1008.000000	86.892957 
1007.000000	86.890037 
1006.000000	86.896665 
1005.000000	86.906954 
1004.000000	86.917900 
1003.000000	86.933204 
1002.000000	86.955166 
1001.000000	86.981502 
1000.000000	87.011773 
999.000000	 87.047877 
998.000000	 87.086739 
997.000000	 87.122087 
996.000000	 87.155167 
995.000000	 87.194162 
994.000000	 87.241356 
993.000000	 87.290341 
992.000000	 87.337361 
991.000000	 87.385586 
990.000000	 87.436471 
989.000000	 87.487190 
988.000000	 87.539161 
987.000000	 87.599460 
986.000000	 87.670974 
985.000000	 87.749871 
984.000000	 87.834492 
983.000000	 87.927589 
982.000000	 88.028273 
981.000000	 88.131088 
980.000000	 88.235332 
979.000000	 88.346870 
978.000000	 88.468685 
977.000000	 88.597774 
976.000000	 88.732572 
975.000000	 88.874811 
974.000000	 89.022827 
973.000000	 89.171734 
972.000000	 89.321582 
971.000000	 89.476928 
970.000000	 89.637196 
969.000000	 89.795854 
968.000000	 89.950226 
967.000000	 90.103763 
966.000000	 90.257570 
965.000000	 90.407955 
964.000000	 90.553603 
963.000000	 90.697067 
962.000000	 90.837842 
961.000000	 90.971799 
960.000000	 91.098886 
959.000000	 91.223829 
958.000000	 91.347728 
957.000000	 91.466216 
956.000000	 91.577379 
955.000000	 91.684377 
954.000000	 91.788896 
953.000000	 91.888824 
952.000000	 91.983608 
951.000000	 92.075051 
950.000000	 92.161560 
949.000000	 92.238466 
948.000000	 92.305404 
947.000000	 92.366905 
946.000000	 92.424630 
945.000000	 92.475735 
944.000000	 92.520363 
943.000000	 92.563986 
942.000000	 92.610316 
941.000000	 92.657805 
940.000000	 92.704672 
939.000000	 92.751288 
938.000000	 92.796343 
937.000000	 92.837041 
936.000000	 92.874910 
935.000000	 92.915656 
934.000000	 92.961657 
933.000000	 93.009959 
932.000000	 93.058558 
931.000000	 93.108610 
930.000000	 93.159299 
929.000000	 93.206387 
928.000000	 93.247277 
927.000000	 93.282706 
926.000000	 93.313463 
925.000000	 93.341054 
924.000000	 93.371100 
923.000000	 93.408982 
922.000000	 93.451351 
921.000000	 93.488538 
920.000000	 93.516005 
919.000000	 93.536899 
918.000000	 93.553469 
917.000000	 93.564367 
916.000000	 93.572137 
915.000000	 93.585153 
914.000000	 93.608766 
913.000000	 93.641161 
912.000000	 93.680841 
911.000000	 93.731756 
910.000000	 93.797799 
909.000000	 93.877932 
908.000000	 93.969571 
907.000000	 94.071608 
906.000000	 94.181777 
905.000000	 94.296053 
904.000000	 94.412745 
903.000000	 94.533026 
902.000000	 94.656599 
901.000000	 94.781195 
900.000000	 94.906342 
899.000000	 95.032591 
898.000000	 95.156933 
897.000000	 95.274325 
896.000000	 95.383902 
895.000000	 95.488816 
894.000000	 95.590394 
893.000000	 95.687833 
892.000000	 95.783341 
891.000000	 95.881562 
890.000000	 95.983183 
889.000000	 96.084101 
888.000000	 96.181111 
887.000000	 96.273512 
886.000000	 96.359792 
885.000000	 96.438634 
884.000000	 96.512985 
883.000000	 96.586749 
882.000000	 96.657246 
881.000000	 96.718238 
880.000000	 96.772005 
879.000000	 96.831064 
878.000000	 96.904315 
877.000000	 96.987096 
876.000000	 97.068198 
875.000000	 97.141328 
874.000000	 97.206975 
873.000000	 97.268619 
872.000000	 97.331033 
871.000000	 97.398673 
870.000000	 97.472313 
869.000000	 97.549422 
868.000000	 97.628796 
867.000000	 97.711056 
866.000000	 97.793517 
865.000000	 97.869428 
864.000000	 97.935288 
863.000000	 97.995722 
862.000000	 98.057904 
861.000000	 98.123051 
860.000000	 98.186524 
859.000000	 98.245028 
858.000000	 98.300381 
857.000000	 98.355982 
856.000000	 98.412206 
855.000000	 98.466767 
854.000000	 98.518165 
853.000000	 98.566387 
852.000000	 98.610170 
851.000000	 98.646501 
850.000000	 98.675115 
849.000000	 98.701460 
848.000000	 98.731500 
847.000000	 98.763730 
846.000000	 98.789881 
845.000000	 98.804108 
844.000000	 98.808215 
843.000000	 98.807332 
842.000000	 98.804337 
841.000000	 98.799648 
840.000000	 98.792204 
839.000000	 98.778467 
838.000000	 98.754582 
837.000000	 98.722268 
836.000000	 98.688996 
835.000000	 98.659778 
834.000000	 98.632975 
833.000000	 98.607609 
832.000000	 98.589475 
831.000000	 98.583754 
830.000000	 98.585423 
829.000000	 98.585195 
828.000000	 98.583484 
827.000000	 98.590114 
826.000000	 98.609729 
825.000000	 98.635389 
824.000000	 98.658245 
823.000000	 98.676299 
822.000000	 98.692014 
821.000000	 98.707726 
820.000000	 98.724802 
819.000000	 98.742119 
818.000000	 98.754683 
817.000000	 98.757516 
816.000000	 98.750027 
815.000000	 98.732494 
814.000000	 98.699693 
813.000000	 98.643121 
812.000000	 98.558981 
811.000000	 98.448597 
810.000000	 98.310841 
809.000000	 98.140030 
808.000000	 97.933345 
807.000000	 97.695696 
806.000000	 97.435224 
805.000000	 97.158924 
804.000000	 96.876363 
803.000000	 96.603399 
802.000000	 96.357504 
801.000000	 96.151283 
800.000000	 95.992160 
799.000000	 95.883695 
798.000000	 95.824547 
797.000000	 95.809779 
796.000000	 95.833931 
795.000000	 95.889016 
794.000000	 95.961315 
793.000000	 96.036776 
792.000000	 96.109069 
791.000000	 96.176767 
790.000000	 96.234601 
789.000000	 96.274070 
788.000000	 96.290728 
787.000000	 96.283656 
786.000000	 96.249223 
785.000000	 96.183371 
784.000000	 96.090637 
783.000000	 95.984550 
782.000000	 95.878816 
781.000000	 95.783760 
780.000000	 95.709787 
779.000000	 95.665471 
778.000000	 95.651414 
777.000000	 95.663966 
776.000000	 95.705184 
775.000000	 95.780087 
774.000000	 95.883209 
773.000000	 95.997378 
772.000000	 96.108131 
771.000000	 96.211593 
770.000000	 96.306827 
769.000000	 96.389066 
768.000000	 96.454081 
767.000000	 96.503579 
766.000000	 96.543345 
765.000000	 96.579469 
764.000000	 96.616395 
763.000000	 96.653695 
762.000000	 96.684692 
761.000000	 96.703685 
760.000000	 96.715018 
759.000000	 96.730430 
758.000000	 96.757782 
757.000000	 96.796377 
756.000000	 96.840698 
755.000000	 96.882739 
754.000000	 96.914076 
753.000000	 96.934357 
752.000000	 96.956525 
751.000000	 96.995252 
750.000000	 97.050097 
749.000000	 97.107053 
748.000000	 97.156026 
747.000000	 97.199181 
746.000000	 97.243003 
745.000000	 97.291241 
744.000000	 97.346300 
743.000000	 97.408879 
742.000000	 97.474747 
741.000000	 97.539387 
740.000000	 97.606219 
739.000000	 97.682253 
738.000000	 97.765146 
737.000000	 97.842612 
736.000000	 97.905497 
735.000000	 97.954095 
734.000000	 97.992285 
733.000000	 98.024285 
732.000000	 98.057483 
731.000000	 98.098758 
730.000000	 98.145103 
729.000000	 98.185523 
728.000000	 98.214271 
727.000000	 98.235066 
726.000000	 98.251788 
725.000000	 98.264103 
724.000000	 98.274302 
723.000000	 98.289593 
722.000000	 98.314347 
721.000000	 98.347223 
720.000000	 98.387877 
719.000000	 98.438020 
718.000000	 98.493066 
717.000000	 98.541552 
716.000000	 98.576258 
715.000000	 98.599211 
714.000000	 98.614479 
713.000000	 98.623945 
712.000000	 98.632724 
711.000000	 98.649100 
710.000000	 98.673259 
709.000000	 98.693058 
708.000000	 98.696178 
707.000000	 98.681023 
706.000000	 98.652222 
705.000000	 98.613027 
704.000000	 98.567371 
703.000000	 98.521768 
702.000000	 98.477239 
701.000000	 98.422465 
700.000000	 98.340680 
699.000000	 98.223196 
698.000000	 98.076851 
697.000000	 97.923993 
696.000000	 97.796104 
695.000000	 97.719477 
694.000000	 97.701873 
693.000000	 97.733540 
692.000000	 97.798797 
691.000000	 97.882051 
690.000000	 97.966844 
689.000000	 98.041454 
688.000000	 98.107772 
687.000000	 98.174472 
686.000000	 98.239509 
685.000000	 98.290114 
684.000000	 98.321974 
683.000000	 98.347244 
682.000000	 98.380501 
681.000000	 98.425343 
680.000000	 98.475532 
679.000000	 98.520503 
678.000000	 98.549378 
677.000000	 98.561065 
676.000000	 98.573099 
675.000000	 98.606220 
674.000000	 98.657896 
673.000000	 98.703804 
672.000000	 98.729164 
671.000000	 98.745013 
670.000000	 98.771059 
669.000000	 98.812814 
668.000000	 98.851796 
667.000000	 98.874365 
666.000000	 98.889867 
665.000000	 98.901479 
664.000000	 98.911464 
663.000000	 98.932463 
662.000000	 98.971179 
661.000000	 99.012938 
660.000000	 99.036757 
659.000000	 99.038730 
658.000000	 99.029457 
657.000000	 99.016673 
656.000000	 99.001965 
655.000000	 98.987870 
654.000000	 98.976392 
653.000000	 98.966104 
652.000000	 98.960049 
651.000000	 98.967110 
650.000000	 98.985844 

