4000.000000	99.886757 
3999.000000	99.887052 
3998.000000	99.886823 
3997.000000	99.886449 
3996.000000	99.886259 
3995.000000	99.886363 
3994.000000	99.886749 
3993.000000	99.887375 
3992.000000	99.888102 
3991.000000	99.888583 
3990.000000	99.888419 
3989.000000	99.887494 
3988.000000	99.886159 
3987.000000	99.884942 
3986.000000	99.884064 
3985.000000	99.883327 
3984.000000	99.882499 
3983.000000	99.881697 
3982.000000	99.881324 
3981.000000	99.881618 
3980.000000	99.882337 
3979.000000	99.882985 
3978.000000	99.883371 
3977.000000	99.883854 
3976.000000	99.884926 
3975.000000	99.886520 
3974.000000	99.887839 
3973.000000	99.888019 
3972.000000	99.886897 
3971.000000	99.885058 
3970.000000	99.883299 
3969.000000	99.882057 
3968.000000	99.881337 
3967.000000	99.880992 
3966.000000	99.880943 
3965.000000	99.881179 
3964.000000	99.881633 
3963.000000	99.882063 
3962.000000	99.882055 
3961.000000	99.881265 
3960.000000	99.879750 
3959.000000	99.878110 
3958.000000	99.877121 
3957.000000	99.877142 
3956.000000	99.877900 
3955.000000	99.878823 
3954.000000	99.879612 
3953.000000	99.880418 
3952.000000	99.881455 
3951.000000	99.882593 
3950.000000	99.883457 
3949.000000	99.883860 
3948.000000	99.883961 
3947.000000	99.883948 
3946.000000	99.883772 
3945.000000	99.883305 
3944.000000	99.882639 
3943.000000	99.882112 
3942.000000	99.881977 
3941.000000	99.882180 
3940.000000	99.882483 
3939.000000	99.882653 
3938.000000	99.882490 
3937.000000	99.881917 
3936.000000	99.881066 
3935.000000	99.880200 
3934.000000	99.879523 
3933.000000	99.879130 
3932.000000	99.879155 
3931.000000	99.879815 
3930.000000	99.881189 
3929.000000	99.882970 
3928.000000	99.884470 
3927.000000	99.884998 
3926.000000	99.884314 
3925.000000	99.882775 
3924.000000	99.880992 
3923.000000	99.879392 
3922.000000	99.878147 
3921.000000	99.877298 
3920.000000	99.876770 
3919.000000	99.876441 
3918.000000	99.876337 
3917.000000	99.876661 
3916.000000	99.877524 
3915.000000	99.878674 
3914.000000	99.879572 
3913.000000	99.879791 
3912.000000	99.879304 
3911.000000	99.878501 
3910.000000	99.877846 
3909.000000	99.877456 
3908.000000	99.877017 
3907.000000	99.876128 
3906.000000	99.874757 
3905.000000	99.873400 
3904.000000	99.872702 
3903.000000	99.872883 
3902.000000	99.873743 
3901.000000	99.875068 
3900.000000	99.876636 
3899.000000	99.877969 
3898.000000	99.878539 
3897.000000	99.878285 
3896.000000	99.877649 
3895.000000	99.877103 
3894.000000	99.876771 
3893.000000	99.876597 
3892.000000	99.876630 
3891.000000	99.876954 
3890.000000	99.877354 
3889.000000	99.877503 
3888.000000	99.877298 
3887.000000	99.876837 
3886.000000	99.876312 
3885.000000	99.875766 
3884.000000	99.874912 
3883.000000	99.873666 
3882.000000	99.872605 
3881.000000	99.872518 
3880.000000	99.873555 
3879.000000	99.874899 
3878.000000	99.875641 
3877.000000	99.875694 
3876.000000	99.875531 
3875.000000	99.875668 
3874.000000	99.876248 
3873.000000	99.876858 
3872.000000	99.877049 
3871.000000	99.876934 
3870.000000	99.876931 
3869.000000	99.877113 
3868.000000	99.877254 
3867.000000	99.877459 
3866.000000	99.878035 
3865.000000	99.878995 
3864.000000	99.880127 
3863.000000	99.881193 
3862.000000	99.881926 
3861.000000	99.882135 
3860.000000	99.881822 
3859.000000	99.881269 
3858.000000	99.880865 
3857.000000	99.880819 
3856.000000	99.881010 
3855.000000	99.881113 
3854.000000	99.880979 
3853.000000	99.880875 
3852.000000	99.880912 
3851.000000	99.880972 
3850.000000	99.881126 
3849.000000	99.881330 
3848.000000	99.881408 
3847.000000	99.881323 
3846.000000	99.881209 
3845.000000	99.881250 
3844.000000	99.881517 
3843.000000	99.881896 
3842.000000	99.882167 
3841.000000	99.882212 
3840.000000	99.882119 
3839.000000	99.882080 
3838.000000	99.882179 
3837.000000	99.882325 
3836.000000	99.882385 
3835.000000	99.882321 
3834.000000	99.882184 
3833.000000	99.882046 
3832.000000	99.881951 
3831.000000	99.881903 
3830.000000	99.881892 
3829.000000	99.881934 
3828.000000	99.882047 
3827.000000	99.882220 
3826.000000	99.882395 
3825.000000	99.882490 
3824.000000	99.882456 
3823.000000	99.882303 
3822.000000	99.882094 
3821.000000	99.881914 
3820.000000	99.881790 
3819.000000	99.881702 
3818.000000	99.881666 
3817.000000	99.881696 
3816.000000	99.881756 
3815.000000	99.881784 
3814.000000	99.881754 
3813.000000	99.881699 
3812.000000	99.881662 
3811.000000	99.881644 
3810.000000	99.881608 
3809.000000	99.881530 
3808.000000	99.881418 
3807.000000	99.881306 
3806.000000	99.881211 
3805.000000	99.881130 
3804.000000	99.881064 
3803.000000	99.881009 
3802.000000	99.880932 
3801.000000	99.880791 
3800.000000	99.880579 
3799.000000	99.880338 
3798.000000	99.880135 
3797.000000	99.879990 
3796.000000	99.879884 
3795.000000	99.879776 
3794.000000	99.879637 
3793.000000	99.879469 
3792.000000	99.879283 
3791.000000	99.879088 
3790.000000	99.878884 
3789.000000	99.878667 
3788.000000	99.878426 
3787.000000	99.878156 
3786.000000	99.877871 
3785.000000	99.877601 
3784.000000	99.877368 
3783.000000	99.877162 
3782.000000	99.876981 
3781.000000	99.876867 
3780.000000	99.876850 
3779.000000	99.876879 
3778.000000	99.876813 
3777.000000	99.876541 
3776.000000	99.876119 
3775.000000	99.875714 
3774.000000	99.875460 
3773.000000	99.875385 
3772.000000	99.875413 
3771.000000	99.875419 
3770.000000	99.875312 
3769.000000	99.875080 
3768.000000	99.874774 
3767.000000	99.874492 
3766.000000	99.874298 
3765.000000	99.874174 
3764.000000	99.874073 
3763.000000	99.873963 
3762.000000	99.873783 
3761.000000	99.873388 
3760.000000	99.872726 
3759.000000	99.872095 
3758.000000	99.871916 
3757.000000	99.872210 
3756.000000	99.872581 
3755.000000	99.872670 
3754.000000	99.872498 
3753.000000	99.872381 
3752.000000	99.872549 
3751.000000	99.872838 
3750.000000	99.872623 
3749.000000	99.871252 
3748.000000	99.868764 
3747.000000	99.865831 
3746.000000	99.863389 
3745.000000	99.862265 
3744.000000	99.862481 
3743.000000	99.863272 
3742.000000	99.864513 
3741.000000	99.866757 
3740.000000	99.869647 
3739.000000	99.871793 
3738.000000	99.871894 
3737.000000	99.869929 
3736.000000	99.867555 
3735.000000	99.866677 
3734.000000	99.867503 
3733.000000	99.868994 
3732.000000	99.870238 
3731.000000	99.870514 
3730.000000	99.869307 
3729.000000	99.866738 
3728.000000	99.863658 
3727.000000	99.861096 
3726.000000	99.859457 
3725.000000	99.858457 
3724.000000	99.857937 
3723.000000	99.858175 
3722.000000	99.859107 
3721.000000	99.859902 
3720.000000	99.859666 
3719.000000	99.858347 
3718.000000	99.856698 
3717.000000	99.855311 
3716.000000	99.853877 
3715.000000	99.851516 
3714.000000	99.847617 
3713.000000	99.842529 
3712.000000	99.837635 
3711.000000	99.834124 
3710.000000	99.831622 
3709.000000	99.829248 
3708.000000	99.827233 
3707.000000	99.826216 
3706.000000	99.826115 
3705.000000	99.826247 
3704.000000	99.826143 
3703.000000	99.825919 
3702.000000	99.825857 
3701.000000	99.825719 
3700.000000	99.824822 
3699.000000	99.822946 
3698.000000	99.820673 
3697.000000	99.818810 
3696.000000	99.817752 
3695.000000	99.817311 
3694.000000	99.816868 
3693.000000	99.815707 
3692.000000	99.813394 
3691.000000	99.810210 
3690.000000	99.807103 
3689.000000	99.804903 
3688.000000	99.803643 
3687.000000	99.803145 
3686.000000	99.803519 
3685.000000	99.804334 
3684.000000	99.804321 
3683.000000	99.802280 
3682.000000	99.798153 
3681.000000	99.793317 
3680.000000	99.789552 
3679.000000	99.787408 
3678.000000	99.785982 
3677.000000	99.783979 
3676.000000	99.780751 
3675.000000	99.776429 
3674.000000	99.771219 
3673.000000	99.765969 
3672.000000	99.762108 
3671.000000	99.759896 
3670.000000	99.758312 
3669.000000	99.756100 
3668.000000	99.752863 
3667.000000	99.749711 
3666.000000	99.747816 
3665.000000	99.746798 
3664.000000	99.745147 
3663.000000	99.741514 
3662.000000	99.735611 
3661.000000	99.728384 
3660.000000	99.721528 
3659.000000	99.716620 
3658.000000	99.714307 
3657.000000	99.713690 
3656.000000	99.712606 
3655.000000	99.709212 
3654.000000	99.703475 
3653.000000	99.696953 
3652.000000	99.691449 
3651.000000	99.688069 
3650.000000	99.686690 
3649.000000	99.685533 
3648.000000	99.682189 
3647.000000	99.676534 
3646.000000	99.671227 
3645.000000	99.668438 
3644.000000	99.667565 
3643.000000	99.666078 
3642.000000	99.661871 
3641.000000	99.655192 
3640.000000	99.648383 
3639.000000	99.643499 
3638.000000	99.640247 
3637.000000	99.636443 
3636.000000	99.630466 
3635.000000	99.622699 
3634.000000	99.614460 
3633.000000	99.606371 
3632.000000	99.598682 
3631.000000	99.592754 
3630.000000	99.590476 
3629.000000	99.591328 
3628.000000	99.591056 
3627.000000	99.586316 
3626.000000	99.579410 
3625.000000	99.574216 
3624.000000	99.571638 
3623.000000	99.570978 
3622.000000	99.572083 
3621.000000	99.575633 
3620.000000	99.581769 
3619.000000	99.588772 
3618.000000	99.594014 
3617.000000	99.596587 
3616.000000	99.598011 
3615.000000	99.600022 
3614.000000	99.603036 
3613.000000	99.606750 
3612.000000	99.611348 
3611.000000	99.617757 
3610.000000	99.626162 
3609.000000	99.634392 
3608.000000	99.639142 
3607.000000	99.639154 
3606.000000	99.636406 
3605.000000	99.634197 
3604.000000	99.634453 
3603.000000	99.636743 
3602.000000	99.639503 
3601.000000	99.641621 
3600.000000	99.643006 
3599.000000	99.644183 
3598.000000	99.645754 
3597.000000	99.648071 
3596.000000	99.651250 
3595.000000	99.655117 
3594.000000	99.658644 
3593.000000	99.659967 
3592.000000	99.657831 
3591.000000	99.652831 
3590.000000	99.647195 
3589.000000	99.643452 
3588.000000	99.642886 
3587.000000	99.644875 
3586.000000	99.647779 
3585.000000	99.650618 
3584.000000	99.653104 
3583.000000	99.654623 
3582.000000	99.654768 
3581.000000	99.654197 
3580.000000	99.653978 
3579.000000	99.654311 
3578.000000	99.654411 
3577.000000	99.653463 
3576.000000	99.651341 
3575.000000	99.648529 
3574.000000	99.645681 
3573.000000	99.643355 
3572.000000	99.641967 
3571.000000	99.641752 
3570.000000	99.642699 
3569.000000	99.644513 
3568.000000	99.646588 
3567.000000	99.648139 
3566.000000	99.648583 
3565.000000	99.648065 
3564.000000	99.647460 
3563.000000	99.647418 
3562.000000	99.647777 
3561.000000	99.648003 
3560.000000	99.647703 
3559.000000	99.646739 
3558.000000	99.645209 
3557.000000	99.643517 
3556.000000	99.642300 
3555.000000	99.642060 
3554.000000	99.642733 
3553.000000	99.643576 
3552.000000	99.643619 
3551.000000	99.642418 
3550.000000	99.640350 
3549.000000	99.638330 
3548.000000	99.637145 
3547.000000	99.636999 
3546.000000	99.637527 
3545.000000	99.638138 
3544.000000	99.638493 
3543.000000	99.638667 
3542.000000	99.638865 
3541.000000	99.639101 
3540.000000	99.639156 
3539.000000	99.638792 
3538.000000	99.637917 
3537.000000	99.636554 
3536.000000	99.634798 
3535.000000	99.632905 
3534.000000	99.631342 
3533.000000	99.630471 
3532.000000	99.630078 
3531.000000	99.629406 
3530.000000	99.627876 
3529.000000	99.625756 
3528.000000	99.623961 
3527.000000	99.623262 
3526.000000	99.623866 
3525.000000	99.625578 
3524.000000	99.627907 
3523.000000	99.630038 
3522.000000	99.631195 
3521.000000	99.631269 
3520.000000	99.630949 
3519.000000	99.631046 
3518.000000	99.631671 
3517.000000	99.632162 
3516.000000	99.631801 
3515.000000	99.630494 
3514.000000	99.628794 
3513.000000	99.627370 
3512.000000	99.626509 
3511.000000	99.626049 
3510.000000	99.625646 
3509.000000	99.625034 
3508.000000	99.624056 
3507.000000	99.622642 
3506.000000	99.620886 
3505.000000	99.619181 
3504.000000	99.618124 
3503.000000	99.618146 
3502.000000	99.619230 
3501.000000	99.620966 
3500.000000	99.622738 
3499.000000	99.623862 
3498.000000	99.623814 
3497.000000	99.622539 
3496.000000	99.620502 
3495.000000	99.618336 
3494.000000	99.616429 
3493.000000	99.614891 
3492.000000	99.613766 
3491.000000	99.613075 
3490.000000	99.612708 
3489.000000	99.612420 
3488.000000	99.612002 
3487.000000	99.611427 
3486.000000	99.610838 
3485.000000	99.610394 
3484.000000	99.610118 
3483.000000	99.609819 
3482.000000	99.609207 
3481.000000	99.608148 
3480.000000	99.606799 
3479.000000	99.605495 
3478.000000	99.604493 
3477.000000	99.603868 
3476.000000	99.603575 
3475.000000	99.603485 
3474.000000	99.603369 
3473.000000	99.602974 
3472.000000	99.602188 
3471.000000	99.601100 
3470.000000	99.599903 
3469.000000	99.598745 
3468.000000	99.597689 
3467.000000	99.596769 
3466.000000	99.596008 
3465.000000	99.595374 
3464.000000	99.594772 
3463.000000	99.594109 
3462.000000	99.593355 
3461.000000	99.592538 
3460.000000	99.591727 
3459.000000	99.591014 
3458.000000	99.590464 
3457.000000	99.590049 
3456.000000	99.589633 
3455.000000	99.589071 
3454.000000	99.588340 
3453.000000	99.587523 
3452.000000	99.586680 
3451.000000	99.585786 
3450.000000	99.584890 
3449.000000	99.584225 
3448.000000	99.583980 
3447.000000	99.583887 
3446.000000	99.583291 
3445.000000	99.581861 
3444.000000	99.580108 
3443.000000	99.578937 
3442.000000	99.578638 
3441.000000	99.578608 
3440.000000	99.578061 
3439.000000	99.576886 
3438.000000	99.575589 
3437.000000	99.574673 
3436.000000	99.574273 
3435.000000	99.574236 
3434.000000	99.574286 
3433.000000	99.574140 
3432.000000	99.573637 
3431.000000	99.572812 
3430.000000	99.571827 
3429.000000	99.570942 
3428.000000	99.570558 
3427.000000	99.571087 
3426.000000	99.572529 
3425.000000	99.574242 
3424.000000	99.575385 
3423.000000	99.575655 
3422.000000	99.575463 
3421.000000	99.575372 
3420.000000	99.575508 
3419.000000	99.575578 
3418.000000	99.575298 
3417.000000	99.574618 
3416.000000	99.573606 
3415.000000	99.572287 
3414.000000	99.570668 
3413.000000	99.568882 
3412.000000	99.567222 
3411.000000	99.565969 
3410.000000	99.565192 
3409.000000	99.564801 
3408.000000	99.564732 
3407.000000	99.564939 
3406.000000	99.565219 
3405.000000	99.565254 
3404.000000	99.565000 
3403.000000	99.564948 
3402.000000	99.565765 
3401.000000	99.567602 
3400.000000	99.569792 
3399.000000	99.571219 
3398.000000	99.571104 
3397.000000	99.569461 
3396.000000	99.567087 
3395.000000	99.565049 
3394.000000	99.563976 
3393.000000	99.563827 
3392.000000	99.564189 
3391.000000	99.564666 
3390.000000	99.565024 
3389.000000	99.565147 
3388.000000	99.565057 
3387.000000	99.564984 
3386.000000	99.565254 
3385.000000	99.566060 
3384.000000	99.567334 
3383.000000	99.568766 
3382.000000	99.569912 
3381.000000	99.570424 
3380.000000	99.570317 
3379.000000	99.569994 
3378.000000	99.569878 
3377.000000	99.570030 
3376.000000	99.570250 
3375.000000	99.570447 
3374.000000	99.570726 
3373.000000	99.571112 
3372.000000	99.571431 
3371.000000	99.571605 
3370.000000	99.571896 
3369.000000	99.572659 
3368.000000	99.573896 
3367.000000	99.575158 
3366.000000	99.575946 
3365.000000	99.576156 
3364.000000	99.576108 
3363.000000	99.576216 
3362.000000	99.576573 
3361.000000	99.576906 
3360.000000	99.576952 
3359.000000	99.576860 
3358.000000	99.577102 
3357.000000	99.577907 
3356.000000	99.578913 
3355.000000	99.579486 
3354.000000	99.579413 
3353.000000	99.579105 
3352.000000	99.579107 
3351.000000	99.579524 
3350.000000	99.580051 
3349.000000	99.580459 
3348.000000	99.580862 
3347.000000	99.581457 
3346.000000	99.582208 
3345.000000	99.582922 
3344.000000	99.583568 
3343.000000	99.584365 
3342.000000	99.585529 
3341.000000	99.587011 
3340.000000	99.588520 
3339.000000	99.589747 
3338.000000	99.590495 
3337.000000	99.590738 
3336.000000	99.590685 
3335.000000	99.590758 
3334.000000	99.591359 
3333.000000	99.592570 
3332.000000	99.594093 
3331.000000	99.595512 
3330.000000	99.596563 
3329.000000	99.597162 
3328.000000	99.597267 
3327.000000	99.596862 
3326.000000	99.596123 
3325.000000	99.595480 
3324.000000	99.595379 
3323.000000	99.595959 
3322.000000	99.596964 
3321.000000	99.598078 
3320.000000	99.599357 
3319.000000	99.601132 
3318.000000	99.603432 
3317.000000	99.605679 
3316.000000	99.607157 
3315.000000	99.607774 
3314.000000	99.608126 
3313.000000	99.608790 
3312.000000	99.609730 
3311.000000	99.610547 
3310.000000	99.611125 
3309.000000	99.611773 
3308.000000	99.612790 
3307.000000	99.614103 
3306.000000	99.615378 
3305.000000	99.616366 
3304.000000	99.617066 
3303.000000	99.617670 
3302.000000	99.618401 
3301.000000	99.619279 
3300.000000	99.619944 
3299.000000	99.619830 
3298.000000	99.618667 
3297.000000	99.616893 
3296.000000	99.615510 
3295.000000	99.615353 
3294.000000	99.616559 
3293.000000	99.618655 
3292.000000	99.621018 
3291.000000	99.623289 
3290.000000	99.625352 
3289.000000	99.627066 
3288.000000	99.628134 
3287.000000	99.628297 
3286.000000	99.627713 
3285.000000	99.627124 
3284.000000	99.627429 
3283.000000	99.628948 
3282.000000	99.631121 
3281.000000	99.632959 
3280.000000	99.633875 
3279.000000	99.633980 
3278.000000	99.633728 
3277.000000	99.633482 
3276.000000	99.633404 
3275.000000	99.633474 
3274.000000	99.633445 
3273.000000	99.633000 
3272.000000	99.632181 
3271.000000	99.631506 
3270.000000	99.631408 
3269.000000	99.631720 
3268.000000	99.632029 
3267.000000	99.632432 
3266.000000	99.633444 
3265.000000	99.635106 
3264.000000	99.636691 
3263.000000	99.637578 
3262.000000	99.638074 
3261.000000	99.638969 
3260.000000	99.640501 
3259.000000	99.642201 
3258.000000	99.643684 
3257.000000	99.645081 
3256.000000	99.646520 
3255.000000	99.647613 
3254.000000	99.647905 
3253.000000	99.647615 
3252.000000	99.647523 
3251.000000	99.648087 
3250.000000	99.648999 
3249.000000	99.649761 
3248.000000	99.650400 
3247.000000	99.651316 
3246.000000	99.652543 
3245.000000	99.653430 
3244.000000	99.653201 
3243.000000	99.651663 
3242.000000	99.649385 
3241.000000	99.647330 
3240.000000	99.646246 
3239.000000	99.646318 
3238.000000	99.647346 
3237.000000	99.649067 
3236.000000	99.651227 
3235.000000	99.653391 
3234.000000	99.654959 
3233.000000	99.655583 
3232.000000	99.655497 
3231.000000	99.655284 
3230.000000	99.655341 
3229.000000	99.655751 
3228.000000	99.656578 
3227.000000	99.657967 
3226.000000	99.659821 
3225.000000	99.661667 
3224.000000	99.663000 
3223.000000	99.663690 
3222.000000	99.663930 
3221.000000	99.663952 
3220.000000	99.663940 
3219.000000	99.664115 
3218.000000	99.664657 
3217.000000	99.665526 
3216.000000	99.666477 
3215.000000	99.667295 
3214.000000	99.667959 
3213.000000	99.668576 
3212.000000	99.669212 
3211.000000	99.669806 
3210.000000	99.670219 
3209.000000	99.670389 
3208.000000	99.670452 
3207.000000	99.670672 
3206.000000	99.671204 
3205.000000	99.671960 
3204.000000	99.672720 
3203.000000	99.673351 
3202.000000	99.673897 
3201.000000	99.674473 
3200.000000	99.675128 
3199.000000	99.675831 
3198.000000	99.676534 
3197.000000	99.677221 
3196.000000	99.677886 
3195.000000	99.678524 
3194.000000	99.679135 
3193.000000	99.679725 
3192.000000	99.680301 
3191.000000	99.680868 
3190.000000	99.681428 
3189.000000	99.681981 
3188.000000	99.682524 
3187.000000	99.683055 
3186.000000	99.683576 
3185.000000	99.684089 
3184.000000	99.684599 
3183.000000	99.685106 
3182.000000	99.685607 
3181.000000	99.686099 
3180.000000	99.686585 
3179.000000	99.687069 
3178.000000	99.687559 
3177.000000	99.688057 
3176.000000	99.688560 
3175.000000	99.689063 
3174.000000	99.689560 
3173.000000	99.690049 
3172.000000	99.690530 
3171.000000	99.691004 
3170.000000	99.691475 
3169.000000	99.691949 
3168.000000	99.692427 
3167.000000	99.692907 
3166.000000	99.693385 
3165.000000	99.693867 
3164.000000	99.694364 
3163.000000	99.694879 
3162.000000	99.695392 
3161.000000	99.695886 
3160.000000	99.696362 
3159.000000	99.696828 
3158.000000	99.697273 
3157.000000	99.697675 
3156.000000	99.698046 
3155.000000	99.698430 
3154.000000	99.698836 
3153.000000	99.699181 
3152.000000	99.699383 
3151.000000	99.699509 
3150.000000	99.699756 
3149.000000	99.700216 
3148.000000	99.700793 
3147.000000	99.701346 
3146.000000	99.701877 
3145.000000	99.702497 
3144.000000	99.703268 
3143.000000	99.704106 
3142.000000	99.704815 
3141.000000	99.705248 
3140.000000	99.705433 
3139.000000	99.705589 
3138.000000	99.705950 
3137.000000	99.706538 
3136.000000	99.707174 
3135.000000	99.707714 
3134.000000	99.708187 
3133.000000	99.708687 
3132.000000	99.709219 
3131.000000	99.709723 
3130.000000	99.710199 
3129.000000	99.710725 
3128.000000	99.711357 
3127.000000	99.712085 
3126.000000	99.712872 
3125.000000	99.713700 
3124.000000	99.714547 
3123.000000	99.715329 
3122.000000	99.715931 
3121.000000	99.716314 
3120.000000	99.716579 
3119.000000	99.716898 
3118.000000	99.717364 
3117.000000	99.717927 
3116.000000	99.718488 
3115.000000	99.719031 
3114.000000	99.719625 
3113.000000	99.720335 
3112.000000	99.721142 
3111.000000	99.721980 
3110.000000	99.722795 
3109.000000	99.723541 
3108.000000	99.724175 
3107.000000	99.724675 
3106.000000	99.725103 
3105.000000	99.725607 
3104.000000	99.726329 
3103.000000	99.727279 
3102.000000	99.728295 
3101.000000	99.729161 
3100.000000	99.729818 
3099.000000	99.730394 
3098.000000	99.731015 
3097.000000	99.731633 
3096.000000	99.732139 
3095.000000	99.732612 
3094.000000	99.733295 
3093.000000	99.734304 
3092.000000	99.735422 
3091.000000	99.736254 
3090.000000	99.736600 
3089.000000	99.736564 
3088.000000	99.736438 
3087.000000	99.736461 
3086.000000	99.736678 
3085.000000	99.736985 
3084.000000	99.737311 
3083.000000	99.737766 
3082.000000	99.738510 
3081.000000	99.739488 
3080.000000	99.740401 
3079.000000	99.741035 
3078.000000	99.741524 
3077.000000	99.742182 
3076.000000	99.743120 
3075.000000	99.744132 
3074.000000	99.744902 
3073.000000	99.745266 
3072.000000	99.745274 
3071.000000	99.745127 
3070.000000	99.745059 
3069.000000	99.745220 
3068.000000	99.745639 
3067.000000	99.746266 
3066.000000	99.747014 
3065.000000	99.747741 
3064.000000	99.748278 
3063.000000	99.748519 
3062.000000	99.748464 
3061.000000	99.748182 
3060.000000	99.747804 
3059.000000	99.747563 
3058.000000	99.747726 
3057.000000	99.748363 
3056.000000	99.749221 
3055.000000	99.749892 
3054.000000	99.750184 
3053.000000	99.750270 
3052.000000	99.750513 
3051.000000	99.751116 
3050.000000	99.751950 
3049.000000	99.752680 
3048.000000	99.753124 
3047.000000	99.753463 
3046.000000	99.754033 
3045.000000	99.754936 
3044.000000	99.755944 
3043.000000	99.756781 
3042.000000	99.757457 
3041.000000	99.758198 
3040.000000	99.759141 
3039.000000	99.760160 
3038.000000	99.760995 
3037.000000	99.761519 
3036.000000	99.761844 
3035.000000	99.762232 
3034.000000	99.762865 
3033.000000	99.763733 
3032.000000	99.764724 
3031.000000	99.765775 
3030.000000	99.766892 
3029.000000	99.768053 
3028.000000	99.769162 
3027.000000	99.770124 
3026.000000	99.770943 
3025.000000	99.771738 
3024.000000	99.772655 
3023.000000	99.773748 
3022.000000	99.774929 
3021.000000	99.776025 
3020.000000	99.776926 
3019.000000	99.777700 
3018.000000	99.778540 
3017.000000	99.779567 
3016.000000	99.780736 
3015.000000	99.781973 
3014.000000	99.783312 
3013.000000	99.784817 
3012.000000	99.786409 
3011.000000	99.787860 
3010.000000	99.789020 
3009.000000	99.789944 
3008.000000	99.790845 
3007.000000	99.791899 
3006.000000	99.793091 
3005.000000	99.794288 
3004.000000	99.795403 
3003.000000	99.796486 
3002.000000	99.797630 
3001.000000	99.798843 
3000.000000	99.800036 
2999.000000	99.801139 
2998.000000	99.802171 
2997.000000	99.803173 
2996.000000	99.804140 
2995.000000	99.805050 
2994.000000	99.805945 
2993.000000	99.806905 
2992.000000	99.807962 
2991.000000	99.809078 
2990.000000	99.810176 
2989.000000	99.811188 
2988.000000	99.812085 
2987.000000	99.812900 
2986.000000	99.813724 
2985.000000	99.814639 
2984.000000	99.815636 
2983.000000	99.816603 
2982.000000	99.817419 
2981.000000	99.818063 
2980.000000	99.818667 
2979.000000	99.819423 
2978.000000	99.820439 
2977.000000	99.821637 
2976.000000	99.822810 
2975.000000	99.823817 
2974.000000	99.824695 
2973.000000	99.825568 
2972.000000	99.826473 
2971.000000	99.827344 
2970.000000	99.828152 
2969.000000	99.829017 
2968.000000	99.830080 
2967.000000	99.831300 
2966.000000	99.832454 
2965.000000	99.833390 
2964.000000	99.834268 
2963.000000	99.835440 
2962.000000	99.836906 
2961.000000	99.838077 
2960.000000	99.838371 
2959.000000	99.838029 
2958.000000	99.837973 
2957.000000	99.838718 
2956.000000	99.839782 
2955.000000	99.840341 
2954.000000	99.840127 
2953.000000	99.839413 
2952.000000	99.838479 
2951.000000	99.837472 
2950.000000	99.836615 
2949.000000	99.836205 
2948.000000	99.836480 
2947.000000	99.837633 
2946.000000	99.839670 
2945.000000	99.842051 
2944.000000	99.843834 
2943.000000	99.844569 
2942.000000	99.844827 
2941.000000	99.845533 
2940.000000	99.847084 
2939.000000	99.849439 
2938.000000	99.852588 
2937.000000	99.856196 
2936.000000	99.859028 
2935.000000	99.859797 
2934.000000	99.858848 
2933.000000	99.858305 
2932.000000	99.859987 
2931.000000	99.863457 
2930.000000	99.866614 
2929.000000	99.867992 
2928.000000	99.867925 
2927.000000	99.867557 
2926.000000	99.867414 
2925.000000	99.867249 
2924.000000	99.866951 
2923.000000	99.866893 
2922.000000	99.867210 
2921.000000	99.867233 
2920.000000	99.866134 
2919.000000	99.863960 
2918.000000	99.861585 
2917.000000	99.859613 
2916.000000	99.857809 
2915.000000	99.855778 
2914.000000	99.853728 
2913.000000	99.852157 
2912.000000	99.851114 
2911.000000	99.850283 
2910.000000	99.849734 
2909.000000	99.850079 
2908.000000	99.851672 
2907.000000	99.853920 
2906.000000	99.855587 
2905.000000	99.855798 
2904.000000	99.854638 
2903.000000	99.852917 
2902.000000	99.851491 
2901.000000	99.850723 
2900.000000	99.850433 
2899.000000	99.850180 
2898.000000	99.849565 
2897.000000	99.848397 
2896.000000	99.846791 
2895.000000	99.845195 
2894.000000	99.844180 
2893.000000	99.844003 
2892.000000	99.844339 
2891.000000	99.844512 
2890.000000	99.844120 
2889.000000	99.843424 
2888.000000	99.843047 
2887.000000	99.843294 
2886.000000	99.843845 
2885.000000	99.844058 
2884.000000	99.843565 
2883.000000	99.842485 
2882.000000	99.841207 
2881.000000	99.840079 
2880.000000	99.839256 
2879.000000	99.838771 
2878.000000	99.838599 
2877.000000	99.838642 
2876.000000	99.838749 
2875.000000	99.838793 
2874.000000	99.838682 
2873.000000	99.838317 
2872.000000	99.837596 
2871.000000	99.836554 
2870.000000	99.835418 
2869.000000	99.834453 
2868.000000	99.833788 
2867.000000	99.833438 
2866.000000	99.833412 
2865.000000	99.833661 
2864.000000	99.833948 
2863.000000	99.833940 
2862.000000	99.833498 
2861.000000	99.832845 
2860.000000	99.832408 
2859.000000	99.832492 
2858.000000	99.833056 
2857.000000	99.833753 
2856.000000	99.834197 
2855.000000	99.834159 
2854.000000	99.833537 
2853.000000	99.832297 
2852.000000	99.830613 
2851.000000	99.828931 
2850.000000	99.827578 
2849.000000	99.826349 
2848.000000	99.824877 
2847.000000	99.823405 
2846.000000	99.822695 
2845.000000	99.822968 
2844.000000	99.823390 
2843.000000	99.823035 
2842.000000	99.822030 
2841.000000	99.821193 
2840.000000	99.820778 
2839.000000	99.820196 
2838.000000	99.818931 
2837.000000	99.817151 
2836.000000	99.815364 
2835.000000	99.813924 
2834.000000	99.813007 
2833.000000	99.812658 
2832.000000	99.812589 
2831.000000	99.812230 
2830.000000	99.811286 
2829.000000	99.810142 
2828.000000	99.809506 
2827.000000	99.809707 
2826.000000	99.810452 
2825.000000	99.811165 
2824.000000	99.811500 
2823.000000	99.811547 
2822.000000	99.811631 
2821.000000	99.811908 
2820.000000	99.812168 
2819.000000	99.812033 
2818.000000	99.811333 
2817.000000	99.810216 
2816.000000	99.808950 
2815.000000	99.807751 
2814.000000	99.806787 
2813.000000	99.806238 
2812.000000	99.806179 
2811.000000	99.806440 
2810.000000	99.806655 
2809.000000	99.806534 
2808.000000	99.806088 
2807.000000	99.805604 
2806.000000	99.805399 
2805.000000	99.805609 
2804.000000	99.806170 
2803.000000	99.806897 
2802.000000	99.807541 
2801.000000	99.807856 
2800.000000	99.807728 
2799.000000	99.807285 
2798.000000	99.806866 
2797.000000	99.806773 
2796.000000	99.807034 
2795.000000	99.807428 
2794.000000	99.807693 
2793.000000	99.807754 
2792.000000	99.807715 
2791.000000	99.807718 
2790.000000	99.807796 
2789.000000	99.807868 
2788.000000	99.807859 
2787.000000	99.807783 
2786.000000	99.807722 
2785.000000	99.807725 
2784.000000	99.807778 
2783.000000	99.807863 
2782.000000	99.808006 
2781.000000	99.808228 
2780.000000	99.808469 
2779.000000	99.808616 
2778.000000	99.808626 
2777.000000	99.808566 
2776.000000	99.808531 
2775.000000	99.808549 
2774.000000	99.808600 
2773.000000	99.808707 
2772.000000	99.808925 
2771.000000	99.809237 
2770.000000	99.809494 
2769.000000	99.809513 
2768.000000	99.809258 
2767.000000	99.808919 
2766.000000	99.808777 
2765.000000	99.808962 
2764.000000	99.809406 
2763.000000	99.809975 
2762.000000	99.810577 
2761.000000	99.811106 
2760.000000	99.811382 
2759.000000	99.811273 
2758.000000	99.810844 
2757.000000	99.810262 
2756.000000	99.809614 
2755.000000	99.808953 
2754.000000	99.808488 
2753.000000	99.808489 
2752.000000	99.808947 
2751.000000	99.809492 
2750.000000	99.809696 
2749.000000	99.809420 
2748.000000	99.808806 
2747.000000	99.808125 
2746.000000	99.807638 
2745.000000	99.807467 
2744.000000	99.807482 
2743.000000	99.807388 
2742.000000	99.807068 
2741.000000	99.806778 
2740.000000	99.806848 
2739.000000	99.807286 
2738.000000	99.807803 
2737.000000	99.808169 
2736.000000	99.808374 
2735.000000	99.808433 
2734.000000	99.808239 
2733.000000	99.807748 
2732.000000	99.807217 
2731.000000	99.807059 
2730.000000	99.807433 
2729.000000	99.808071 
2728.000000	99.808556 
2727.000000	99.808792 
2726.000000	99.809077 
2725.000000	99.809694 
2724.000000	99.810520 
2723.000000	99.811139 
2722.000000	99.811316 
2721.000000	99.811203 
2720.000000	99.810996 
2719.000000	99.810653 
2718.000000	99.810073 
2717.000000	99.809418 
2716.000000	99.809048 
2715.000000	99.809154 
2714.000000	99.809596 
2713.000000	99.810086 
2712.000000	99.810468 
2711.000000	99.810761 
2710.000000	99.810991 
2709.000000	99.811128 
2708.000000	99.811162 
2707.000000	99.811149 
2706.000000	99.811143 
2705.000000	99.811132 
2704.000000	99.811075 
2703.000000	99.811004 
2702.000000	99.811017 
2701.000000	99.811179 
2700.000000	99.811440 
2699.000000	99.811663 
2698.000000	99.811754 
2697.000000	99.811737 
2696.000000	99.811688 
2695.000000	99.811641 
2694.000000	99.811558 
2693.000000	99.811404 
2692.000000	99.811210 
2691.000000	99.811055 
2690.000000	99.810974 
2689.000000	99.810933 
2688.000000	99.810882 
2687.000000	99.810795 
2686.000000	99.810671 
2685.000000	99.810518 
2684.000000	99.810332 
2683.000000	99.810097 
2682.000000	99.809813 
2681.000000	99.809517 
2680.000000	99.809261 
2679.000000	99.809062 
2678.000000	99.808898 
2677.000000	99.808719 
2676.000000	99.808514 
2675.000000	99.808321 
2674.000000	99.808159 
2673.000000	99.807991 
2672.000000	99.807781 
2671.000000	99.807540 
2670.000000	99.807326 
2669.000000	99.807187 
2668.000000	99.807092 
2667.000000	99.806943 
2666.000000	99.806695 
2665.000000	99.806419 
2664.000000	99.806224 
2663.000000	99.806149 
2662.000000	99.806128 
2661.000000	99.806078 
2660.000000	99.806006 
2659.000000	99.805950 
2658.000000	99.805788 
2657.000000	99.805223 
2656.000000	99.804110 
2655.000000	99.802759 
2654.000000	99.801746 
2653.000000	99.801421 
2652.000000	99.801798 
2651.000000	99.802693 
2650.000000	99.803616 
2649.000000	99.803684 
2648.000000	99.802251 
2647.000000	99.799776 
2646.000000	99.797687 
2645.000000	99.797017 
2644.000000	99.797641 
2643.000000	99.798843 
2642.000000	99.800110 
2641.000000	99.801117 
2640.000000	99.801562 
2639.000000	99.801572 
2638.000000	99.801862 
2637.000000	99.802867 
2636.000000	99.803942 
2635.000000	99.804054 
2634.000000	99.803197 
2633.000000	99.802654 
2632.000000	99.803804 
2631.000000	99.806881 
2630.000000	99.810767 
2629.000000	99.813707 
2628.000000	99.814445 
2627.000000	99.812942 
2626.000000	99.810180 
2625.000000	99.807241 
2624.000000	99.804652 
2623.000000	99.802630 
2622.000000	99.801303 
2621.000000	99.800273 
2620.000000	99.798471 
2619.000000	99.795166 
2618.000000	99.791048 
2617.000000	99.787799 
2616.000000	99.786579 
2615.000000	99.787256 
2614.000000	99.788848 
2613.000000	99.790307 
2612.000000	99.791175 
2611.000000	99.791937 
2610.000000	99.793643 
2609.000000	99.796710 
2608.000000	99.800152 
2607.000000	99.802388 
2606.000000	99.802841 
2605.000000	99.802430 
2604.000000	99.802598 
2603.000000	99.804140 
2602.000000	99.806724 
2601.000000	99.809085 
2600.000000	99.809935 
2599.000000	99.809128 
2598.000000	99.807910 
2597.000000	99.807546 
2596.000000	99.807830 
2595.000000	99.807530 
2594.000000	99.806114 
2593.000000	99.804297 
2592.000000	99.802910 
2591.000000	99.801959 
2590.000000	99.801105 
2589.000000	99.800480 
2588.000000	99.800609 
2587.000000	99.801763 
2586.000000	99.803663 
2585.000000	99.805597 
2584.000000	99.806768 
2583.000000	99.806828 
2582.000000	99.806145 
2581.000000	99.805401 
2580.000000	99.804866 
2579.000000	99.804306 
2578.000000	99.803578 
2577.000000	99.802942 
2576.000000	99.802683 
2575.000000	99.802757 
2574.000000	99.803033 
2573.000000	99.803586 
2572.000000	99.804547 
2571.000000	99.805792 
2570.000000	99.806936 
2569.000000	99.807636 
2568.000000	99.807836 
2567.000000	99.807751 
2566.000000	99.807733 
2565.000000	99.808032 
2564.000000	99.808637 
2563.000000	99.809329 
2562.000000	99.809905 
2561.000000	99.810319 
2560.000000	99.810604 
2559.000000	99.810793 
2558.000000	99.810940 
2557.000000	99.811125 
2556.000000	99.811397 
2555.000000	99.811736 
2554.000000	99.812099 
2553.000000	99.812497 
2552.000000	99.812961 
2551.000000	99.813476 
2550.000000	99.813947 
2549.000000	99.814288 
2548.000000	99.814496 
2547.000000	99.814645 
2546.000000	99.814842 
2545.000000	99.815161 
2544.000000	99.815621 
2543.000000	99.816168 
2542.000000	99.816691 
2541.000000	99.817113 
2540.000000	99.817445 
2539.000000	99.817743 
2538.000000	99.818018 
2537.000000	99.818242 
2536.000000	99.818436 
2535.000000	99.818705 
2534.000000	99.819114 
2533.000000	99.819588 
2532.000000	99.819977 
2531.000000	99.820221 
2530.000000	99.820421 
2529.000000	99.820750 
2528.000000	99.821319 
2527.000000	99.822098 
2526.000000	99.822886 
2525.000000	99.823378 
2524.000000	99.823359 
2523.000000	99.822859 
2522.000000	99.822198 
2521.000000	99.821792 
2520.000000	99.821818 
2519.000000	99.822096 
2518.000000	99.822251 
2517.000000	99.822101 
2516.000000	99.821836 
2515.000000	99.821807 
2514.000000	99.822195 
2513.000000	99.822956 
2512.000000	99.823948 
2511.000000	99.824953 
2510.000000	99.825666 
2509.000000	99.825878 
2508.000000	99.825711 
2507.000000	99.825462 
2506.000000	99.825238 
2505.000000	99.824971 
2504.000000	99.824729 
2503.000000	99.824691 
2502.000000	99.824741 
2501.000000	99.824436 
2500.000000	99.823572 
2499.000000	99.822575 
2498.000000	99.822098 
2497.000000	99.822355 
2496.000000	99.823084 
2495.000000	99.823903 
2494.000000	99.824549 
2493.000000	99.824852 
2492.000000	99.824766 
2491.000000	99.824470 
2490.000000	99.824208 
2489.000000	99.823980 
2488.000000	99.823616 
2487.000000	99.823133 
2486.000000	99.822805 
2485.000000	99.822834 
2484.000000	99.823127 
2483.000000	99.823461 
2482.000000	99.823710 
2481.000000	99.823864 
2480.000000	99.823935 
2479.000000	99.823917 
2478.000000	99.823811 
2477.000000	99.823660 
2476.000000	99.823548 
2475.000000	99.823528 
2474.000000	99.823537 
2473.000000	99.823430 
2472.000000	99.823129 
2471.000000	99.822731 
2470.000000	99.822404 
2469.000000	99.822237 
2468.000000	99.822264 
2467.000000	99.822544 
2466.000000	99.823081 
2465.000000	99.823681 
2464.000000	99.824033 
2463.000000	99.823999 
2462.000000	99.823689 
2461.000000	99.823304 
2460.000000	99.822945 
2459.000000	99.822652 
2458.000000	99.822517 
2457.000000	99.822616 
2456.000000	99.822916 
2455.000000	99.823289 
2454.000000	99.823571 
2453.000000	99.823598 
2452.000000	99.823314 
2451.000000	99.822924 
2450.000000	99.822835 
2449.000000	99.823270 
2448.000000	99.824073 
2447.000000	99.824878 
2446.000000	99.825443 
2445.000000	99.825743 
2444.000000	99.825843 
2443.000000	99.825840 
2442.000000	99.825866 
2441.000000	99.826013 
2440.000000	99.826242 
2439.000000	99.826447 
2438.000000	99.826626 
2437.000000	99.826918 
2436.000000	99.827458 
2435.000000	99.828242 
2434.000000	99.829075 
2433.000000	99.829654 
2432.000000	99.829793 
2431.000000	99.829585 
2430.000000	99.829314 
2429.000000	99.829168 
2428.000000	99.829110 
2427.000000	99.829067 
2426.000000	99.829115 
2425.000000	99.829372 
2424.000000	99.829753 
2423.000000	99.830003 
2422.000000	99.829985 
2421.000000	99.829832 
2420.000000	99.829800 
2419.000000	99.830046 
2418.000000	99.830575 
2417.000000	99.831290 
2416.000000	99.832022 
2415.000000	99.832586 
2414.000000	99.832937 
2413.000000	99.833254 
2412.000000	99.833763 
2411.000000	99.834420 
2410.000000	99.834866 
2409.000000	99.834811 
2408.000000	99.834403 
2407.000000	99.834142 
2406.000000	99.834366 
2405.000000	99.834940 
2404.000000	99.835545 
2403.000000	99.836126 
2402.000000	99.836879 
2401.000000	99.837845 
2400.000000	99.838727 
2399.000000	99.839136 
2398.000000	99.838896 
2397.000000	99.838104 
2396.000000	99.837133 
2395.000000	99.836569 
2394.000000	99.836905 
2393.000000	99.838127 
2392.000000	99.839615 
2391.000000	99.840653 
2390.000000	99.841029 
2389.000000	99.841042 
2388.000000	99.841115 
2387.000000	99.841498 
2386.000000	99.842229 
2385.000000	99.843176 
2384.000000	99.844094 
2383.000000	99.844826 
2382.000000	99.845509 
2381.000000	99.846482 
2380.000000	99.847893 
2379.000000	99.849437 
2378.000000	99.850549 
2377.000000	99.850815 
2376.000000	99.850196 
2375.000000	99.849040 
2374.000000	99.847976 
2373.000000	99.847604 
2372.000000	99.848044 
2371.000000	99.848785 
2370.000000	99.849087 
2369.000000	99.848745 
2368.000000	99.848206 
2367.000000	99.847939 
2366.000000	99.847873 
2365.000000	99.847540 
2364.000000	99.846651 
2363.000000	99.845435 
2362.000000	99.844448 
2361.000000	99.844022 
2360.000000	99.844066 
2359.000000	99.844146 
2358.000000	99.843856 
2357.000000	99.843126 
2356.000000	99.842190 
2355.000000	99.841437 
2354.000000	99.841107 
2353.000000	99.841142 
2352.000000	99.841213 
2351.000000	99.840957 
2350.000000	99.840293 
2349.000000	99.839313 
2348.000000	99.838214 
2347.000000	99.837204 
2346.000000	99.836369 
2345.000000	99.835662 
2344.000000	99.834920 
2343.000000	99.834216 
2342.000000	99.833635 
2341.000000	99.833118 
2340.000000	99.832581 
2339.000000	99.831934 
2338.000000	99.831149 
2337.000000	99.830215 
2336.000000	99.829258 
2335.000000	99.828488 
2334.000000	99.827893 
2333.000000	99.827127 
2332.000000	99.826074 
2331.000000	99.825285 
2330.000000	99.825558 
2329.000000	99.826137 
2328.000000	99.824958 
2327.000000	99.820711 
2326.000000	99.814669 
2325.000000	99.810064 
2324.000000	99.808795 
2323.000000	99.810315 
2322.000000	99.812421 
2321.000000	99.813899 
2320.000000	99.815079 
2319.000000	99.816397 
2318.000000	99.817469 
2317.000000	99.817583 
2316.000000	99.817026 
2315.000000	99.816797 
2314.000000	99.817642 
2313.000000	99.819208 
2312.000000	99.820746 
2311.000000	99.822096 
2310.000000	99.823910 
2309.000000	99.826721 
2308.000000	99.829932 
2307.000000	99.831907 
2306.000000	99.831034 
2305.000000	99.827176 
2304.000000	99.822111 
2303.000000	99.818552 
2302.000000	99.817960 
2301.000000	99.819464 
2300.000000	99.821115 
2299.000000	99.821927 
2298.000000	99.822092 
2297.000000	99.821407 
2296.000000	99.818724 
2295.000000	99.813530 
2294.000000	99.807356 
2293.000000	99.802795 
2292.000000	99.800958 
2291.000000	99.800658 
2290.000000	99.799914 
2289.000000	99.797987 
2288.000000	99.795762 
2287.000000	99.794511 
2286.000000	99.794376 
2285.000000	99.794117 
2284.000000	99.792465 
2283.000000	99.789913 
2282.000000	99.788648 
2281.000000	99.790238 
2280.000000	99.793854 
2279.000000	99.797282 
2278.000000	99.799355 
2277.000000	99.800565 
2276.000000	99.801459 
2275.000000	99.801578 
2274.000000	99.800616 
2273.000000	99.799767 
2272.000000	99.800864 
2271.000000	99.804272 
2270.000000	99.808309 
2269.000000	99.810780 
2268.000000	99.810746 
2267.000000	99.808733 
2266.000000	99.806014 
2265.000000	99.803966 
2264.000000	99.803524 
2263.000000	99.804621 
2262.000000	99.806105 
2261.000000	99.806713 
2260.000000	99.806445 
2259.000000	99.806629 
2258.000000	99.808440 
2257.000000	99.811651 
2256.000000	99.814909 
2255.000000	99.816964 
2254.000000	99.817468 
2253.000000	99.816820 
2252.000000	99.815757 
2251.000000	99.814997 
2250.000000	99.814974 
2249.000000	99.815724 
2248.000000	99.816991 
2247.000000	99.818389 
2246.000000	99.819463 
2245.000000	99.819849 
2244.000000	99.819575 
2243.000000	99.819066 
2242.000000	99.818687 
2241.000000	99.818398 
2240.000000	99.818076 
2239.000000	99.817910 
2238.000000	99.818084 
2237.000000	99.818216 
2236.000000	99.817770 
2235.000000	99.817111 
2234.000000	99.817503 
2233.000000	99.819744 
2232.000000	99.823300 
2231.000000	99.826791 
2230.000000	99.829066 
2229.000000	99.829710 
2228.000000	99.829012 
2227.000000	99.827828 
2226.000000	99.827083 
2225.000000	99.827072 
2224.000000	99.827553 
2223.000000	99.828756 
2222.000000	99.831534 
2221.000000	99.835556 
2220.000000	99.838201 
2219.000000	99.836954 
2218.000000	99.832464 
2217.000000	99.828190 
2216.000000	99.826488 
2215.000000	99.826663 
2214.000000	99.827006 
2213.000000	99.826893 
2212.000000	99.826302 
2211.000000	99.825047 
2210.000000	99.823644 
2209.000000	99.823616 
2208.000000	99.825615 
2207.000000	99.828220 
2206.000000	99.829981 
2205.000000	99.831668 
2204.000000	99.834889 
2203.000000	99.838901 
2202.000000	99.840675 
2201.000000	99.838666 
2200.000000	99.834513 
2199.000000	99.830722 
2198.000000	99.828164 
2197.000000	99.826387 
2196.000000	99.825283 
2195.000000	99.824868 
2194.000000	99.823942 
2193.000000	99.820878 
2192.000000	99.816236 
2191.000000	99.813014 
2190.000000	99.813115 
2189.000000	99.814528 
2188.000000	99.813419 
2187.000000	99.808645 
2186.000000	99.802764 
2185.000000	99.798841 
2184.000000	99.797937 
2183.000000	99.799808 
2182.000000	99.804011 
2181.000000	99.809591 
2180.000000	99.815269 
2179.000000	99.820825 
2178.000000	99.827009 
2177.000000	99.833529 
2176.000000	99.838491 
2175.000000	99.840720 
2174.000000	99.841422 
2173.000000	99.842667 
2172.000000	99.845039 
2171.000000	99.847595 
2170.000000	99.849241 
2169.000000	99.849173 
2168.000000	99.846920 
2167.000000	99.843368 
2166.000000	99.841244 
2165.000000	99.842805 
2164.000000	99.846949 
2163.000000	99.849876 
2162.000000	99.849414 
2161.000000	99.847775 
2160.000000	99.849191 
2159.000000	99.855318 
2158.000000	99.863739 
2157.000000	99.870203 
2156.000000	99.872579 
2155.000000	99.871687 
2154.000000	99.869867 
2153.000000	99.869095 
2152.000000	99.869877 
2151.000000	99.871534 
2150.000000	99.873132 
2149.000000	99.874118 
2148.000000	99.874277 
2147.000000	99.873475 
2146.000000	99.871800 
2145.000000	99.869932 
2144.000000	99.868961 
2143.000000	99.869516 
2142.000000	99.871127 
2141.000000	99.872632 
2140.000000	99.873337 
2139.000000	99.873715 
2138.000000	99.874826 
2137.000000	99.877133 
2136.000000	99.880091 
2135.000000	99.882765 
2134.000000	99.884361 
2133.000000	99.884127 
2132.000000	99.881554 
2131.000000	99.877157 
2130.000000	99.872518 
2129.000000	99.868973 
2128.000000	99.866445 
2127.000000	99.864097 
2126.000000	99.861912 
2125.000000	99.860840 
2124.000000	99.861206 
2123.000000	99.861641 
2122.000000	99.860141 
2121.000000	99.856083 
2120.000000	99.850943 
2119.000000	99.847088 
2118.000000	99.845851 
2117.000000	99.846907 
2116.000000	99.848905 
2115.000000	99.850804 
2114.000000	99.852436 
2113.000000	99.853517 
2112.000000	99.853342 
2111.000000	99.851894 
2110.000000	99.850532 
2109.000000	99.850710 
2108.000000	99.852160 
2107.000000	99.853186 
2106.000000	99.852837 
2105.000000	99.852000 
2104.000000	99.852023 
2103.000000	99.852892 
2102.000000	99.853318 
2101.000000	99.852332 
2100.000000	99.850209 
2099.000000	99.848005 
2098.000000	99.846704 
2097.000000	99.846783 
2096.000000	99.848111 
2095.000000	99.849924 
2094.000000	99.851107 
2093.000000	99.850992 
2092.000000	99.849728 
2091.000000	99.847973 
2090.000000	99.846341 
2089.000000	99.845042 
2088.000000	99.844090 
2087.000000	99.843576 
2086.000000	99.843583 
2085.000000	99.844009 
2084.000000	99.844598 
2083.000000	99.845118 
2082.000000	99.845437 
2081.000000	99.845544 
2080.000000	99.845650 
2079.000000	99.846148 
2078.000000	99.847175 
2077.000000	99.848232 
2076.000000	99.848567 
2075.000000	99.847959 
2074.000000	99.846902 
2073.000000	99.846055 
2072.000000	99.845689 
2071.000000	99.845827 
2070.000000	99.846542 
2069.000000	99.847655 
2068.000000	99.848377 
2067.000000	99.847978 
2066.000000	99.846922 
2065.000000	99.846681 
2064.000000	99.848106 
2063.000000	99.850539 
2062.000000	99.852794 
2061.000000	99.854449 
2060.000000	99.855672 
2059.000000	99.856360 
2058.000000	99.856155 
2057.000000	99.855228 
2056.000000	99.854341 
2055.000000	99.854022 
2054.000000	99.854094 
2053.000000	99.854161 
2052.000000	99.854241 
2051.000000	99.854786 
2050.000000	99.856400 
2049.000000	99.859569 
2048.000000	99.864332 
2047.000000	99.869808 
2046.000000	99.874243 
2045.000000	99.876274 
2044.000000	99.875943 
2043.000000	99.874486 
2042.000000	99.873326 
2041.000000	99.873160 
2040.000000	99.873995 
2039.000000	99.875474 
2038.000000	99.876993 
2037.000000	99.878003 
2036.000000	99.878580 
2035.000000	99.879501 
2034.000000	99.881384 
2033.000000	99.883845 
2032.000000	99.885835 
2031.000000	99.886795 
2030.000000	99.886993 
2029.000000	99.886807 
2028.000000	99.886250 
2027.000000	99.885394 
2026.000000	99.884763 
2025.000000	99.884918 
2024.000000	99.885821 
2023.000000	99.886833 
2022.000000	99.887285 
2021.000000	99.887031 
2020.000000	99.886455 
2019.000000	99.886120 
2018.000000	99.886288 
2017.000000	99.886781 
2016.000000	99.887199 
2015.000000	99.887312 
2014.000000	99.887223 
2013.000000	99.887167 
2012.000000	99.887225 
2011.000000	99.887272 
2010.000000	99.887186 
2009.000000	99.887003 
2008.000000	99.886860 
2007.000000	99.886835 
2006.000000	99.886851 
2005.000000	99.886725 
2004.000000	99.886353 
2003.000000	99.885801 
2002.000000	99.885257 
2001.000000	99.884893 
2000.000000	99.884738 
1999.000000	99.884701 
1998.000000	99.884683 
1997.000000	99.884661 
1996.000000	99.884638 
1995.000000	99.884604 
1994.000000	99.884552 
1993.000000	99.884492 
1992.000000	99.884443 
1991.000000	99.884415 
1990.000000	99.884418 
1989.000000	99.884460 
1988.000000	99.884541 
1987.000000	99.884648 
1986.000000	99.884762 
1985.000000	99.884870 
1984.000000	99.884970 
1983.000000	99.885068 
1982.000000	99.885179 
1981.000000	99.885312 
1980.000000	99.885476 
1979.000000	99.885667 
1978.000000	99.885878 
1977.000000	99.886094 
1976.000000	99.886297 
1975.000000	99.886471 
1974.000000	99.886602 
1973.000000	99.886689 
1972.000000	99.886735 
1971.000000	99.886758 
1970.000000	99.886778 
1969.000000	99.886816 
1968.000000	99.886875 
1967.000000	99.886938 
1966.000000	99.886980 
1965.000000	99.886986 
1964.000000	99.886966 
1963.000000	99.886948 
1962.000000	99.886964 
1961.000000	99.887022 
1960.000000	99.887102 
1959.000000	99.887161 
1958.000000	99.887168 
1957.000000	99.887114 
1956.000000	99.887013 
1955.000000	99.886890 
1954.000000	99.886762 
1953.000000	99.886633 
1952.000000	99.886490 
1951.000000	99.886314 
1950.000000	99.886084 
1949.000000	99.885790 
1948.000000	99.885432 
1947.000000	99.885016 
1946.000000	99.884554 
1945.000000	99.884060 
1944.000000	99.883545 
1943.000000	99.883019 
1942.000000	99.882484 
1941.000000	99.881938 
1940.000000	99.881373 
1939.000000	99.880778 
1938.000000	99.880143 
1937.000000	99.879468 
1936.000000	99.878760 
1935.000000	99.878029 
1934.000000	99.877280 
1933.000000	99.876511 
1932.000000	99.875724 
1931.000000	99.874933 
1930.000000	99.874156 
1929.000000	99.873403 
1928.000000	99.872666 
1927.000000	99.871923 
1926.000000	99.871160 
1925.000000	99.870376 
1924.000000	99.869586 
1923.000000	99.868801 
1922.000000	99.868018 
1921.000000	99.867228 
1920.000000	99.866420 
1919.000000	99.865590 
1918.000000	99.864745 
1917.000000	99.863895 
1916.000000	99.863056 
1915.000000	99.862244 
1914.000000	99.861456 
1913.000000	99.860675 
1912.000000	99.859889 
1911.000000	99.859093 
1910.000000	99.858289 
1909.000000	99.857488 
1908.000000	99.856711 
1907.000000	99.855983 
1906.000000	99.855317 
1905.000000	99.854720 
1904.000000	99.854174 
1903.000000	99.853635 
1902.000000	99.853060 
1901.000000	99.852472 
1900.000000	99.851955 
1899.000000	99.851541 
1898.000000	99.851166 
1897.000000	99.850756 
1896.000000	99.850331 
1895.000000	99.849920 
1894.000000	99.849458 
1893.000000	99.848887 
1892.000000	99.848351 
1891.000000	99.848124 
1890.000000	99.848332 
1889.000000	99.848760 
1888.000000	99.848999 
1887.000000	99.848780 
1886.000000	99.848060 
1885.000000	99.847081 
1884.000000	99.846242 
1883.000000	99.845752 
1882.000000	99.845450 
1881.000000	99.845100 
1880.000000	99.844797 
1879.000000	99.844790 
1878.000000	99.844945 
1877.000000	99.844718 
1876.000000	99.843794 
1875.000000	99.842491 
1874.000000	99.841383 
1873.000000	99.840675 
1872.000000	99.840210 
1871.000000	99.840054 
1870.000000	99.840702 
1869.000000	99.842473 
1868.000000	99.844781 
1867.000000	99.846453 
1866.000000	99.846922 
1865.000000	99.846499 
1864.000000	99.845936 
1863.000000	99.845772 
1862.000000	99.845927 
1861.000000	99.845983 
1860.000000	99.845708 
1859.000000	99.845162 
1858.000000	99.844446 
1857.000000	99.843672 
1856.000000	99.843140 
1855.000000	99.843181 
1854.000000	99.843776 
1853.000000	99.844466 
1852.000000	99.844806 
1851.000000	99.844765 
1850.000000	99.844607 
1849.000000	99.844551 
1848.000000	99.844615 
1847.000000	99.844701 
1846.000000	99.844738 
1845.000000	99.844772 
1844.000000	99.844906 
1843.000000	99.845128 
1842.000000	99.845276 
1841.000000	99.845244 
1840.000000	99.845148 
1839.000000	99.845233 
1838.000000	99.845580 
1837.000000	99.846006 
1836.000000	99.846300 
1835.000000	99.846455 
1834.000000	99.846571 
1833.000000	99.846626 
1832.000000	99.846508 
1831.000000	99.846206 
1830.000000	99.845879 
1829.000000	99.845689 
1828.000000	99.845644 
1827.000000	99.845675 
1826.000000	99.845664 
1825.000000	99.845517 
1824.000000	99.845236 
1823.000000	99.844921 
1822.000000	99.844649 
1821.000000	99.844417 
1820.000000	99.844205 
1819.000000	99.844005 
1818.000000	99.843817 
1817.000000	99.843630 
1816.000000	99.843433 
1815.000000	99.843223 
1814.000000	99.843009 
1813.000000	99.842800 
1812.000000	99.842604 
1811.000000	99.842415 
1810.000000	99.842218 
1809.000000	99.842005 
1808.000000	99.841785 
1807.000000	99.841568 
1806.000000	99.841344 
1805.000000	99.841098 
1804.000000	99.840845 
1803.000000	99.840628 
1802.000000	99.840472 
1801.000000	99.840343 
1800.000000	99.840187 
1799.000000	99.839981 
1798.000000	99.839747 
1797.000000	99.839507 
1796.000000	99.839271 
1795.000000	99.839044 
1794.000000	99.838837 
1793.000000	99.838681 
1792.000000	99.838617 
1791.000000	99.838647 
1790.000000	99.838728 
1789.000000	99.838796 
1788.000000	99.838815 
1787.000000	99.838790 
1786.000000	99.838764 
1785.000000	99.838780 
1784.000000	99.838836 
1783.000000	99.838903 
1782.000000	99.838953 
1781.000000	99.838977 
1780.000000	99.838990 
1779.000000	99.839030 
1778.000000	99.839124 
1777.000000	99.839266 
1776.000000	99.839413 
1775.000000	99.839522 
1774.000000	99.839567 
1773.000000	99.839531 
1772.000000	99.839416 
1771.000000	99.839287 
1770.000000	99.839236 
1769.000000	99.839286 
1768.000000	99.839393 
1767.000000	99.839522 
1766.000000	99.839688 
1765.000000	99.839882 
1764.000000	99.840028 
1763.000000	99.840051 
1762.000000	99.839961 
1761.000000	99.839868 
1760.000000	99.839860 
1759.000000	99.839937 
1758.000000	99.840065 
1757.000000	99.840215 
1756.000000	99.840357 
1755.000000	99.840448 
1754.000000	99.840474 
1753.000000	99.840452 
1752.000000	99.840426 
1751.000000	99.840433 
1750.000000	99.840447 
1749.000000	99.840378 
1748.000000	99.840167 
1747.000000	99.839861 
1746.000000	99.839576 
1745.000000	99.839382 
1744.000000	99.839251 
1743.000000	99.839109 
1742.000000	99.838930 
1741.000000	99.838750 
1740.000000	99.838594 
1739.000000	99.838423 
1738.000000	99.838194 
1737.000000	99.837909 
1736.000000	99.837600 
1735.000000	99.837304 
1734.000000	99.837046 
1733.000000	99.836812 
1732.000000	99.836583 
1731.000000	99.836353 
1730.000000	99.836111 
1729.000000	99.835858 
1728.000000	99.835601 
1727.000000	99.835345 
1726.000000	99.835086 
1725.000000	99.834811 
1724.000000	99.834502 
1723.000000	99.834157 
1722.000000	99.833785 
1721.000000	99.833407 
1720.000000	99.833041 
1719.000000	99.832701 
1718.000000	99.832381 
1717.000000	99.832064 
1716.000000	99.831733 
1715.000000	99.831384 
1714.000000	99.831022 
1713.000000	99.830653 
1712.000000	99.830284 
1711.000000	99.829916 
1710.000000	99.829549 
1709.000000	99.829185 
1708.000000	99.828827 
1707.000000	99.828478 
1706.000000	99.828137 
1705.000000	99.827805 
1704.000000	99.827479 
1703.000000	99.827147 
1702.000000	99.826797 
1701.000000	99.826424 
1700.000000	99.826037 
1699.000000	99.825643 
1698.000000	99.825243 
1697.000000	99.824841 
1696.000000	99.824449 
1695.000000	99.824079 
1694.000000	99.823730 
1693.000000	99.823390 
1692.000000	99.823042 
1691.000000	99.822680 
1690.000000	99.822305 
1689.000000	99.821922 
1688.000000	99.821531 
1687.000000	99.821135 
1686.000000	99.820745 
1685.000000	99.820380 
1684.000000	99.820036 
1683.000000	99.819666 
1682.000000	99.819250 
1681.000000	99.818810 
1680.000000	99.818362 
1679.000000	99.817928 
1678.000000	99.817526 
1677.000000	99.817163 
1676.000000	99.816836 
1675.000000	99.816510 
1674.000000	99.816147 
1673.000000	99.815753 
1672.000000	99.815345 
1671.000000	99.814903 
1670.000000	99.814377 
1669.000000	99.813740 
1668.000000	99.813110 
1667.000000	99.812650 
1666.000000	99.812384 
1665.000000	99.812211 
1664.000000	99.812022 
1663.000000	99.811745 
1662.000000	99.811282 
1661.000000	99.810587 
1660.000000	99.809805 
1659.000000	99.809197 
1658.000000	99.808955 
1657.000000	99.809067 
1656.000000	99.809299 
1655.000000	99.809329 
1654.000000	99.808874 
1653.000000	99.807578 
1652.000000	99.805640 
1651.000000	99.804248 
1650.000000	99.803570 
1649.000000	99.803066 
1648.000000	99.802693 
1647.000000	99.802458 
1646.000000	99.802060 
1645.000000	99.801376 
1644.000000	99.800753 
1643.000000	99.800335 
1642.000000	99.799961 
1641.000000	99.799345 
1640.000000	99.798365 
1639.000000	99.797368 
1638.000000	99.796932 
1637.000000	99.797210 
1636.000000	99.797453 
1635.000000	99.796790 
1634.000000	99.796056 
1633.000000	99.796433 
1632.000000	99.797605 
1631.000000	99.798736 
1630.000000	99.799401 
1629.000000	99.799621 
1628.000000	99.799499 
1627.000000	99.799042 
1626.000000	99.798315 
1625.000000	99.797511 
1624.000000	99.796935 
1623.000000	99.796985 
1622.000000	99.797877 
1621.000000	99.799410 
1620.000000	99.800991 
1619.000000	99.801906 
1618.000000	99.801724 
1617.000000	99.800649 
1616.000000	99.799523 
1615.000000	99.799156 
1614.000000	99.799741 
1613.000000	99.801025 
1612.000000	99.802723 
1611.000000	99.804655 
1610.000000	99.806697 
1609.000000	99.808704 
1608.000000	99.810428 
1607.000000	99.811608 
1606.000000	99.812180 
1605.000000	99.812378 
1604.000000	99.812609 
1603.000000	99.813167 
1602.000000	99.814100 
1601.000000	99.815262 
1600.000000	99.816551 
1599.000000	99.817975 
1598.000000	99.819490 
1597.000000	99.820884 
1596.000000	99.821909 
1595.000000	99.822529 
1594.000000	99.822996 
1593.000000	99.823646 
1592.000000	99.824655 
1591.000000	99.825997 
1590.000000	99.827542 
1589.000000	99.829118 
1588.000000	99.830600 
1587.000000	99.831987 
1586.000000	99.833358 
1585.000000	99.834721 
1584.000000	99.835982 
1583.000000	99.837090 
1582.000000	99.838139 
1581.000000	99.839268 
1580.000000	99.840465 
1579.000000	99.841601 
1578.000000	99.842632 
1577.000000	99.843714 
1576.000000	99.844968 
1575.000000	99.846229 
1574.000000	99.847322 
1573.000000	99.848222 
1572.000000	99.848982 
1571.000000	99.849855 
1570.000000	99.851274 
1569.000000	99.853398 
1568.000000	99.855826 
1567.000000	99.857952 
1566.000000	99.859373 
1565.000000	99.859994 
1564.000000	99.860090 
1563.000000	99.860049 
1562.000000	99.860023 
1561.000000	99.860018 
1560.000000	99.860353 
1559.000000	99.861716 
1558.000000	99.863530 
1557.000000	99.865026 
1556.000000	99.866415 
1555.000000	99.867658 
1554.000000	99.868606 
1553.000000	99.869171 
1552.000000	99.869380 
1551.000000	99.869454 
1550.000000	99.869742 
1549.000000	99.870416 
1548.000000	99.871260 
1547.000000	99.871974 
1546.000000	99.872517 
1545.000000	99.873113 
1544.000000	99.873844 
1543.000000	99.874390 
1542.000000	99.874425 
1541.000000	99.874055 
1540.000000	99.873826 
1539.000000	99.874040 
1538.000000	99.874578 
1537.000000	99.875196 
1536.000000	99.875681 
1535.000000	99.876031 
1534.000000	99.876380 
1533.000000	99.876752 
1532.000000	99.877038 
1531.000000	99.877222 
1530.000000	99.877359 
1529.000000	99.877438 
1528.000000	99.877382 
1527.000000	99.877124 
1526.000000	99.876766 
1525.000000	99.876521 
1524.000000	99.876465 
1523.000000	99.876499 
1522.000000	99.876535 
1521.000000	99.876579 
1520.000000	99.876668 
1519.000000	99.876813 
1518.000000	99.876967 
1517.000000	99.877090 
1516.000000	99.877107 
1515.000000	99.876938 
1514.000000	99.876582 
1513.000000	99.876150 
1512.000000	99.875844 
1511.000000	99.875837 
1510.000000	99.876141 
1509.000000	99.876658 
1508.000000	99.877194 
1507.000000	99.877306 
1506.000000	99.876565 
1505.000000	99.875481 
1504.000000	99.874825 
1503.000000	99.874488 
1502.000000	99.874191 
1501.000000	99.873852 
1500.000000	99.873563 
1499.000000	99.873453 
1498.000000	99.873456 
1497.000000	99.873219 
1496.000000	99.872448 
1495.000000	99.871390 
1494.000000	99.870571 
1493.000000	99.870165 
1492.000000	99.869928 
1491.000000	99.869489 
1490.000000	99.868770 
1489.000000	99.868137 
1488.000000	99.867937 
1487.000000	99.868088 
1486.000000	99.868305 
1485.000000	99.868491 
1484.000000	99.868742 
1483.000000	99.869039 
1482.000000	99.869168 
1481.000000	99.868974 
1480.000000	99.868528 
1479.000000	99.867979 
1478.000000	99.867376 
1477.000000	99.866795 
1476.000000	99.866390 
1475.000000	99.866148 
1474.000000	99.865696 
1473.000000	99.864725 
1472.000000	99.863576 
1471.000000	99.862939 
1470.000000	99.862972 
1469.000000	99.863285 
1468.000000	99.863568 
1467.000000	99.863826 
1466.000000	99.864032 
1465.000000	99.863949 
1464.000000	99.863576 
1463.000000	99.863344 
1462.000000	99.863416 
1461.000000	99.863257 
1460.000000	99.862304 
1459.000000	99.860586 
1458.000000	99.858858 
1457.000000	99.857888 
1456.000000	99.857687 
1455.000000	99.858143 
1454.000000	99.859107 
1453.000000	99.860070 
1452.000000	99.860416 
1451.000000	99.859765 
1450.000000	99.858282 
1449.000000	99.856554 
1448.000000	99.855175 
1447.000000	99.854440 
1446.000000	99.854204 
1445.000000	99.854091 
1444.000000	99.853766 
1443.000000	99.853149 
1442.000000	99.852464 
1441.000000	99.851885 
1440.000000	99.851190 
1439.000000	99.849955 
1438.000000	99.848185 
1437.000000	99.846798 
1436.000000	99.846886 
1435.000000	99.848412 
1434.000000	99.850368 
1433.000000	99.851816 
1432.000000	99.852370 
1431.000000	99.852193 
1430.000000	99.851782 
1429.000000	99.851554 
1428.000000	99.851560 
1427.000000	99.851634 
1426.000000	99.851662 
1425.000000	99.851858 
1424.000000	99.852631 
1423.000000	99.853992 
1422.000000	99.855389 
1421.000000	99.856212 
1420.000000	99.856353 
1419.000000	99.856370 
1418.000000	99.856670 
1417.000000	99.856890 
1416.000000	99.856620 
1415.000000	99.856109 
1414.000000	99.856064 
1413.000000	99.856776 
1412.000000	99.857725 
1411.000000	99.858321 
1410.000000	99.858769 
1409.000000	99.859739 
1408.000000	99.861421 
1407.000000	99.863306 
1406.000000	99.864730 
1405.000000	99.865466 
1404.000000	99.865825 
1403.000000	99.866243 
1402.000000	99.866783 
1401.000000	99.867139 
1400.000000	99.867176 
1399.000000	99.867323 
1398.000000	99.868157 
1397.000000	99.869677 
1396.000000	99.871285 
1395.000000	99.872401 
1394.000000	99.872994 
1393.000000	99.873491 
1392.000000	99.874196 
1391.000000	99.875079 
1390.000000	99.876084 
1389.000000	99.877294 
1388.000000	99.878792 
1387.000000	99.880413 
1386.000000	99.881717 
1385.000000	99.882288 
1384.000000	99.882055 
1383.000000	99.881453 
1382.000000	99.881235 
1381.000000	99.881784 
1380.000000	99.882815 
1379.000000	99.883846 
1378.000000	99.884685 
1377.000000	99.885335 
1376.000000	99.885716 
1375.000000	99.885775 
1374.000000	99.885657 
1373.000000	99.885485 
1372.000000	99.885157 
1371.000000	99.884601 
1370.000000	99.884086 
1369.000000	99.884046 
1368.000000	99.884583 
1367.000000	99.885334 
1366.000000	99.885846 
1365.000000	99.885964 
1364.000000	99.885867 
1363.000000	99.885871 
1362.000000	99.886142 
1361.000000	99.886562 
1360.000000	99.886920 
1359.000000	99.887136 
1358.000000	99.887246 
1357.000000	99.887266 
1356.000000	99.887166 
1355.000000	99.886986 
1354.000000	99.886855 
1353.000000	99.886858 
1352.000000	99.886956 
1351.000000	99.887066 
1350.000000	99.887130 
1349.000000	99.887134 
1348.000000	99.887089 
1347.000000	99.887031 
1346.000000	99.886999 
1345.000000	99.887002 
1344.000000	99.887017 
1343.000000	99.887024 
1342.000000	99.887020 
1341.000000	99.887022 
1340.000000	99.887034 
1339.000000	99.887042 
1338.000000	99.887030 
1337.000000	99.887010 
1336.000000	99.887007 
1335.000000	99.887032 
1334.000000	99.887075 
1333.000000	99.887113 
1332.000000	99.887114 
1331.000000	99.887052 
1330.000000	99.886938 
1329.000000	99.886834 
1328.000000	99.886803 
1327.000000	99.886859 
1326.000000	99.886987 
1325.000000	99.887166 
1324.000000	99.887330 
1323.000000	99.887361 
1322.000000	99.887190 
1321.000000	99.886928 
1320.000000	99.886800 
1319.000000	99.886895 
1318.000000	99.887053 
1317.000000	99.887053 
1316.000000	99.886918 
1315.000000	99.886878 
1314.000000	99.887068 
1313.000000	99.887340 
1312.000000	99.887440 
1311.000000	99.887311 
1310.000000	99.887143 
1309.000000	99.887128 
1308.000000	99.887249 
1307.000000	99.887350 
1306.000000	99.887355 
1305.000000	99.887347 
1304.000000	99.887430 
1303.000000	99.887575 
1302.000000	99.887589 
1301.000000	99.887224 
1300.000000	99.886397 
1299.000000	99.885419 
1298.000000	99.884902 
1297.000000	99.885237 
1296.000000	99.886163 
1295.000000	99.886936 
1294.000000	99.887031 
1293.000000	99.886543 
1292.000000	99.885951 
1291.000000	99.885697 
1290.000000	99.885976 
1289.000000	99.886612 
1288.000000	99.887058 
1287.000000	99.886831 
1286.000000	99.886080 
1285.000000	99.885415 
1284.000000	99.885034 
1283.000000	99.884377 
1282.000000	99.882876 
1281.000000	99.880750 
1280.000000	99.878852 
1279.000000	99.878023 
1278.000000	99.878692 
1277.000000	99.880557 
1276.000000	99.882321 
1275.000000	99.882438 
1274.000000	99.880731 
1273.000000	99.878877 
1272.000000	99.878669 
1271.000000	99.880130 
1270.000000	99.881982 
1269.000000	99.883508 
1268.000000	99.884935 
1267.000000	99.886291 
1266.000000	99.887217 
1265.000000	99.888039 
1264.000000	99.889737 
1263.000000	99.892211 
1262.000000	99.893611 
1261.000000	99.892305 
1260.000000	99.888888 
1259.000000	99.885417 
1258.000000	99.883070 
1257.000000	99.881576 
1256.000000	99.880691 
1255.000000	99.880917 
1254.000000	99.882388 
1253.000000	99.884180 
1252.000000	99.885488 
1251.000000	99.886771 
1250.000000	99.888753 
1249.000000	99.890683 
1248.000000	99.890758 
1247.000000	99.888408 
1246.000000	99.885228 
1245.000000	99.883169 
1244.000000	99.882424 
1243.000000	99.881661 
1242.000000	99.879937 
1241.000000	99.877821 
1240.000000	99.876756 
1239.000000	99.877655 
1238.000000	99.879977 
1237.000000	99.881953 
1236.000000	99.881910 
1235.000000	99.879637 
1234.000000	99.876431 
1233.000000	99.873670 
1232.000000	99.871520 
1231.000000	99.869193 
1230.000000	99.866191 
1229.000000	99.862937 
1228.000000	99.860147 
1227.000000	99.857545 
1226.000000	99.853256 
1225.000000	99.844965 
1224.000000	99.832294 
1223.000000	99.817957 
1222.000000	99.805648 
1221.000000	99.796362 
1220.000000	99.787653 
1219.000000	99.776855 
1218.000000	99.764017 
1217.000000	99.751054 
1216.000000	99.738915 
1215.000000	99.726839 
1214.000000	99.714061 
1213.000000	99.700871 
1212.000000	99.687619 
1211.000000	99.673681 
1210.000000	99.658203 
1209.000000	99.641577 
1208.000000	99.625546 
1207.000000	99.611689 
1206.000000	99.599862 
1205.000000	99.588204 
1204.000000	99.574703 
1203.000000	99.558879 
1202.000000	99.542115 
1201.000000	99.526504 
1200.000000	99.513351 
1199.000000	99.502538 
1198.000000	99.492936 
1197.000000	99.483192 
1196.000000	99.472165 
1195.000000	99.459065 
1194.000000	99.443824 
1193.000000	99.427478 
1192.000000	99.411725 
1191.000000	99.397613 
1190.000000	99.384731 
1189.000000	99.371895 
1188.000000	99.358290 
1187.000000	99.343593 
1186.000000	99.327526 
1185.000000	99.310232 
1184.000000	99.292986 
1183.000000	99.277540 
1182.000000	99.264418 
1181.000000	99.252393 
1180.000000	99.239659 
1179.000000	99.224839 
1178.000000	99.207118 
1177.000000	99.186728 
1176.000000	99.165677 
1175.000000	99.146687 
1174.000000	99.130473 
1173.000000	99.114743 
1172.000000	99.096430 
1171.000000	99.074295 
1170.000000	99.049271 
1169.000000	99.023583 
1168.000000	99.000065 
1167.000000	98.980801 
1166.000000	98.965354 
1165.000000	98.951562 
1164.000000	98.939098 
1163.000000	98.931017 
1162.000000	98.930577 
1161.000000	98.937598 
1160.000000	98.948799 
1159.000000	98.960285 
1158.000000	98.968466 
1157.000000	98.970206 
1156.000000	98.964574 
1155.000000	98.954161 
1154.000000	98.942787 
1153.000000	98.931762 
1152.000000	98.919810 
1151.000000	98.906077 
1150.000000	98.891087 
1149.000000	98.874917 
1148.000000	98.856897 
1147.000000	98.837796 
1146.000000	98.820117 
1145.000000	98.804896 
1144.000000	98.789729 
1143.000000	98.771499 
1142.000000	98.750239 
1141.000000	98.728928 
1140.000000	98.709845 
1139.000000	98.692289 
1138.000000	98.673922 
1137.000000	98.653346 
1136.000000	98.630919 
1135.000000	98.607728 
1134.000000	98.584517 
1133.000000	98.561588 
1132.000000	98.538967 
1131.000000	98.516275 
1130.000000	98.493090 
1129.000000	98.470128 
1128.000000	98.449225 
1127.000000	98.430670 
1126.000000	98.410986 
1125.000000	98.385454 
1124.000000	98.353417 
1123.000000	98.319539 
1122.000000	98.288913 
1121.000000	98.262272 
1120.000000	98.237223 
1119.000000	98.212584 
1118.000000	98.189488 
1117.000000	98.168843 
1116.000000	98.149519 
1115.000000	98.129202 
1114.000000	98.106124 
1113.000000	98.080007 
1112.000000	98.052127 
1111.000000	98.024521 
1110.000000	97.998615 
1109.000000	97.974498 
1108.000000	97.951386 
1107.000000	97.928164 
1106.000000	97.903515 
1105.000000	97.876571 
1104.000000	97.847984 
1103.000000	97.819765 
1102.000000	97.793766 
1101.000000	97.770789 
1100.000000	97.750834 
1099.000000	97.732949 
1098.000000	97.715028 
1097.000000	97.695362 
1096.000000	97.674546 
1095.000000	97.654389 
1094.000000	97.634983 
1093.000000	97.614760 
1092.000000	97.593650 
1091.000000	97.573949 
1090.000000	97.557181 
1089.000000	97.542025 
1088.000000	97.526324 
1087.000000	97.509500 
1086.000000	97.492105 
1085.000000	97.474671 
1084.000000	97.458193 
1083.000000	97.444455 
1082.000000	97.434623 
1081.000000	97.428071 
1080.000000	97.422854 
1079.000000	97.416491 
1078.000000	97.406627 
1077.000000	97.392445 
1076.000000	97.375303 
1075.000000	97.356573 
1074.000000	97.335466 
1073.000000	97.310924 
1072.000000	97.284791 
1071.000000	97.260169 
1070.000000	97.236727 
1069.000000	97.210948 
1068.000000	97.181561 
1067.000000	97.151454 
1066.000000	97.123122 
1065.000000	97.095095 
1064.000000	97.064404 
1063.000000	97.030093 
1062.000000	96.993091 
1061.000000	96.955193 
1060.000000	96.919517 
1059.000000	96.889487 
1058.000000	96.865558 
1057.000000	96.844636 
1056.000000	96.823554 
1055.000000	96.800930 
1054.000000	96.775119 
1053.000000	96.743469 
1052.000000	96.705349 
1051.000000	96.663649 
1050.000000	96.621642 
1049.000000	96.580392 
1048.000000	96.539917 
1047.000000	96.499448 
1046.000000	96.455748 
1045.000000	96.405301 
1044.000000	96.349847 
1043.000000	96.296340 
1042.000000	96.249331 
1041.000000	96.206113 
1040.000000	96.161150 
1039.000000	96.112400 
1038.000000	96.061507 
1037.000000	96.011024 
1036.000000	95.964028 
1035.000000	95.923717 
1034.000000	95.890518 
1033.000000	95.861447 
1032.000000	95.834156 
1031.000000	95.809413 
1030.000000	95.787974 
1029.000000	95.767821 
1028.000000	95.746770 
1027.000000	95.725530 
1026.000000	95.705980 
1025.000000	95.688350 
1024.000000	95.672149 
1023.000000	95.658099 
1022.000000	95.647054 
1021.000000	95.638125 
1020.000000	95.629205 
1019.000000	95.618495 
1018.000000	95.605151 
1017.000000	95.589894 
1016.000000	95.575081 
1015.000000	95.562493 
1014.000000	95.551242 
1013.000000	95.539658 
1012.000000	95.528247 
1011.000000	95.517965 
1010.000000	95.506654 
1009.000000	95.491151 
1008.000000	95.472742 
1007.000000	95.456357 
1006.000000	95.444216 
1005.000000	95.434544 
1004.000000	95.426960 
1003.000000	95.424247 
1002.000000	95.427321 
1001.000000	95.432845 
1000.000000	95.437731 
999.000000	 95.442283 
998.000000	 95.447184 
997.000000	 95.451239 
996.000000	 95.454104 
995.000000	 95.457855 
994.000000	 95.463649 
993.000000	 95.469650 
992.000000	 95.474209 
991.000000	 95.478715 
990.000000	 95.485805 
989.000000	 95.496877 
988.000000	 95.512002 
987.000000	 95.529651 
986.000000	 95.546237 
985.000000	 95.559468 
984.000000	 95.572698 
983.000000	 95.592179 
982.000000	 95.619159 
981.000000	 95.648375 
980.000000	 95.675411 
979.000000	 95.701873 
978.000000	 95.731967 
977.000000	 95.767751 
976.000000	 95.808956 
975.000000	 95.853453 
974.000000	 95.896411 
973.000000	 95.933195 
972.000000	 95.965101 
971.000000	 95.998552 
970.000000	 96.036915 
969.000000	 96.077080 
968.000000	 96.115979 
967.000000	 96.155798 
966.000000	 96.199330 
965.000000	 96.244143 
964.000000	 96.285725 
963.000000	 96.323976 
962.000000	 96.362524 
961.000000	 96.403092 
960.000000	 96.444123 
959.000000	 96.484047 
958.000000	 96.522757 
957.000000	 96.560125 
956.000000	 96.595463 
955.000000	 96.628514 
954.000000	 96.659687 
953.000000	 96.689605 
952.000000	 96.718881 
951.000000	 96.747252 
950.000000	 96.772795 
949.000000	 96.794148 
948.000000	 96.813953 
947.000000	 96.837012 
946.000000	 96.863458 
945.000000	 96.887139 
944.000000	 96.903455 
943.000000	 96.915874 
942.000000	 96.931486 
941.000000	 96.951853 
940.000000	 96.972005 
939.000000	 96.987419 
938.000000	 96.998308 
937.000000	 97.007481 
936.000000	 97.017156 
935.000000	 97.028313 
934.000000	 97.040986 
933.000000	 97.054718 
932.000000	 97.069871 
931.000000	 97.087636 
930.000000	 97.107267 
929.000000	 97.124845 
928.000000	 97.137464 
927.000000	 97.147693 
926.000000	 97.160843 
925.000000	 97.178014 
924.000000	 97.194966 
923.000000	 97.208164 
922.000000	 97.218716 
921.000000	 97.229042 
920.000000	 97.238600 
919.000000	 97.245444 
918.000000	 97.250531 
917.000000	 97.257551 
916.000000	 97.268269 
915.000000	 97.280148 
914.000000	 97.290000 
913.000000	 97.299166 
912.000000	 97.313075 
911.000000	 97.334995 
910.000000	 97.361932 
909.000000	 97.388531 
908.000000	 97.414254 
907.000000	 97.443977 
906.000000	 97.481409 
905.000000	 97.524837 
904.000000	 97.570039 
903.000000	 97.614461 
902.000000	 97.657070 
901.000000	 97.697185 
900.000000	 97.736557 
899.000000	 97.780703 
898.000000	 97.834175 
897.000000	 97.894341 
896.000000	 97.952587 
895.000000	 98.002273 
894.000000	 98.043635 
893.000000	 98.081005 
892.000000	 98.118251 
891.000000	 98.157741 
890.000000	 98.200475 
889.000000	 98.244628 
888.000000	 98.285741 
887.000000	 98.321085 
886.000000	 98.353288 
885.000000	 98.387477 
884.000000	 98.425079 
883.000000	 98.462552 
882.000000	 98.496289 
881.000000	 98.526728 
880.000000	 98.556909 
879.000000	 98.588468 
878.000000	 98.620210 
877.000000	 98.650402 
876.000000	 98.679966 
875.000000	 98.712810 
874.000000	 98.751840 
873.000000	 98.794587 
872.000000	 98.834823 
871.000000	 98.869647 
870.000000	 98.902709 
869.000000	 98.938290 
868.000000	 98.974627 
867.000000	 99.006831 
866.000000	 99.034868 
865.000000	 99.063997 
864.000000	 99.097293 
863.000000	 99.132432 
862.000000	 99.167021 
861.000000	 99.202283 
860.000000	 99.238574 
859.000000	 99.271129 
858.000000	 99.294489 
857.000000	 99.309581 
856.000000	 99.323643 
855.000000	 99.344098 
854.000000	 99.373685 
853.000000	 99.409189 
852.000000	 99.442632 
851.000000	 99.466007 
850.000000	 99.478132 
849.000000	 99.485797 
848.000000	 99.495789 
847.000000	 99.507132 
846.000000	 99.513734 
845.000000	 99.512775 
844.000000	 99.507213 
843.000000	 99.501402 
842.000000	 99.497724 
841.000000	 99.496851 
840.000000	 99.497679 
839.000000	 99.496415 
838.000000	 99.488460 
837.000000	 99.472392 
836.000000	 99.451046 
835.000000	 99.428941 
834.000000	 99.409760 
833.000000	 99.395206 
832.000000	 99.384235 
831.000000	 99.374235 
830.000000	 99.365358 
829.000000	 99.362672 
828.000000	 99.370434 
827.000000	 99.384701 
826.000000	 99.396471 
825.000000	 99.402981 
824.000000	 99.410170 
823.000000	 99.422115 
822.000000	 99.434970 
821.000000	 99.445156 
820.000000	 99.456438 
819.000000	 99.472735 
818.000000	 99.488493 
817.000000	 99.492820 
816.000000	 99.481899 
815.000000	 99.462325 
814.000000	 99.441921 
813.000000	 99.421238 
812.000000	 99.395224 
811.000000	 99.358880 
810.000000	 99.308561 
809.000000	 99.241481 
808.000000	 99.158335 
807.000000	 99.065204 
806.000000	 98.968907 
805.000000	 98.870850 
804.000000	 98.769015 
803.000000	 98.665683 
802.000000	 98.569101 
801.000000	 98.487028 
800.000000	 98.422624 
799.000000	 98.377410 
798.000000	 98.353798 
797.000000	 98.352032 
796.000000	 98.367029 
795.000000	 98.391066 
794.000000	 98.418950 
793.000000	 98.448671 
792.000000	 98.478090 
791.000000	 98.504292 
790.000000	 98.526396 
789.000000	 98.545343 
788.000000	 98.559178 
787.000000	 98.561823 
786.000000	 98.549219 
785.000000	 98.524037 
784.000000	 98.491228 
783.000000	 98.451735 
782.000000	 98.405263 
781.000000	 98.357986 
780.000000	 98.321642 
779.000000	 98.303148 
778.000000	 98.298933 
777.000000	 98.301630 
776.000000	 98.309450 
775.000000	 98.326627 
774.000000	 98.357394 
773.000000	 98.402113 
772.000000	 98.456760 
771.000000	 98.513103 
770.000000	 98.561586 
769.000000	 98.597311 
768.000000	 98.622184 
767.000000	 98.640076 
766.000000	 98.652532 
765.000000	 98.661033 
764.000000	 98.669890 
763.000000	 98.682741 
762.000000	 98.697666 
761.000000	 98.709551 
760.000000	 98.716773 
759.000000	 98.722804 
758.000000	 98.732292 
757.000000	 98.748257 
756.000000	 98.771760 
755.000000	 98.800683 
754.000000	 98.829318 
753.000000	 98.852357 
752.000000	 98.868990 
751.000000	 98.881142 
750.000000	 98.889737 
749.000000	 98.896173 
748.000000	 98.905617 
747.000000	 98.923592 
746.000000	 98.949047 
745.000000	 98.975645 
744.000000	 99.000754 
743.000000	 99.028167 
742.000000	 99.060226 
741.000000	 99.092474 
740.000000	 99.119451 
739.000000	 99.141995 
738.000000	 99.165157 
737.000000	 99.191305 
736.000000	 99.218566 
735.000000	 99.244028 
734.000000	 99.265065 
733.000000	 99.279204 
732.000000	 99.286422 
731.000000	 99.291124 
730.000000	 99.298449 
729.000000	 99.308348 
728.000000	 99.316376 
727.000000	 99.320883 
726.000000	 99.326807 
725.000000	 99.341374 
724.000000	 99.367590 
723.000000	 99.402210 
722.000000	 99.438032 
721.000000	 99.467678 
720.000000	 99.487434 
719.000000	 99.499043 
718.000000	 99.506923 
717.000000	 99.513233 
716.000000	 99.516951 
715.000000	 99.517830 
714.000000	 99.519379 
713.000000	 99.526967 
712.000000	 99.543458 
711.000000	 99.566391 
710.000000	 99.588424 
709.000000	 99.601184 
708.000000	 99.601091 
707.000000	 99.592092 
706.000000	 99.581357 
705.000000	 99.572492 
704.000000	 99.564715 
703.000000	 99.557097 
702.000000	 99.549056 
701.000000	 99.535864 
700.000000	 99.508558 
699.000000	 99.462251 
698.000000	 99.403262 
697.000000	 99.346328 
696.000000	 99.305949 
695.000000	 99.290639 
694.000000	 99.301349 
693.000000	 99.331064 
692.000000	 99.367031 
691.000000	 99.397743 
690.000000	 99.419047 
689.000000	 99.433348 
688.000000	 99.445640 
687.000000	 99.461859 
686.000000	 99.486590 
685.000000	 99.517402 
684.000000	 99.543678 
683.000000	 99.556324 
682.000000	 99.558159 
681.000000	 99.560504 
680.000000	 99.569972 
679.000000	 99.583459 
678.000000	 99.596459 
677.000000	 99.610240 
676.000000	 99.628228 
675.000000	 99.649482 
674.000000	 99.670272 
673.000000	 99.689090 
672.000000	 99.705962 
671.000000	 99.719035 
670.000000	 99.725278 
669.000000	 99.722284 
668.000000	 99.708358 
667.000000	 99.693308 
666.000000	 99.693679 
665.000000	 99.708740 
664.000000	 99.731269 
663.000000	 99.757096 
662.000000	 99.780685 
661.000000	 99.794784 
660.000000	 99.795264 
659.000000	 99.786018 
658.000000	 99.779286 
657.000000	 99.787052 
656.000000	 99.810984 
655.000000	 99.841250 
654.000000	 99.864989 
653.000000	 99.877144 
652.000000	 99.881407 
651.000000	 99.884833 
650.000000	 99.892791 

