4000.000000	99.353896 
3999.000000	99.353528 
3998.000000	99.353126 
3997.000000	99.352652 
3996.000000	99.352097 
3995.000000	99.351525 
3994.000000	99.351040 
3993.000000	99.350702 
3992.000000	99.350473 
3991.000000	99.350236 
3990.000000	99.349892 
3989.000000	99.349427 
3988.000000	99.348937 
3987.000000	99.348557 
3986.000000	99.348342 
3985.000000	99.348225 
3984.000000	99.348062 
3983.000000	99.347759 
3982.000000	99.347311 
3981.000000	99.346785 
3980.000000	99.346261 
3979.000000	99.345769 
3978.000000	99.345322 
3977.000000	99.344960 
3976.000000	99.344740 
3975.000000	99.344671 
3974.000000	99.344679 
3973.000000	99.344615 
3972.000000	99.344365 
3971.000000	99.343928 
3970.000000	99.343388 
3969.000000	99.342838 
3968.000000	99.342335 
3967.000000	99.341897 
3966.000000	99.341520 
3965.000000	99.341211 
3964.000000	99.340962 
3963.000000	99.340723 
3962.000000	99.340422 
3961.000000	99.340020 
3960.000000	99.339549 
3959.000000	99.339096 
3958.000000	99.338740 
3957.000000	99.338493 
3956.000000	99.338311 
3955.000000	99.338142 
3954.000000	99.337971 
3953.000000	99.337816 
3952.000000	99.337687 
3951.000000	99.337575 
3950.000000	99.337463 
3949.000000	99.337347 
3948.000000	99.337239 
3947.000000	99.337114 
3946.000000	99.336912 
3945.000000	99.336615 
3944.000000	99.336315 
3943.000000	99.336133 
3942.000000	99.336110 
3941.000000	99.336180 
3940.000000	99.336194 
3939.000000	99.335966 
3938.000000	99.335357 
3937.000000	99.334374 
3936.000000	99.333290 
3935.000000	99.332572 
3934.000000	99.332619 
3933.000000	99.333500 
3932.000000	99.334806 
3931.000000	99.335802 
3930.000000	99.335927 
3929.000000	99.335165 
3928.000000	99.334017 
3927.000000	99.333121 
3926.000000	99.332860 
3925.000000	99.333156 
3924.000000	99.333558 
3923.000000	99.333657 
3922.000000	99.333404 
3921.000000	99.333095 
3920.000000	99.333046 
3919.000000	99.333338 
3918.000000	99.333865 
3917.000000	99.334487 
3916.000000	99.335115 
3915.000000	99.335677 
3914.000000	99.336197 
3913.000000	99.336744 
3912.000000	99.337269 
3911.000000	99.337663 
3910.000000	99.337877 
3909.000000	99.337952 
3908.000000	99.337886 
3907.000000	99.337378 
3906.000000	99.335971 
3905.000000	99.333417 
3904.000000	99.329990 
3903.000000	99.326657 
3902.000000	99.324623 
3901.000000	99.324577 
3900.000000	99.326352 
3899.000000	99.328866 
3898.000000	99.330826 
3897.000000	99.331625 
3896.000000	99.331384 
3895.000000	99.330587 
3894.000000	99.329729 
3893.000000	99.329087 
3892.000000	99.328647 
3891.000000	99.328218 
3890.000000	99.327679 
3889.000000	99.327046 
3888.000000	99.326522 
3887.000000	99.326438 
3886.000000	99.326908 
3885.000000	99.327546 
3884.000000	99.327820 
3883.000000	99.327640 
3882.000000	99.327424 
3881.000000	99.327591 
3880.000000	99.328121 
3879.000000	99.328622 
3878.000000	99.328854 
3877.000000	99.328955 
3876.000000	99.329177 
3875.000000	99.329512 
3874.000000	99.329654 
3873.000000	99.329393 
3872.000000	99.328905 
3871.000000	99.328549 
3870.000000	99.328504 
3869.000000	99.328665 
3868.000000	99.328861 
3867.000000	99.329019 
3866.000000	99.329158 
3865.000000	99.329301 
3864.000000	99.329448 
3863.000000	99.329606 
3862.000000	99.329786 
3861.000000	99.329990 
3860.000000	99.330205 
3859.000000	99.330420 
3858.000000	99.330628 
3857.000000	99.330827 
3856.000000	99.331022 
3855.000000	99.331223 
3854.000000	99.331436 
3853.000000	99.331666 
3852.000000	99.331912 
3851.000000	99.332172 
3850.000000	99.332443 
3849.000000	99.332724 
3848.000000	99.333014 
3847.000000	99.333312 
3846.000000	99.333611 
3845.000000	99.333909 
3844.000000	99.334204 
3843.000000	99.334499 
3842.000000	99.334799 
3841.000000	99.335104 
3840.000000	99.335408 
3839.000000	99.335701 
3838.000000	99.335975 
3837.000000	99.336226 
3836.000000	99.336458 
3835.000000	99.336684 
3834.000000	99.336932 
3833.000000	99.337231 
3832.000000	99.337595 
3831.000000	99.337995 
3830.000000	99.338365 
3829.000000	99.338644 
3828.000000	99.338823 
3827.000000	99.338956 
3826.000000	99.339091 
3825.000000	99.339218 
3824.000000	99.339319 
3823.000000	99.339450 
3822.000000	99.339704 
3821.000000	99.340065 
3820.000000	99.340377 
3819.000000	99.340525 
3818.000000	99.340542 
3817.000000	99.340589 
3816.000000	99.340764 
3815.000000	99.340908 
3814.000000	99.340810 
3813.000000	99.340499 
3812.000000	99.340232 
3811.000000	99.340226 
3810.000000	99.340473 
3809.000000	99.340797 
3808.000000	99.341039 
3807.000000	99.341151 
3806.000000	99.341079 
3805.000000	99.340730 
3804.000000	99.340125 
3803.000000	99.339540 
3802.000000	99.339294 
3801.000000	99.339368 
3800.000000	99.339400 
3799.000000	99.339087 
3798.000000	99.338425 
3797.000000	99.337655 
3796.000000	99.337006 
3795.000000	99.336487 
3794.000000	99.335973 
3793.000000	99.335417 
3792.000000	99.334909 
3791.000000	99.334579 
3790.000000	99.334481 
3789.000000	99.334567 
3788.000000	99.334729 
3787.000000	99.334800 
3786.000000	99.334642 
3785.000000	99.334306 
3784.000000	99.334016 
3783.000000	99.333909 
3782.000000	99.333904 
3781.000000	99.333882 
3780.000000	99.333793 
3779.000000	99.333560 
3778.000000	99.333036 
3777.000000	99.332150 
3776.000000	99.331075 
3775.000000	99.330215 
3774.000000	99.329845 
3773.000000	99.329914 
3772.000000	99.330428 
3771.000000	99.331503 
3770.000000	99.332617 
3769.000000	99.332671 
3768.000000	99.331282 
3767.000000	99.329368 
3766.000000	99.328279 
3765.000000	99.328359 
3764.000000	99.328534 
3763.000000	99.327512 
3762.000000	99.325351 
3761.000000	99.323390 
3760.000000	99.322541 
3759.000000	99.322643 
3758.000000	99.323394 
3757.000000	99.324944 
3756.000000	99.327158 
3755.000000	99.329311 
3754.000000	99.331029 
3753.000000	99.332896 
3752.000000	99.335354 
3751.000000	99.337348 
3750.000000	99.337876 
3749.000000	99.337632 
3748.000000	99.337233 
3747.000000	99.336090 
3746.000000	99.333867 
3745.000000	99.330965 
3744.000000	99.327956 
3743.000000	99.324728 
3742.000000	99.320766 
3741.000000	99.316227 
3740.000000	99.311873 
3739.000000	99.308422 
3738.000000	99.306631 
3737.000000	99.307172 
3736.000000	99.309440 
3735.000000	99.310998 
3734.000000	99.310031 
3733.000000	99.307860 
3732.000000	99.307354 
3731.000000	99.309428 
3730.000000	99.312331 
3729.000000	99.313940 
3728.000000	99.313906 
3727.000000	99.313034 
3726.000000	99.311523 
3725.000000	99.308922 
3724.000000	99.305707 
3723.000000	99.303441 
3722.000000	99.303175 
3721.000000	99.304627 
3720.000000	99.306441 
3719.000000	99.307318 
3718.000000	99.306810 
3717.000000	99.304933 
3716.000000	99.301629 
3715.000000	99.297162 
3714.000000	99.292990 
3713.000000	99.291356 
3712.000000	99.292840 
3711.000000	99.295358 
3710.000000	99.296438 
3709.000000	99.295261 
3708.000000	99.292407 
3707.000000	99.288687 
3706.000000	99.284665 
3705.000000	99.280766 
3704.000000	99.277267 
3703.000000	99.274051 
3702.000000	99.270462 
3701.000000	99.265996 
3700.000000	99.260797 
3699.000000	99.255334 
3698.000000	99.250225 
3697.000000	99.246160 
3696.000000	99.243513 
3695.000000	99.242190 
3694.000000	99.241881 
3693.000000	99.242138 
3692.000000	99.242007 
3691.000000	99.240050 
3690.000000	99.235285 
3689.000000	99.228545 
3688.000000	99.222246 
3687.000000	99.217847 
3686.000000	99.215092 
3685.000000	99.213701 
3684.000000	99.213909 
3683.000000	99.215628 
3682.000000	99.217739 
3681.000000	99.218611 
3680.000000	99.217053 
3679.000000	99.212443 
3678.000000	99.205270 
3677.000000	99.198347 
3676.000000	99.195353 
3675.000000	99.196678 
3674.000000	99.198699 
3673.000000	99.197945 
3672.000000	99.194524 
3671.000000	99.192034 
3670.000000	99.193295 
3669.000000	99.197191 
3668.000000	99.200978 
3667.000000	99.203468 
3666.000000	99.205083 
3665.000000	99.206413 
3664.000000	99.207405 
3663.000000	99.207875 
3662.000000	99.207976 
3661.000000	99.207782 
3660.000000	99.206970 
3659.000000	99.205393 
3658.000000	99.204114 
3657.000000	99.204897 
3656.000000	99.208121 
3655.000000	99.211970 
3654.000000	99.214160 
3653.000000	99.214032 
3652.000000	99.212589 
3651.000000	99.211158 
3650.000000	99.210058 
3649.000000	99.209325 
3648.000000	99.209922 
3647.000000	99.212321 
3646.000000	99.215588 
3645.000000	99.218784 
3644.000000	99.221976 
3643.000000	99.225807 
3642.000000	99.230622 
3641.000000	99.235984 
3640.000000	99.241126 
3639.000000	99.245440 
3638.000000	99.248514 
3637.000000	99.250103 
3636.000000	99.250321 
3635.000000	99.249649 
3634.000000	99.248385 
3633.000000	99.246464 
3632.000000	99.244171 
3631.000000	99.242788 
3630.000000	99.243975 
3629.000000	99.247417 
3628.000000	99.250607 
3627.000000	99.252129 
3626.000000	99.252711 
3625.000000	99.253537 
3624.000000	99.254944 
3623.000000	99.256392 
3622.000000	99.257395 
3621.000000	99.258265 
3620.000000	99.259449 
3619.000000	99.260558 
3618.000000	99.260957 
3617.000000	99.260885 
3616.000000	99.261305 
3615.000000	99.262905 
3614.000000	99.265297 
3613.000000	99.267298 
3612.000000	99.268221 
3611.000000	99.268531 
3610.000000	99.269194 
3609.000000	99.270552 
3608.000000	99.272058 
3607.000000	99.273141 
3606.000000	99.273890 
3605.000000	99.274734 
3604.000000	99.275865 
3603.000000	99.277148 
3602.000000	99.278369 
3601.000000	99.279464 
3600.000000	99.280426 
3599.000000	99.281178 
3598.000000	99.281686 
3597.000000	99.282052 
3596.000000	99.282468 
3595.000000	99.283083 
3594.000000	99.283905 
3593.000000	99.284844 
3592.000000	99.285762 
3591.000000	99.286511 
3590.000000	99.287029 
3589.000000	99.287421 
3588.000000	99.287875 
3587.000000	99.288405 
3586.000000	99.288870 
3585.000000	99.289266 
3584.000000	99.289843 
3583.000000	99.290810 
3582.000000	99.292088 
3581.000000	99.293307 
3580.000000	99.294128 
3579.000000	99.294492 
3578.000000	99.294575 
3577.000000	99.294608 
3576.000000	99.294752 
3575.000000	99.295111 
3574.000000	99.295703 
3573.000000	99.296416 
3572.000000	99.297096 
3571.000000	99.297625 
3570.000000	99.297874 
3569.000000	99.297766 
3568.000000	99.297477 
3567.000000	99.297374 
3566.000000	99.297678 
3565.000000	99.298292 
3564.000000	99.299089 
3563.000000	99.300209 
3562.000000	99.301853 
3561.000000	99.303816 
3560.000000	99.305461 
3559.000000	99.306266 
3558.000000	99.306314 
3557.000000	99.306208 
3556.000000	99.306506 
3555.000000	99.307219 
3554.000000	99.307881 
3553.000000	99.307954 
3552.000000	99.307292 
3551.000000	99.306289 
3550.000000	99.305456 
3549.000000	99.304964 
3548.000000	99.304719 
3547.000000	99.304614 
3546.000000	99.304662 
3545.000000	99.304813 
3544.000000	99.304959 
3543.000000	99.305293 
3542.000000	99.306361 
3541.000000	99.308489 
3540.000000	99.311265 
3539.000000	99.313703 
3538.000000	99.315107 
3537.000000	99.315518 
3536.000000	99.315446 
3535.000000	99.315236 
3534.000000	99.314835 
3533.000000	99.314205 
3532.000000	99.313641 
3531.000000	99.313573 
3530.000000	99.314024 
3529.000000	99.314475 
3528.000000	99.314374 
3527.000000	99.313774 
3526.000000	99.313322 
3525.000000	99.313632 
3524.000000	99.314739 
3523.000000	99.316098 
3522.000000	99.317091 
3521.000000	99.317498 
3520.000000	99.317612 
3519.000000	99.317941 
3518.000000	99.318821 
3517.000000	99.320162 
3516.000000	99.321514 
3515.000000	99.322407 
3514.000000	99.322616 
3513.000000	99.322217 
3512.000000	99.321500 
3511.000000	99.320831 
3510.000000	99.320493 
3509.000000	99.320595 
3508.000000	99.321101 
3507.000000	99.321913 
3506.000000	99.322904 
3505.000000	99.323870 
3504.000000	99.324613 
3503.000000	99.325162 
3502.000000	99.325840 
3501.000000	99.326969 
3500.000000	99.328482 
3499.000000	99.329872 
3498.000000	99.330588 
3497.000000	99.330484 
3496.000000	99.329863 
3495.000000	99.329227 
3494.000000	99.328928 
3493.000000	99.329028 
3492.000000	99.329409 
3491.000000	99.329915 
3490.000000	99.330482 
3489.000000	99.331156 
3488.000000	99.331952 
3487.000000	99.332717 
3486.000000	99.333228 
3485.000000	99.333441 
3484.000000	99.333569 
3483.000000	99.333883 
3482.000000	99.334438 
3481.000000	99.335053 
3480.000000	99.335540 
3479.000000	99.335865 
3478.000000	99.336088 
3477.000000	99.336249 
3476.000000	99.336404 
3475.000000	99.336704 
3474.000000	99.337280 
3473.000000	99.338058 
3472.000000	99.338760 
3471.000000	99.339179 
3470.000000	99.339389 
3469.000000	99.339637 
3468.000000	99.340070 
3467.000000	99.340601 
3466.000000	99.341051 
3465.000000	99.341356 
3464.000000	99.341592 
3463.000000	99.341857 
3462.000000	99.342166 
3461.000000	99.342472 
3460.000000	99.342739 
3459.000000	99.342973 
3458.000000	99.343180 
3457.000000	99.343334 
3456.000000	99.343405 
3455.000000	99.343408 
3454.000000	99.343407 
3453.000000	99.343466 
3452.000000	99.343603 
3451.000000	99.343784 
3450.000000	99.343959 
3449.000000	99.344101 
3448.000000	99.344200 
3447.000000	99.344247 
3446.000000	99.344236 
3445.000000	99.344193 
3444.000000	99.344173 
3443.000000	99.344220 
3442.000000	99.344318 
3441.000000	99.344400 
3440.000000	99.344420 
3439.000000	99.344393 
3438.000000	99.344363 
3437.000000	99.344331 
3436.000000	99.344253 
3435.000000	99.344111 
3434.000000	99.343973 
3433.000000	99.343947 
3432.000000	99.344074 
3431.000000	99.344273 
3430.000000	99.344381 
3429.000000	99.344310 
3428.000000	99.344113 
3427.000000	99.343936 
3426.000000	99.343855 
3425.000000	99.343809 
3424.000000	99.343689 
3423.000000	99.343473 
3422.000000	99.343257 
3421.000000	99.343162 
3420.000000	99.343247 
3419.000000	99.343497 
3418.000000	99.343859 
3417.000000	99.344239 
3416.000000	99.344515 
3415.000000	99.344597 
3414.000000	99.344481 
3413.000000	99.344255 
3412.000000	99.344055 
3411.000000	99.343998 
3410.000000	99.344087 
3409.000000	99.344180 
3408.000000	99.344080 
3407.000000	99.343727 
3406.000000	99.343311 
3405.000000	99.343133 
3404.000000	99.343360 
3403.000000	99.343907 
3402.000000	99.344528 
3401.000000	99.345029 
3400.000000	99.345391 
3399.000000	99.345727 
3398.000000	99.346156 
3397.000000	99.346686 
3396.000000	99.347203 
3395.000000	99.347534 
3394.000000	99.347527 
3393.000000	99.347114 
3392.000000	99.346368 
3391.000000	99.345557 
3390.000000	99.345069 
3389.000000	99.345186 
3388.000000	99.345891 
3387.000000	99.346882 
3386.000000	99.347786 
3385.000000	99.348447 
3384.000000	99.348919 
3383.000000	99.349219 
3382.000000	99.349193 
3381.000000	99.348697 
3380.000000	99.347864 
3379.000000	99.347132 
3378.000000	99.346885 
3377.000000	99.347144 
3376.000000	99.347603 
3375.000000	99.347921 
3374.000000	99.348036 
3373.000000	99.348121 
3372.000000	99.348327 
3371.000000	99.348620 
3370.000000	99.348843 
3369.000000	99.348882 
3368.000000	99.348769 
3367.000000	99.348650 
3366.000000	99.348654 
3365.000000	99.348777 
3364.000000	99.348897 
3363.000000	99.348908 
3362.000000	99.348823 
3361.000000	99.348716 
3360.000000	99.348592 
3359.000000	99.348355 
3358.000000	99.347955 
3357.000000	99.347502 
3356.000000	99.347194 
3355.000000	99.347113 
3354.000000	99.347147 
3353.000000	99.347106 
3352.000000	99.346918 
3351.000000	99.346674 
3350.000000	99.346524 
3349.000000	99.346535 
3348.000000	99.346665 
3347.000000	99.346807 
3346.000000	99.346854 
3345.000000	99.346762 
3344.000000	99.346560 
3343.000000	99.346334 
3342.000000	99.346143 
3341.000000	99.345951 
3340.000000	99.345648 
3339.000000	99.345185 
3338.000000	99.344713 
3337.000000	99.344493 
3336.000000	99.344642 
3335.000000	99.344986 
3334.000000	99.345197 
3333.000000	99.345146 
3332.000000	99.344981 
3331.000000	99.344914 
3330.000000	99.344982 
3329.000000	99.345047 
3328.000000	99.345002 
3327.000000	99.344879 
3326.000000	99.344739 
3325.000000	99.344539 
3324.000000	99.344182 
3323.000000	99.343680 
3322.000000	99.343217 
3321.000000	99.342981 
3320.000000	99.342991 
3319.000000	99.343130 
3318.000000	99.343300 
3317.000000	99.343491 
3316.000000	99.343678 
3315.000000	99.343740 
3314.000000	99.343579 
3313.000000	99.343299 
3312.000000	99.343176 
3311.000000	99.343381 
3310.000000	99.343806 
3309.000000	99.344128 
3308.000000	99.344127 
3307.000000	99.343825 
3306.000000	99.343380 
3305.000000	99.342935 
3304.000000	99.342573 
3303.000000	99.342332 
3302.000000	99.342172 
3301.000000	99.341969 
3300.000000	99.341604 
3299.000000	99.341083 
3298.000000	99.340547 
3297.000000	99.340153 
3296.000000	99.339938 
3295.000000	99.339792 
3294.000000	99.339565 
3293.000000	99.339214 
3292.000000	99.338850 
3291.000000	99.338599 
3290.000000	99.338437 
3289.000000	99.338213 
3288.000000	99.337835 
3287.000000	99.337360 
3286.000000	99.336923 
3285.000000	99.336573 
3284.000000	99.336239 
3283.000000	99.335837 
3282.000000	99.335354 
3281.000000	99.334858 
3280.000000	99.334444 
3279.000000	99.334167 
3278.000000	99.334002 
3277.000000	99.333859 
3276.000000	99.333633 
3275.000000	99.333244 
3274.000000	99.332669 
3273.000000	99.331953 
3272.000000	99.331230 
3271.000000	99.330683 
3270.000000	99.330436 
3269.000000	99.330459 
3268.000000	99.330551 
3267.000000	99.330490 
3266.000000	99.330171 
3265.000000	99.329640 
3264.000000	99.329080 
3263.000000	99.328749 
3262.000000	99.328809 
3261.000000	99.329163 
3260.000000	99.329521 
3259.000000	99.329666 
3258.000000	99.329596 
3257.000000	99.329376 
3256.000000	99.328950 
3255.000000	99.328189 
3254.000000	99.327153 
3253.000000	99.326232 
3252.000000	99.325987 
3251.000000	99.326756 
3250.000000	99.328312 
3249.000000	99.329893 
3248.000000	99.330770 
3247.000000	99.330779 
3246.000000	99.330231 
3245.000000	99.329402 
3244.000000	99.328289 
3243.000000	99.326903 
3242.000000	99.325576 
3241.000000	99.324780 
3240.000000	99.324765 
3239.000000	99.325511 
3238.000000	99.326941 
3237.000000	99.328993 
3236.000000	99.331448 
3235.000000	99.333761 
3234.000000	99.335170 
3233.000000	99.335111 
3232.000000	99.333639 
3231.000000	99.331531 
3230.000000	99.329828 
3229.000000	99.329080 
3228.000000	99.329019 
3227.000000	99.328928 
3226.000000	99.328296 
3225.000000	99.327200 
3224.000000	99.326141 
3223.000000	99.325529 
3222.000000	99.325296 
3221.000000	99.324992 
3220.000000	99.324278 
3219.000000	99.323314 
3218.000000	99.322639 
3217.000000	99.322729 
3216.000000	99.323710 
3215.000000	99.325336 
3214.000000	99.327037 
3213.000000	99.328110 
3212.000000	99.328103 
3211.000000	99.327109 
3210.000000	99.325704 
3209.000000	99.324548 
3208.000000	99.323960 
3207.000000	99.323872 
3206.000000	99.324008 
3205.000000	99.324082 
3204.000000	99.323980 
3203.000000	99.323813 
3202.000000	99.323775 
3201.000000	99.323913 
3200.000000	99.324072 
3199.000000	99.324070 
3198.000000	99.323860 
3197.000000	99.323534 
3196.000000	99.323230 
3195.000000	99.323051 
3194.000000	99.322994 
3193.000000	99.322921 
3192.000000	99.322670 
3191.000000	99.322200 
3190.000000	99.321593 
3189.000000	99.320997 
3188.000000	99.320540 
3187.000000	99.320266 
3186.000000	99.320133 
3185.000000	99.320054 
3184.000000	99.319961 
3183.000000	99.319814 
3182.000000	99.319604 
3181.000000	99.319379 
3180.000000	99.319246 
3179.000000	99.319318 
3178.000000	99.319576 
3177.000000	99.319757 
3176.000000	99.319536 
3175.000000	99.318843 
3174.000000	99.318008 
3173.000000	99.317484 
3172.000000	99.317327 
3171.000000	99.317128 
3170.000000	99.316545 
3169.000000	99.315783 
3168.000000	99.315376 
3167.000000	99.315533 
3166.000000	99.315928 
3165.000000	99.316091 
3164.000000	99.315886 
3163.000000	99.315513 
3162.000000	99.315199 
3161.000000	99.314998 
3160.000000	99.314850 
3159.000000	99.314667 
3158.000000	99.314359 
3157.000000	99.313880 
3156.000000	99.313314 
3155.000000	99.312824 
3154.000000	99.312398 
3153.000000	99.311693 
3152.000000	99.310327 
3151.000000	99.308435 
3150.000000	99.306814 
3149.000000	99.306314 
3148.000000	99.307101 
3147.000000	99.308580 
3146.000000	99.309983 
3145.000000	99.310887 
3144.000000	99.311263 
3143.000000	99.311317 
3142.000000	99.311384 
3141.000000	99.311764 
3140.000000	99.312461 
3139.000000	99.313101 
3138.000000	99.313261 
3137.000000	99.312931 
3136.000000	99.312600 
3135.000000	99.312802 
3134.000000	99.313616 
3133.000000	99.314597 
3132.000000	99.315196 
3131.000000	99.315214 
3130.000000	99.314846 
3129.000000	99.314417 
3128.000000	99.314165 
3127.000000	99.314268 
3126.000000	99.314868 
3125.000000	99.315899 
3124.000000	99.316900 
3123.000000	99.317253 
3122.000000	99.316722 
3121.000000	99.315708 
3120.000000	99.314937 
3119.000000	99.314808 
3118.000000	99.315135 
3117.000000	99.315461 
3116.000000	99.315545 
3115.000000	99.315503 
3114.000000	99.315545 
3113.000000	99.315685 
3112.000000	99.315749 
3111.000000	99.315632 
3110.000000	99.315457 
3109.000000	99.315433 
3108.000000	99.315552 
3107.000000	99.315517 
3106.000000	99.315019 
3105.000000	99.314085 
3104.000000	99.313191 
3103.000000	99.312905 
3102.000000	99.313428 
3101.000000	99.314493 
3100.000000	99.315593 
3099.000000	99.316377 
3098.000000	99.316802 
3097.000000	99.316984 
3096.000000	99.317029 
3095.000000	99.316968 
3094.000000	99.316795 
3093.000000	99.316500 
3092.000000	99.316080 
3091.000000	99.315567 
3090.000000	99.315059 
3089.000000	99.314736 
3088.000000	99.314788 
3087.000000	99.315226 
3086.000000	99.315743 
3085.000000	99.315875 
3084.000000	99.315393 
3083.000000	99.314455 
3082.000000	99.313363 
3081.000000	99.312347 
3080.000000	99.311656 
3079.000000	99.311631 
3078.000000	99.312466 
3077.000000	99.313931 
3076.000000	99.315468 
3075.000000	99.316571 
3074.000000	99.316969 
3073.000000	99.316600 
3072.000000	99.315656 
3071.000000	99.314523 
3070.000000	99.313377 
3069.000000	99.311857 
3068.000000	99.309534 
3067.000000	99.306856 
3066.000000	99.305343 
3065.000000	99.306442 
3064.000000	99.310043 
3063.000000	99.314096 
3062.000000	99.315917 
3061.000000	99.314094 
3060.000000	99.309410 
3059.000000	99.304190 
3058.000000	99.300739 
3057.000000	99.300259 
3056.000000	99.302676 
3055.000000	99.306821 
3054.000000	99.310764 
3053.000000	99.312631 
3052.000000	99.311652 
3051.000000	99.308527 
3050.000000	99.304870 
3049.000000	99.302374 
3048.000000	99.302014 
3047.000000	99.303135 
3046.000000	99.303225 
3045.000000	99.299678 
3044.000000	99.292625 
3043.000000	99.285571 
3042.000000	99.282336 
3041.000000	99.283400 
3040.000000	99.285825 
3039.000000	99.286435 
3038.000000	99.284231 
3037.000000	99.279969 
3036.000000	99.274582 
3035.000000	99.268555 
3034.000000	99.262186 
3033.000000	99.255713 
3032.000000	99.249252 
3031.000000	99.242799 
3030.000000	99.236240 
3029.000000	99.229481 
3028.000000	99.222877 
3027.000000	99.217378 
3026.000000	99.213616 
3025.000000	99.210643 
3024.000000	99.206154 
3023.000000	99.198475 
3022.000000	99.188105 
3021.000000	99.176893 
3020.000000	99.165867 
3019.000000	99.154465 
3018.000000	99.142103 
3017.000000	99.129802 
3016.000000	99.119436 
3015.000000	99.111367 
3014.000000	99.103683 
3013.000000	99.094383 
3012.000000	99.083818 
3011.000000	99.074173 
3010.000000	99.066707 
3009.000000	99.060370 
3008.000000	99.053154 
3007.000000	99.043884 
3006.000000	99.032469 
3005.000000	99.019390 
3004.000000	99.005701 
3003.000000	98.992860 
3002.000000	98.981689 
3001.000000	98.971646 
3000.000000	98.961692 
2999.000000	98.951744 
2998.000000	98.942946 
2997.000000	98.936694 
2996.000000	98.933456 
2995.000000	98.931770 
2994.000000	98.927970 
2993.000000	98.917847 
2992.000000	98.899955 
2991.000000	98.877534 
2990.000000	98.856682 
2989.000000	98.842526 
2988.000000	98.837128 
2987.000000	98.839829 
2986.000000	98.848064 
2985.000000	98.858032 
2984.000000	98.866036 
2983.000000	98.870155 
2982.000000	98.870632 
2981.000000	98.868921 
2980.000000	98.866786 
2979.000000	98.865887 
2978.000000	98.867104 
2977.000000	98.869749 
2976.000000	98.871926 
2975.000000	98.872073 
2974.000000	98.870175 
2973.000000	98.867685 
2972.000000	98.866641 
2971.000000	98.868611 
2970.000000	98.873854 
2969.000000	98.881334 
2968.000000	98.889834 
2967.000000	98.898952 
2966.000000	98.908721 
2965.000000	98.918696 
2964.000000	98.928125 
2963.000000	98.936856 
2962.000000	98.945343 
2961.000000	98.953693 
2960.000000	98.961323 
2959.000000	98.967626 
2958.000000	98.972516 
2957.000000	98.976385 
2956.000000	98.980025 
2955.000000	98.984526 
2954.000000	98.990604 
2953.000000	98.997883 
2952.000000	99.005265 
2951.000000	99.011967 
2950.000000	99.017778 
2949.000000	99.022416 
2948.000000	99.025311 
2947.000000	99.026322 
2946.000000	99.026495 
2945.000000	99.027956 
2944.000000	99.032771 
2943.000000	99.041174 
2942.000000	99.050474 
2941.000000	99.056504 
2940.000000	99.057163 
2939.000000	99.054552 
2938.000000	99.053085 
2937.000000	99.055629 
2936.000000	99.062078 
2935.000000	99.070950 
2934.000000	99.080784 
2933.000000	99.089816 
2932.000000	99.095832 
2931.000000	99.097438 
2930.000000	99.095314 
2929.000000	99.091964 
2928.000000	99.090091 
2927.000000	99.090588 
2926.000000	99.091520 
2925.000000	99.089599 
2924.000000	99.083620 
2923.000000	99.076175 
2922.000000	99.070959 
2921.000000	99.068567 
2920.000000	99.066232 
2919.000000	99.061465 
2918.000000	99.054392 
2917.000000	99.046288 
2916.000000	99.037513 
2915.000000	99.027882 
2914.000000	99.018159 
2913.000000	99.010133 
2912.000000	99.005456 
2911.000000	99.004652 
2910.000000	99.006646 
2909.000000	99.008865 
2908.000000	99.008494 
2907.000000	99.004371 
2906.000000	98.997401 
2905.000000	98.988921 
2904.000000	98.979380 
2903.000000	98.968916 
2902.000000	98.959387 
2901.000000	98.954141 
2900.000000	98.956021 
2899.000000	98.965070 
2898.000000	98.977576 
2897.000000	98.988126 
2896.000000	98.993617 
2895.000000	98.995543 
2894.000000	98.997701 
2893.000000	99.001893 
2892.000000	99.006718 
2891.000000	99.010246 
2890.000000	99.012390 
2889.000000	99.014147 
2888.000000	99.015865 
2887.000000	99.017380 
2886.000000	99.019038 
2885.000000	99.021407 
2884.000000	99.024371 
2883.000000	99.027607 
2882.000000	99.031877 
2881.000000	99.038733 
2880.000000	99.048543 
2879.000000	99.059335 
2878.000000	99.068172 
2877.000000	99.073874 
2876.000000	99.078197 
2875.000000	99.084072 
2874.000000	99.092525 
2873.000000	99.101519 
2872.000000	99.108081 
2871.000000	99.111284 
2870.000000	99.112707 
2869.000000	99.114583 
2868.000000	99.118416 
2867.000000	99.125136 
2866.000000	99.135069 
2865.000000	99.147057 
2864.000000	99.158581 
2863.000000	99.167670 
2862.000000	99.174261 
2861.000000	99.179458 
2860.000000	99.184380 
2859.000000	99.190222 
2858.000000	99.198151 
2857.000000	99.207851 
2856.000000	99.216695 
2855.000000	99.221794 
2854.000000	99.222889 
2853.000000	99.222659 
2852.000000	99.224104 
2851.000000	99.227996 
2850.000000	99.233004 
2849.000000	99.237493 
2848.000000	99.240790 
2847.000000	99.243147 
2846.000000	99.244963 
2845.000000	99.246273 
2844.000000	99.247037 
2843.000000	99.247712 
2842.000000	99.249124 
2841.000000	99.251661 
2840.000000	99.254879 
2839.000000	99.258096 
2838.000000	99.261050 
2837.000000	99.263817 
2836.000000	99.266432 
2835.000000	99.268909 
2834.000000	99.271360 
2833.000000	99.273711 
2832.000000	99.275449 
2831.000000	99.275981 
2830.000000	99.275192 
2829.000000	99.273527 
2828.000000	99.271796 
2827.000000	99.271043 
2826.000000	99.272259 
2825.000000	99.275693 
2824.000000	99.280337 
2823.000000	99.284318 
2822.000000	99.286098 
2821.000000	99.285465 
2820.000000	99.283637 
2819.000000	99.282451 
2818.000000	99.283024 
2817.000000	99.285032 
2816.000000	99.287309 
2815.000000	99.289027 
2814.000000	99.290102 
2813.000000	99.290615 
2812.000000	99.290486 
2811.000000	99.289918 
2810.000000	99.289659 
2809.000000	99.290403 
2808.000000	99.292027 
2807.000000	99.293688 
2806.000000	99.294634 
2805.000000	99.294797 
2804.000000	99.294640 
2803.000000	99.294674 
2802.000000	99.295098 
2801.000000	99.295777 
2800.000000	99.296458 
2799.000000	99.296985 
2798.000000	99.297368 
2797.000000	99.297696 
2796.000000	99.298029 
2795.000000	99.298373 
2794.000000	99.298712 
2793.000000	99.299035 
2792.000000	99.299357 
2791.000000	99.299713 
2790.000000	99.300134 
2789.000000	99.300628 
2788.000000	99.301182 
2787.000000	99.301762 
2786.000000	99.302296 
2785.000000	99.302664 
2784.000000	99.302764 
2783.000000	99.302619 
2782.000000	99.302435 
2781.000000	99.302466 
2780.000000	99.302837 
2779.000000	99.303510 
2778.000000	99.304331 
2777.000000	99.305135 
2776.000000	99.305805 
2775.000000	99.306295 
2774.000000	99.306627 
2773.000000	99.306851 
2772.000000	99.307040 
2771.000000	99.307300 
2770.000000	99.307700 
2769.000000	99.308157 
2768.000000	99.308480 
2767.000000	99.308587 
2766.000000	99.308616 
2765.000000	99.308733 
2764.000000	99.308889 
2763.000000	99.308902 
2762.000000	99.308731 
2761.000000	99.308556 
2760.000000	99.308579 
2759.000000	99.308842 
2758.000000	99.309247 
2757.000000	99.309692 
2756.000000	99.310136 
2755.000000	99.310534 
2754.000000	99.310796 
2753.000000	99.310851 
2752.000000	99.310760 
2751.000000	99.310727 
2750.000000	99.310937 
2749.000000	99.311396 
2748.000000	99.311923 
2747.000000	99.312310 
2746.000000	99.312505 
2745.000000	99.312595 
2744.000000	99.312683 
2743.000000	99.312785 
2742.000000	99.312877 
2741.000000	99.312984 
2740.000000	99.313193 
2739.000000	99.313551 
2738.000000	99.314010 
2737.000000	99.314465 
2736.000000	99.314855 
2735.000000	99.315183 
2734.000000	99.315428 
2733.000000	99.315534 
2732.000000	99.315493 
2731.000000	99.315407 
2730.000000	99.315416 
2729.000000	99.315572 
2728.000000	99.315831 
2727.000000	99.316135 
2726.000000	99.316458 
2725.000000	99.316787 
2724.000000	99.317101 
2723.000000	99.317391 
2722.000000	99.317675 
2721.000000	99.317968 
2720.000000	99.318246 
2719.000000	99.318486 
2718.000000	99.318694 
2717.000000	99.318898 
2716.000000	99.319118 
2715.000000	99.319355 
2714.000000	99.319609 
2713.000000	99.319872 
2712.000000	99.320138 
2711.000000	99.320404 
2710.000000	99.320668 
2709.000000	99.320927 
2708.000000	99.321180 
2707.000000	99.321426 
2706.000000	99.321664 
2705.000000	99.321894 
2704.000000	99.322115 
2703.000000	99.322331 
2702.000000	99.322545 
2701.000000	99.322759 
2700.000000	99.322974 
2699.000000	99.323189 
2698.000000	99.323405 
2697.000000	99.323621 
2696.000000	99.323832 
2695.000000	99.324038 
2694.000000	99.324236 
2693.000000	99.324431 
2692.000000	99.324628 
2691.000000	99.324832 
2690.000000	99.325045 
2689.000000	99.325263 
2688.000000	99.325482 
2687.000000	99.325699 
2686.000000	99.325918 
2685.000000	99.326145 
2684.000000	99.326384 
2683.000000	99.326631 
2682.000000	99.326879 
2681.000000	99.327121 
2680.000000	99.327353 
2679.000000	99.327583 
2678.000000	99.327822 
2677.000000	99.328078 
2676.000000	99.328354 
2675.000000	99.328644 
2674.000000	99.328937 
2673.000000	99.329225 
2672.000000	99.329500 
2671.000000	99.329761 
2670.000000	99.330013 
2669.000000	99.330263 
2668.000000	99.330517 
2667.000000	99.330777 
2666.000000	99.331043 
2665.000000	99.331312 
2664.000000	99.331581 
2663.000000	99.331849 
2662.000000	99.332122 
2661.000000	99.332401 
2660.000000	99.332689 
2659.000000	99.332983 
2658.000000	99.333276 
2657.000000	99.333565 
2656.000000	99.333846 
2655.000000	99.334121 
2654.000000	99.334393 
2653.000000	99.334667 
2652.000000	99.334950 
2651.000000	99.335246 
2650.000000	99.335556 
2649.000000	99.335868 
2648.000000	99.336171 
2647.000000	99.336460 
2646.000000	99.336741 
2645.000000	99.337025 
2644.000000	99.337321 
2643.000000	99.337621 
2642.000000	99.337913 
2641.000000	99.338189 
2640.000000	99.338449 
2639.000000	99.338703 
2638.000000	99.338958 
2637.000000	99.339214 
2636.000000	99.339460 
2635.000000	99.339686 
2634.000000	99.339884 
2633.000000	99.340057 
2632.000000	99.340213 
2631.000000	99.340362 
2630.000000	99.340510 
2629.000000	99.340662 
2628.000000	99.340814 
2627.000000	99.340960 
2626.000000	99.341096 
2625.000000	99.341219 
2624.000000	99.341332 
2623.000000	99.341441 
2622.000000	99.341549 
2621.000000	99.341656 
2620.000000	99.341764 
2619.000000	99.341868 
2618.000000	99.341959 
2617.000000	99.342026 
2616.000000	99.342066 
2615.000000	99.342089 
2614.000000	99.342115 
2613.000000	99.342168 
2612.000000	99.342260 
2611.000000	99.342385 
2610.000000	99.342498 
2609.000000	99.342523 
2608.000000	99.342402 
2607.000000	99.342156 
2606.000000	99.341907 
2605.000000	99.341787 
2604.000000	99.341859 
2603.000000	99.342051 
2602.000000	99.342160 
2601.000000	99.342013 
2600.000000	99.341612 
2599.000000	99.341129 
2598.000000	99.340738 
2597.000000	99.340460 
2596.000000	99.340174 
2595.000000	99.339773 
2594.000000	99.339279 
2593.000000	99.338803 
2592.000000	99.338445 
2591.000000	99.338237 
2590.000000	99.338165 
2589.000000	99.338179 
2588.000000	99.338182 
2587.000000	99.338040 
2586.000000	99.337670 
2585.000000	99.337132 
2584.000000	99.336628 
2583.000000	99.336324 
2582.000000	99.336179 
2581.000000	99.335970 
2580.000000	99.335538 
2579.000000	99.334937 
2578.000000	99.334329 
2577.000000	99.333762 
2576.000000	99.333166 
2575.000000	99.332535 
2574.000000	99.331997 
2573.000000	99.331645 
2572.000000	99.331428 
2571.000000	99.331240 
2570.000000	99.331006 
2569.000000	99.330690 
2568.000000	99.330280 
2567.000000	99.329829 
2566.000000	99.329410 
2565.000000	99.329012 
2564.000000	99.328541 
2563.000000	99.327955 
2562.000000	99.327333 
2561.000000	99.326770 
2560.000000	99.326268 
2559.000000	99.325771 
2558.000000	99.325230 
2557.000000	99.324629 
2556.000000	99.324002 
2555.000000	99.323444 
2554.000000	99.323042 
2553.000000	99.322780 
2552.000000	99.322516 
2551.000000	99.322118 
2550.000000	99.321585 
2549.000000	99.320983 
2548.000000	99.320330 
2547.000000	99.319628 
2546.000000	99.318962 
2545.000000	99.318462 
2544.000000	99.318159 
2543.000000	99.317952 
2542.000000	99.317687 
2541.000000	99.317268 
2540.000000	99.316692 
2539.000000	99.316064 
2538.000000	99.315536 
2537.000000	99.315157 
2536.000000	99.314827 
2535.000000	99.314448 
2534.000000	99.314062 
2533.000000	99.313749 
2532.000000	99.313445 
2531.000000	99.313016 
2530.000000	99.312499 
2529.000000	99.312125 
2528.000000	99.312039 
2527.000000	99.312125 
2526.000000	99.312109 
2525.000000	99.311876 
2524.000000	99.311589 
2523.000000	99.311511 
2522.000000	99.311745 
2521.000000	99.312177 
2520.000000	99.312598 
2519.000000	99.312837 
2518.000000	99.312780 
2517.000000	99.312376 
2516.000000	99.311706 
2515.000000	99.311015 
2514.000000	99.310596 
2513.000000	99.310605 
2512.000000	99.311033 
2511.000000	99.311747 
2510.000000	99.312500 
2509.000000	99.313033 
2508.000000	99.313306 
2507.000000	99.313577 
2506.000000	99.314095 
2505.000000	99.314702 
2504.000000	99.314939 
2503.000000	99.314575 
2502.000000	99.313882 
2501.000000	99.313398 
2500.000000	99.313487 
2499.000000	99.314180 
2498.000000	99.315197 
2497.000000	99.316017 
2496.000000	99.316193 
2495.000000	99.315699 
2494.000000	99.314954 
2493.000000	99.314410 
2492.000000	99.314193 
2491.000000	99.314240 
2490.000000	99.314558 
2489.000000	99.315195 
2488.000000	99.316088 
2487.000000	99.317075 
2486.000000	99.317919 
2485.000000	99.318269 
2484.000000	99.317870 
2483.000000	99.316842 
2482.000000	99.315624 
2481.000000	99.314509 
2480.000000	99.313481 
2479.000000	99.312542 
2478.000000	99.311894 
2477.000000	99.311661 
2476.000000	99.311712 
2475.000000	99.311858 
2474.000000	99.312020 
2473.000000	99.312089 
2472.000000	99.311885 
2471.000000	99.311369 
2470.000000	99.310724 
2469.000000	99.310180 
2468.000000	99.309801 
2467.000000	99.309522 
2466.000000	99.309270 
2465.000000	99.308998 
2464.000000	99.308671 
2463.000000	99.308291 
2462.000000	99.307902 
2461.000000	99.307532 
2460.000000	99.307179 
2459.000000	99.306830 
2458.000000	99.306475 
2457.000000	99.306106 
2456.000000	99.305730 
2455.000000	99.305357 
2454.000000	99.304996 
2453.000000	99.304650 
2452.000000	99.304314 
2451.000000	99.303974 
2450.000000	99.303622 
2449.000000	99.303255 
2448.000000	99.302879 
2447.000000	99.302504 
2446.000000	99.302141 
2445.000000	99.301789 
2444.000000	99.301446 
2443.000000	99.301104 
2442.000000	99.300762 
2441.000000	99.300424 
2440.000000	99.300097 
2439.000000	99.299785 
2438.000000	99.299485 
2437.000000	99.299190 
2436.000000	99.298892 
2435.000000	99.298582 
2434.000000	99.298259 
2433.000000	99.297923 
2432.000000	99.297583 
2431.000000	99.297247 
2430.000000	99.296918 
2429.000000	99.296592 
2428.000000	99.296261 
2427.000000	99.295923 
2426.000000	99.295578 
2425.000000	99.295231 
2424.000000	99.294889 
2423.000000	99.294558 
2422.000000	99.294239 
2421.000000	99.293928 
2420.000000	99.293625 
2419.000000	99.293321 
2418.000000	99.292989 
2417.000000	99.292607 
2416.000000	99.292190 
2415.000000	99.291776 
2414.000000	99.291382 
2413.000000	99.291007 
2412.000000	99.290643 
2411.000000	99.290282 
2410.000000	99.289917 
2409.000000	99.289546 
2408.000000	99.289182 
2407.000000	99.288864 
2406.000000	99.288616 
2405.000000	99.288423 
2404.000000	99.288248 
2403.000000	99.288067 
2402.000000	99.287842 
2401.000000	99.287514 
2400.000000	99.287072 
2399.000000	99.286602 
2398.000000	99.286196 
2397.000000	99.285904 
2396.000000	99.285819 
2395.000000	99.286036 
2394.000000	99.286406 
2393.000000	99.286527 
2392.000000	99.286199 
2391.000000	99.285792 
2390.000000	99.285810 
2389.000000	99.286216 
2388.000000	99.286527 
2387.000000	99.286596 
2386.000000	99.286806 
2385.000000	99.287378 
2384.000000	99.287973 
2383.000000	99.288223 
2382.000000	99.288276 
2381.000000	99.288487 
2380.000000	99.288842 
2379.000000	99.289069 
2378.000000	99.289195 
2377.000000	99.289557 
2376.000000	99.290287 
2375.000000	99.291101 
2374.000000	99.291635 
2373.000000	99.291737 
2372.000000	99.291462 
2371.000000	99.291100 
2370.000000	99.291130 
2369.000000	99.291854 
2368.000000	99.293096 
2367.000000	99.294465 
2366.000000	99.295752 
2365.000000	99.297021 
2364.000000	99.298394 
2363.000000	99.299823 
2362.000000	99.301034 
2361.000000	99.301653 
2360.000000	99.301591 
2359.000000	99.301220 
2358.000000	99.301076 
2357.000000	99.301443 
2356.000000	99.302404 
2355.000000	99.303889 
2354.000000	99.305359 
2353.000000	99.306246 
2352.000000	99.306606 
2351.000000	99.306992 
2350.000000	99.307771 
2349.000000	99.308755 
2348.000000	99.309636 
2347.000000	99.310278 
2346.000000	99.310885 
2345.000000	99.311764 
2344.000000	99.312914 
2343.000000	99.314156 
2342.000000	99.315253 
2341.000000	99.316096 
2340.000000	99.316654 
2339.000000	99.317143 
2338.000000	99.317655 
2337.000000	99.317870 
2336.000000	99.317328 
2335.000000	99.316023 
2334.000000	99.314557 
2333.000000	99.313904 
2332.000000	99.314606 
2331.000000	99.316039 
2330.000000	99.316854 
2329.000000	99.316441 
2328.000000	99.315894 
2327.000000	99.316723 
2326.000000	99.319293 
2325.000000	99.322368 
2324.000000	99.324241 
2323.000000	99.324442 
2322.000000	99.323818 
2321.000000	99.323419 
2320.000000	99.323045 
2319.000000	99.321897 
2318.000000	99.319980 
2317.000000	99.318282 
2316.000000	99.317480 
2315.000000	99.317123 
2314.000000	99.316438 
2313.000000	99.315326 
2312.000000	99.314318 
2311.000000	99.313612 
2310.000000	99.312889 
2309.000000	99.311973 
2308.000000	99.311242 
2307.000000	99.311058 
2306.000000	99.311175 
2305.000000	99.311059 
2304.000000	99.310612 
2303.000000	99.310263 
2302.000000	99.310290 
2301.000000	99.310484 
2300.000000	99.310625 
2299.000000	99.310857 
2298.000000	99.311254 
2297.000000	99.311233 
2296.000000	99.310081 
2295.000000	99.307930 
2294.000000	99.305841 
2293.000000	99.304691 
2292.000000	99.304449 
2291.000000	99.304699 
2290.000000	99.305339 
2289.000000	99.306356 
2288.000000	99.307258 
2287.000000	99.307259 
2286.000000	99.305989 
2285.000000	99.303735 
2284.000000	99.301154 
2283.000000	99.299013 
2282.000000	99.297817 
2281.000000	99.297483 
2280.000000	99.297417 
2279.000000	99.297199 
2278.000000	99.296943 
2277.000000	99.296800 
2276.000000	99.296494 
2275.000000	99.295739 
2274.000000	99.294830 
2273.000000	99.294254 
2272.000000	99.293994 
2271.000000	99.293635 
2270.000000	99.292935 
2269.000000	99.291888 
2268.000000	99.290453 
2267.000000	99.288720 
2266.000000	99.287188 
2265.000000	99.286341 
2264.000000	99.285924 
2263.000000	99.285151 
2262.000000	99.283788 
2261.000000	99.282590 
2260.000000	99.282395 
2259.000000	99.283156 
2258.000000	99.283994 
2257.000000	99.284188 
2256.000000	99.283773 
2255.000000	99.283246 
2254.000000	99.282955 
2253.000000	99.282852 
2252.000000	99.282743 
2251.000000	99.282562 
2250.000000	99.282339 
2249.000000	99.282026 
2248.000000	99.281550 
2247.000000	99.280986 
2246.000000	99.280465 
2245.000000	99.280016 
2244.000000	99.279593 
2243.000000	99.279181 
2242.000000	99.278791 
2241.000000	99.278423 
2240.000000	99.278063 
2239.000000	99.277694 
2238.000000	99.277308 
2237.000000	99.276889 
2236.000000	99.276426 
2235.000000	99.275920 
2234.000000	99.275389 
2233.000000	99.274860 
2232.000000	99.274351 
2231.000000	99.273866 
2230.000000	99.273399 
2229.000000	99.272950 
2228.000000	99.272520 
2227.000000	99.272108 
2226.000000	99.271707 
2225.000000	99.271305 
2224.000000	99.270896 
2223.000000	99.270478 
2222.000000	99.270050 
2221.000000	99.269607 
2220.000000	99.269144 
2219.000000	99.268661 
2218.000000	99.268168 
2217.000000	99.267678 
2216.000000	99.267200 
2215.000000	99.266733 
2214.000000	99.266263 
2213.000000	99.265784 
2212.000000	99.265300 
2211.000000	99.264824 
2210.000000	99.264377 
2209.000000	99.263969 
2208.000000	99.263597 
2207.000000	99.263247 
2206.000000	99.262901 
2205.000000	99.262558 
2204.000000	99.262238 
2203.000000	99.261963 
2202.000000	99.261710 
2201.000000	99.261565 
2200.000000	99.261537 
2199.000000	99.261387 
2198.000000	99.260903 
2197.000000	99.260105 
2196.000000	99.259126 
2195.000000	99.258094 
2194.000000	99.257330 
2193.000000	99.257349 
2192.000000	99.258213 
2191.000000	99.259192 
2190.000000	99.259612 
2189.000000	99.259809 
2188.000000	99.260643 
2187.000000	99.261905 
2186.000000	99.261836 
2185.000000	99.258738 
2184.000000	99.252995 
2183.000000	99.247148 
2182.000000	99.243715 
2181.000000	99.243309 
2180.000000	99.244928 
2179.000000	99.247301 
2178.000000	99.249468 
2177.000000	99.250776 
2176.000000	99.251317 
2175.000000	99.251885 
2174.000000	99.252581 
2173.000000	99.252346 
2172.000000	99.251263 
2171.000000	99.252303 
2170.000000	99.258454 
2169.000000	99.268133 
2168.000000	99.275714 
2167.000000	99.277487 
2166.000000	99.275006 
2165.000000	99.272366 
2164.000000	99.272127 
2163.000000	99.274486 
2162.000000	99.277569 
2161.000000	99.276799 
2160.000000	99.267081 
2159.000000	99.248776 
2158.000000	99.229913 
2157.000000	99.218271 
2156.000000	99.213516 
2155.000000	99.210566 
2154.000000	99.207640 
2153.000000	99.207537 
2152.000000	99.212180 
2151.000000	99.219565 
2150.000000	99.226415 
2149.000000	99.231794 
2148.000000	99.237102 
2147.000000	99.243417 
2146.000000	99.249588 
2145.000000	99.252931 
2144.000000	99.251956 
2143.000000	99.248286 
2142.000000	99.245239 
2141.000000	99.244259 
2140.000000	99.243639 
2139.000000	99.241344 
2138.000000	99.238127 
2137.000000	99.236716 
2136.000000	99.238326 
2135.000000	99.241180 
2134.000000	99.242734 
2133.000000	99.242651 
2132.000000	99.242755 
2131.000000	99.244132 
2130.000000	99.245199 
2129.000000	99.243477 
2128.000000	99.239045 
2127.000000	99.235082 
2126.000000	99.234415 
2125.000000	99.236737 
2124.000000	99.240019 
2123.000000	99.243617 
2122.000000	99.248366 
2121.000000	99.254049 
2120.000000	99.258751 
2119.000000	99.260989 
2118.000000	99.261055 
2117.000000	99.260085 
2116.000000	99.258930 
2115.000000	99.258062 
2114.000000	99.257806 
2113.000000	99.258000 
2112.000000	99.257933 
2111.000000	99.257255 
2110.000000	99.256511 
2109.000000	99.256558 
2108.000000	99.257594 
2107.000000	99.258946 
2106.000000	99.259673 
2105.000000	99.259419 
2104.000000	99.258716 
2103.000000	99.258511 
2102.000000	99.259246 
2101.000000	99.260453 
2100.000000	99.261275 
2099.000000	99.261311 
2098.000000	99.260856 
2097.000000	99.260514 
2096.000000	99.260753 
2095.000000	99.261743 
2094.000000	99.263296 
2093.000000	99.264862 
2092.000000	99.265861 
2091.000000	99.266160 
2090.000000	99.266149 
2089.000000	99.266348 
2088.000000	99.266902 
2087.000000	99.267495 
2086.000000	99.267703 
2085.000000	99.267443 
2084.000000	99.267184 
2083.000000	99.267647 
2082.000000	99.269143 
2081.000000	99.271211 
2080.000000	99.272945 
2079.000000	99.273944 
2078.000000	99.274602 
2077.000000	99.275458 
2076.000000	99.276473 
2075.000000	99.277164 
2074.000000	99.277164 
2073.000000	99.276427 
2072.000000	99.275294 
2071.000000	99.274375 
2070.000000	99.274165 
2069.000000	99.274577 
2068.000000	99.274983 
2067.000000	99.274864 
2066.000000	99.274253 
2065.000000	99.273632 
2064.000000	99.273527 
2063.000000	99.274134 
2062.000000	99.275128 
2061.000000	99.275844 
2060.000000	99.275916 
2059.000000	99.275619 
2058.000000	99.275526 
2057.000000	99.275830 
2056.000000	99.276191 
2055.000000	99.276249 
2054.000000	99.276058 
2053.000000	99.275901 
2052.000000	99.275893 
2051.000000	99.275893 
2050.000000	99.275701 
2049.000000	99.275244 
2048.000000	99.274630 
2047.000000	99.274080 
2046.000000	99.273764 
2045.000000	99.273673 
2044.000000	99.273600 
2043.000000	99.273323 
2042.000000	99.272796 
2041.000000	99.272119 
2040.000000	99.271358 
2039.000000	99.270524 
2038.000000	99.269654 
2037.000000	99.268804 
2036.000000	99.267997 
2035.000000	99.267214 
2034.000000	99.266417 
2033.000000	99.265584 
2032.000000	99.264744 
2031.000000	99.263991 
2030.000000	99.263400 
2029.000000	99.262945 
2028.000000	99.262448 
2027.000000	99.261745 
2026.000000	99.260810 
2025.000000	99.259841 
2024.000000	99.259102 
2023.000000	99.258719 
2022.000000	99.258624 
2021.000000	99.258553 
2020.000000	99.258194 
2019.000000	99.257467 
2018.000000	99.256763 
2017.000000	99.256570 
2016.000000	99.256788 
2015.000000	99.256801 
2014.000000	99.256287 
2013.000000	99.255550 
2012.000000	99.254987 
2011.000000	99.254650 
2010.000000	99.254511 
2009.000000	99.254771 
2008.000000	99.255670 
2007.000000	99.257240 
2006.000000	99.259198 
2005.000000	99.260816 
2004.000000	99.261283 
2003.000000	99.260691 
2002.000000	99.260157 
2001.000000	99.260113 
2000.000000	99.259145 
1999.000000	99.255647 
1998.000000	99.250134 
1997.000000	99.245072 
1996.000000	99.242482 
1995.000000	99.242775 
1994.000000	99.245431 
1993.000000	99.249424 
1992.000000	99.253010 
1991.000000	99.254637 
1990.000000	99.254402 
1989.000000	99.253577 
1988.000000	99.253037 
1987.000000	99.253227 
1986.000000	99.255125 
1985.000000	99.259723 
1984.000000	99.266290 
1983.000000	99.272388 
1982.000000	99.275818 
1981.000000	99.275753 
1980.000000	99.272735 
1979.000000	99.268262 
1978.000000	99.263887 
1977.000000	99.259782 
1976.000000	99.254746 
1975.000000	99.248449 
1974.000000	99.242809 
1973.000000	99.240014 
1972.000000	99.240084 
1971.000000	99.241622 
1970.000000	99.244392 
1969.000000	99.249731 
1968.000000	99.258150 
1967.000000	99.267374 
1966.000000	99.273504 
1965.000000	99.274193 
1964.000000	99.270335 
1963.000000	99.265008 
1962.000000	99.260839 
1961.000000	99.258448 
1960.000000	99.257100 
1959.000000	99.255965 
1958.000000	99.254418 
1957.000000	99.252091 
1956.000000	99.249482 
1955.000000	99.247735 
1954.000000	99.246892 
1953.000000	99.245169 
1952.000000	99.241178 
1951.000000	99.236350 
1950.000000	99.233815 
1949.000000	99.234888 
1948.000000	99.237878 
1947.000000	99.240240 
1946.000000	99.240816 
1945.000000	99.239661 
1944.000000	99.237159 
1943.000000	99.234158 
1942.000000	99.231947 
1941.000000	99.231150 
1940.000000	99.231373 
1939.000000	99.232139 
1938.000000	99.233252 
1937.000000	99.234310 
1936.000000	99.234785 
1935.000000	99.234679 
1934.000000	99.234527 
1933.000000	99.234630 
1932.000000	99.234783 
1931.000000	99.234882 
1930.000000	99.235219 
1929.000000	99.235916 
1928.000000	99.236565 
1927.000000	99.236670 
1926.000000	99.236161 
1925.000000	99.235338 
1924.000000	99.234596 
1923.000000	99.234243 
1922.000000	99.234342 
1921.000000	99.234728 
1920.000000	99.235168 
1919.000000	99.235472 
1918.000000	99.235597 
1917.000000	99.235608 
1916.000000	99.235606 
1915.000000	99.235670 
1914.000000	99.235832 
1913.000000	99.236074 
1912.000000	99.236326 
1911.000000	99.236519 
1910.000000	99.236637 
1909.000000	99.236704 
1908.000000	99.236737 
1907.000000	99.236738 
1906.000000	99.236726 
1905.000000	99.236716 
1904.000000	99.236681 
1903.000000	99.236549 
1902.000000	99.236294 
1901.000000	99.235965 
1900.000000	99.235640 
1899.000000	99.235389 
1898.000000	99.235270 
1897.000000	99.235265 
1896.000000	99.235237 
1895.000000	99.235058 
1894.000000	99.234809 
1893.000000	99.234705 
1892.000000	99.234771 
1891.000000	99.234772 
1890.000000	99.234536 
1889.000000	99.234210 
1888.000000	99.234047 
1887.000000	99.234127 
1886.000000	99.234390 
1885.000000	99.234718 
1884.000000	99.234924 
1883.000000	99.234849 
1882.000000	99.234515 
1881.000000	99.234008 
1880.000000	99.233355 
1879.000000	99.232673 
1878.000000	99.232157 
1877.000000	99.231766 
1876.000000	99.231257 
1875.000000	99.230783 
1874.000000	99.231014 
1873.000000	99.232244 
1872.000000	99.233723 
1871.000000	99.234316 
1870.000000	99.233648 
1869.000000	99.232116 
1868.000000	99.229994 
1867.000000	99.227384 
1866.000000	99.224977 
1865.000000	99.223668 
1864.000000	99.223743 
1863.000000	99.225109 
1862.000000	99.227779 
1861.000000	99.231359 
1860.000000	99.234382 
1859.000000	99.235444 
1858.000000	99.234757 
1857.000000	99.233843 
1856.000000	99.233759 
1855.000000	99.234235 
1854.000000	99.234614 
1853.000000	99.234719 
1852.000000	99.234656 
1851.000000	99.234394 
1850.000000	99.233924 
1849.000000	99.233456 
1848.000000	99.233196 
1847.000000	99.233211 
1846.000000	99.233579 
1845.000000	99.234125 
1844.000000	99.234032 
1843.000000	99.232839 
1842.000000	99.231517 
1841.000000	99.231409 
1840.000000	99.232830 
1839.000000	99.235021 
1838.000000	99.236983 
1837.000000	99.238344 
1836.000000	99.239271 
1835.000000	99.239987 
1834.000000	99.240568 
1833.000000	99.241065 
1832.000000	99.241550 
1831.000000	99.241906 
1830.000000	99.241968 
1829.000000	99.241943 
1828.000000	99.242223 
1827.000000	99.242776 
1826.000000	99.243208 
1825.000000	99.243446 
1824.000000	99.243757 
1823.000000	99.244221 
1822.000000	99.244662 
1821.000000	99.244763 
1820.000000	99.244120 
1819.000000	99.242572 
1818.000000	99.240771 
1817.000000	99.239864 
1816.000000	99.240093 
1815.000000	99.240526 
1814.000000	99.240603 
1813.000000	99.241023 
1812.000000	99.242692 
1811.000000	99.245406 
1810.000000	99.248327 
1809.000000	99.251128 
1808.000000	99.253515 
1807.000000	99.254621 
1806.000000	99.253925 
1805.000000	99.252055 
1804.000000	99.250282 
1803.000000	99.249309 
1802.000000	99.249114 
1801.000000	99.249638 
1800.000000	99.250576 
1799.000000	99.251222 
1798.000000	99.251259 
1797.000000	99.251017 
1796.000000	99.250965 
1795.000000	99.251381 
1794.000000	99.252253 
1793.000000	99.253253 
1792.000000	99.253986 
1791.000000	99.254390 
1790.000000	99.254767 
1789.000000	99.255406 
1788.000000	99.256314 
1787.000000	99.257253 
1786.000000	99.257968 
1785.000000	99.258347 
1784.000000	99.258446 
1783.000000	99.258512 
1782.000000	99.258813 
1781.000000	99.259374 
1780.000000	99.259922 
1779.000000	99.260234 
1778.000000	99.260454 
1777.000000	99.260867 
1776.000000	99.261544 
1775.000000	99.262379 
1774.000000	99.263256 
1773.000000	99.264077 
1772.000000	99.264747 
1771.000000	99.265249 
1770.000000	99.265660 
1769.000000	99.266063 
1768.000000	99.266504 
1767.000000	99.266979 
1766.000000	99.267472 
1765.000000	99.267982 
1764.000000	99.268513 
1763.000000	99.269062 
1762.000000	99.269623 
1761.000000	99.270196 
1760.000000	99.270782 
1759.000000	99.271376 
1758.000000	99.271971 
1757.000000	99.272562 
1756.000000	99.273149 
1755.000000	99.273733 
1754.000000	99.274300 
1753.000000	99.274836 
1752.000000	99.275351 
1751.000000	99.275886 
1750.000000	99.276478 
1749.000000	99.277111 
1748.000000	99.277726 
1747.000000	99.278288 
1746.000000	99.278793 
1745.000000	99.279263 
1744.000000	99.279738 
1743.000000	99.280239 
1742.000000	99.280756 
1741.000000	99.281261 
1740.000000	99.281734 
1739.000000	99.282175 
1738.000000	99.282592 
1737.000000	99.282990 
1736.000000	99.283353 
1735.000000	99.283662 
1734.000000	99.283903 
1733.000000	99.284129 
1732.000000	99.284429 
1731.000000	99.284836 
1730.000000	99.285318 
1729.000000	99.285799 
1728.000000	99.286219 
1727.000000	99.286576 
1726.000000	99.286903 
1725.000000	99.287213 
1724.000000	99.287496 
1723.000000	99.287768 
1722.000000	99.288087 
1721.000000	99.288496 
1720.000000	99.288986 
1719.000000	99.289489 
1718.000000	99.289897 
1717.000000	99.290160 
1716.000000	99.290303 
1715.000000	99.290369 
1714.000000	99.290435 
1713.000000	99.290565 
1712.000000	99.290755 
1711.000000	99.290988 
1710.000000	99.291258 
1709.000000	99.291550 
1708.000000	99.291825 
1707.000000	99.292052 
1706.000000	99.292270 
1705.000000	99.292535 
1704.000000	99.292807 
1703.000000	99.293017 
1702.000000	99.293151 
1701.000000	99.293290 
1700.000000	99.293538 
1699.000000	99.293883 
1698.000000	99.294243 
1697.000000	99.294624 
1696.000000	99.295069 
1695.000000	99.295560 
1694.000000	99.296056 
1693.000000	99.296542 
1692.000000	99.296964 
1691.000000	99.297282 
1690.000000	99.297535 
1689.000000	99.297789 
1688.000000	99.298023 
1687.000000	99.298152 
1686.000000	99.298259 
1685.000000	99.298667 
1684.000000	99.299431 
1683.000000	99.300128 
1682.000000	99.300563 
1681.000000	99.300838 
1680.000000	99.301153 
1679.000000	99.301652 
1678.000000	99.302314 
1677.000000	99.303039 
1676.000000	99.303773 
1675.000000	99.304466 
1674.000000	99.305032 
1673.000000	99.305488 
1672.000000	99.305909 
1671.000000	99.306385 
1670.000000	99.306964 
1669.000000	99.307526 
1668.000000	99.308074 
1667.000000	99.308702 
1666.000000	99.309191 
1665.000000	99.309283 
1664.000000	99.309195 
1663.000000	99.309586 
1662.000000	99.310775 
1661.000000	99.312271 
1660.000000	99.313418 
1659.000000	99.314189 
1658.000000	99.315070 
1657.000000	99.315892 
1656.000000	99.315965 
1655.000000	99.315009 
1654.000000	99.314636 
1653.000000	99.315257 
1652.000000	99.315305 
1651.000000	99.315505 
1650.000000	99.315810 
1649.000000	99.315258 
1648.000000	99.314041 
1647.000000	99.312799 
1646.000000	99.311995 
1645.000000	99.312082 
1644.000000	99.313309 
1643.000000	99.315143 
1642.000000	99.316689 
1641.000000	99.317548 
1640.000000	99.317765 
1639.000000	99.317520 
1638.000000	99.316988 
1637.000000	99.316535 
1636.000000	99.316218 
1635.000000	99.315830 
1634.000000	99.316115 
1633.000000	99.317427 
1632.000000	99.318922 
1631.000000	99.320025 
1630.000000	99.320841 
1629.000000	99.321411 
1628.000000	99.321450 
1627.000000	99.320953 
1626.000000	99.320524 
1625.000000	99.320863 
1624.000000	99.322159 
1623.000000	99.323882 
1622.000000	99.325357 
1621.000000	99.326283 
1620.000000	99.326381 
1619.000000	99.325554 
1618.000000	99.324644 
1617.000000	99.324402 
1616.000000	99.324418 
1615.000000	99.324381 
1614.000000	99.323833 
1613.000000	99.321996 
1612.000000	99.319432 
1611.000000	99.317605 
1610.000000	99.317016 
1609.000000	99.316867 
1608.000000	99.316616 
1607.000000	99.316643 
1606.000000	99.317016 
1605.000000	99.317261 
1604.000000	99.317386 
1603.000000	99.318002 
1602.000000	99.319181 
1601.000000	99.320101 
1600.000000	99.320522 
1599.000000	99.321392 
1598.000000	99.323266 
1597.000000	99.325396 
1596.000000	99.326908 
1595.000000	99.328091 
1594.000000	99.329643 
1593.000000	99.331224 
1592.000000	99.331967 
1591.000000	99.331966 
1590.000000	99.332073 
1589.000000	99.332516 
1588.000000	99.332852 
1587.000000	99.333061 
1586.000000	99.333325 
1585.000000	99.333204 
1584.000000	99.332111 
1583.000000	99.330286 
1582.000000	99.328887 
1581.000000	99.328725 
1580.000000	99.329511 
1579.000000	99.330535 
1578.000000	99.331553 
1577.000000	99.332538 
1576.000000	99.333029 
1575.000000	99.333271 
1574.000000	99.333962 
1573.000000	99.334651 
1572.000000	99.334698 
1571.000000	99.334394 
1570.000000	99.334476 
1569.000000	99.335111 
1568.000000	99.335898 
1567.000000	99.336470 
1566.000000	99.336722 
1565.000000	99.336749 
1564.000000	99.336794 
1563.000000	99.336891 
1562.000000	99.336946 
1561.000000	99.336818 
1560.000000	99.336548 
1559.000000	99.336198 
1558.000000	99.335851 
1557.000000	99.335709 
1556.000000	99.335664 
1555.000000	99.335558 
1554.000000	99.335373 
1553.000000	99.335166 
1552.000000	99.334965 
1551.000000	99.334762 
1550.000000	99.334548 
1549.000000	99.334316 
1548.000000	99.334063 
1547.000000	99.333797 
1546.000000	99.333516 
1545.000000	99.333223 
1544.000000	99.332927 
1543.000000	99.332635 
1542.000000	99.332351 
1541.000000	99.332078 
1540.000000	99.331810 
1539.000000	99.331542 
1538.000000	99.331278 
1537.000000	99.331024 
1536.000000	99.330776 
1535.000000	99.330530 
1534.000000	99.330281 
1533.000000	99.330027 
1532.000000	99.329769 
1531.000000	99.329488 
1530.000000	99.329170 
1529.000000	99.328845 
1528.000000	99.328545 
1527.000000	99.328255 
1526.000000	99.327943 
1525.000000	99.327624 
1524.000000	99.327320 
1523.000000	99.327018 
1522.000000	99.326774 
1521.000000	99.326640 
1520.000000	99.326437 
1519.000000	99.325923 
1518.000000	99.325078 
1517.000000	99.324195 
1516.000000	99.323541 
1515.000000	99.323072 
1514.000000	99.322681 
1513.000000	99.322330 
1512.000000	99.321945 
1511.000000	99.321304 
1510.000000	99.320242 
1509.000000	99.318908 
1508.000000	99.318438 
1507.000000	99.319931 
1506.000000	99.321366 
1505.000000	99.320966 
1504.000000	99.320135 
1503.000000	99.319748 
1502.000000	99.319760 
1501.000000	99.320471 
1500.000000	99.321895 
1499.000000	99.323579 
1498.000000	99.324791 
1497.000000	99.325716 
1496.000000	99.326596 
1495.000000	99.326548 
1494.000000	99.324823 
1493.000000	99.321774 
1492.000000	99.318275 
1491.000000	99.315373 
1490.000000	99.313907 
1489.000000	99.313796 
1488.000000	99.313482 
1487.000000	99.311925 
1486.000000	99.310322 
1485.000000	99.309816 
1484.000000	99.310065 
1483.000000	99.310063 
1482.000000	99.309054 
1481.000000	99.307175 
1480.000000	99.305215 
1479.000000	99.303937 
1478.000000	99.303706 
1477.000000	99.304380 
1476.000000	99.305141 
1475.000000	99.304889 
1474.000000	99.304059 
1473.000000	99.304958 
1472.000000	99.308024 
1471.000000	99.310432 
1470.000000	99.310815 
1469.000000	99.310648 
1468.000000	99.311352 
1467.000000	99.312831 
1466.000000	99.314249 
1465.000000	99.315097 
1464.000000	99.315118 
1463.000000	99.314385 
1462.000000	99.313802 
1461.000000	99.314439 
1460.000000	99.316105 
1459.000000	99.317074 
1458.000000	99.314976 
1457.000000	99.309717 
1456.000000	99.304359 
1455.000000	99.300796 
1454.000000	99.298529 
1453.000000	99.297304 
1452.000000	99.296916 
1451.000000	99.296612 
1450.000000	99.295879 
1449.000000	99.295953 
1448.000000	99.298039 
1447.000000	99.300869 
1446.000000	99.302470 
1445.000000	99.303185 
1444.000000	99.304097 
1443.000000	99.304625 
1442.000000	99.303805 
1441.000000	99.302276 
1440.000000	99.301869 
1439.000000	99.303385 
1438.000000	99.305052 
1437.000000	99.304161 
1436.000000	99.300140 
1435.000000	99.294283 
1434.000000	99.288426 
1433.000000	99.284757 
1432.000000	99.284466 
1431.000000	99.287059 
1430.000000	99.290091 
1429.000000	99.291231 
1428.000000	99.290209 
1427.000000	99.287825 
1426.000000	99.284412 
1425.000000	99.279819 
1424.000000	99.275460 
1423.000000	99.272981 
1422.000000	99.271347 
1421.000000	99.268332 
1420.000000	99.262967 
1419.000000	99.255663 
1418.000000	99.246425 
1417.000000	99.235884 
1416.000000	99.226576 
1415.000000	99.219947 
1414.000000	99.214307 
1413.000000	99.207071 
1412.000000	99.198339 
1411.000000	99.190595 
1410.000000	99.184771 
1409.000000	99.180235 
1408.000000	99.177289 
1407.000000	99.176633 
1406.000000	99.177644 
1405.000000	99.179483 
1404.000000	99.182967 
1403.000000	99.188134 
1402.000000	99.192564 
1401.000000	99.194358 
1400.000000	99.194428 
1399.000000	99.194824 
1398.000000	99.194195 
1397.000000	99.188398 
1396.000000	99.176541 
1395.000000	99.164484 
1394.000000	99.160049 
1393.000000	99.165544 
1392.000000	99.178222 
1391.000000	99.193581 
1390.000000	99.207085 
1389.000000	99.215502 
1388.000000	99.217947 
1387.000000	99.216005 
1386.000000	99.212084 
1385.000000	99.208134 
1384.000000	99.205644 
1383.000000	99.205347 
1382.000000	99.207044 
1381.000000	99.210412 
1380.000000	99.215148 
1379.000000	99.220477 
1378.000000	99.225052 
1377.000000	99.227910 
1376.000000	99.229771 
1375.000000	99.233011 
1374.000000	99.239280 
1373.000000	99.247103 
1372.000000	99.253694 
1371.000000	99.258868 
1370.000000	99.264771 
1369.000000	99.272184 
1368.000000	99.279863 
1367.000000	99.286390 
1366.000000	99.291336 
1365.000000	99.294752 
1364.000000	99.296314 
1363.000000	99.296476 
1362.000000	99.297386 
1361.000000	99.300562 
1360.000000	99.305135 
1359.000000	99.309683 
1358.000000	99.314046 
1357.000000	99.318679 
1356.000000	99.323307 
1355.000000	99.327147 
1354.000000	99.330126 
1353.000000	99.332883 
1352.000000	99.334763 
1351.000000	99.334227 
1350.000000	99.331999 
1349.000000	99.330326 
1348.000000	99.330469 
1347.000000	99.332139 
1346.000000	99.334901 
1345.000000	99.338426 
1344.000000	99.341686 
1343.000000	99.343462 
1342.000000	99.343652 
1341.000000	99.343026 
1340.000000	99.342064 
1339.000000	99.341010 
1338.000000	99.340578 
1337.000000	99.341801 
1336.000000	99.344823 
1335.000000	99.348319 
1334.000000	99.350863 
1333.000000	99.352354 
1332.000000	99.353369 
1331.000000	99.354031 
1330.000000	99.354018 
1329.000000	99.353214 
1328.000000	99.352065 
1327.000000	99.351405 
1326.000000	99.351714 
1325.000000	99.352292 
1324.000000	99.352404 
1323.000000	99.352328 
1322.000000	99.352602 
1321.000000	99.352870 
1320.000000	99.352401 
1319.000000	99.351416 
1318.000000	99.350887 
1317.000000	99.351118 
1316.000000	99.351311 
1315.000000	99.350701 
1314.000000	99.349522 
1313.000000	99.348752 
1312.000000	99.349152 
1311.000000	99.350751 
1310.000000	99.353014 
1309.000000	99.355180 
1308.000000	99.356450 
1307.000000	99.356237 
1306.000000	99.354588 
1305.000000	99.352190 
1304.000000	99.350336 
1303.000000	99.350194 
1302.000000	99.351934 
1301.000000	99.354526 
1300.000000	99.356494 
1299.000000	99.356810 
1298.000000	99.355265 
1297.000000	99.352525 
1296.000000	99.349956 
1295.000000	99.349076 
1294.000000	99.350494 
1293.000000	99.353337 
1292.000000	99.355856 
1291.000000	99.356611 
1290.000000	99.355390 
1289.000000	99.353399 
1288.000000	99.352390 
1287.000000	99.353001 
1286.000000	99.353923 
1285.000000	99.353311 
1284.000000	99.350920 
1283.000000	99.348132 
1282.000000	99.345911 
1281.000000	99.343694 
1280.000000	99.340807 
1279.000000	99.337846 
1278.000000	99.335686 
1277.000000	99.333983 
1276.000000	99.331613 
1275.000000	99.328375 
1274.000000	99.325294 
1273.000000	99.323288 
1272.000000	99.322228 
1271.000000	99.321152 
1270.000000	99.318888 
1269.000000	99.314797 
1268.000000	99.309563 
1267.000000	99.304807 
1266.000000	99.301179 
1265.000000	99.297542 
1264.000000	99.292677 
1263.000000	99.286921 
1262.000000	99.281264 
1261.000000	99.275743 
1260.000000	99.270112 
1259.000000	99.265481 
1258.000000	99.263421 
1257.000000	99.263772 
1256.000000	99.264726 
1255.000000	99.265102 
1254.000000	99.265337 
1253.000000	99.266081 
1252.000000	99.267018 
1251.000000	99.267543 
1250.000000	99.267630 
1249.000000	99.267703 
1248.000000	99.268504 
1247.000000	99.271052 
1246.000000	99.275419 
1245.000000	99.279370 
1244.000000	99.279763 
1243.000000	99.276211 
1242.000000	99.272409 
1241.000000	99.272652 
1240.000000	99.277400 
1239.000000	99.283078 
1238.000000	99.285882 
1237.000000	99.284981 
1236.000000	99.282018 
1235.000000	99.278809 
1234.000000	99.275964 
1233.000000	99.273241 
1232.000000	99.270496 
1231.000000	99.268006 
1230.000000	99.265946 
1229.000000	99.263978 
1228.000000	99.261808 
1227.000000	99.260159 
1226.000000	99.260546 
1225.000000	99.263598 
1224.000000	99.267952 
1223.000000	99.271277 
1222.000000	99.272414 
1221.000000	99.272134 
1220.000000	99.272061 
1219.000000	99.273341 
1218.000000	99.276071 
1217.000000	99.279397 
1216.000000	99.282064 
1215.000000	99.283392 
1214.000000	99.283903 
1213.000000	99.284747 
1212.000000	99.286351 
1211.000000	99.287774 
1210.000000	99.287569 
1209.000000	99.285152 
1208.000000	99.281307 
1207.000000	99.277561 
1206.000000	99.275099 
1205.000000	99.274053 
1204.000000	99.273654 
1203.000000	99.272950 
1202.000000	99.271268 
1201.000000	99.268141 
1200.000000	99.263421 
1199.000000	99.257783 
1198.000000	99.252659 
1197.000000	99.249132 
1196.000000	99.246939 
1195.000000	99.244940 
1194.000000	99.242408 
1193.000000	99.239387 
1192.000000	99.236021 
1191.000000	99.232242 
1190.000000	99.228273 
1189.000000	99.224975 
1188.000000	99.223293 
1187.000000	99.223275 
1186.000000	99.223600 
1185.000000	99.222163 
1184.000000	99.217442 
1183.000000	99.209697 
1182.000000	99.201038 
1181.000000	99.194015 
1180.000000	99.189828 
1179.000000	99.187849 
1178.000000	99.186411 
1177.000000	99.183926 
1176.000000	99.179640 
1175.000000	99.173965 
1174.000000	99.168189 
1173.000000	99.163440 
1172.000000	99.159850 
1171.000000	99.156856 
1170.000000	99.154027 
1169.000000	99.151142 
1168.000000	99.147577 
1167.000000	99.142296 
1166.000000	99.134897 
1165.000000	99.126516 
1164.000000	99.119426 
1163.000000	99.115603 
1162.000000	99.115508 
1161.000000	99.117848 
1160.000000	99.120527 
1159.000000	99.122285 
1158.000000	99.123455 
1157.000000	99.124849 
1156.000000	99.126059 
1155.000000	99.125392 
1154.000000	99.121594 
1153.000000	99.115084 
1152.000000	99.107380 
1151.000000	99.099870 
1150.000000	99.093293 
1149.000000	99.087776 
1148.000000	99.082753 
1147.000000	99.077050 
1146.000000	99.069639 
1145.000000	99.060549 
1144.000000	99.051083 
1143.000000	99.043217 
1142.000000	99.038483 
1141.000000	99.036816 
1140.000000	99.036224 
1139.000000	99.033918 
1138.000000	99.028258 
1137.000000	99.019809 
1136.000000	99.010685 
1135.000000	99.003007 
1134.000000	98.997775 
1133.000000	98.994601 
1132.000000	98.992174 
1131.000000	98.989201 
1130.000000	98.985198 
1129.000000	98.980372 
1128.000000	98.974723 
1127.000000	98.967575 
1126.000000	98.958341 
1125.000000	98.947637 
1124.000000	98.937320 
1123.000000	98.929106 
1122.000000	98.922931 
1121.000000	98.916801 
1120.000000	98.908626 
1119.000000	98.898222 
1118.000000	98.887109 
1117.000000	98.876310 
1116.000000	98.865092 
1115.000000	98.852327 
1114.000000	98.838226 
1113.000000	98.823794 
1112.000000	98.809288 
1111.000000	98.794669 
1110.000000	98.781039 
1109.000000	98.769808 
1108.000000	98.760237 
1107.000000	98.749388 
1106.000000	98.735567 
1105.000000	98.720386 
1104.000000	98.706223 
1103.000000	98.693186 
1102.000000	98.680155 
1101.000000	98.668048 
1100.000000	98.659228 
1099.000000	98.653207 
1098.000000	98.646552 
1097.000000	98.637002 
1096.000000	98.626279 
1095.000000	98.616984 
1094.000000	98.608238 
1093.000000	98.596434 
1092.000000	98.579574 
1091.000000	98.558904 
1090.000000	98.536547 
1089.000000	98.513295 
1088.000000	98.489317 
1087.000000	98.465668 
1086.000000	98.443968 
1085.000000	98.425006 
1084.000000	98.408155 
1083.000000	98.391776 
1082.000000	98.374080 
1081.000000	98.354395 
1080.000000	98.334000 
1079.000000	98.315142 
1078.000000	98.298919 
1077.000000	98.284731 
1076.000000	98.271990 
1075.000000	98.261419 
1074.000000	98.254069 
1073.000000	98.249640 
1072.000000	98.245969 
1071.000000	98.239322 
1070.000000	98.225326 
1069.000000	98.201793 
1068.000000	98.172438 
1067.000000	98.146797 
1066.000000	98.133731 
1065.000000	98.134583 
1064.000000	98.142967 
1063.000000	98.150333 
1062.000000	98.150941 
1061.000000	98.142306 
1060.000000	98.124495 
1059.000000	98.101532 
1058.000000	98.081370 
1057.000000	98.070604 
1056.000000	98.068356 
1055.000000	98.066763 
1054.000000	98.058589 
1053.000000	98.043928 
1052.000000	98.028730 
1051.000000	98.017768 
1050.000000	98.010691 
1049.000000	98.004733 
1048.000000	97.998999 
1047.000000	97.994732 
1046.000000	97.992582 
1045.000000	97.991300 
1044.000000	97.989179 
1043.000000	97.986019 
1042.000000	97.983223 
1041.000000	97.981924 
1040.000000	97.981461 
1039.000000	97.980446 
1038.000000	97.979451 
1037.000000	97.981554 
1036.000000	97.989323 
1035.000000	98.002020 
1034.000000	98.016615 
1033.000000	98.030511 
1032.000000	98.041527 
1031.000000	98.046350 
1030.000000	98.042482 
1029.000000	98.032921 
1028.000000	98.026382 
1027.000000	98.030301 
1026.000000	98.044315 
1025.000000	98.061666 
1024.000000	98.075935 
1023.000000	98.084909 
1022.000000	98.089190 
1021.000000	98.090026 
1020.000000	98.089118 
1019.000000	98.088724 
1018.000000	98.090410 
1017.000000	98.094025 
1016.000000	98.098519 
1015.000000	98.103513 
1014.000000	98.109710 
1013.000000	98.117734 
1012.000000	98.126678 
1011.000000	98.134067 
1010.000000	98.138007 
1009.000000	98.139577 
1008.000000	98.142276 
1007.000000	98.148686 
1006.000000	98.158363 
1005.000000	98.169227 
1004.000000	98.179888 
1003.000000	98.189836 
1002.000000	98.198567 
1001.000000	98.206000 
1000.000000	98.213239 
999.000000	 98.221348 
998.000000	 98.229441 
997.000000	 98.235398 
996.000000	 98.238948 
995.000000	 98.242909 
994.000000	 98.250635 
993.000000	 98.262721 
992.000000	 98.276497 
991.000000	 98.288171 
990.000000	 98.295407 
989.000000	 98.298636 
988.000000	 98.300505 
987.000000	 98.303469 
986.000000	 98.307718 
985.000000	 98.312311 
984.000000	 98.318004 
983.000000	 98.327177 
982.000000	 98.340699 
981.000000	 98.356348 
980.000000	 98.371107 
979.000000	 98.384118 
978.000000	 98.396338 
977.000000	 98.408496 
976.000000	 98.420903 
975.000000	 98.434354 
974.000000	 98.449370 
973.000000	 98.464828 
972.000000	 98.478900 
971.000000	 98.491422 
970.000000	 98.504095 
969.000000	 98.518273 
968.000000	 98.533749 
967.000000	 98.549752 
966.000000	 98.565657 
965.000000	 98.580318 
964.000000	 98.592266 
963.000000	 98.601715 
962.000000	 98.611293 
961.000000	 98.623488 
960.000000	 98.637888 
959.000000	 98.651957 
958.000000	 98.663967 
957.000000	 98.674079 
956.000000	 98.683181 
955.000000	 98.692199 
954.000000	 98.702272 
953.000000	 98.713792 
952.000000	 98.724839 
951.000000	 98.732217 
950.000000	 98.734987 
949.000000	 98.735949 
948.000000	 98.739001 
947.000000	 98.745899 
946.000000	 98.756157 
945.000000	 98.768765 
944.000000	 98.782496 
943.000000	 98.795049 
942.000000	 98.803578 
941.000000	 98.806670 
940.000000	 98.805528 
939.000000	 98.803416 
938.000000	 98.803901 
937.000000	 98.808591 
936.000000	 98.815681 
935.000000	 98.821131 
934.000000	 98.822334 
933.000000	 98.820540 
932.000000	 98.819087 
931.000000	 98.819873 
930.000000	 98.822561 
929.000000	 98.826626 
928.000000	 98.832358 
927.000000	 98.839504 
926.000000	 98.846408 
925.000000	 98.851433 
924.000000	 98.854339 
923.000000	 98.855486 
922.000000	 98.854534 
921.000000	 98.851116 
920.000000	 98.846551 
919.000000	 98.843666 
918.000000	 98.844336 
917.000000	 98.847534 
916.000000	 98.850253 
915.000000	 98.850394 
914.000000	 98.848700 
913.000000	 98.847913 
912.000000	 98.850245 
911.000000	 98.855601 
910.000000	 98.861753 
909.000000	 98.865985 
908.000000	 98.866931 
907.000000	 98.865523 
906.000000	 98.864413 
905.000000	 98.865998 
904.000000	 98.870696 
903.000000	 98.877374 
902.000000	 98.885319 
901.000000	 98.894962 
900.000000	 98.906459 
899.000000	 98.918652 
898.000000	 98.930138 
897.000000	 98.940512 
896.000000	 98.949468 
895.000000	 98.955876 
894.000000	 98.959603 
893.000000	 98.963694 
892.000000	 98.972505 
891.000000	 98.987163 
890.000000	 99.004238 
889.000000	 99.019555 
888.000000	 99.032070 
887.000000	 99.042832 
886.000000	 99.051583 
885.000000	 99.056515 
884.000000	 99.057439 
883.000000	 99.057571 
882.000000	 99.061027 
881.000000	 99.068991 
880.000000	 99.079369 
879.000000	 99.089914 
878.000000	 99.100548 
877.000000	 99.111909 
876.000000	 99.122495 
875.000000	 99.129025 
874.000000	 99.130236 
873.000000	 99.129265 
872.000000	 99.131313 
871.000000	 99.138872 
870.000000	 99.149869 
869.000000	 99.159907 
868.000000	 99.166191 
867.000000	 99.169573 
866.000000	 99.173558 
865.000000	 99.181368 
864.000000	 99.193493 
863.000000	 99.207842 
862.000000	 99.221895 
861.000000	 99.234139 
860.000000	 99.243569 
859.000000	 99.249573 
858.000000	 99.253625 
857.000000	 99.259678 
856.000000	 99.270537 
855.000000	 99.283997 
854.000000	 99.294652 
853.000000	 99.299842 
852.000000	 99.302013 
851.000000	 99.304856 
850.000000	 99.309022 
849.000000	 99.312792 
848.000000	 99.315298 
847.000000	 99.317592 
846.000000	 99.321414 
845.000000	 99.327970 
844.000000	 99.337213 
843.000000	 99.347234 
842.000000	 99.354841 
841.000000	 99.357787 
840.000000	 99.356729 
839.000000	 99.354843 
838.000000	 99.355193 
837.000000	 99.357781 
836.000000	 99.359053 
835.000000	 99.355541 
834.000000	 99.348836 
833.000000	 99.345286 
832.000000	 99.348287 
831.000000	 99.352164 
830.000000	 99.347937 
829.000000	 99.335676 
828.000000	 99.326795 
827.000000	 99.330838 
826.000000	 99.343452 
825.000000	 99.352182 
824.000000	 99.352255 
823.000000	 99.350392 
822.000000	 99.353329 
821.000000	 99.358879 
820.000000	 99.360490 
819.000000	 99.355870 
818.000000	 99.348621 
817.000000	 99.343845 
816.000000	 99.343514 
815.000000	 99.344720 
814.000000	 99.341624 
813.000000	 99.330566 
812.000000	 99.314275 
811.000000	 99.300195 
810.000000	 99.293540 
809.000000	 99.292478 
808.000000	 99.290499 
807.000000	 99.282146 
806.000000	 99.265752 
805.000000	 99.242353 
804.000000	 99.214460 
803.000000	 99.186310 
802.000000	 99.163204 
801.000000	 99.148609 
800.000000	 99.141460 
799.000000	 99.136875 
798.000000	 99.130477 
797.000000	 99.122519 
796.000000	 99.117218 
795.000000	 99.118146 
794.000000	 99.125359 
793.000000	 99.136786 
792.000000	 99.149852 
791.000000	 99.160235 
790.000000	 99.161767 
789.000000	 99.151475 
788.000000	 99.134627 
787.000000	 99.121553 
786.000000	 99.118098 
785.000000	 99.121363 
784.000000	 99.124956 
783.000000	 99.125618 
782.000000	 99.123516 
781.000000	 99.119211 
780.000000	 99.113551 
779.000000	 99.109062 
778.000000	 99.108354 
777.000000	 99.111540 
776.000000	 99.116983 
775.000000	 99.123753 
774.000000	 99.131577 
773.000000	 99.139319 
772.000000	 99.145759 
771.000000	 99.151225 
770.000000	 99.156253 
769.000000	 99.159288 
768.000000	 99.158478 
767.000000	 99.155925 
766.000000	 99.157053 
765.000000	 99.164493 
764.000000	 99.174897 
763.000000	 99.183043 
762.000000	 99.187550 
761.000000	 99.190868 
760.000000	 99.195115 
759.000000	 99.200067 
758.000000	 99.204527 
757.000000	 99.207772 
756.000000	 99.209840 
755.000000	 99.211948 
754.000000	 99.216479 
753.000000	 99.225028 
752.000000	 99.236185 
751.000000	 99.246126 
750.000000	 99.252008 
749.000000	 99.254072 
748.000000	 99.254391 
747.000000	 99.254829 
746.000000	 99.256713 
745.000000	 99.261062 
744.000000	 99.267533 
743.000000	 99.273609 
742.000000	 99.276614 
741.000000	 99.276842 
740.000000	 99.277530 
739.000000	 99.281355 
738.000000	 99.287950 
737.000000	 99.295180 
736.000000	 99.301632 
735.000000	 99.307264 
734.000000	 99.312883 
733.000000	 99.319997 
732.000000	 99.329915 
731.000000	 99.341235 
730.000000	 99.349158 
729.000000	 99.349650 
728.000000	 99.343771 
727.000000	 99.336939 
726.000000	 99.333880 
725.000000	 99.335489 
724.000000	 99.340545 
723.000000	 99.347881 
722.000000	 99.355897 
721.000000	 99.361743 
720.000000	 99.362725 
719.000000	 99.358554 
718.000000	 99.351581 
717.000000	 99.344885 
716.000000	 99.340777 
715.000000	 99.340096 
714.000000	 99.341881 
713.000000	 99.344242 
712.000000	 99.346320 
711.000000	 99.348980 
710.000000	 99.353040 
709.000000	 99.357411 
708.000000	 99.359635 
707.000000	 99.358230 
706.000000	 99.354505 
705.000000	 99.351691 
704.000000	 99.352007 
703.000000	 99.354979 
702.000000	 99.358226 
701.000000	 99.359607 
700.000000	 99.358397 
699.000000	 99.354195 
698.000000	 99.346152 
697.000000	 99.333829 
696.000000	 99.318208 
695.000000	 99.301800 
694.000000	 99.287984 
693.000000	 99.280987 
692.000000	 99.284754 
691.000000	 99.298659 
690.000000	 99.315792 
689.000000	 99.328470 
688.000000	 99.335477 
687.000000	 99.340995 
686.000000	 99.346182 
685.000000	 99.347242 
684.000000	 99.342873 
683.000000	 99.337733 
682.000000	 99.336803 
681.000000	 99.340709 
680.000000	 99.348435 
679.000000	 99.359319 
678.000000	 99.369215 
677.000000	 99.371198 
676.000000	 99.364095 
675.000000	 99.354983 
674.000000	 99.351227 
673.000000	 99.351513 
672.000000	 99.347251 
671.000000	 99.332337 
670.000000	 99.308315 
669.000000	 99.285291 
668.000000	 99.277454 
667.000000	 99.285359 
666.000000	 99.299626 
665.000000	 99.319119 
664.000000	 99.340353 
663.000000	 99.357002 
662.000000	 99.365899 
661.000000	 99.371197 
660.000000	 99.377832 
659.000000	 99.382712 
658.000000	 99.378093 
657.000000	 99.362485 
656.000000	 99.342523 
655.000000	 99.325871 
654.000000	 99.316664 
653.000000	 99.312806 
652.000000	 99.305120 
651.000000	 99.287093 
650.000000	 99.267048 

