4000.000000	99.430359 
3999.000000	99.429037 
3998.000000	99.427609 
3997.000000	99.425872 
3996.000000	99.423793 
3995.000000	99.421791 
3994.000000	99.420550 
3993.000000	99.420525 
3992.000000	99.421589 
3991.000000	99.422985 
3990.000000	99.423825 
3989.000000	99.423764 
3988.000000	99.423149 
3987.000000	99.422626 
3986.000000	99.422582 
3985.000000	99.422854 
3984.000000	99.422884 
3983.000000	99.422135 
3982.000000	99.420479 
3981.000000	99.418353 
3980.000000	99.416455 
3979.000000	99.415251 
3978.000000	99.414847 
3977.000000	99.415174 
3976.000000	99.416104 
3975.000000	99.417387 
3974.000000	99.418641 
3973.000000	99.419447 
3972.000000	99.419551 
3971.000000	99.419017 
3970.000000	99.418173 
3969.000000	99.417389 
3968.000000	99.416840 
3967.000000	99.416428 
3966.000000	99.415967 
3965.000000	99.415443 
3964.000000	99.414975 
3963.000000	99.414546 
3962.000000	99.413932 
3961.000000	99.412972 
3960.000000	99.411800 
3959.000000	99.410795 
3958.000000	99.410245 
3957.000000	99.410100 
3956.000000	99.410072 
3955.000000	99.409910 
3954.000000	99.409554 
3953.000000	99.409063 
3952.000000	99.408491 
3951.000000	99.407906 
3950.000000	99.407457 
3949.000000	99.407323 
3948.000000	99.407557 
3947.000000	99.407941 
3946.000000	99.408132 
3945.000000	99.407986 
3944.000000	99.407697 
3943.000000	99.407572 
3942.000000	99.407705 
3941.000000	99.407924 
3940.000000	99.407978 
3939.000000	99.407701 
3938.000000	99.407074 
3937.000000	99.406216 
3936.000000	99.405389 
3935.000000	99.404909 
3934.000000	99.404988 
3933.000000	99.405597 
3932.000000	99.406389 
3931.000000	99.406843 
3930.000000	99.406617 
3929.000000	99.405810 
3928.000000	99.404923 
3927.000000	99.404494 
3926.000000	99.404754 
3925.000000	99.405488 
3924.000000	99.406105 
3923.000000	99.406114 
3922.000000	99.405529 
3921.000000	99.404850 
3920.000000	99.404623 
3919.000000	99.405050 
3918.000000	99.406003 
3917.000000	99.407201 
3916.000000	99.408327 
3915.000000	99.409113 
3914.000000	99.409545 
3913.000000	99.409854 
3912.000000	99.410180 
3911.000000	99.410465 
3910.000000	99.410638 
3909.000000	99.410814 
3908.000000	99.411134 
3907.000000	99.411395 
3906.000000	99.411067 
3905.000000	99.409815 
3904.000000	99.407850 
3903.000000	99.405887 
3902.000000	99.404690 
3901.000000	99.404564 
3900.000000	99.405307 
3899.000000	99.406308 
3898.000000	99.406928 
3897.000000	99.406986 
3896.000000	99.406706 
3895.000000	99.406394 
3894.000000	99.406205 
3893.000000	99.406107 
3892.000000	99.406004 
3891.000000	99.405837 
3890.000000	99.405595 
3889.000000	99.405306 
3888.000000	99.405059 
3887.000000	99.405008 
3886.000000	99.405205 
3885.000000	99.405456 
3884.000000	99.405527 
3883.000000	99.405449 
3882.000000	99.405447 
3881.000000	99.405640 
3880.000000	99.405914 
3879.000000	99.406100 
3878.000000	99.406200 
3877.000000	99.406309 
3876.000000	99.406470 
3875.000000	99.406649 
3874.000000	99.406815 
3873.000000	99.406981 
3872.000000	99.407164 
3871.000000	99.407369 
3870.000000	99.407603 
3869.000000	99.407865 
3868.000000	99.408150 
3867.000000	99.408451 
3866.000000	99.408768 
3865.000000	99.409101 
3864.000000	99.409451 
3863.000000	99.409820 
3862.000000	99.410210 
3861.000000	99.410623 
3860.000000	99.411056 
3859.000000	99.411501 
3858.000000	99.411945 
3857.000000	99.412380 
3856.000000	99.412800 
3855.000000	99.413201 
3854.000000	99.413586 
3853.000000	99.413957 
3852.000000	99.414320 
3851.000000	99.414683 
3850.000000	99.415051 
3849.000000	99.415425 
3848.000000	99.415806 
3847.000000	99.416192 
3846.000000	99.416579 
3845.000000	99.416955 
3844.000000	99.417317 
3843.000000	99.417686 
3842.000000	99.418085 
3841.000000	99.418499 
3840.000000	99.418886 
3839.000000	99.419241 
3838.000000	99.419582 
3837.000000	99.419915 
3836.000000	99.420229 
3835.000000	99.420555 
3834.000000	99.420956 
3833.000000	99.421491 
3832.000000	99.422125 
3831.000000	99.422637 
3830.000000	99.422749 
3829.000000	99.422379 
3828.000000	99.421727 
3827.000000	99.421234 
3826.000000	99.421279 
3825.000000	99.421807 
3824.000000	99.422382 
3823.000000	99.422685 
3822.000000	99.422808 
3821.000000	99.423041 
3820.000000	99.423335 
3819.000000	99.423342 
3818.000000	99.422925 
3817.000000	99.422361 
3816.000000	99.421910 
3815.000000	99.421235 
3814.000000	99.419874 
3813.000000	99.418201 
3812.000000	99.417293 
3811.000000	99.417812 
3810.000000	99.419414 
3809.000000	99.421017 
3808.000000	99.421932 
3807.000000	99.422445 
3806.000000	99.423007 
3805.000000	99.423338 
3804.000000	99.422864 
3803.000000	99.421702 
3802.000000	99.420616 
3801.000000	99.419924 
3800.000000	99.419055 
3799.000000	99.417576 
3798.000000	99.415880 
3797.000000	99.414755 
3796.000000	99.414476 
3795.000000	99.414489 
3794.000000	99.414169 
3793.000000	99.413516 
3792.000000	99.412888 
3791.000000	99.412410 
3790.000000	99.411934 
3789.000000	99.411398 
3788.000000	99.410970 
3787.000000	99.410784 
3786.000000	99.410852 
3785.000000	99.411186 
3784.000000	99.411755 
3783.000000	99.412246 
3782.000000	99.412276 
3781.000000	99.411963 
3780.000000	99.411926 
3779.000000	99.412488 
3778.000000	99.413033 
3777.000000	99.412631 
3776.000000	99.411125 
3775.000000	99.409386 
3774.000000	99.408265 
3773.000000	99.407710 
3772.000000	99.407234 
3771.000000	99.406880 
3770.000000	99.406899 
3769.000000	99.406966 
3768.000000	99.406584 
3767.000000	99.405869 
3766.000000	99.405411 
3765.000000	99.405450 
3764.000000	99.405368 
3763.000000	99.404454 
3762.000000	99.403133 
3761.000000	99.402807 
3760.000000	99.404063 
3759.000000	99.405915 
3758.000000	99.407158 
3757.000000	99.407639 
3756.000000	99.407497 
3755.000000	99.406634 
3754.000000	99.405507 
3753.000000	99.405565 
3752.000000	99.407809 
3751.000000	99.411054 
3750.000000	99.413565 
3749.000000	99.415621 
3748.000000	99.417741 
3747.000000	99.418792 
3746.000000	99.417731 
3745.000000	99.415123 
3744.000000	99.412166 
3743.000000	99.409088 
3742.000000	99.405605 
3741.000000	99.401974 
3740.000000	99.398669 
3739.000000	99.395773 
3738.000000	99.393502 
3737.000000	99.392921 
3736.000000	99.394704 
3735.000000	99.397238 
3734.000000	99.397710 
3733.000000	99.395628 
3732.000000	99.393061 
3731.000000	99.391646 
3730.000000	99.391090 
3729.000000	99.390356 
3728.000000	99.389349 
3727.000000	99.388737 
3726.000000	99.388502 
3725.000000	99.387779 
3724.000000	99.386336 
3723.000000	99.385074 
3722.000000	99.384684 
3721.000000	99.384878 
3720.000000	99.384677 
3719.000000	99.383308 
3718.000000	99.380949 
3717.000000	99.378359 
3716.000000	99.375827 
3715.000000	99.373124 
3714.000000	99.370414 
3713.000000	99.368719 
3712.000000	99.368816 
3711.000000	99.370024 
3710.000000	99.370563 
3709.000000	99.369008 
3708.000000	99.365325 
3707.000000	99.360676 
3706.000000	99.356541 
3705.000000	99.353925 
3704.000000	99.352914 
3703.000000	99.352583 
3702.000000	99.351346 
3701.000000	99.348098 
3700.000000	99.342977 
3699.000000	99.336943 
3698.000000	99.331125 
3697.000000	99.326502 
3696.000000	99.323537 
3695.000000	99.322095 
3694.000000	99.321789 
3693.000000	99.322022 
3692.000000	99.321640 
3691.000000	99.319266 
3690.000000	99.314525 
3689.000000	99.308797 
3688.000000	99.304093 
3687.000000	99.301041 
3686.000000	99.298794 
3685.000000	99.296819 
3684.000000	99.295591 
3683.000000	99.295574 
3682.000000	99.296214 
3681.000000	99.296366 
3680.000000	99.295375 
3679.000000	99.292963 
3678.000000	99.289114 
3677.000000	99.285105 
3676.000000	99.283384 
3675.000000	99.284357 
3674.000000	99.285256 
3673.000000	99.283626 
3672.000000	99.279884 
3671.000000	99.276927 
3670.000000	99.276988 
3669.000000	99.279047 
3668.000000	99.280796 
3667.000000	99.281661 
3666.000000	99.282300 
3665.000000	99.282968 
3664.000000	99.283096 
3663.000000	99.282194 
3662.000000	99.280708 
3661.000000	99.279560 
3660.000000	99.279114 
3659.000000	99.278992 
3658.000000	99.278942 
3657.000000	99.279322 
3656.000000	99.280470 
3655.000000	99.282031 
3654.000000	99.283350 
3653.000000	99.284061 
3652.000000	99.283987 
3651.000000	99.282855 
3650.000000	99.280664 
3649.000000	99.278674 
3648.000000	99.278691 
3647.000000	99.280889 
3646.000000	99.283833 
3645.000000	99.286469 
3644.000000	99.288933 
3643.000000	99.291747 
3642.000000	99.294987 
3641.000000	99.298041 
3640.000000	99.300257 
3639.000000	99.301535 
3638.000000	99.302211 
3637.000000	99.302655 
3636.000000	99.303117 
3635.000000	99.303779 
3634.000000	99.304544 
3633.000000	99.304957 
3632.000000	99.304774 
3631.000000	99.304531 
3630.000000	99.305296 
3629.000000	99.307166 
3628.000000	99.308645 
3627.000000	99.308877 
3626.000000	99.308658 
3625.000000	99.308986 
3624.000000	99.310038 
3623.000000	99.311343 
3622.000000	99.312436 
3621.000000	99.313357 
3620.000000	99.314364 
3619.000000	99.315367 
3618.000000	99.316098 
3617.000000	99.316670 
3616.000000	99.317489 
3615.000000	99.318802 
3614.000000	99.320436 
3613.000000	99.321918 
3612.000000	99.322945 
3611.000000	99.323640 
3610.000000	99.324334 
3609.000000	99.325201 
3608.000000	99.326125 
3607.000000	99.326924 
3606.000000	99.327597 
3605.000000	99.328290 
3604.000000	99.329101 
3603.000000	99.330005 
3602.000000	99.330918 
3601.000000	99.331813 
3600.000000	99.332685 
3599.000000	99.333452 
3598.000000	99.334033 
3597.000000	99.334478 
3596.000000	99.334995 
3595.000000	99.335883 
3594.000000	99.337295 
3593.000000	99.339027 
3592.000000	99.340573 
3591.000000	99.341390 
3590.000000	99.341268 
3589.000000	99.340631 
3588.000000	99.340393 
3587.000000	99.340918 
3586.000000	99.341650 
3585.000000	99.342058 
3584.000000	99.342396 
3583.000000	99.343184 
3582.000000	99.344473 
3581.000000	99.345716 
3580.000000	99.346311 
3579.000000	99.346079 
3578.000000	99.345262 
3577.000000	99.344313 
3576.000000	99.343703 
3575.000000	99.343782 
3574.000000	99.344553 
3573.000000	99.345532 
3572.000000	99.346088 
3571.000000	99.345840 
3570.000000	99.344637 
3569.000000	99.342651 
3568.000000	99.340704 
3567.000000	99.339767 
3566.000000	99.339944 
3565.000000	99.340617 
3564.000000	99.341534 
3563.000000	99.343087 
3562.000000	99.345661 
3561.000000	99.348943 
3560.000000	99.352010 
3559.000000	99.354009 
3558.000000	99.354736 
3557.000000	99.354591 
3556.000000	99.354162 
3555.000000	99.353777 
3554.000000	99.353374 
3553.000000	99.352516 
3552.000000	99.350740 
3551.000000	99.348146 
3550.000000	99.345429 
3549.000000	99.343319 
3548.000000	99.342275 
3547.000000	99.342443 
3546.000000	99.343725 
3545.000000	99.345523 
3544.000000	99.346899 
3543.000000	99.347465 
3542.000000	99.347912 
3541.000000	99.349210 
3540.000000	99.351534 
3539.000000	99.353961 
3538.000000	99.355389 
3537.000000	99.355503 
3536.000000	99.354854 
3535.000000	99.354229 
3534.000000	99.353966 
3533.000000	99.353968 
3532.000000	99.354082 
3531.000000	99.354353 
3530.000000	99.354787 
3529.000000	99.355015 
3528.000000	99.354525 
3527.000000	99.353352 
3526.000000	99.352287 
3525.000000	99.352159 
3524.000000	99.353016 
3523.000000	99.354139 
3522.000000	99.354898 
3521.000000	99.355314 
3520.000000	99.355817 
3519.000000	99.356685 
3518.000000	99.357843 
3517.000000	99.358997 
3516.000000	99.359819 
3515.000000	99.360145 
3514.000000	99.360033 
3513.000000	99.359713 
3512.000000	99.359441 
3511.000000	99.359387 
3510.000000	99.359562 
3509.000000	99.359843 
3508.000000	99.360084 
3507.000000	99.360285 
3506.000000	99.360658 
3505.000000	99.361398 
3504.000000	99.362410 
3503.000000	99.363344 
3502.000000	99.364007 
3501.000000	99.364625 
3500.000000	99.365524 
3499.000000	99.366614 
3498.000000	99.367357 
3497.000000	99.367357 
3496.000000	99.366739 
3495.000000	99.366009 
3494.000000	99.365601 
3493.000000	99.365606 
3492.000000	99.365926 
3491.000000	99.366451 
3490.000000	99.367129 
3489.000000	99.367932 
3488.000000	99.368811 
3487.000000	99.369643 
3486.000000	99.370286 
3485.000000	99.370699 
3484.000000	99.370971 
3483.000000	99.371202 
3482.000000	99.371386 
3481.000000	99.371485 
3480.000000	99.371573 
3479.000000	99.371810 
3478.000000	99.372221 
3477.000000	99.372633 
3476.000000	99.372912 
3475.000000	99.373190 
3474.000000	99.373710 
3473.000000	99.374450 
3472.000000	99.375055 
3471.000000	99.375249 
3470.000000	99.375168 
3469.000000	99.375224 
3468.000000	99.375640 
3467.000000	99.376201 
3466.000000	99.376551 
3465.000000	99.376636 
3464.000000	99.376724 
3463.000000	99.377032 
3462.000000	99.377447 
3461.000000	99.377687 
3460.000000	99.377635 
3459.000000	99.377425 
3458.000000	99.377234 
3457.000000	99.377068 
3456.000000	99.376819 
3455.000000	99.376472 
3454.000000	99.376182 
3453.000000	99.376174 
3452.000000	99.376528 
3451.000000	99.377068 
3450.000000	99.377458 
3449.000000	99.377495 
3448.000000	99.377310 
3447.000000	99.377224 
3446.000000	99.377416 
3445.000000	99.377813 
3444.000000	99.378303 
3443.000000	99.378859 
3442.000000	99.379398 
3441.000000	99.379670 
3440.000000	99.379457 
3439.000000	99.378817 
3438.000000	99.377963 
3437.000000	99.376978 
3436.000000	99.375842 
3435.000000	99.374739 
3434.000000	99.374101 
3433.000000	99.374278 
3432.000000	99.375194 
3431.000000	99.376344 
3430.000000	99.377146 
3429.000000	99.377337 
3428.000000	99.377075 
3427.000000	99.376681 
3426.000000	99.376231 
3425.000000	99.375461 
3424.000000	99.374152 
3423.000000	99.372538 
3422.000000	99.371211 
3421.000000	99.370593 
3420.000000	99.370663 
3419.000000	99.371163 
3418.000000	99.371916 
3417.000000	99.372792 
3416.000000	99.373578 
3415.000000	99.374060 
3414.000000	99.374185 
3413.000000	99.374066 
3412.000000	99.373882 
3411.000000	99.373823 
3410.000000	99.373975 
3409.000000	99.374155 
3408.000000	99.373964 
3407.000000	99.373162 
3406.000000	99.372030 
3405.000000	99.371240 
3404.000000	99.371304 
3403.000000	99.372170 
3402.000000	99.373266 
3401.000000	99.373954 
3400.000000	99.374039 
3399.000000	99.373876 
3398.000000	99.373994 
3397.000000	99.374540 
3396.000000	99.375117 
3395.000000	99.375161 
3394.000000	99.374432 
3393.000000	99.373105 
3392.000000	99.371584 
3391.000000	99.370321 
3390.000000	99.369728 
3389.000000	99.370050 
3388.000000	99.371219 
3387.000000	99.372868 
3386.000000	99.374572 
3385.000000	99.376111 
3384.000000	99.377430 
3383.000000	99.378392 
3382.000000	99.378674 
3381.000000	99.378049 
3380.000000	99.376736 
3379.000000	99.375397 
3378.000000	99.374651 
3377.000000	99.374578 
3376.000000	99.374787 
3375.000000	99.374881 
3374.000000	99.374805 
3373.000000	99.374763 
3372.000000	99.374924 
3371.000000	99.375257 
3370.000000	99.375571 
3369.000000	99.375642 
3368.000000	99.375348 
3367.000000	99.374772 
3366.000000	99.374160 
3365.000000	99.373728 
3364.000000	99.373506 
3363.000000	99.373390 
3362.000000	99.373297 
3361.000000	99.373195 
3360.000000	99.373027 
3359.000000	99.372710 
3358.000000	99.372253 
3357.000000	99.371818 
3356.000000	99.371591 
3355.000000	99.371586 
3354.000000	99.371648 
3353.000000	99.371592 
3352.000000	99.371384 
3351.000000	99.371117 
3350.000000	99.370892 
3349.000000	99.370730 
3348.000000	99.370587 
3347.000000	99.370421 
3346.000000	99.370219 
3345.000000	99.369987 
3344.000000	99.369740 
3343.000000	99.369495 
3342.000000	99.369269 
3341.000000	99.369064 
3340.000000	99.368865 
3339.000000	99.368651 
3338.000000	99.368420 
3337.000000	99.368208 
3336.000000	99.368073 
3335.000000	99.368035 
3334.000000	99.368039 
3333.000000	99.368016 
3332.000000	99.367941 
3331.000000	99.367828 
3330.000000	99.367695 
3329.000000	99.367533 
3328.000000	99.367330 
3327.000000	99.367094 
3326.000000	99.366847 
3325.000000	99.366603 
3324.000000	99.366358 
3323.000000	99.366126 
3322.000000	99.365968 
3321.000000	99.365948 
3320.000000	99.366060 
3319.000000	99.366198 
3318.000000	99.366246 
3317.000000	99.366182 
3316.000000	99.366062 
3315.000000	99.365917 
3314.000000	99.365737 
3313.000000	99.365612 
3312.000000	99.365755 
3311.000000	99.366279 
3310.000000	99.366949 
3309.000000	99.367302 
3308.000000	99.367103 
3307.000000	99.366516 
3306.000000	99.365884 
3305.000000	99.365443 
3304.000000	99.365232 
3303.000000	99.365175 
3302.000000	99.365113 
3301.000000	99.364849 
3300.000000	99.364284 
3299.000000	99.363529 
3298.000000	99.362859 
3297.000000	99.362518 
3296.000000	99.362553 
3295.000000	99.362789 
3294.000000	99.362964 
3293.000000	99.362959 
3292.000000	99.362915 
3291.000000	99.363032 
3290.000000	99.363198 
3289.000000	99.362983 
3288.000000	99.362100 
3287.000000	99.360794 
3286.000000	99.359674 
3285.000000	99.359112 
3284.000000	99.358974 
3283.000000	99.358930 
3282.000000	99.358910 
3281.000000	99.359127 
3280.000000	99.359732 
3279.000000	99.360581 
3278.000000	99.361319 
3277.000000	99.361633 
3276.000000	99.361412 
3275.000000	99.360753 
3274.000000	99.359866 
3273.000000	99.358978 
3272.000000	99.358309 
3271.000000	99.358016 
3270.000000	99.358102 
3269.000000	99.358357 
3268.000000	99.358442 
3267.000000	99.358102 
3266.000000	99.357308 
3265.000000	99.356303 
3264.000000	99.355526 
3263.000000	99.355363 
3262.000000	99.355891 
3261.000000	99.356784 
3260.000000	99.357554 
3259.000000	99.357928 
3258.000000	99.357926 
3257.000000	99.357684 
3256.000000	99.357304 
3255.000000	99.356829 
3254.000000	99.356268 
3253.000000	99.355648 
3252.000000	99.355109 
3251.000000	99.354918 
3250.000000	99.355262 
3249.000000	99.356028 
3248.000000	99.356870 
3247.000000	99.357469 
3246.000000	99.357636 
3245.000000	99.357280 
3244.000000	99.356483 
3243.000000	99.355589 
3242.000000	99.354990 
3241.000000	99.354767 
3240.000000	99.354749 
3239.000000	99.354940 
3238.000000	99.355665 
3237.000000	99.357175 
3236.000000	99.359227 
3235.000000	99.361140 
3234.000000	99.362252 
3233.000000	99.362322 
3232.000000	99.361645 
3231.000000	99.360875 
3230.000000	99.360578 
3229.000000	99.360817 
3228.000000	99.361151 
3227.000000	99.361035 
3226.000000	99.360187 
3225.000000	99.358707 
3224.000000	99.357054 
3223.000000	99.355874 
3222.000000	99.355602 
3221.000000	99.356146 
3220.000000	99.356952 
3219.000000	99.357458 
3218.000000	99.357492 
3217.000000	99.357260 
3216.000000	99.357178 
3215.000000	99.357656 
3214.000000	99.358779 
3213.000000	99.360060 
3212.000000	99.360685 
3211.000000	99.360193 
3210.000000	99.358807 
3209.000000	99.357168 
3208.000000	99.355829 
3207.000000	99.355024 
3206.000000	99.354720 
3205.000000	99.354703 
3204.000000	99.354756 
3203.000000	99.354872 
3202.000000	99.355206 
3201.000000	99.355737 
3200.000000	99.356156 
3199.000000	99.356186 
3198.000000	99.355849 
3197.000000	99.355332 
3196.000000	99.354781 
3195.000000	99.354349 
3194.000000	99.354211 
3193.000000	99.354280 
3192.000000	99.354106 
3191.000000	99.353300 
3190.000000	99.352006 
3189.000000	99.350725 
3188.000000	99.349773 
3187.000000	99.349141 
3186.000000	99.348808 
3185.000000	99.348851 
3184.000000	99.349225 
3183.000000	99.349625 
3182.000000	99.349734 
3181.000000	99.349557 
3180.000000	99.349521 
3179.000000	99.350200 
3178.000000	99.351766 
3177.000000	99.353614 
3176.000000	99.354753 
3175.000000	99.354797 
3174.000000	99.354339 
3173.000000	99.354148 
3172.000000	99.354180 
3171.000000	99.353796 
3170.000000	99.352836 
3169.000000	99.351962 
3168.000000	99.351858 
3167.000000	99.352433 
3166.000000	99.352995 
3165.000000	99.352958 
3164.000000	99.352263 
3163.000000	99.351253 
3162.000000	99.350370 
3161.000000	99.349896 
3160.000000	99.349865 
3159.000000	99.350169 
3158.000000	99.350653 
3157.000000	99.351061 
3156.000000	99.351041 
3155.000000	99.350390 
3154.000000	99.349267 
3153.000000	99.348023 
3152.000000	99.346843 
3151.000000	99.345777 
3150.000000	99.345097 
3149.000000	99.345289 
3148.000000	99.346523 
3147.000000	99.348325 
3146.000000	99.349892 
3145.000000	99.350722 
3144.000000	99.350812 
3143.000000	99.350423 
3142.000000	99.349884 
3141.000000	99.349490 
3140.000000	99.349400 
3139.000000	99.349540 
3138.000000	99.349679 
3137.000000	99.349653 
3136.000000	99.349487 
3135.000000	99.349315 
3134.000000	99.349231 
3133.000000	99.349248 
3132.000000	99.349322 
3131.000000	99.349377 
3130.000000	99.349369 
3129.000000	99.349372 
3128.000000	99.349599 
3127.000000	99.350242 
3126.000000	99.351280 
3125.000000	99.352393 
3124.000000	99.353133 
3123.000000	99.353230 
3122.000000	99.352746 
3121.000000	99.352047 
3120.000000	99.351579 
3119.000000	99.351554 
3118.000000	99.351874 
3117.000000	99.352283 
3116.000000	99.352614 
3115.000000	99.352893 
3114.000000	99.353188 
3113.000000	99.353450 
3112.000000	99.353548 
3111.000000	99.353450 
3110.000000	99.353264 
3109.000000	99.353121 
3108.000000	99.353059 
3107.000000	99.353045 
3106.000000	99.353037 
3105.000000	99.353013 
3104.000000	99.352975 
3103.000000	99.352978 
3102.000000	99.353114 
3101.000000	99.353437 
3100.000000	99.353889 
3099.000000	99.354330 
3098.000000	99.354645 
3097.000000	99.354790 
3096.000000	99.354772 
3095.000000	99.354640 
3094.000000	99.354471 
3093.000000	99.354323 
3092.000000	99.354194 
3091.000000	99.354048 
3090.000000	99.353902 
3089.000000	99.353870 
3088.000000	99.354067 
3087.000000	99.354444 
3086.000000	99.354750 
3085.000000	99.354710 
3084.000000	99.354246 
3083.000000	99.353480 
3082.000000	99.352583 
3081.000000	99.351750 
3080.000000	99.351274 
3079.000000	99.351453 
3078.000000	99.352316 
3077.000000	99.353504 
3076.000000	99.354551 
3075.000000	99.355231 
3074.000000	99.355569 
3073.000000	99.355666 
3072.000000	99.355641 
3071.000000	99.355573 
3070.000000	99.355277 
3069.000000	99.354263 
3068.000000	99.352308 
3067.000000	99.350134 
3066.000000	99.349222 
3065.000000	99.350667 
3064.000000	99.354104 
3063.000000	99.357637 
3062.000000	99.358921 
3061.000000	99.356648 
3060.000000	99.351499 
3059.000000	99.345872 
3058.000000	99.342340 
3057.000000	99.342103 
3056.000000	99.344649 
3055.000000	99.348449 
3054.000000	99.351738 
3053.000000	99.353045 
3052.000000	99.351717 
3051.000000	99.348331 
3050.000000	99.344479 
3049.000000	99.341857 
3048.000000	99.341170 
3047.000000	99.341506 
3046.000000	99.340705 
3045.000000	99.337045 
3044.000000	99.331284 
3043.000000	99.326770 
3042.000000	99.326562 
3041.000000	99.330121 
3040.000000	99.333454 
3039.000000	99.332873 
3038.000000	99.328152 
3037.000000	99.321949 
3036.000000	99.316640 
3035.000000	99.312122 
3034.000000	99.306622 
3033.000000	99.299043 
3032.000000	99.290135 
3031.000000	99.281616 
3030.000000	99.274506 
3029.000000	99.268643 
3028.000000	99.263774 
3027.000000	99.260326 
3026.000000	99.258492 
3025.000000	99.256889 
3024.000000	99.253084 
3023.000000	99.245796 
3022.000000	99.236101 
3021.000000	99.226159 
3020.000000	99.217002 
3019.000000	99.207927 
3018.000000	99.197949 
3017.000000	99.187361 
3016.000000	99.177509 
3015.000000	99.169091 
3014.000000	99.161192 
3013.000000	99.152482 
3012.000000	99.143102 
3011.000000	99.134498 
3010.000000	99.127238 
3009.000000	99.119984 
3008.000000	99.111225 
3007.000000	99.101211 
3006.000000	99.091223 
3005.000000	99.081418 
3004.000000	99.070582 
3003.000000	99.058088 
3002.000000	99.045114 
3001.000000	99.033674 
3000.000000	99.024956 
2999.000000	99.018745 
2998.000000	99.013912 
2997.000000	99.009453 
2996.000000	99.005371 
2995.000000	99.002209 
2994.000000	98.999003 
2993.000000	98.992181 
2992.000000	98.977998 
2991.000000	98.956777 
2990.000000	98.934119 
2989.000000	98.917237 
2988.000000	98.910244 
2987.000000	98.912750 
2986.000000	98.921351 
2985.000000	98.931724 
2984.000000	98.940173 
2983.000000	98.944704 
2982.000000	98.945374 
2981.000000	98.943803 
2980.000000	98.942182 
2979.000000	98.942197 
2978.000000	98.944084 
2977.000000	98.946390 
2976.000000	98.947035 
2975.000000	98.944978 
2974.000000	98.940891 
2973.000000	98.936527 
2972.000000	98.933891 
2971.000000	98.934707 
2970.000000	98.939715 
2969.000000	98.948117 
2968.000000	98.958183 
2967.000000	98.968588 
2966.000000	98.978745 
2965.000000	98.987992 
2964.000000	98.995503 
2963.000000	99.001302 
2962.000000	99.006499 
2961.000000	99.011954 
2960.000000	99.017352 
2959.000000	99.022055 
2958.000000	99.026207 
2957.000000	99.030416 
2956.000000	99.034915 
2955.000000	99.039776 
2954.000000	99.045530 
2953.000000	99.052713 
2952.000000	99.060856 
2951.000000	99.068534 
2950.000000	99.074533 
2949.000000	99.078649 
2948.000000	99.081396 
2947.000000	99.083384 
2946.000000	99.085215 
2945.000000	99.087789 
2944.000000	99.092070 
2943.000000	99.098022 
2942.000000	99.103827 
2941.000000	99.106927 
2940.000000	99.106478 
2939.000000	99.104732 
2938.000000	99.105355 
2937.000000	99.110246 
2936.000000	99.118327 
2935.000000	99.127033 
2934.000000	99.134189 
2933.000000	99.138636 
2932.000000	99.140266 
2931.000000	99.139935 
2930.000000	99.138801 
2929.000000	99.137478 
2928.000000	99.136142 
2927.000000	99.135133 
2926.000000	99.134621 
2925.000000	99.133812 
2924.000000	99.131619 
2923.000000	99.128234 
2922.000000	99.124957 
2921.000000	99.122152 
2920.000000	99.118496 
2919.000000	99.112789 
2918.000000	99.105662 
2917.000000	99.098854 
2916.000000	99.093445 
2915.000000	99.089265 
2914.000000	99.085464 
2913.000000	99.081195 
2912.000000	99.076255 
2911.000000	99.071369 
2910.000000	99.067364 
2909.000000	99.063997 
2908.000000	99.060258 
2907.000000	99.055983 
2906.000000	99.051942 
2905.000000	99.047860 
2904.000000	99.041664 
2903.000000	99.032091 
2902.000000	99.021632 
2901.000000	99.015853 
2900.000000	99.018654 
2899.000000	99.029424 
2898.000000	99.043312 
2897.000000	99.054351 
2896.000000	99.059360 
2895.000000	99.059762 
2894.000000	99.059806 
2893.000000	99.062593 
2892.000000	99.067812 
2891.000000	99.073054 
2890.000000	99.076524 
2889.000000	99.077986 
2888.000000	99.078025 
2887.000000	99.077604 
2886.000000	99.078136 
2885.000000	99.080823 
2884.000000	99.085687 
2883.000000	99.091872 
2882.000000	99.098909 
2881.000000	99.106941 
2880.000000	99.115591 
2879.000000	99.123521 
2878.000000	99.129743 
2877.000000	99.134968 
2876.000000	99.140950 
2875.000000	99.148482 
2874.000000	99.156474 
2873.000000	99.163162 
2872.000000	99.167898 
2871.000000	99.171393 
2870.000000	99.174471 
2869.000000	99.177421 
2868.000000	99.180938 
2867.000000	99.186813 
2866.000000	99.196419 
2865.000000	99.208542 
2864.000000	99.219807 
2863.000000	99.227814 
2862.000000	99.233089 
2861.000000	99.237690 
2860.000000	99.242864 
2859.000000	99.248753 
2858.000000	99.255316 
2857.000000	99.262303 
2856.000000	99.268655 
2855.000000	99.273119 
2854.000000	99.275585 
2853.000000	99.277257 
2852.000000	99.279384 
2851.000000	99.282308 
2850.000000	99.285791 
2849.000000	99.289532 
2848.000000	99.293150 
2847.000000	99.296221 
2846.000000	99.298638 
2845.000000	99.300661 
2844.000000	99.302486 
2843.000000	99.304101 
2842.000000	99.305720 
2841.000000	99.308075 
2840.000000	99.311928 
2839.000000	99.317223 
2838.000000	99.322835 
2837.000000	99.327283 
2836.000000	99.329795 
2835.000000	99.330730 
2834.000000	99.330996 
2833.000000	99.331216 
2832.000000	99.331514 
2831.000000	99.331800 
2830.000000	99.331849 
2829.000000	99.331302 
2828.000000	99.330099 
2827.000000	99.328990 
2826.000000	99.329154 
2825.000000	99.331106 
2824.000000	99.334248 
2823.000000	99.337457 
2822.000000	99.339831 
2821.000000	99.340953 
2820.000000	99.341040 
2819.000000	99.340931 
2818.000000	99.341325 
2817.000000	99.341944 
2816.000000	99.341963 
2815.000000	99.341337 
2814.000000	99.340974 
2813.000000	99.341461 
2812.000000	99.342417 
2811.000000	99.343461 
2810.000000	99.345044 
2809.000000	99.347639 
2808.000000	99.350629 
2807.000000	99.352721 
2806.000000	99.353275 
2805.000000	99.352663 
2804.000000	99.351600 
2803.000000	99.350672 
2802.000000	99.350389 
2801.000000	99.351042 
2800.000000	99.352343 
2799.000000	99.353549 
2798.000000	99.354117 
2797.000000	99.354047 
2796.000000	99.353616 
2795.000000	99.353109 
2794.000000	99.352857 
2793.000000	99.353193 
2792.000000	99.354097 
2791.000000	99.355049 
2790.000000	99.355459 
2789.000000	99.355292 
2788.000000	99.355132 
2787.000000	99.355573 
2786.000000	99.356635 
2785.000000	99.357755 
2784.000000	99.358314 
2783.000000	99.358153 
2782.000000	99.357649 
2781.000000	99.357352 
2780.000000	99.357555 
2779.000000	99.358186 
2778.000000	99.359006 
2777.000000	99.359878 
2776.000000	99.360821 
2775.000000	99.361871 
2774.000000	99.363008 
2773.000000	99.364214 
2772.000000	99.365536 
2771.000000	99.366980 
2770.000000	99.368374 
2769.000000	99.369452 
2768.000000	99.370106 
2767.000000	99.370486 
2766.000000	99.370782 
2765.000000	99.370946 
2764.000000	99.370710 
2763.000000	99.369858 
2762.000000	99.368502 
2761.000000	99.367151 
2760.000000	99.366478 
2759.000000	99.366848 
2758.000000	99.368028 
2757.000000	99.369395 
2756.000000	99.370498 
2755.000000	99.371284 
2754.000000	99.371764 
2753.000000	99.371809 
2752.000000	99.371494 
2751.000000	99.371375 
2750.000000	99.372009 
2749.000000	99.373242 
2748.000000	99.374263 
2747.000000	99.374464 
2746.000000	99.373993 
2745.000000	99.373412 
2744.000000	99.373052 
2743.000000	99.372898 
2742.000000	99.372946 
2741.000000	99.373391 
2740.000000	99.374404 
2739.000000	99.375856 
2738.000000	99.377317 
2737.000000	99.378346 
2736.000000	99.378821 
2735.000000	99.378965 
2734.000000	99.379029 
2733.000000	99.379008 
2732.000000	99.378772 
2731.000000	99.378380 
2730.000000	99.378056 
2729.000000	99.377883 
2728.000000	99.377735 
2727.000000	99.377557 
2726.000000	99.377502 
2725.000000	99.377719 
2724.000000	99.378165 
2723.000000	99.378732 
2722.000000	99.379407 
2721.000000	99.380175 
2720.000000	99.380823 
2719.000000	99.381059 
2718.000000	99.380835 
2717.000000	99.380424 
2716.000000	99.380191 
2715.000000	99.380286 
2714.000000	99.380610 
2713.000000	99.380974 
2712.000000	99.381247 
2711.000000	99.381382 
2710.000000	99.381399 
2709.000000	99.381361 
2708.000000	99.381347 
2707.000000	99.381374 
2706.000000	99.381362 
2705.000000	99.381214 
2704.000000	99.380965 
2703.000000	99.380786 
2702.000000	99.380799 
2701.000000	99.380916 
2700.000000	99.380957 
2699.000000	99.380881 
2698.000000	99.380837 
2697.000000	99.380951 
2696.000000	99.381159 
2695.000000	99.381283 
2694.000000	99.381232 
2693.000000	99.381097 
2692.000000	99.381058 
2691.000000	99.381223 
2690.000000	99.381525 
2689.000000	99.381762 
2688.000000	99.381805 
2687.000000	99.381778 
2686.000000	99.381957 
2685.000000	99.382477 
2684.000000	99.383210 
2683.000000	99.383894 
2682.000000	99.384334 
2681.000000	99.384452 
2680.000000	99.384265 
2679.000000	99.383943 
2678.000000	99.383783 
2677.000000	99.384033 
2676.000000	99.384731 
2675.000000	99.385715 
2674.000000	99.386724 
2673.000000	99.387445 
2672.000000	99.387619 
2671.000000	99.387243 
2670.000000	99.386647 
2669.000000	99.386228 
2668.000000	99.386123 
2667.000000	99.386267 
2666.000000	99.386642 
2665.000000	99.387283 
2664.000000	99.388105 
2663.000000	99.388956 
2662.000000	99.389846 
2661.000000	99.390939 
2660.000000	99.392302 
2659.000000	99.393741 
2658.000000	99.394946 
2657.000000	99.395770 
2656.000000	99.396362 
2655.000000	99.397008 
2654.000000	99.397819 
2653.000000	99.398618 
2652.000000	99.399318 
2651.000000	99.400310 
2650.000000	99.402103 
2649.000000	99.404441 
2648.000000	99.406185 
2647.000000	99.406507 
2646.000000	99.405863 
2645.000000	99.405522 
2644.000000	99.406144 
2643.000000	99.407217 
2642.000000	99.407820 
2641.000000	99.407523 
2640.000000	99.406571 
2639.000000	99.405665 
2638.000000	99.405589 
2637.000000	99.406645 
2636.000000	99.408361 
2635.000000	99.409920 
2634.000000	99.410951 
2633.000000	99.411762 
2632.000000	99.412813 
2631.000000	99.414291 
2630.000000	99.416142 
2629.000000	99.418134 
2628.000000	99.419856 
2627.000000	99.420944 
2626.000000	99.421421 
2625.000000	99.421711 
2624.000000	99.422286 
2623.000000	99.423355 
2622.000000	99.424795 
2621.000000	99.426167 
2620.000000	99.426938 
2619.000000	99.426958 
2618.000000	99.426720 
2617.000000	99.426922 
2616.000000	99.427751 
2615.000000	99.428776 
2614.000000	99.429476 
2613.000000	99.429666 
2612.000000	99.429462 
2611.000000	99.429078 
2610.000000	99.428673 
2609.000000	99.428204 
2608.000000	99.427486 
2607.000000	99.426599 
2606.000000	99.426126 
2605.000000	99.426656 
2604.000000	99.428001 
2603.000000	99.429144 
2602.000000	99.429208 
2601.000000	99.428324 
2600.000000	99.427460 
2599.000000	99.427386 
2598.000000	99.427871 
2597.000000	99.427904 
2596.000000	99.426689 
2595.000000	99.424322 
2594.000000	99.421692 
2593.000000	99.419772 
2592.000000	99.418938 
2591.000000	99.419011 
2590.000000	99.419607 
2589.000000	99.420351 
2588.000000	99.420856 
2587.000000	99.420757 
2586.000000	99.419918 
2585.000000	99.418589 
2584.000000	99.417273 
2583.000000	99.416359 
2582.000000	99.415881 
2581.000000	99.415627 
2580.000000	99.415387 
2579.000000	99.415057 
2578.000000	99.414575 
2577.000000	99.413861 
2576.000000	99.412909 
2575.000000	99.411861 
2574.000000	99.410955 
2573.000000	99.410371 
2572.000000	99.410146 
2571.000000	99.410194 
2570.000000	99.410323 
2569.000000	99.410329 
2568.000000	99.410089 
2567.000000	99.409600 
2566.000000	99.408908 
2565.000000	99.408061 
2564.000000	99.407149 
2563.000000	99.406329 
2562.000000	99.405703 
2561.000000	99.405226 
2560.000000	99.404776 
2559.000000	99.404287 
2558.000000	99.403768 
2557.000000	99.403252 
2556.000000	99.402800 
2555.000000	99.402532 
2554.000000	99.402535 
2553.000000	99.402668 
2552.000000	99.402558 
2551.000000	99.401967 
2550.000000	99.401039 
2549.000000	99.400132 
2548.000000	99.399391 
2547.000000	99.398714 
2546.000000	99.398034 
2545.000000	99.397472 
2544.000000	99.397206 
2543.000000	99.397235 
2542.000000	99.397269 
2541.000000	99.396888 
2540.000000	99.395949 
2539.000000	99.394907 
2538.000000	99.394499 
2537.000000	99.394950 
2536.000000	99.395693 
2535.000000	99.396003 
2534.000000	99.395753 
2533.000000	99.395204 
2532.000000	99.394352 
2531.000000	99.392996 
2530.000000	99.391448 
2529.000000	99.390632 
2528.000000	99.391161 
2527.000000	99.392649 
2526.000000	99.394067 
2525.000000	99.394811 
2524.000000	99.395138 
2523.000000	99.395645 
2522.000000	99.396588 
2521.000000	99.397722 
2520.000000	99.398602 
2519.000000	99.398802 
2518.000000	99.397956 
2517.000000	99.395925 
2516.000000	99.393137 
2515.000000	99.390569 
2514.000000	99.389050 
2513.000000	99.388697 
2512.000000	99.389197 
2511.000000	99.390418 
2510.000000	99.392350 
2509.000000	99.394554 
2508.000000	99.396241 
2507.000000	99.397032 
2506.000000	99.397218 
2505.000000	99.397185 
2504.000000	99.396985 
2503.000000	99.396647 
2502.000000	99.396528 
2501.000000	99.397053 
2500.000000	99.398295 
2499.000000	99.399935 
2498.000000	99.401365 
2497.000000	99.401786 
2496.000000	99.400645 
2495.000000	99.398227 
2494.000000	99.395692 
2493.000000	99.394123 
2492.000000	99.393727 
2491.000000	99.394139 
2490.000000	99.395141 
2489.000000	99.396755 
2488.000000	99.398798 
2487.000000	99.400690 
2486.000000	99.401675 
2485.000000	99.401205 
2484.000000	99.399318 
2483.000000	99.396772 
2482.000000	99.394660 
2481.000000	99.393548 
2480.000000	99.393160 
2479.000000	99.392958 
2478.000000	99.392757 
2477.000000	99.392643 
2476.000000	99.392567 
2475.000000	99.392385 
2474.000000	99.392147 
2473.000000	99.392001 
2472.000000	99.391885 
2471.000000	99.391609 
2470.000000	99.391176 
2469.000000	99.390774 
2468.000000	99.390478 
2467.000000	99.390154 
2466.000000	99.389684 
2465.000000	99.389097 
2464.000000	99.388479 
2463.000000	99.387907 
2462.000000	99.387478 
2461.000000	99.387239 
2460.000000	99.387047 
2459.000000	99.386640 
2458.000000	99.385908 
2457.000000	99.385013 
2456.000000	99.384194 
2455.000000	99.383575 
2454.000000	99.383202 
2453.000000	99.383094 
2452.000000	99.383105 
2451.000000	99.382881 
2450.000000	99.382115 
2449.000000	99.380867 
2448.000000	99.379604 
2447.000000	99.378849 
2446.000000	99.378802 
2445.000000	99.379249 
2444.000000	99.379718 
2443.000000	99.379772 
2442.000000	99.379227 
2441.000000	99.378245 
2440.000000	99.377293 
2439.000000	99.376850 
2438.000000	99.377053 
2437.000000	99.377608 
2436.000000	99.378072 
2435.000000	99.378225 
2434.000000	99.378133 
2433.000000	99.377961 
2432.000000	99.377876 
2431.000000	99.378061 
2430.000000	99.378561 
2429.000000	99.378996 
2428.000000	99.378700 
2427.000000	99.377418 
2426.000000	99.375771 
2425.000000	99.374776 
2424.000000	99.374953 
2423.000000	99.376172 
2422.000000	99.378134 
2421.000000	99.380553 
2420.000000	99.382745 
2419.000000	99.383594 
2418.000000	99.382393 
2417.000000	99.379604 
2416.000000	99.376618 
2415.000000	99.374601 
2414.000000	99.373713 
2413.000000	99.373395 
2412.000000	99.373176 
2411.000000	99.373105 
2410.000000	99.373500 
2409.000000	99.374380 
2408.000000	99.375215 
2407.000000	99.375246 
2406.000000	99.374102 
2405.000000	99.372181 
2404.000000	99.370441 
2403.000000	99.369613 
2402.000000	99.369518 
2401.000000	99.369265 
2400.000000	99.368094 
2399.000000	99.365923 
2398.000000	99.363154 
2397.000000	99.360430 
2396.000000	99.358659 
2395.000000	99.358531 
2394.000000	99.359593 
2393.000000	99.360354 
2392.000000	99.359978 
2391.000000	99.359463 
2390.000000	99.360281 
2389.000000	99.362384 
2388.000000	99.364542 
2387.000000	99.366304 
2386.000000	99.368312 
2385.000000	99.370682 
2384.000000	99.372410 
2383.000000	99.372889 
2382.000000	99.372842 
2381.000000	99.373114 
2380.000000	99.373366 
2379.000000	99.372823 
2378.000000	99.371708 
2377.000000	99.371072 
2376.000000	99.371481 
2375.000000	99.372547 
2374.000000	99.373516 
2373.000000	99.373831 
2372.000000	99.373307 
2371.000000	99.372316 
2370.000000	99.371699 
2369.000000	99.372083 
2368.000000	99.373318 
2367.000000	99.374818 
2366.000000	99.376190 
2365.000000	99.377449 
2364.000000	99.378697 
2363.000000	99.379808 
2362.000000	99.380524 
2361.000000	99.380752 
2360.000000	99.380753 
2359.000000	99.380918 
2358.000000	99.381381 
2357.000000	99.382026 
2356.000000	99.382745 
2355.000000	99.383505 
2354.000000	99.384206 
2353.000000	99.384782 
2352.000000	99.385281 
2351.000000	99.385804 
2350.000000	99.386393 
2349.000000	99.387004 
2348.000000	99.387576 
2347.000000	99.388074 
2346.000000	99.388515 
2345.000000	99.388972 
2344.000000	99.389496 
2343.000000	99.390075 
2342.000000	99.390606 
2341.000000	99.391009 
2340.000000	99.391303 
2339.000000	99.391615 
2338.000000	99.392035 
2337.000000	99.392497 
2336.000000	99.392845 
2335.000000	99.392999 
2334.000000	99.393077 
2333.000000	99.393305 
2332.000000	99.393820 
2331.000000	99.394476 
2330.000000	99.394996 
2329.000000	99.395264 
2328.000000	99.395567 
2327.000000	99.396242 
2326.000000	99.397378 
2325.000000	99.398615 
2324.000000	99.399439 
2323.000000	99.399689 
2322.000000	99.399716 
2321.000000	99.399984 
2320.000000	99.400452 
2319.000000	99.400688 
2318.000000	99.400502 
2317.000000	99.400106 
2316.000000	99.399839 
2315.000000	99.399716 
2314.000000	99.399627 
2313.000000	99.399518 
2312.000000	99.399550 
2311.000000	99.399756 
2310.000000	99.399998 
2309.000000	99.400025 
2308.000000	99.399821 
2307.000000	99.399579 
2306.000000	99.399580 
2305.000000	99.399895 
2304.000000	99.400410 
2303.000000	99.400887 
2302.000000	99.401139 
2301.000000	99.401066 
2300.000000	99.400847 
2299.000000	99.400886 
2298.000000	99.401498 
2297.000000	99.402389 
2296.000000	99.402842 
2295.000000	99.402445 
2294.000000	99.401587 
2293.000000	99.400974 
2292.000000	99.400915 
2291.000000	99.401229 
2290.000000	99.401706 
2289.000000	99.402232 
2288.000000	99.402610 
2287.000000	99.402613 
2286.000000	99.402204 
2285.000000	99.401403 
2284.000000	99.400062 
2283.000000	99.398301 
2282.000000	99.396855 
2281.000000	99.396441 
2280.000000	99.396808 
2279.000000	99.397062 
2278.000000	99.396809 
2277.000000	99.396393 
2276.000000	99.395992 
2275.000000	99.395397 
2274.000000	99.394665 
2273.000000	99.394055 
2272.000000	99.393480 
2271.000000	99.392778 
2270.000000	99.392452 
2269.000000	99.393223 
2268.000000	99.394800 
2267.000000	99.395826 
2266.000000	99.395343 
2265.000000	99.393609 
2264.000000	99.391353 
2263.000000	99.388846 
2262.000000	99.386202 
2261.000000	99.383959 
2260.000000	99.382618 
2259.000000	99.382057 
2258.000000	99.381721 
2257.000000	99.381319 
2256.000000	99.380960 
2255.000000	99.380697 
2254.000000	99.380316 
2253.000000	99.379642 
2252.000000	99.378816 
2251.000000	99.378125 
2250.000000	99.377610 
2249.000000	99.377014 
2248.000000	99.376149 
2247.000000	99.375229 
2246.000000	99.374640 
2245.000000	99.374507 
2244.000000	99.374603 
2243.000000	99.374710 
2242.000000	99.374810 
2241.000000	99.374932 
2240.000000	99.375054 
2239.000000	99.375132 
2238.000000	99.375101 
2237.000000	99.374891 
2236.000000	99.374527 
2235.000000	99.374138 
2234.000000	99.373828 
2233.000000	99.373587 
2232.000000	99.373377 
2231.000000	99.373189 
2230.000000	99.373017 
2229.000000	99.372860 
2228.000000	99.372725 
2227.000000	99.372616 
2226.000000	99.372530 
2225.000000	99.372466 
2224.000000	99.372428 
2223.000000	99.372422 
2222.000000	99.372450 
2221.000000	99.372500 
2220.000000	99.372551 
2219.000000	99.372588 
2218.000000	99.372618 
2217.000000	99.372657 
2216.000000	99.372716 
2215.000000	99.372787 
2214.000000	99.372852 
2213.000000	99.372901 
2212.000000	99.372938 
2211.000000	99.372980 
2210.000000	99.373042 
2209.000000	99.373134 
2208.000000	99.373254 
2207.000000	99.373392 
2206.000000	99.373538 
2205.000000	99.373689 
2204.000000	99.373858 
2203.000000	99.374064 
2202.000000	99.374311 
2201.000000	99.374580 
2200.000000	99.374836 
2199.000000	99.375052 
2198.000000	99.375107 
2197.000000	99.374955 
2196.000000	99.374816 
2195.000000	99.374976 
2194.000000	99.375462 
2193.000000	99.376012 
2192.000000	99.376309 
2191.000000	99.376183 
2190.000000	99.375839 
2189.000000	99.375962 
2188.000000	99.377174 
2187.000000	99.379019 
2186.000000	99.379822 
2185.000000	99.378221 
2184.000000	99.374713 
2183.000000	99.371446 
2182.000000	99.370093 
2181.000000	99.370408 
2180.000000	99.370928 
2179.000000	99.370722 
2178.000000	99.370095 
2177.000000	99.369901 
2176.000000	99.370591 
2175.000000	99.371633 
2174.000000	99.371619 
2173.000000	99.369591 
2172.000000	99.366889 
2171.000000	99.366914 
2170.000000	99.371886 
2169.000000	99.379857 
2168.000000	99.385835 
2167.000000	99.386593 
2166.000000	99.383300 
2165.000000	99.379777 
2164.000000	99.379005 
2163.000000	99.381461 
2162.000000	99.385339 
2161.000000	99.387117 
2160.000000	99.383256 
2159.000000	99.372953 
2158.000000	99.359128 
2157.000000	99.345897 
2156.000000	99.335572 
2155.000000	99.328936 
2154.000000	99.326779 
2153.000000	99.329357 
2152.000000	99.334871 
2151.000000	99.339864 
2150.000000	99.341560 
2149.000000	99.339812 
2148.000000	99.337096 
2147.000000	99.336352 
2146.000000	99.338036 
2145.000000	99.339214 
2144.000000	99.336430 
2143.000000	99.329619 
2142.000000	99.322330 
2141.000000	99.317901 
2140.000000	99.316630 
2139.000000	99.317203 
2138.000000	99.319270 
2137.000000	99.323226 
2136.000000	99.328039 
2135.000000	99.331055 
2134.000000	99.330481 
2133.000000	99.327356 
2132.000000	99.324605 
2131.000000	99.324111 
2130.000000	99.324842 
2129.000000	99.323984 
2128.000000	99.320140 
2127.000000	99.315163 
2126.000000	99.312306 
2125.000000	99.313066 
2124.000000	99.316567 
2123.000000	99.321528 
2122.000000	99.327428 
2121.000000	99.333397 
2120.000000	99.337775 
2119.000000	99.339824 
2118.000000	99.340829 
2117.000000	99.342639 
2116.000000	99.345550 
2115.000000	99.348273 
2114.000000	99.349551 
2113.000000	99.349075 
2112.000000	99.347296 
2111.000000	99.345184 
2110.000000	99.344091 
2109.000000	99.344954 
2108.000000	99.347326 
2107.000000	99.349509 
2106.000000	99.349996 
2105.000000	99.348796 
2104.000000	99.347343 
2103.000000	99.347175 
2102.000000	99.348477 
2101.000000	99.349921 
2100.000000	99.350094 
2099.000000	99.348980 
2098.000000	99.347739 
2097.000000	99.347327 
2096.000000	99.347735 
2095.000000	99.348571 
2094.000000	99.349727 
2093.000000	99.351207 
2092.000000	99.352731 
2091.000000	99.353949 
2090.000000	99.354927 
2089.000000	99.355994 
2088.000000	99.357120 
2087.000000	99.357743 
2086.000000	99.357366 
2085.000000	99.356215 
2084.000000	99.355267 
2083.000000	99.355462 
2082.000000	99.356898 
2081.000000	99.358708 
2080.000000	99.359849 
2079.000000	99.360185 
2078.000000	99.360550 
2077.000000	99.361777 
2076.000000	99.363752 
2075.000000	99.365533 
2074.000000	99.366193 
2073.000000	99.365370 
2072.000000	99.363438 
2071.000000	99.361338 
2070.000000	99.360031 
2069.000000	99.359822 
2068.000000	99.360097 
2067.000000	99.359956 
2066.000000	99.359136 
2065.000000	99.358289 
2064.000000	99.358422 
2063.000000	99.360022 
2062.000000	99.362502 
2061.000000	99.364433 
2060.000000	99.364905 
2059.000000	99.364513 
2058.000000	99.364663 
2057.000000	99.365856 
2056.000000	99.367169 
2055.000000	99.367601 
2054.000000	99.367388 
2053.000000	99.367563 
2052.000000	99.368585 
2051.000000	99.369853 
2050.000000	99.370396 
2049.000000	99.369761 
2048.000000	99.368326 
2047.000000	99.367002 
2046.000000	99.366523 
2045.000000	99.366784 
2044.000000	99.366881 
2043.000000	99.366009 
2042.000000	99.364266 
2041.000000	99.362470 
2040.000000	99.361280 
2039.000000	99.360681 
2038.000000	99.360231 
2037.000000	99.359509 
2036.000000	99.358365 
2035.000000	99.356863 
2034.000000	99.355087 
2033.000000	99.353125 
2032.000000	99.351219 
2031.000000	99.349759 
2030.000000	99.348921 
2029.000000	99.348468 
2028.000000	99.347912 
2027.000000	99.346969 
2026.000000	99.345716 
2025.000000	99.344342 
2024.000000	99.343005 
2023.000000	99.341819 
2022.000000	99.340836 
2021.000000	99.340004 
2020.000000	99.339128 
2019.000000	99.338045 
2018.000000	99.336811 
2017.000000	99.335621 
2016.000000	99.334499 
2015.000000	99.333278 
2014.000000	99.331917 
2013.000000	99.330588 
2012.000000	99.329406 
2011.000000	99.328278 
2010.000000	99.327146 
2009.000000	99.326135 
2008.000000	99.325310 
2007.000000	99.324524 
2006.000000	99.323633 
2005.000000	99.322730 
2004.000000	99.322067 
2003.000000	99.321864 
2002.000000	99.322207 
2001.000000	99.322877 
2000.000000	99.323228 
1999.000000	99.322606 
1998.000000	99.320904 
1997.000000	99.318668 
1996.000000	99.316603 
1995.000000	99.315129 
1994.000000	99.314517 
1993.000000	99.314871 
1992.000000	99.315635 
1991.000000	99.315648 
1990.000000	99.314235 
1989.000000	99.312019 
1988.000000	99.310496 
1987.000000	99.310914 
1986.000000	99.313541 
1985.000000	99.317500 
1984.000000	99.321009 
1983.000000	99.322597 
1982.000000	99.322290 
1981.000000	99.321222 
1980.000000	99.320052 
1979.000000	99.318361 
1978.000000	99.315815 
1977.000000	99.312972 
1976.000000	99.310473 
1975.000000	99.308150 
1974.000000	99.305710 
1973.000000	99.303675 
1972.000000	99.302808 
1971.000000	99.303013 
1970.000000	99.303591 
1969.000000	99.304398 
1968.000000	99.305946 
1967.000000	99.308175 
1966.000000	99.309801 
1965.000000	99.309470 
1964.000000	99.307245 
1963.000000	99.304607 
1962.000000	99.303138 
1961.000000	99.303306 
1960.000000	99.304271 
1959.000000	99.304593 
1958.000000	99.303313 
1957.000000	99.300631 
1956.000000	99.297727 
1955.000000	99.295558 
1954.000000	99.293850 
1953.000000	99.291756 
1952.000000	99.289306 
1951.000000	99.287599 
1950.000000	99.287416 
1949.000000	99.288257 
1948.000000	99.288950 
1947.000000	99.288946 
1946.000000	99.288500 
1945.000000	99.287841 
1944.000000	99.286884 
1943.000000	99.285715 
1942.000000	99.284734 
1941.000000	99.284114 
1940.000000	99.283622 
1939.000000	99.283071 
1938.000000	99.282569 
1937.000000	99.282293 
1936.000000	99.282228 
1935.000000	99.282194 
1934.000000	99.282015 
1933.000000	99.281641 
1932.000000	99.281142 
1931.000000	99.280656 
1930.000000	99.280318 
1929.000000	99.280152 
1928.000000	99.280050 
1927.000000	99.279852 
1926.000000	99.279479 
1925.000000	99.278953 
1924.000000	99.278391 
1923.000000	99.277964 
1922.000000	99.277803 
1921.000000	99.277903 
1920.000000	99.278140 
1919.000000	99.278336 
1918.000000	99.278376 
1917.000000	99.278259 
1916.000000	99.278051 
1915.000000	99.277860 
1914.000000	99.277796 
1913.000000	99.277920 
1912.000000	99.278191 
1911.000000	99.278459 
1910.000000	99.278584 
1909.000000	99.278535 
1908.000000	99.278385 
1907.000000	99.278248 
1906.000000	99.278211 
1905.000000	99.278222 
1904.000000	99.278027 
1903.000000	99.277349 
1902.000000	99.276146 
1901.000000	99.274701 
1900.000000	99.273446 
1899.000000	99.272737 
1898.000000	99.272691 
1897.000000	99.273040 
1896.000000	99.273236 
1895.000000	99.272970 
1894.000000	99.272557 
1893.000000	99.272518 
1892.000000	99.272850 
1891.000000	99.273039 
1890.000000	99.272795 
1889.000000	99.272500 
1888.000000	99.272694 
1887.000000	99.273492 
1886.000000	99.274532 
1885.000000	99.275096 
1884.000000	99.274419 
1883.000000	99.272395 
1882.000000	99.269987 
1881.000000	99.268471 
1880.000000	99.268388 
1879.000000	99.269359 
1878.000000	99.270508 
1877.000000	99.270888 
1876.000000	99.269994 
1875.000000	99.268431 
1874.000000	99.267730 
1873.000000	99.268676 
1872.000000	99.270027 
1871.000000	99.269598 
1870.000000	99.266713 
1869.000000	99.263061 
1868.000000	99.260274 
1867.000000	99.257982 
1866.000000	99.255614 
1865.000000	99.253924 
1864.000000	99.254256 
1863.000000	99.257376 
1862.000000	99.262916 
1861.000000	99.269173 
1860.000000	99.273812 
1859.000000	99.275852 
1858.000000	99.276642 
1857.000000	99.278096 
1856.000000	99.280353 
1855.000000	99.282147 
1854.000000	99.282677 
1853.000000	99.282024 
1852.000000	99.280464 
1851.000000	99.278392 
1850.000000	99.276728 
1849.000000	99.276398 
1848.000000	99.277314 
1847.000000	99.278621 
1846.000000	99.279893 
1845.000000	99.281029 
1844.000000	99.281361 
1843.000000	99.280496 
1842.000000	99.279617 
1841.000000	99.280122 
1840.000000	99.282034 
1839.000000	99.284167 
1838.000000	99.285397 
1837.000000	99.285715 
1836.000000	99.285905 
1835.000000	99.286609 
1834.000000	99.287847 
1833.000000	99.289252 
1832.000000	99.290660 
1831.000000	99.291888 
1830.000000	99.292481 
1829.000000	99.292332 
1828.000000	99.292246 
1827.000000	99.292987 
1826.000000	99.294217 
1825.000000	99.295077 
1824.000000	99.295305 
1823.000000	99.295475 
1822.000000	99.296163 
1821.000000	99.296938 
1820.000000	99.296622 
1819.000000	99.294575 
1818.000000	99.291675 
1817.000000	99.289637 
1816.000000	99.288990 
1815.000000	99.288848 
1814.000000	99.288688 
1813.000000	99.289262 
1812.000000	99.291674 
1811.000000	99.295800 
1810.000000	99.300476 
1809.000000	99.304763 
1808.000000	99.307837 
1807.000000	99.308915 
1806.000000	99.308286 
1805.000000	99.307456 
1804.000000	99.307530 
1803.000000	99.308151 
1802.000000	99.308620 
1801.000000	99.309216 
1800.000000	99.310104 
1799.000000	99.310397 
1798.000000	99.309697 
1797.000000	99.308770 
1796.000000	99.308378 
1795.000000	99.308616 
1794.000000	99.309210 
1793.000000	99.309840 
1792.000000	99.310446 
1791.000000	99.311033 
1790.000000	99.311636 
1789.000000	99.312489 
1788.000000	99.313718 
1787.000000	99.315085 
1786.000000	99.316154 
1785.000000	99.316572 
1784.000000	99.316177 
1783.000000	99.315365 
1782.000000	99.314999 
1781.000000	99.315545 
1780.000000	99.316444 
1779.000000	99.316745 
1778.000000	99.316396 
1777.000000	99.316156 
1776.000000	99.316586 
1775.000000	99.317756 
1774.000000	99.319440 
1773.000000	99.321175 
1772.000000	99.322463 
1771.000000	99.323227 
1770.000000	99.323728 
1769.000000	99.324146 
1768.000000	99.324566 
1767.000000	99.325015 
1766.000000	99.325519 
1765.000000	99.326133 
1764.000000	99.326859 
1763.000000	99.327624 
1762.000000	99.328328 
1761.000000	99.328931 
1760.000000	99.329488 
1759.000000	99.330069 
1758.000000	99.330703 
1757.000000	99.331367 
1756.000000	99.332008 
1755.000000	99.332595 
1754.000000	99.333132 
1753.000000	99.333630 
1752.000000	99.334143 
1751.000000	99.334759 
1750.000000	99.335501 
1749.000000	99.336261 
1748.000000	99.336910 
1747.000000	99.337432 
1746.000000	99.337888 
1745.000000	99.338346 
1744.000000	99.338829 
1743.000000	99.339313 
1742.000000	99.339767 
1741.000000	99.340186 
1740.000000	99.340584 
1739.000000	99.340972 
1738.000000	99.341352 
1737.000000	99.341714 
1736.000000	99.342041 
1735.000000	99.342315 
1734.000000	99.342546 
1733.000000	99.342787 
1732.000000	99.343081 
1731.000000	99.343426 
1730.000000	99.343788 
1729.000000	99.344124 
1728.000000	99.344411 
1727.000000	99.344659 
1726.000000	99.344882 
1725.000000	99.345065 
1724.000000	99.345185 
1723.000000	99.345270 
1722.000000	99.345397 
1721.000000	99.345626 
1720.000000	99.345938 
1719.000000	99.346214 
1718.000000	99.346317 
1717.000000	99.346282 
1716.000000	99.346241 
1715.000000	99.346174 
1714.000000	99.346063 
1713.000000	99.345991 
1712.000000	99.346005 
1711.000000	99.346075 
1710.000000	99.346173 
1709.000000	99.346330 
1708.000000	99.346587 
1707.000000	99.346921 
1706.000000	99.347333 
1705.000000	99.347816 
1704.000000	99.348175 
1703.000000	99.348145 
1702.000000	99.347669 
1701.000000	99.347091 
1700.000000	99.346917 
1699.000000	99.347046 
1698.000000	99.347211 
1697.000000	99.347549 
1696.000000	99.348249 
1695.000000	99.349032 
1694.000000	99.349642 
1693.000000	99.350130 
1692.000000	99.350411 
1691.000000	99.350411 
1690.000000	99.350281 
1689.000000	99.350225 
1688.000000	99.350169 
1687.000000	99.349864 
1686.000000	99.349459 
1685.000000	99.349535 
1684.000000	99.350304 
1683.000000	99.351153 
1682.000000	99.351717 
1681.000000	99.351994 
1680.000000	99.352194 
1679.000000	99.352526 
1678.000000	99.353030 
1677.000000	99.353598 
1676.000000	99.354083 
1675.000000	99.354481 
1674.000000	99.354902 
1673.000000	99.355501 
1672.000000	99.356316 
1671.000000	99.357357 
1670.000000	99.358487 
1669.000000	99.359191 
1668.000000	99.359224 
1667.000000	99.358910 
1666.000000	99.358348 
1665.000000	99.357480 
1664.000000	99.356670 
1663.000000	99.356708 
1662.000000	99.357950 
1661.000000	99.359694 
1660.000000	99.360943 
1659.000000	99.361634 
1658.000000	99.362340 
1657.000000	99.362975 
1656.000000	99.362561 
1655.000000	99.360966 
1654.000000	99.360152 
1653.000000	99.361092 
1652.000000	99.361345 
1651.000000	99.361635 
1650.000000	99.361893 
1649.000000	99.361165 
1648.000000	99.359580 
1647.000000	99.358138 
1646.000000	99.357366 
1645.000000	99.357529 
1644.000000	99.358694 
1643.000000	99.360206 
1642.000000	99.361337 
1641.000000	99.362005 
1640.000000	99.362355 
1639.000000	99.362315 
1638.000000	99.361922 
1637.000000	99.361685 
1636.000000	99.361746 
1635.000000	99.361647 
1634.000000	99.362192 
1633.000000	99.364011 
1632.000000	99.366237 
1631.000000	99.368066 
1630.000000	99.369399 
1629.000000	99.370283 
1628.000000	99.370616 
1627.000000	99.370659 
1626.000000	99.371099 
1625.000000	99.372423 
1624.000000	99.374413 
1623.000000	99.376400 
1622.000000	99.378027 
1621.000000	99.379133 
1620.000000	99.379135 
1619.000000	99.377971 
1618.000000	99.377170 
1617.000000	99.378175 
1616.000000	99.380019 
1615.000000	99.381407 
1614.000000	99.381773 
1613.000000	99.380616 
1612.000000	99.378437 
1611.000000	99.376484 
1610.000000	99.375596 
1609.000000	99.375503 
1608.000000	99.375442 
1607.000000	99.375073 
1606.000000	99.374357 
1605.000000	99.373430 
1604.000000	99.372903 
1603.000000	99.373722 
1602.000000	99.375955 
1601.000000	99.378276 
1600.000000	99.379630 
1599.000000	99.380670 
1598.000000	99.382576 
1597.000000	99.385413 
1596.000000	99.388395 
1595.000000	99.391159 
1594.000000	99.393832 
1593.000000	99.395942 
1592.000000	99.396675 
1591.000000	99.396234 
1590.000000	99.395940 
1589.000000	99.396600 
1588.000000	99.397819 
1587.000000	99.399032 
1586.000000	99.399886 
1585.000000	99.399781 
1584.000000	99.398234 
1583.000000	99.395766 
1582.000000	99.393925 
1581.000000	99.393636 
1580.000000	99.394340 
1579.000000	99.395126 
1578.000000	99.395890 
1577.000000	99.396720 
1576.000000	99.396964 
1575.000000	99.396869 
1574.000000	99.397502 
1573.000000	99.398321 
1572.000000	99.398532 
1571.000000	99.398451 
1570.000000	99.398832 
1569.000000	99.399593 
1568.000000	99.400110 
1567.000000	99.400209 
1566.000000	99.400043 
1565.000000	99.399816 
1564.000000	99.399684 
1563.000000	99.399638 
1562.000000	99.399589 
1561.000000	99.399483 
1560.000000	99.399296 
1559.000000	99.399072 
1558.000000	99.398822 
1557.000000	99.398625 
1556.000000	99.398444 
1555.000000	99.398212 
1554.000000	99.397940 
1553.000000	99.397657 
1552.000000	99.397364 
1551.000000	99.397053 
1550.000000	99.396721 
1549.000000	99.396369 
1548.000000	99.395994 
1547.000000	99.395597 
1546.000000	99.395179 
1545.000000	99.394750 
1544.000000	99.394320 
1543.000000	99.393898 
1542.000000	99.393490 
1541.000000	99.393099 
1540.000000	99.392722 
1539.000000	99.392353 
1538.000000	99.391999 
1537.000000	99.391668 
1536.000000	99.391359 
1535.000000	99.391066 
1534.000000	99.390779 
1533.000000	99.390490 
1532.000000	99.390195 
1531.000000	99.389866 
1530.000000	99.389487 
1529.000000	99.389128 
1528.000000	99.388861 
1527.000000	99.388628 
1526.000000	99.388287 
1525.000000	99.387807 
1524.000000	99.387302 
1523.000000	99.386927 
1522.000000	99.386898 
1521.000000	99.387233 
1520.000000	99.387374 
1519.000000	99.386884 
1518.000000	99.385897 
1517.000000	99.384959 
1516.000000	99.384400 
1515.000000	99.383966 
1514.000000	99.383404 
1513.000000	99.382708 
1512.000000	99.381882 
1511.000000	99.380813 
1510.000000	99.379351 
1509.000000	99.377731 
1508.000000	99.377227 
1507.000000	99.379106 
1506.000000	99.380744 
1505.000000	99.380031 
1504.000000	99.378937 
1503.000000	99.378233 
1502.000000	99.377798 
1501.000000	99.378120 
1500.000000	99.379897 
1499.000000	99.383017 
1498.000000	99.386258 
1497.000000	99.388781 
1496.000000	99.390418 
1495.000000	99.390432 
1494.000000	99.388082 
1493.000000	99.383605 
1492.000000	99.377891 
1491.000000	99.372394 
1490.000000	99.368790 
1489.000000	99.367797 
1488.000000	99.367967 
1487.000000	99.367584 
1486.000000	99.367127 
1485.000000	99.367502 
1484.000000	99.368372 
1483.000000	99.368848 
1482.000000	99.368111 
1481.000000	99.366069 
1480.000000	99.363325 
1479.000000	99.360626 
1478.000000	99.358525 
1477.000000	99.357321 
1476.000000	99.356896 
1475.000000	99.356300 
1474.000000	99.355596 
1473.000000	99.356639 
1472.000000	99.359820 
1471.000000	99.362219 
1470.000000	99.362452 
1469.000000	99.362040 
1468.000000	99.362528 
1467.000000	99.363879 
1466.000000	99.365340 
1465.000000	99.366589 
1464.000000	99.367333 
1463.000000	99.367236 
1462.000000	99.366550 
1461.000000	99.366149 
1460.000000	99.366334 
1459.000000	99.366452 
1458.000000	99.364755 
1457.000000	99.360221 
1456.000000	99.354492 
1455.000000	99.350049 
1454.000000	99.347673 
1453.000000	99.346857 
1452.000000	99.346915 
1451.000000	99.347197 
1450.000000	99.347534 
1449.000000	99.348588 
1448.000000	99.350623 
1447.000000	99.352315 
1446.000000	99.352699 
1445.000000	99.352642 
1444.000000	99.352914 
1443.000000	99.352742 
1442.000000	99.351229 
1441.000000	99.349059 
1440.000000	99.348279 
1439.000000	99.350537 
1438.000000	99.354822 
1437.000000	99.357662 
1436.000000	99.355977 
1435.000000	99.349896 
1434.000000	99.342713 
1433.000000	99.337992 
1432.000000	99.336978 
1431.000000	99.338836 
1430.000000	99.341177 
1429.000000	99.342055 
1428.000000	99.341314 
1427.000000	99.339501 
1426.000000	99.336816 
1425.000000	99.332911 
1424.000000	99.328749 
1423.000000	99.325948 
1422.000000	99.323881 
1421.000000	99.320930 
1420.000000	99.316597 
1419.000000	99.311847 
1418.000000	99.306183 
1417.000000	99.298777 
1416.000000	99.291477 
1415.000000	99.285582 
1414.000000	99.279635 
1413.000000	99.271586 
1412.000000	99.262358 
1411.000000	99.255050 
1410.000000	99.250371 
1409.000000	99.246886 
1408.000000	99.244519 
1407.000000	99.244065 
1406.000000	99.245026 
1405.000000	99.246357 
1404.000000	99.248711 
1403.000000	99.252581 
1402.000000	99.256134 
1401.000000	99.257773 
1400.000000	99.258420 
1399.000000	99.260215 
1398.000000	99.261680 
1397.000000	99.258216 
1396.000000	99.248352 
1395.000000	99.237247 
1394.000000	99.232604 
1393.000000	99.237198 
1392.000000	99.249151 
1391.000000	99.264447 
1390.000000	99.278316 
1389.000000	99.286979 
1388.000000	99.289346 
1387.000000	99.287276 
1386.000000	99.283410 
1385.000000	99.279752 
1384.000000	99.277830 
1383.000000	99.278339 
1382.000000	99.280545 
1381.000000	99.283434 
1380.000000	99.286680 
1379.000000	99.290460 
1378.000000	99.294620 
1377.000000	99.298535 
1376.000000	99.302166 
1375.000000	99.306682 
1374.000000	99.313095 
1373.000000	99.320180 
1372.000000	99.326051 
1371.000000	99.331194 
1370.000000	99.337711 
1369.000000	99.345556 
1368.000000	99.352797 
1367.000000	99.358397 
1366.000000	99.362999 
1365.000000	99.367276 
1364.000000	99.370667 
1363.000000	99.372968 
1362.000000	99.375676 
1361.000000	99.379723 
1360.000000	99.383907 
1359.000000	99.387002 
1358.000000	99.389628 
1357.000000	99.393156 
1356.000000	99.397715 
1355.000000	99.402067 
1354.000000	99.405219 
1353.000000	99.407222 
1352.000000	99.407854 
1351.000000	99.406402 
1350.000000	99.404299 
1349.000000	99.403567 
1348.000000	99.404915 
1347.000000	99.407929 
1346.000000	99.412377 
1345.000000	99.417551 
1344.000000	99.421767 
1343.000000	99.423888 
1342.000000	99.424664 
1341.000000	99.425256 
1340.000000	99.425437 
1339.000000	99.424547 
1338.000000	99.423178 
1337.000000	99.422795 
1336.000000	99.423942 
1335.000000	99.425724 
1334.000000	99.427230 
1333.000000	99.428422 
1332.000000	99.429355 
1331.000000	99.429751 
1330.000000	99.429548 
1329.000000	99.428897 
1328.000000	99.427972 
1327.000000	99.427227 
1326.000000	99.427494 
1325.000000	99.428603 
1324.000000	99.429691 
1323.000000	99.430316 
1322.000000	99.430533 
1321.000000	99.430068 
1320.000000	99.428547 
1319.000000	99.426597 
1318.000000	99.425631 
1317.000000	99.426157 
1316.000000	99.427000 
1315.000000	99.426645 
1314.000000	99.424877 
1313.000000	99.422935 
1312.000000	99.422245 
1311.000000	99.423318 
1310.000000	99.425760 
1309.000000	99.428704 
1308.000000	99.431134 
1307.000000	99.432115 
1306.000000	99.431344 
1305.000000	99.429267 
1304.000000	99.427180 
1303.000000	99.426451 
1302.000000	99.427504 
1301.000000	99.429465 
1300.000000	99.430954 
1299.000000	99.431115 
1298.000000	99.429932 
1297.000000	99.428032 
1296.000000	99.426396 
1295.000000	99.426126 
1294.000000	99.427739 
1293.000000	99.430525 
1292.000000	99.432830 
1291.000000	99.433158 
1290.000000	99.431274 
1289.000000	99.428513 
1288.000000	99.426823 
1287.000000	99.426980 
1286.000000	99.427705 
1285.000000	99.427087 
1284.000000	99.424837 
1283.000000	99.422503 
1282.000000	99.421337 
1281.000000	99.420863 
1280.000000	99.420068 
1279.000000	99.418959 
1278.000000	99.417953 
1277.000000	99.416644 
1276.000000	99.414252 
1275.000000	99.411184 
1274.000000	99.409017 
1273.000000	99.408730 
1272.000000	99.409622 
1271.000000	99.410010 
1270.000000	99.408544 
1269.000000	99.404993 
1268.000000	99.400405 
1267.000000	99.396411 
1266.000000	99.393670 
1265.000000	99.391319 
1264.000000	99.388284 
1263.000000	99.384564 
1262.000000	99.380688 
1261.000000	99.376686 
1260.000000	99.372565 
1259.000000	99.369298 
1258.000000	99.367869 
1257.000000	99.367741 
1256.000000	99.367379 
1255.000000	99.366264 
1254.000000	99.365241 
1253.000000	99.364886 
1252.000000	99.364655 
1251.000000	99.364029 
1250.000000	99.363390 
1249.000000	99.363427 
1248.000000	99.364607 
1247.000000	99.367336 
1246.000000	99.371154 
1245.000000	99.373556 
1244.000000	99.371437 
1243.000000	99.364943 
1242.000000	99.358892 
1241.000000	99.358682 
1240.000000	99.364930 
1239.000000	99.372909 
1238.000000	99.377057 
1237.000000	99.375384 
1236.000000	99.369748 
1235.000000	99.363267 
1234.000000	99.357740 
1233.000000	99.353015 
1232.000000	99.348300 
1231.000000	99.343444 
1230.000000	99.338704 
1229.000000	99.333914 
1228.000000	99.329018 
1227.000000	99.325357 
1226.000000	99.324995 
1225.000000	99.327944 
1224.000000	99.331006 
1223.000000	99.330460 
1222.000000	99.325529 
1221.000000	99.318558 
1220.000000	99.312440 
1219.000000	99.308675 
1218.000000	99.307176 
1217.000000	99.306597 
1216.000000	99.304775 
1215.000000	99.299970 
1214.000000	99.292311 
1213.000000	99.283662 
1212.000000	99.275653 
1211.000000	99.267873 
1210.000000	99.258411 
1209.000000	99.246282 
1208.000000	99.232980 
1207.000000	99.221320 
1206.000000	99.212758 
1205.000000	99.206314 
1204.000000	99.200072 
1203.000000	99.192778 
1202.000000	99.183473 
1201.000000	99.170819 
1200.000000	99.154453 
1199.000000	99.136818 
1198.000000	99.121907 
1197.000000	99.111555 
1196.000000	99.103808 
1195.000000	99.095203 
1194.000000	99.083789 
1193.000000	99.069723 
1192.000000	99.054281 
1191.000000	99.039162 
1190.000000	99.025905 
1189.000000	99.014980 
1188.000000	99.005590 
1187.000000	98.996522 
1186.000000	98.986706 
1185.000000	98.974948 
1184.000000	98.960031 
1183.000000	98.941830 
1182.000000	98.921989 
1181.000000	98.902930 
1180.000000	98.886214 
1179.000000	98.871864 
1178.000000	98.858608 
1177.000000	98.844556 
1176.000000	98.828300 
1175.000000	98.809921 
1174.000000	98.790830 
1173.000000	98.772503 
1172.000000	98.755761 
1171.000000	98.741001 
1170.000000	98.728150 
1169.000000	98.716268 
1168.000000	98.704037 
1167.000000	98.691040 
1166.000000	98.678128 
1165.000000	98.666755 
1164.000000	98.658786 
1163.000000	98.656545 
1162.000000	98.661334 
1161.000000	98.671117 
1160.000000	98.680814 
1159.000000	98.686152 
1158.000000	98.686677 
1157.000000	98.684173 
1156.000000	98.679023 
1155.000000	98.669529 
1154.000000	98.654586 
1153.000000	98.635589 
1152.000000	98.615379 
1151.000000	98.596181 
1150.000000	98.578775 
1149.000000	98.562864 
1148.000000	98.547496 
1147.000000	98.531191 
1146.000000	98.512366 
1145.000000	98.490432 
1144.000000	98.466843 
1143.000000	98.444719 
1142.000000	98.426596 
1141.000000	98.412216 
1140.000000	98.398862 
1139.000000	98.383886 
1138.000000	98.366710 
1137.000000	98.348642 
1136.000000	98.331454 
1135.000000	98.316268 
1134.000000	98.303173 
1133.000000	98.291351 
1132.000000	98.279502 
1131.000000	98.266185 
1130.000000	98.249963 
1129.000000	98.229803 
1128.000000	98.205961 
1127.000000	98.180392 
1126.000000	98.155684 
1125.000000	98.133420 
1124.000000	98.113660 
1123.000000	98.095553 
1122.000000	98.077771 
1121.000000	98.058792 
1120.000000	98.037769 
1119.000000	98.015300 
1118.000000	97.992730 
1117.000000	97.970686 
1116.000000	97.948930 
1115.000000	97.927404 
1114.000000	97.906381 
1113.000000	97.885444 
1112.000000	97.863512 
1111.000000	97.840710 
1110.000000	97.819342 
1109.000000	97.801712 
1108.000000	97.787090 
1107.000000	97.771783 
1106.000000	97.752916 
1105.000000	97.731128 
1104.000000	97.709061 
1103.000000	97.688104 
1102.000000	97.667800 
1101.000000	97.647999 
1100.000000	97.630356 
1099.000000	97.615726 
1098.000000	97.602797 
1097.000000	97.589379 
1096.000000	97.574703 
1095.000000	97.559197 
1094.000000	97.542608 
1093.000000	97.523793 
1092.000000	97.502217 
1091.000000	97.478294 
1090.000000	97.452195 
1089.000000	97.423571 
1088.000000	97.392930 
1087.000000	97.362389 
1086.000000	97.334445 
1085.000000	97.310409 
1084.000000	97.289955 
1083.000000	97.271215 
1082.000000	97.251246 
1081.000000	97.227767 
1080.000000	97.201191 
1079.000000	97.174365 
1078.000000	97.150049 
1077.000000	97.129276 
1076.000000	97.111988 
1075.000000	97.097728 
1074.000000	97.085273 
1073.000000	97.072686 
1072.000000	97.057782 
1071.000000	97.037177 
1070.000000	97.005663 
1069.000000	96.959829 
1068.000000	96.903932 
1067.000000	96.850301 
1066.000000	96.810997 
1065.000000	96.788774 
1064.000000	96.776592 
1063.000000	96.763899 
1062.000000	96.742348 
1061.000000	96.708027 
1060.000000	96.662247 
1059.000000	96.611599 
1058.000000	96.565171 
1057.000000	96.529068 
1056.000000	96.502275 
1055.000000	96.477361 
1054.000000	96.446126 
1053.000000	96.406419 
1052.000000	96.363782 
1051.000000	96.325324 
1050.000000	96.292375 
1049.000000	96.261134 
1048.000000	96.229529 
1047.000000	96.199556 
1046.000000	96.172582 
1045.000000	96.146343 
1044.000000	96.118261 
1043.000000	96.089134 
1042.000000	96.061560 
1041.000000	96.036195 
1040.000000	96.011645 
1039.000000	95.987664 
1038.000000	95.967038 
1037.000000	95.954030 
1036.000000	95.951235 
1035.000000	95.957618 
1034.000000	95.969207 
1033.000000	95.981267 
1032.000000	95.989124 
1031.000000	95.988043 
1030.000000	95.976142 
1029.000000	95.959524 
1028.000000	95.951288 
1027.000000	95.961165 
1026.000000	95.986277 
1025.000000	96.014475 
1024.000000	96.036108 
1023.000000	96.049513 
1022.000000	96.056513 
1021.000000	96.058017 
1020.000000	96.055444 
1019.000000	96.052340 
1018.000000	96.051603 
1017.000000	96.052750 
1016.000000	96.053830 
1015.000000	96.054932 
1014.000000	96.058443 
1013.000000	96.066394 
1012.000000	96.078143 
1011.000000	96.090190 
1010.000000	96.098783 
1009.000000	96.103887 
1008.000000	96.109952 
1007.000000	96.121378 
1006.000000	96.138159 
1005.000000	96.157640 
1004.000000	96.179100 
1003.000000	96.203545 
1002.000000	96.229659 
1001.000000	96.253622 
1000.000000	96.273546 
999.000000	 96.291100 
998.000000	 96.307843 
997.000000	 96.322846 
996.000000	 96.335746 
995.000000	 96.350097 
994.000000	 96.371215 
993.000000	 96.400819 
992.000000	 96.434766 
991.000000	 96.466187 
990.000000	 96.491251 
989.000000	 96.512292 
988.000000	 96.534765 
987.000000	 96.560925 
986.000000	 96.587974 
985.000000	 96.613407 
984.000000	 96.639917 
983.000000	 96.672268 
982.000000	 96.710849 
981.000000	 96.751415 
980.000000	 96.790660 
979.000000	 96.829063 
978.000000	 96.868178 
977.000000	 96.908465 
976.000000	 96.950667 
975.000000	 96.996292 
974.000000	 97.045124 
973.000000	 97.094298 
972.000000	 97.141311 
971.000000	 97.186467 
970.000000	 97.231224 
969.000000	 97.275728 
968.000000	 97.319459 
967.000000	 97.363006 
966.000000	 97.407166 
965.000000	 97.450512 
964.000000	 97.489721 
963.000000	 97.523147 
962.000000	 97.553174 
961.000000	 97.584053 
960.000000	 97.617577 
959.000000	 97.651814 
958.000000	 97.684245 
957.000000	 97.714907 
956.000000	 97.745496 
955.000000	 97.776401 
954.000000	 97.806355 
953.000000	 97.834699 
952.000000	 97.861963 
951.000000	 97.887869 
950.000000	 97.910689 
949.000000	 97.929506 
948.000000	 97.945610 
947.000000	 97.960852 
946.000000	 97.976024 
945.000000	 97.991836 
944.000000	 98.009664 
943.000000	 98.029280 
942.000000	 98.047067 
941.000000	 98.058946 
940.000000	 98.064987 
939.000000	 98.069546 
938.000000	 98.076766 
937.000000	 98.087278 
936.000000	 98.099234 
935.000000	 98.110602 
934.000000	 98.119849 
933.000000	 98.126133 
932.000000	 98.130311 
931.000000	 98.135338 
930.000000	 98.144515 
929.000000	 98.158891 
928.000000	 98.176406 
927.000000	 98.193464 
926.000000	 98.207484 
925.000000	 98.218201 
924.000000	 98.226635 
923.000000	 98.233078 
922.000000	 98.236632 
921.000000	 98.236827 
920.000000	 98.234974 
919.000000	 98.233484 
918.000000	 98.234164 
917.000000	 98.237495 
916.000000	 98.242952 
915.000000	 98.249614 
914.000000	 98.256917 
913.000000	 98.265341 
912.000000	 98.276031 
911.000000	 98.289153 
910.000000	 98.303066 
909.000000	 98.316041 
908.000000	 98.328502 
907.000000	 98.342738 
906.000000	 98.360500 
905.000000	 98.381434 
904.000000	 98.403754 
903.000000	 98.426305 
902.000000	 98.450249 
901.000000	 98.478515 
900.000000	 98.512695 
899.000000	 98.550162 
898.000000	 98.585019 
897.000000	 98.612559 
896.000000	 98.632273 
895.000000	 98.647023 
894.000000	 98.660825 
893.000000	 98.677493 
892.000000	 98.699416 
891.000000	 98.725957 
890.000000	 98.753659 
889.000000	 98.779366 
888.000000	 98.802762 
887.000000	 98.824864 
886.000000	 98.844814 
885.000000	 98.860081 
884.000000	 98.870330 
883.000000	 98.879592 
882.000000	 98.892951 
881.000000	 98.911177 
880.000000	 98.930334 
879.000000	 98.947295 
878.000000	 98.963943 
877.000000	 98.983769 
876.000000	 99.005000 
875.000000	 99.020506 
874.000000	 99.026246 
873.000000	 99.027601 
872.000000	 99.034863 
871.000000	 99.052896 
870.000000	 99.077078 
869.000000	 99.098716 
868.000000	 99.112790 
867.000000	 99.120854 
866.000000	 99.128928 
865.000000	 99.142911 
864.000000	 99.164241 
863.000000	 99.188993 
862.000000	 99.211625 
861.000000	 99.229583 
860.000000	 99.243845 
859.000000	 99.256653 
858.000000	 99.270861 
857.000000	 99.290122 
856.000000	 99.315929 
855.000000	 99.343640 
854.000000	 99.364696 
853.000000	 99.374556 
852.000000	 99.376621 
851.000000	 99.377614 
850.000000	 99.381121 
849.000000	 99.386843 
848.000000	 99.393860 
847.000000	 99.402092 
846.000000	 99.411296 
845.000000	 99.420481 
844.000000	 99.428369 
843.000000	 99.433814 
842.000000	 99.436121 
841.000000	 99.435415 
840.000000	 99.432620 
839.000000	 99.429420 
838.000000	 99.428266 
837.000000	 99.430712 
836.000000	 99.434352 
835.000000	 99.433449 
834.000000	 99.425492 
833.000000	 99.415566 
832.000000	 99.410090 
831.000000	 99.407106 
830.000000	 99.398781 
829.000000	 99.385044 
828.000000	 99.377978 
827.000000	 99.387411 
826.000000	 99.406781 
825.000000	 99.420772 
824.000000	 99.424464 
823.000000	 99.426392 
822.000000	 99.433329 
821.000000	 99.440820 
820.000000	 99.440903 
819.000000	 99.432622 
818.000000	 99.422237 
817.000000	 99.416366 
816.000000	 99.416274 
815.000000	 99.416703 
814.000000	 99.409373 
813.000000	 99.389494 
812.000000	 99.359737 
811.000000	 99.326711 
810.000000	 99.293028 
809.000000	 99.253992 
808.000000	 99.202384 
807.000000	 99.134876 
806.000000	 99.053623 
805.000000	 98.964042 
804.000000	 98.873359 
803.000000	 98.790292 
802.000000	 98.722767 
801.000000	 98.674032 
800.000000	 98.641067 
799.000000	 98.617635 
798.000000	 98.600304 
797.000000	 98.592041 
796.000000	 98.598584 
795.000000	 98.620842 
794.000000	 98.652794 
793.000000	 98.687299 
792.000000	 98.720318 
791.000000	 98.747397 
790.000000	 98.761187 
789.000000	 98.758070 
788.000000	 98.744779 
787.000000	 98.732432 
786.000000	 98.724132 
785.000000	 98.713301 
784.000000	 98.694490 
783.000000	 98.670610 
782.000000	 98.648058 
781.000000	 98.629672 
780.000000	 98.615182 
779.000000	 98.604886 
778.000000	 98.600144 
777.000000	 98.603032 
776.000000	 98.617235 
775.000000	 98.645896 
774.000000	 98.686172 
773.000000	 98.728917 
772.000000	 98.766398 
771.000000	 98.797679 
770.000000	 98.824154 
769.000000	 98.843322 
768.000000	 98.851589 
767.000000	 98.851993 
766.000000	 98.854250 
765.000000	 98.865555 
764.000000	 98.883835 
763.000000	 98.901078 
762.000000	 98.911560 
761.000000	 98.915975 
760.000000	 98.919197 
759.000000	 98.925704 
758.000000	 98.936620 
757.000000	 98.949860 
756.000000	 98.962615 
755.000000	 98.974013 
754.000000	 98.985881 
753.000000	 99.001228 
752.000000	 99.021835 
751.000000	 99.046300 
750.000000	 99.069813 
749.000000	 99.086582 
748.000000	 99.094070 
747.000000	 99.095908 
746.000000	 99.100079 
745.000000	 99.112400 
744.000000	 99.131035 
743.000000	 99.148240 
742.000000	 99.158521 
741.000000	 99.164295 
740.000000	 99.172378 
739.000000	 99.186166 
738.000000	 99.203509 
737.000000	 99.221406 
736.000000	 99.239373 
735.000000	 99.257619 
734.000000	 99.275522 
733.000000	 99.293866 
732.000000	 99.315207 
731.000000	 99.338654 
730.000000	 99.357091 
729.000000	 99.363845 
728.000000	 99.360341 
727.000000	 99.353983 
726.000000	 99.350282 
725.000000	 99.350511 
724.000000	 99.355583 
723.000000	 99.366974 
722.000000	 99.383032 
721.000000	 99.398259 
720.000000	 99.407546 
719.000000	 99.409182 
718.000000	 99.404142 
717.000000	 99.395615 
716.000000	 99.389813 
715.000000	 99.392836 
714.000000	 99.404310 
713.000000	 99.417034 
712.000000	 99.424750 
711.000000	 99.427920 
710.000000	 99.430682 
709.000000	 99.434755 
708.000000	 99.437979 
707.000000	 99.437342 
706.000000	 99.432388 
705.000000	 99.425808 
704.000000	 99.420131 
703.000000	 99.413872 
702.000000	 99.401572 
701.000000	 99.379088 
700.000000	 99.348042 
699.000000	 99.312480 
698.000000	 99.273495 
697.000000	 99.230816 
696.000000	 99.188637 
695.000000	 99.155895 
694.000000	 99.139711 
693.000000	 99.142530 
692.000000	 99.164704 
691.000000	 99.202455 
690.000000	 99.243846 
689.000000	 99.274171 
688.000000	 99.289477 
687.000000	 99.300083 
686.000000	 99.316105 
685.000000	 99.335990 
684.000000	 99.352858 
683.000000	 99.364374 
682.000000	 99.372427 
681.000000	 99.379113 
680.000000	 99.387270 
679.000000	 99.399170 
678.000000	 99.409974 
677.000000	 99.410035 
676.000000	 99.398581 
675.000000	 99.386587 
674.000000	 99.384280 
673.000000	 99.389346 
672.000000	 99.389645 
671.000000	 99.375757 
670.000000	 99.347984 
669.000000	 99.317513 
668.000000	 99.303049 
667.000000	 99.314155 
666.000000	 99.345217 
665.000000	 99.384264 
664.000000	 99.415711 
663.000000	 99.429803 
662.000000	 99.430571 
661.000000	 99.433929 
660.000000	 99.450066 
659.000000	 99.470231 
658.000000	 99.476435 
657.000000	 99.461710 
656.000000	 99.435545 
655.000000	 99.413804 
654.000000	 99.407239 
653.000000	 99.413961 
652.000000	 99.420394 
651.000000	 99.415411 
650.000000	 99.405408 

