4000.000000	99.887642 
3999.000000	99.887923 
3998.000000	99.887587 
3997.000000	99.887499 
3996.000000	99.887687 
3995.000000	99.887836 
3994.000000	99.887879 
3993.000000	99.887930 
3992.000000	99.887842 
3991.000000	99.887144 
3990.000000	99.885614 
3989.000000	99.883836 
3988.000000	99.882971 
3987.000000	99.883776 
3986.000000	99.885845 
3985.000000	99.887834 
3984.000000	99.888467 
3983.000000	99.887419 
3982.000000	99.885349 
3981.000000	99.883165 
3980.000000	99.881297 
3979.000000	99.879741 
3978.000000	99.878785 
3977.000000	99.879409 
3976.000000	99.882463 
3975.000000	99.887255 
3974.000000	99.891352 
3973.000000	99.892327 
3972.000000	99.889819 
3971.000000	99.885718 
3970.000000	99.882449 
3969.000000	99.881279 
3968.000000	99.882056 
3967.000000	99.884066 
3966.000000	99.886708 
3965.000000	99.889428 
3964.000000	99.891353 
3963.000000	99.891313 
3962.000000	99.888476 
3961.000000	99.883108 
3960.000000	99.876764 
3959.000000	99.871563 
3958.000000	99.868953 
3957.000000	99.868901 
3956.000000	99.870108 
3955.000000	99.871247 
3954.000000	99.872180 
3953.000000	99.873877 
3952.000000	99.877013 
3951.000000	99.880790 
3950.000000	99.883410 
3949.000000	99.883762 
3948.000000	99.882472 
3947.000000	99.881109 
3946.000000	99.880540 
3945.000000	99.880256 
3944.000000	99.879259 
3943.000000	99.877411 
3942.000000	99.875701 
3941.000000	99.875189 
3940.000000	99.875958 
3939.000000	99.877241 
3938.000000	99.878320 
3937.000000	99.879037 
3936.000000	99.879511 
3935.000000	99.879712 
3934.000000	99.879486 
3933.000000	99.879037 
3932.000000	99.879157 
3931.000000	99.880681 
3930.000000	99.883583 
3929.000000	99.886612 
3928.000000	99.887944 
3927.000000	99.886297 
3926.000000	99.881844 
3925.000000	99.876276 
3924.000000	99.871493 
3923.000000	99.867981 
3922.000000	99.864878 
3921.000000	99.861779 
3920.000000	99.859696 
3919.000000	99.859813 
3918.000000	99.862151 
3917.000000	99.866123 
3916.000000	99.871442 
3915.000000	99.877415 
3914.000000	99.881928 
3913.000000	99.882571 
3912.000000	99.879082 
3911.000000	99.873859 
3910.000000	99.869748 
3909.000000	99.867787 
3908.000000	99.866846 
3907.000000	99.865231 
3906.000000	99.862430 
3905.000000	99.860029 
3904.000000	99.860610 
3903.000000	99.865215 
3902.000000	99.871875 
3901.000000	99.877260 
3900.000000	99.879842 
3899.000000	99.880798 
3898.000000	99.881809 
3897.000000	99.882853 
3896.000000	99.882847 
3895.000000	99.881521 
3894.000000	99.879594 
3893.000000	99.877648 
3892.000000	99.875841 
3891.000000	99.874579 
3890.000000	99.874449 
3889.000000	99.875390 
3888.000000	99.876448 
3887.000000	99.877383 
3886.000000	99.878472 
3885.000000	99.878608 
3884.000000	99.875538 
3883.000000	99.868146 
3882.000000	99.858994 
3881.000000	99.853921 
3880.000000	99.856114 
3879.000000	99.862432 
3878.000000	99.867428 
3877.000000	99.868648 
3876.000000	99.867988 
3875.000000	99.868728 
3874.000000	99.871617 
3873.000000	99.874837 
3872.000000	99.876498 
3871.000000	99.876601 
3870.000000	99.877025 
3869.000000	99.879175 
3868.000000	99.881827 
3867.000000	99.881938 
3866.000000	99.878989 
3865.000000	99.876994 
3864.000000	99.879097 
3863.000000	99.883154 
3862.000000	99.885044 
3861.000000	99.884043 
3860.000000	99.882996 
3859.000000	99.884030 
3858.000000	99.886159 
3857.000000	99.887359 
3856.000000	99.886808 
3855.000000	99.885460 
3854.000000	99.884452 
3853.000000	99.883867 
3852.000000	99.883572 
3851.000000	99.882765 
3850.000000	99.880268 
3849.000000	99.878105 
3848.000000	99.878659 
3847.000000	99.880014 
3846.000000	99.879594 
3845.000000	99.878863 
3844.000000	99.881752 
3843.000000	99.888860 
3842.000000	99.895192 
3841.000000	99.894727 
3840.000000	99.886812 
3839.000000	99.878068 
3838.000000	99.875986 
3837.000000	99.880581 
3836.000000	99.884829 
3835.000000	99.883038 
3834.000000	99.875777 
3833.000000	99.867886 
3832.000000	99.863511 
3831.000000	99.863413 
3830.000000	99.865851 
3829.000000	99.868781 
3828.000000	99.871554 
3827.000000	99.874953 
3826.000000	99.879769 
3825.000000	99.885409 
3824.000000	99.889348 
3823.000000	99.888558 
3822.000000	99.882370 
3821.000000	99.874072 
3820.000000	99.868744 
3819.000000	99.868504 
3818.000000	99.871078 
3817.000000	99.874577 
3816.000000	99.878994 
3815.000000	99.883434 
3814.000000	99.886094 
3813.000000	99.885561 
3812.000000	99.883577 
3811.000000	99.884708 
3810.000000	99.890067 
3809.000000	99.894949 
3808.000000	99.894614 
3807.000000	99.890296 
3806.000000	99.887731 
3805.000000	99.889381 
3804.000000	99.891109 
3803.000000	99.887950 
3802.000000	99.880394 
3801.000000	99.873670 
3800.000000	99.871737 
3799.000000	99.872336 
3798.000000	99.870728 
3797.000000	99.867831 
3796.000000	99.868429 
3795.000000	99.873913 
3794.000000	99.880983 
3793.000000	99.885510 
3792.000000	99.886450 
3791.000000	99.885467 
3790.000000	99.883891 
3789.000000	99.881518 
3788.000000	99.877927 
3787.000000	99.873667 
3786.000000	99.870158 
3785.000000	99.868817 
3784.000000	99.870262 
3783.000000	99.873857 
3782.000000	99.878010 
3781.000000	99.881242 
3780.000000	99.883062 
3779.000000	99.883486 
3778.000000	99.882244 
3777.000000	99.879058 
3776.000000	99.874808 
3775.000000	99.872208 
3774.000000	99.874062 
3773.000000	99.880483 
3772.000000	99.888404 
3771.000000	99.894173 
3770.000000	99.896416 
3769.000000	99.896186 
3768.000000	99.894429 
3767.000000	99.890796 
3766.000000	99.885547 
3765.000000	99.880880 
3764.000000	99.879048 
3763.000000	99.879949 
3762.000000	99.881317 
3761.000000	99.881172 
3760.000000	99.879423 
3759.000000	99.877227 
3758.000000	99.875752 
3757.000000	99.875523 
3756.000000	99.876276 
3755.000000	99.876875 
3754.000000	99.875911 
3753.000000	99.873749 
3752.000000	99.872816 
3751.000000	99.874564 
3750.000000	99.876928 
3749.000000	99.876650 
3748.000000	99.872846 
3747.000000	99.866621 
3746.000000	99.860140 
3745.000000	99.856541 
3744.000000	99.857528 
3743.000000	99.861980 
3742.000000	99.866335 
3741.000000	99.867823 
3740.000000	99.869989 
3739.000000	99.877098 
3738.000000	99.885437 
3737.000000	99.887640 
3736.000000	99.882215 
3735.000000	99.875552 
3734.000000	99.873680 
3733.000000	99.875829 
3732.000000	99.877827 
3731.000000	99.877598 
3730.000000	99.875290 
3729.000000	99.871677 
3728.000000	99.868826 
3727.000000	99.869125 
3726.000000	99.871804 
3725.000000	99.872811 
3724.000000	99.869558 
3723.000000	99.864520 
3722.000000	99.862675 
3721.000000	99.865458 
3720.000000	99.869646 
3719.000000	99.872145 
3718.000000	99.873318 
3717.000000	99.875053 
3716.000000	99.877166 
3715.000000	99.877026 
3714.000000	99.872773 
3713.000000	99.866334 
3712.000000	99.861685 
3711.000000	99.860176 
3710.000000	99.859542 
3709.000000	99.857693 
3708.000000	99.855469 
3707.000000	99.855173 
3706.000000	99.857696 
3705.000000	99.861700 
3704.000000	99.865284 
3703.000000	99.867964 
3702.000000	99.870603 
3701.000000	99.873461 
3700.000000	99.875023 
3699.000000	99.873281 
3698.000000	99.868147 
3697.000000	99.862483 
3696.000000	99.860087 
3695.000000	99.862375 
3694.000000	99.867480 
3693.000000	99.872697 
3692.000000	99.876534 
3691.000000	99.877935 
3690.000000	99.875708 
3689.000000	99.870550 
3688.000000	99.866249 
3687.000000	99.866402 
3686.000000	99.870789 
3685.000000	99.876690 
3684.000000	99.882098 
3683.000000	99.885870 
3682.000000	99.886536 
3681.000000	99.883465 
3680.000000	99.878499 
3679.000000	99.874622 
3678.000000	99.872098 
3677.000000	99.867330 
3676.000000	99.858052 
3675.000000	99.848635 
3674.000000	99.845444 
3673.000000	99.847704 
3672.000000	99.850109 
3671.000000	99.851134 
3670.000000	99.852303 
3669.000000	99.854674 
3668.000000	99.858071 
3667.000000	99.861258 
3666.000000	99.864327 
3665.000000	99.868289 
3664.000000	99.871821 
3663.000000	99.872072 
3662.000000	99.867913 
3661.000000	99.861305 
3660.000000	99.855785 
3659.000000	99.853758 
3658.000000	99.854823 
3657.000000	99.856406 
3656.000000	99.856208 
3655.000000	99.854132 
3654.000000	99.851101 
3653.000000	99.847643 
3652.000000	99.845229 
3651.000000	99.845611 
3650.000000	99.847390 
3649.000000	99.846050 
3648.000000	99.839362 
3647.000000	99.830533 
3646.000000	99.824938 
3645.000000	99.824997 
3644.000000	99.828712 
3643.000000	99.832370 
3642.000000	99.833599 
3641.000000	99.832326 
3640.000000	99.829630 
3639.000000	99.826151 
3638.000000	99.821723 
3637.000000	99.816067 
3636.000000	99.809373 
3635.000000	99.802643 
3634.000000	99.797375 
3633.000000	99.794444 
3632.000000	99.793429 
3631.000000	99.793420 
3630.000000	99.794062 
3629.000000	99.794410 
3628.000000	99.792686 
3627.000000	99.788109 
3626.000000	99.781009 
3625.000000	99.773847 
3624.000000	99.770747 
3623.000000	99.773247 
3622.000000	99.779527 
3621.000000	99.786899 
3620.000000	99.793106 
3619.000000	99.796419 
3618.000000	99.796275 
3617.000000	99.793826 
3616.000000	99.791037 
3615.000000	99.789452 
3614.000000	99.789627 
3613.000000	99.791523 
3612.000000	99.795255 
3611.000000	99.800842 
3610.000000	99.807348 
3609.000000	99.812888 
3608.000000	99.815962 
3607.000000	99.816831 
3606.000000	99.816890 
3605.000000	99.816854 
3604.000000	99.816240 
3603.000000	99.814135 
3602.000000	99.810546 
3601.000000	99.807380 
3600.000000	99.807402 
3599.000000	99.811839 
3598.000000	99.819222 
3597.000000	99.826996 
3596.000000	99.833496 
3595.000000	99.837916 
3594.000000	99.839328 
3593.000000	99.836758 
3592.000000	99.830307 
3591.000000	99.821635 
3590.000000	99.813053 
3589.000000	99.805990 
3588.000000	99.800797 
3587.000000	99.797937 
3586.000000	99.798317 
3585.000000	99.801848 
3584.000000	99.807043 
3583.000000	99.812457 
3582.000000	99.817654 
3581.000000	99.822831 
3580.000000	99.827799 
3579.000000	99.831495 
3578.000000	99.832633 
3577.000000	99.830688 
3576.000000	99.826116 
3575.000000	99.819943 
3574.000000	99.813546 
3573.000000	99.808512 
3572.000000	99.806095 
3571.000000	99.806503 
3570.000000	99.808696 
3569.000000	99.810745 
3568.000000	99.810702 
3567.000000	99.807932 
3566.000000	99.804034 
3565.000000	99.802139 
3564.000000	99.805005 
3563.000000	99.813225 
3562.000000	99.824182 
3561.000000	99.832987 
3560.000000	99.835896 
3559.000000	99.833282 
3558.000000	99.828896 
3557.000000	99.826267 
3556.000000	99.826185 
3555.000000	99.827306 
3554.000000	99.828178 
3553.000000	99.828282 
3552.000000	99.827439 
3551.000000	99.825063 
3550.000000	99.820569 
3549.000000	99.814485 
3548.000000	99.808880 
3547.000000	99.806211 
3546.000000	99.807215 
3545.000000	99.810103 
3544.000000	99.812311 
3543.000000	99.813005 
3542.000000	99.813674 
3541.000000	99.816400 
3540.000000	99.821689 
3539.000000	99.827781 
3538.000000	99.831818 
3537.000000	99.831776 
3536.000000	99.827721 
3535.000000	99.821580 
3534.000000	99.815728 
3533.000000	99.811458 
3532.000000	99.808371 
3531.000000	99.805148 
3530.000000	99.801128 
3529.000000	99.797193 
3528.000000	99.794949 
3527.000000	99.795096 
3526.000000	99.796925 
3525.000000	99.799241 
3524.000000	99.801328 
3523.000000	99.803053 
3522.000000	99.804737 
3521.000000	99.807361 
3520.000000	99.812252 
3519.000000	99.819668 
3518.000000	99.827568 
3517.000000	99.832521 
3516.000000	99.832535 
3515.000000	99.828944 
3514.000000	99.825167 
3513.000000	99.823382 
3512.000000	99.822655 
3511.000000	99.820543 
3510.000000	99.816279 
3509.000000	99.811646 
3508.000000	99.808554 
3507.000000	99.806658 
3506.000000	99.804204 
3505.000000	99.800864 
3504.000000	99.798885 
3503.000000	99.801002 
3502.000000	99.807647 
3501.000000	99.816588 
3500.000000	99.824576 
3499.000000	99.828711 
3498.000000	99.827131 
3497.000000	99.820038 
3496.000000	99.810278 
3495.000000	99.801827 
3494.000000	99.797091 
3493.000000	99.795879 
3492.000000	99.796849 
3491.000000	99.799135 
3490.000000	99.802290 
3489.000000	99.805454 
3488.000000	99.807561 
3487.000000	99.808489 
3486.000000	99.809317 
3485.000000	99.810992 
3484.000000	99.812985 
3483.000000	99.813524 
3482.000000	99.811263 
3481.000000	99.806595 
3480.000000	99.801238 
3479.000000	99.796947 
3478.000000	99.795125 
3477.000000	99.797233 
3476.000000	99.804176 
3475.000000	99.814331 
3474.000000	99.822989 
3473.000000	99.825387 
3472.000000	99.820858 
3471.000000	99.813329 
3470.000000	99.807449 
3469.000000	99.804879 
3468.000000	99.804474 
3467.000000	99.804806 
3466.000000	99.805285 
3465.000000	99.805306 
3464.000000	99.803957 
3463.000000	99.801067 
3462.000000	99.797676 
3461.000000	99.794889 
3460.000000	99.792887 
3459.000000	99.791482 
3458.000000	99.790962 
3457.000000	99.791633 
3456.000000	99.792870 
3455.000000	99.793443 
3454.000000	99.792762 
3453.000000	99.791193 
3452.000000	99.789249 
3451.000000	99.787237 
3450.000000	99.785883 
3449.000000	99.786363 
3448.000000	99.788841 
3447.000000	99.791326 
3446.000000	99.791210 
3445.000000	99.788251 
3444.000000	99.785142 
3443.000000	99.784794 
3442.000000	99.787518 
3441.000000	99.791207 
3440.000000	99.793787 
3439.000000	99.794737 
3438.000000	99.794555 
3437.000000	99.793742 
3436.000000	99.792630 
3435.000000	99.791660 
3434.000000	99.791374 
3433.000000	99.792184 
3432.000000	99.794119 
3431.000000	99.796491 
3430.000000	99.797963 
3429.000000	99.797666 
3428.000000	99.796476 
3427.000000	99.796482 
3426.000000	99.798737 
3425.000000	99.801946 
3424.000000	99.803819 
3423.000000	99.803445 
3422.000000	99.801924 
3421.000000	99.800885 
3420.000000	99.800971 
3419.000000	99.801798 
3418.000000	99.802903 
3417.000000	99.804251 
3416.000000	99.805814 
3415.000000	99.806864 
3414.000000	99.805985 
3413.000000	99.802144 
3412.000000	99.795819 
3411.000000	99.788865 
3410.000000	99.783172 
3409.000000	99.779626 
3408.000000	99.778193 
3407.000000	99.778425 
3406.000000	99.779517 
3405.000000	99.780422 
3404.000000	99.780641 
3403.000000	99.781045 
3402.000000	99.783444 
3401.000000	99.788873 
3400.000000	99.796118 
3399.000000	99.801909 
3398.000000	99.802831 
3397.000000	99.797650 
3396.000000	99.788341 
3395.000000	99.778960 
3394.000000	99.773216 
3393.000000	99.772594 
3392.000000	99.776032 
3391.000000	99.780951 
3390.000000	99.784689 
3389.000000	99.785682 
3388.000000	99.783994 
3387.000000	99.781037 
3386.000000	99.778786 
3385.000000	99.778973 
3384.000000	99.782374 
3383.000000	99.788097 
3382.000000	99.793602 
3381.000000	99.796305 
3380.000000	99.795765 
3379.000000	99.793929 
3378.000000	99.792809 
3377.000000	99.792432 
3376.000000	99.791717 
3375.000000	99.790715 
3374.000000	99.790723 
3373.000000	99.792186 
3372.000000	99.793775 
3371.000000	99.794256 
3370.000000	99.794445 
3369.000000	99.796267 
3368.000000	99.800098 
3367.000000	99.803892 
3366.000000	99.805084 
3365.000000	99.802932 
3364.000000	99.798836 
3363.000000	99.794723 
3362.000000	99.791374 
3361.000000	99.788218 
3360.000000	99.784636 
3359.000000	99.781338 
3358.000000	99.780130 
3357.000000	99.781950 
3356.000000	99.785364 
3355.000000	99.787667 
3354.000000	99.787676 
3353.000000	99.786910 
3352.000000	99.787597 
3351.000000	99.789959 
3350.000000	99.792122 
3349.000000	99.792505 
3348.000000	99.791401 
3347.000000	99.789870 
3346.000000	99.787956 
3345.000000	99.784974 
3344.000000	99.781350 
3343.000000	99.779185 
3342.000000	99.780473 
3341.000000	99.785103 
3340.000000	99.790868 
3339.000000	99.795159 
3338.000000	99.796475 
3337.000000	99.794827 
3336.000000	99.791482 
3335.000000	99.788399 
3334.000000	99.787325 
3333.000000	99.788900 
3332.000000	99.792406 
3331.000000	99.796408 
3330.000000	99.799681 
3329.000000	99.801687 
3328.000000	99.802402 
3327.000000	99.801841 
3326.000000	99.799836 
3325.000000	99.796305 
3324.000000	99.791663 
3323.000000	99.786857 
3322.000000	99.783028 
3321.000000	99.781240 
3320.000000	99.782312 
3319.000000	99.786276 
3318.000000	99.791691 
3317.000000	99.796047 
3316.000000	99.797695 
3315.000000	99.797491 
3314.000000	99.797882 
3313.000000	99.800081 
3312.000000	99.802707 
3311.000000	99.803694 
3310.000000	99.803070 
3309.000000	99.803020 
3308.000000	99.805204 
3307.000000	99.808795 
3306.000000	99.811442 
3305.000000	99.811569 
3304.000000	99.809382 
3303.000000	99.806231 
3302.000000	99.803599 
3301.000000	99.802170 
3300.000000	99.800983 
3299.000000	99.797754 
3298.000000	99.791107 
3297.000000	99.782811 
3296.000000	99.776944 
3295.000000	99.776266 
3294.000000	99.779927 
3293.000000	99.785072 
3292.000000	99.790038 
3291.000000	99.795291 
3290.000000	99.801596 
3289.000000	99.808091 
3288.000000	99.812382 
3287.000000	99.812435 
3286.000000	99.808711 
3285.000000	99.804604 
3284.000000	99.804006 
3283.000000	99.807655 
3282.000000	99.812236 
3281.000000	99.813706 
3280.000000	99.811076 
3279.000000	99.806290 
3278.000000	99.801312 
3277.000000	99.796865 
3276.000000	99.793663 
3275.000000	99.792808 
3274.000000	99.794079 
3273.000000	99.795254 
3272.000000	99.794401 
3271.000000	99.792131 
3270.000000	99.790578 
3269.000000	99.790767 
3268.000000	99.792071 
3267.000000	99.793766 
3266.000000	99.795764 
3265.000000	99.797704 
3264.000000	99.798554 
3263.000000	99.797852 
3262.000000	99.796760 
3261.000000	99.797141 
3260.000000	99.799629 
3259.000000	99.803016 
3258.000000	99.805537 
3257.000000	99.806412 
3256.000000	99.806073 
3255.000000	99.805308 
3254.000000	99.804615 
3253.000000	99.804300 
3252.000000	99.804653 
3251.000000	99.805699 
3250.000000	99.807140 
3249.000000	99.808907 
3248.000000	99.811442 
3247.000000	99.814836 
3246.000000	99.817822 
3245.000000	99.818357 
3244.000000	99.815451 
3243.000000	99.809988 
3242.000000	99.803663 
3241.000000	99.797699 
3240.000000	99.792807 
3239.000000	99.789812 
3238.000000	99.789705 
3237.000000	99.792913 
3236.000000	99.798491 
3235.000000	99.803961 
3234.000000	99.806385 
3233.000000	99.804415 
3232.000000	99.799491 
3231.000000	99.794595 
3230.000000	99.791806 
3229.000000	99.791539 
3228.000000	99.793777 
3227.000000	99.798667 
3226.000000	99.805403 
3225.000000	99.811676 
3224.000000	99.815247 
3223.000000	99.815611 
3222.000000	99.813512 
3221.000000	99.809667 
3220.000000	99.805025 
3219.000000	99.801645 
3218.000000	99.801649 
3217.000000	99.804899 
3216.000000	99.808793 
3215.000000	99.810913 
3214.000000	99.811344 
3213.000000	99.811934 
3212.000000	99.813754 
3211.000000	99.815808 
3210.000000	99.816007 
3209.000000	99.813057 
3208.000000	99.807635 
3207.000000	99.802128 
3206.000000	99.799197 
3205.000000	99.800084 
3204.000000	99.803841 
3203.000000	99.808075 
3202.000000	99.810609 
3201.000000	99.810765 
3200.000000	99.809490 
3199.000000	99.808581 
3198.000000	99.809642 
3197.000000	99.813041 
3196.000000	99.817213 
3195.000000	99.819278 
3194.000000	99.817327 
3193.000000	99.812535 
3192.000000	99.808375 
3191.000000	99.807265 
3190.000000	99.808522 
3189.000000	99.810016 
3188.000000	99.810844 
3187.000000	99.811441 
3186.000000	99.812034 
3185.000000	99.812708 
3184.000000	99.814533 
3183.000000	99.818567 
3182.000000	99.823346 
3181.000000	99.825210 
3180.000000	99.822151 
3179.000000	99.816187 
3178.000000	99.811157 
3177.000000	99.809358 
3176.000000	99.811081 
3175.000000	99.815726 
3174.000000	99.821595 
3173.000000	99.825704 
3172.000000	99.826003 
3171.000000	99.823760 
3170.000000	99.822138 
3169.000000	99.822259 
3168.000000	99.822077 
3167.000000	99.819444 
3166.000000	99.815049 
3165.000000	99.811644 
3164.000000	99.811113 
3163.000000	99.812885 
3162.000000	99.814855 
3161.000000	99.815379 
3160.000000	99.814495 
3159.000000	99.813438 
3158.000000	99.813147 
3157.000000	99.813499 
3156.000000	99.813873 
3155.000000	99.813771 
3154.000000	99.812639 
3153.000000	99.809962 
3152.000000	99.806310 
3151.000000	99.803623 
3150.000000	99.803401 
3149.000000	99.804856 
3148.000000	99.805745 
3147.000000	99.804981 
3146.000000	99.803722 
3145.000000	99.804003 
3144.000000	99.806863 
3143.000000	99.811460 
3142.000000	99.815291 
3141.000000	99.815688 
3140.000000	99.812257 
3139.000000	99.807855 
3138.000000	99.806193 
3137.000000	99.808266 
3136.000000	99.811844 
3135.000000	99.814348 
3134.000000	99.815104 
3133.000000	99.814587 
3132.000000	99.812823 
3131.000000	99.809623 
3130.000000	99.805856 
3129.000000	99.803416 
3128.000000	99.803757 
3127.000000	99.806829 
3126.000000	99.811432 
3125.000000	99.816255 
3124.000000	99.820394 
3123.000000	99.823090 
3122.000000	99.823487 
3121.000000	99.821237 
3120.000000	99.817316 
3119.000000	99.813636 
3118.000000	99.811420 
3117.000000	99.810281 
3116.000000	99.809229 
3115.000000	99.808173 
3114.000000	99.807889 
3113.000000	99.808877 
3112.000000	99.810983 
3111.000000	99.814017 
3110.000000	99.817941 
3109.000000	99.822042 
3108.000000	99.824346 
3107.000000	99.822616 
3106.000000	99.816698 
3105.000000	99.810051 
3104.000000	99.808001 
3103.000000	99.813066 
3102.000000	99.821958 
3101.000000	99.828592 
3100.000000	99.830466 
3099.000000	99.830431 
3098.000000	99.831598 
3097.000000	99.832798 
3096.000000	99.831088 
3095.000000	99.827257 
3094.000000	99.825796 
3093.000000	99.829188 
3092.000000	99.834603 
3091.000000	99.837061 
3090.000000	99.834421 
3089.000000	99.828554 
3088.000000	99.822817 
3087.000000	99.819278 
3086.000000	99.817695 
3085.000000	99.816589 
3084.000000	99.815511 
3083.000000	99.816062 
3082.000000	99.819822 
3081.000000	99.825455 
3080.000000	99.829337 
3079.000000	99.829502 
3078.000000	99.827754 
3077.000000	99.827220 
3076.000000	99.828848 
3075.000000	99.831039 
3074.000000	99.831816 
3073.000000	99.830531 
3072.000000	99.828192 
3071.000000	99.826856 
3070.000000	99.828107 
3069.000000	99.831375 
3068.000000	99.834164 
3067.000000	99.834634 
3066.000000	99.833518 
3065.000000	99.832840 
3064.000000	99.833134 
3063.000000	99.832760 
3062.000000	99.829875 
3061.000000	99.824505 
3060.000000	99.818723 
3059.000000	99.815138 
3058.000000	99.815049 
3057.000000	99.817625 
3056.000000	99.820765 
3055.000000	99.822798 
3054.000000	99.823324 
3053.000000	99.822797 
3052.000000	99.821991 
3051.000000	99.821763 
3050.000000	99.822421 
3049.000000	99.823048 
3048.000000	99.822282 
3047.000000	99.820241 
3046.000000	99.818837 
3045.000000	99.819552 
3044.000000	99.821577 
3043.000000	99.823037 
3042.000000	99.823591 
3041.000000	99.824766 
3040.000000	99.827697 
3039.000000	99.831380 
3038.000000	99.833488 
3037.000000	99.832565 
3036.000000	99.829309 
3035.000000	99.825927 
3034.000000	99.824318 
3033.000000	99.824780 
3032.000000	99.826509 
3031.000000	99.829210 
3030.000000	99.833556 
3029.000000	99.839641 
3028.000000	99.845513 
3027.000000	99.848191 
3026.000000	99.846541 
3025.000000	99.842920 
3024.000000	99.841531 
3023.000000	99.844687 
3022.000000	99.850404 
3021.000000	99.853866 
3020.000000	99.851786 
3019.000000	99.845572 
3018.000000	99.839906 
3017.000000	99.838245 
3016.000000	99.840262 
3015.000000	99.843813 
3014.000000	99.848214 
3013.000000	99.854391 
3012.000000	99.862103 
3011.000000	99.868529 
3010.000000	99.870551 
3009.000000	99.868103 
3008.000000	99.864493 
3007.000000	99.863284 
3006.000000	99.865178 
3005.000000	99.868231 
3004.000000	99.870794 
3003.000000	99.873484 
3002.000000	99.877905 
3001.000000	99.883988 
3000.000000	99.889403 
2999.000000	99.891565 
2998.000000	99.889700 
2997.000000	99.885053 
2996.000000	99.879905 
2995.000000	99.876657 
2994.000000	99.877019 
2993.000000	99.881111 
2992.000000	99.887211 
2991.000000	99.892776 
2990.000000	99.895892 
2989.000000	99.895974 
2988.000000	99.893586 
2987.000000	99.890056 
2986.000000	99.887033 
2985.000000	99.885727 
2984.000000	99.886071 
2983.000000	99.886617 
2982.000000	99.885710 
2981.000000	99.883228 
2980.000000	99.881237 
2979.000000	99.882322 
2978.000000	99.886790 
2977.000000	99.891822 
2976.000000	99.893999 
2975.000000	99.892627 
2974.000000	99.890044 
2973.000000	99.888770 
2972.000000	99.889090 
2971.000000	99.889608 
2970.000000	99.889302 
2969.000000	99.888392 
2968.000000	99.887615 
2967.000000	99.887365 
2966.000000	99.887599 
2965.000000	99.888177 
2964.000000	99.889019 
2963.000000	99.889859 
2962.000000	99.889875 
2961.000000	99.888033 
2960.000000	99.884361 
2959.000000	99.880747 
2958.000000	99.879672 
2957.000000	99.881816 
2956.000000	99.885422 
2955.000000	99.888195 
2954.000000	99.889240 
2953.000000	99.888851 
2952.000000	99.887286 
2951.000000	99.884712 
2950.000000	99.882096 
2949.000000	99.881117 
2948.000000	99.882813 
2947.000000	99.886523 
2946.000000	99.890250 
2945.000000	99.891973 
2944.000000	99.890839 
2943.000000	99.887577 
2942.000000	99.883952 
2941.000000	99.881716 
2940.000000	99.881917 
2939.000000	99.884766 
2938.000000	99.889429 
2937.000000	99.893712 
2936.000000	99.894945 
2935.000000	99.892350 
2934.000000	99.888433 
2933.000000	99.886950 
2932.000000	99.889048 
2931.000000	99.892199 
2930.000000	99.893355 
2929.000000	99.892372 
2928.000000	99.891494 
2927.000000	99.892027 
2926.000000	99.892973 
2925.000000	99.893096 
2924.000000	99.892891 
2923.000000	99.893374 
2922.000000	99.893728 
2921.000000	99.891669 
2920.000000	99.886429 
2919.000000	99.880373 
2918.000000	99.877058 
2917.000000	99.877984 
2916.000000	99.881523 
2915.000000	99.884661 
2914.000000	99.885559 
2913.000000	99.884637 
2912.000000	99.883639 
2911.000000	99.883797 
2910.000000	99.885055 
2909.000000	99.887077 
2908.000000	99.890349 
2907.000000	99.895355 
2906.000000	99.900761 
2905.000000	99.903632 
2904.000000	99.902180 
2903.000000	99.897818 
2902.000000	99.893837 
2901.000000	99.892382 
2900.000000	99.893083 
2899.000000	99.893965 
2898.000000	99.893103 
2897.000000	99.889890 
2896.000000	99.885703 
2895.000000	99.883145 
2894.000000	99.883797 
2893.000000	99.886529 
2892.000000	99.888571 
2891.000000	99.888251 
2890.000000	99.886315 
2889.000000	99.884782 
2888.000000	99.885109 
2887.000000	99.887339 
2886.000000	99.890309 
2885.000000	99.892428 
2884.000000	99.892555 
2883.000000	99.890366 
2882.000000	99.886120 
2881.000000	99.880678 
2880.000000	99.876009 
2879.000000	99.874644 
2878.000000	99.877486 
2877.000000	99.882305 
2876.000000	99.885435 
2875.000000	99.885097 
2874.000000	99.882457 
2873.000000	99.879593 
2872.000000	99.877374 
2871.000000	99.875389 
2870.000000	99.873146 
2869.000000	99.870857 
2868.000000	99.869356 
2867.000000	99.869310 
2866.000000	99.870270 
2865.000000	99.870830 
2864.000000	99.870185 
2863.000000	99.869085 
2862.000000	99.868540 
2861.000000	99.868259 
2860.000000	99.867546 
2859.000000	99.867206 
2858.000000	99.868829 
2857.000000	99.872079 
2856.000000	99.874228 
2855.000000	99.872931 
2854.000000	99.868390 
2853.000000	99.862567 
2852.000000	99.857455 
2851.000000	99.854326 
2850.000000	99.853249 
2849.000000	99.852638 
2848.000000	99.850496 
2847.000000	99.846845 
2846.000000	99.843906 
2845.000000	99.843297 
2844.000000	99.844322 
2843.000000	99.845832 
2842.000000	99.848251 
2841.000000	99.852276 
2840.000000	99.856595 
2839.000000	99.858699 
2838.000000	99.857528 
2837.000000	99.853988 
2836.000000	99.849353 
2835.000000	99.844787 
2834.000000	99.841991 
2833.000000	99.842253 
2832.000000	99.844364 
2831.000000	99.845190 
2830.000000	99.843241 
2829.000000	99.840502 
2828.000000	99.839906 
2827.000000	99.841915 
2826.000000	99.844559 
2825.000000	99.845998 
2824.000000	99.845777 
2823.000000	99.844062 
2822.000000	99.841125 
2821.000000	99.837973 
2820.000000	99.836357 
2819.000000	99.837238 
2818.000000	99.839479 
2817.000000	99.840648 
2816.000000	99.839251 
2815.000000	99.836109 
2814.000000	99.833694 
2813.000000	99.834182 
2812.000000	99.837661 
2811.000000	99.841769 
2810.000000	99.843257 
2809.000000	99.840599 
2808.000000	99.835374 
2807.000000	99.830848 
2806.000000	99.829218 
2805.000000	99.830591 
2804.000000	99.834301 
2803.000000	99.839943 
2802.000000	99.846383 
2801.000000	99.850717 
2800.000000	99.849848 
2799.000000	99.843520 
2798.000000	99.835205 
2797.000000	99.829794 
2796.000000	99.830346 
2795.000000	99.836389 
2794.000000	99.844268 
2793.000000	99.849444 
2792.000000	99.849758 
2791.000000	99.847021 
2790.000000	99.844744 
2789.000000	99.844163 
2788.000000	99.843275 
2787.000000	99.839945 
2786.000000	99.834819 
2785.000000	99.830622 
2784.000000	99.829467 
2783.000000	99.831564 
2782.000000	99.835730 
2781.000000	99.840182 
2780.000000	99.843248 
2779.000000	99.844232 
2778.000000	99.843615 
2777.000000	99.842083 
2776.000000	99.839847 
2775.000000	99.837344 
2774.000000	99.835865 
2773.000000	99.836525 
2772.000000	99.838925 
2771.000000	99.841734 
2770.000000	99.844338 
2769.000000	99.846973 
2768.000000	99.849341 
2767.000000	99.850207 
2766.000000	99.848811 
2765.000000	99.846081 
2764.000000	99.843969 
2763.000000	99.843686 
2762.000000	99.844611 
2761.000000	99.844785 
2760.000000	99.842709 
2759.000000	99.839035 
2758.000000	99.836162 
2757.000000	99.835655 
2756.000000	99.836434 
2755.000000	99.836302 
2754.000000	99.835013 
2753.000000	99.834694 
2752.000000	99.836959 
2751.000000	99.840542 
2750.000000	99.842411 
2749.000000	99.840817 
2748.000000	99.836908 
2747.000000	99.833657 
2746.000000	99.833312 
2745.000000	99.835425 
2744.000000	99.837201 
2743.000000	99.836379 
2742.000000	99.833801 
2741.000000	99.832378 
2740.000000	99.833285 
2739.000000	99.834369 
2738.000000	99.833140 
2737.000000	99.830299 
2736.000000	99.828796 
2735.000000	99.829768 
2734.000000	99.831056 
2733.000000	99.830261 
2732.000000	99.828022 
2731.000000	99.827243 
2730.000000	99.829579 
2729.000000	99.833593 
2728.000000	99.836514 
2727.000000	99.837227 
2726.000000	99.837180 
2725.000000	99.838370 
2724.000000	99.840788 
2723.000000	99.842356 
2722.000000	99.841565 
2721.000000	99.839504 
2720.000000	99.838418 
2719.000000	99.838521 
2718.000000	99.837482 
2717.000000	99.833587 
2716.000000	99.828563 
2715.000000	99.826316 
2714.000000	99.829076 
2713.000000	99.835389 
2712.000000	99.841695 
2711.000000	99.845342 
2710.000000	99.846267 
2709.000000	99.846367 
2708.000000	99.847388 
2707.000000	99.849073 
2706.000000	99.849410 
2705.000000	99.846905 
2704.000000	99.842381 
2703.000000	99.838229 
2702.000000	99.836241 
2701.000000	99.836608 
2700.000000	99.838531 
2699.000000	99.840850 
2698.000000	99.842223 
2697.000000	99.841824 
2696.000000	99.840327 
2695.000000	99.839516 
2694.000000	99.840432 
2693.000000	99.842281 
2692.000000	99.843424 
2691.000000	99.843062 
2690.000000	99.841739 
2689.000000	99.840623 
2688.000000	99.840573 
2687.000000	99.841607 
2686.000000	99.842909 
2685.000000	99.843428 
2684.000000	99.842469 
2683.000000	99.839796 
2682.000000	99.835753 
2681.000000	99.831745 
2680.000000	99.829887 
2679.000000	99.831037 
2678.000000	99.833499 
2677.000000	99.834951 
2676.000000	99.835506 
2675.000000	99.837232 
2674.000000	99.840431 
2673.000000	99.842355 
2672.000000	99.840643 
2671.000000	99.836457 
2670.000000	99.832739 
2669.000000	99.830568 
2668.000000	99.828963 
2667.000000	99.827585 
2666.000000	99.827674 
2665.000000	99.830189 
2664.000000	99.834353 
2663.000000	99.838317 
2662.000000	99.840494 
2661.000000	99.840311 
2660.000000	99.838551 
2659.000000	99.836917 
2658.000000	99.836508 
2657.000000	99.836743 
2656.000000	99.836342 
2655.000000	99.835000 
2654.000000	99.833500 
2653.000000	99.832809 
2652.000000	99.833982 
2651.000000	99.838032 
2650.000000	99.844177 
2649.000000	99.848552 
2648.000000	99.846740 
2647.000000	99.838263 
2646.000000	99.827491 
2645.000000	99.819819 
2644.000000	99.817820 
2643.000000	99.820808 
2642.000000	99.826250 
2641.000000	99.831096 
2640.000000	99.833458 
2639.000000	99.834146 
2638.000000	99.835660 
2637.000000	99.838911 
2636.000000	99.841805 
2635.000000	99.841773 
2634.000000	99.838969 
2633.000000	99.836459 
2632.000000	99.837887 
2631.000000	99.844929 
2630.000000	99.855643 
2629.000000	99.864688 
2628.000000	99.866683 
2627.000000	99.860834 
2626.000000	99.851863 
2625.000000	99.845533 
2624.000000	99.843583 
2623.000000	99.843404 
2622.000000	99.841874 
2621.000000	99.838481 
2620.000000	99.834869 
2619.000000	99.832131 
2618.000000	99.829161 
2617.000000	99.824216 
2616.000000	99.818063 
2615.000000	99.814150 
2614.000000	99.814383 
2613.000000	99.816000 
2612.000000	99.815098 
2611.000000	99.812871 
2610.000000	99.815130 
2609.000000	99.824410 
2608.000000	99.835295 
2607.000000	99.839888 
2606.000000	99.836731 
2605.000000	99.832268 
2604.000000	99.833849 
2603.000000	99.842498 
2602.000000	99.852278 
2601.000000	99.856047 
2600.000000	99.852328 
2599.000000	99.846677 
2598.000000	99.845372 
2597.000000	99.848040 
2596.000000	99.848534 
2595.000000	99.843371 
2594.000000	99.836347 
2593.000000	99.833017 
2592.000000	99.833159 
2591.000000	99.831700 
2590.000000	99.825976 
2589.000000	99.819095 
2588.000000	99.816106 
2587.000000	99.818890 
2586.000000	99.825056 
2585.000000	99.830608 
2584.000000	99.833660 
2583.000000	99.836162 
2582.000000	99.841185 
2581.000000	99.847843 
2580.000000	99.850652 
2579.000000	99.845720 
2578.000000	99.836126 
2577.000000	99.828706 
2576.000000	99.826181 
2575.000000	99.825111 
2574.000000	99.821733 
2573.000000	99.817374 
2572.000000	99.817077 
2571.000000	99.823938 
2570.000000	99.835254 
2569.000000	99.843908 
2568.000000	99.844314 
2567.000000	99.838038 
2566.000000	99.832592 
2565.000000	99.833388 
2564.000000	99.838163 
2563.000000	99.841194 
2562.000000	99.841250 
2561.000000	99.841896 
2560.000000	99.844597 
2559.000000	99.845872 
2558.000000	99.842683 
2557.000000	99.837223 
2556.000000	99.833905 
2555.000000	99.833757 
2554.000000	99.834357 
2553.000000	99.834216 
2552.000000	99.834711 
2551.000000	99.837604 
2550.000000	99.842145 
2549.000000	99.845077 
2548.000000	99.843293 
2547.000000	99.837001 
2546.000000	99.830568 
2545.000000	99.829292 
2544.000000	99.834439 
2543.000000	99.841920 
2542.000000	99.846420 
2541.000000	99.846266 
2540.000000	99.843820 
2539.000000	99.842079 
2538.000000	99.841957 
2537.000000	99.842471 
2536.000000	99.842418 
2535.000000	99.841648 
2534.000000	99.841048 
2533.000000	99.841322 
2532.000000	99.841718 
2531.000000	99.840430 
2530.000000	99.836779 
2529.000000	99.832907 
2528.000000	99.832772 
2527.000000	99.838794 
2526.000000	99.848826 
2525.000000	99.856443 
2524.000000	99.855619 
2523.000000	99.846526 
2522.000000	99.836257 
2521.000000	99.832205 
2520.000000	99.834683 
2519.000000	99.837492 
2518.000000	99.835687 
2517.000000	99.830783 
2516.000000	99.827815 
2515.000000	99.829772 
2514.000000	99.836564 
2513.000000	99.847138 
2512.000000	99.859475 
2511.000000	99.869342 
2510.000000	99.872471 
2509.000000	99.868981 
2508.000000	99.863516 
2507.000000	99.860033 
2506.000000	99.858256 
2505.000000	99.856238 
2504.000000	99.854295 
2503.000000	99.854235 
2502.000000	99.855735 
2501.000000	99.855980 
2500.000000	99.853158 
2499.000000	99.848687 
2498.000000	99.845505 
2497.000000	99.845367 
2496.000000	99.848236 
2495.000000	99.853023 
2494.000000	99.858021 
2493.000000	99.861330 
2492.000000	99.861838 
2491.000000	99.859613 
2490.000000	99.855090 
2489.000000	99.848609 
2488.000000	99.841425 
2487.000000	99.836382 
2486.000000	99.836242 
2485.000000	99.841068 
2484.000000	99.847895 
2483.000000	99.853178 
2482.000000	99.855231 
2481.000000	99.854509 
2480.000000	99.852334 
2479.000000	99.849805 
2478.000000	99.847711 
2477.000000	99.846992 
2476.000000	99.848701 
2475.000000	99.852933 
2474.000000	99.857782 
2473.000000	99.860082 
2472.000000	99.857762 
2471.000000	99.851366 
2470.000000	99.843379 
2469.000000	99.836819 
2468.000000	99.834432 
2467.000000	99.837592 
2466.000000	99.844602 
2465.000000	99.850936 
2464.000000	99.852889 
2463.000000	99.850943 
2462.000000	99.848457 
2461.000000	99.847413 
2460.000000	99.846863 
2459.000000	99.845446 
2458.000000	99.843726 
2457.000000	99.843400 
2456.000000	99.845181 
2455.000000	99.847851 
2454.000000	99.848779 
2453.000000	99.845674 
2452.000000	99.839223 
2451.000000	99.834091 
2450.000000	99.835606 
2449.000000	99.844577 
2448.000000	99.856184 
2447.000000	99.864318 
2446.000000	99.866044 
2445.000000	99.862040 
2444.000000	99.854841 
2443.000000	99.847650 
2442.000000	99.843129 
2441.000000	99.841570 
2440.000000	99.840901 
2439.000000	99.839526 
2438.000000	99.838598 
2437.000000	99.840708 
2436.000000	99.847085 
2435.000000	99.856523 
2434.000000	99.865870 
2433.000000	99.870990 
2432.000000	99.869061 
2431.000000	99.861468 
2430.000000	99.853264 
2429.000000	99.848360 
2428.000000	99.846297 
2427.000000	99.845092 
2426.000000	99.845429 
2425.000000	99.849318 
2424.000000	99.855411 
2423.000000	99.858900 
2422.000000	99.856842 
2421.000000	99.851561 
2420.000000	99.848006 
2419.000000	99.849280 
2418.000000	99.855086 
2417.000000	99.862490 
2416.000000	99.867105 
2415.000000	99.865448 
2414.000000	99.858121 
2413.000000	99.850114 
2412.000000	99.846340 
2411.000000	99.846865 
2410.000000	99.847449 
2409.000000	99.844651 
2408.000000	99.839498 
2407.000000	99.836026 
2406.000000	99.837097 
2405.000000	99.842048 
2404.000000	99.847911 
2403.000000	99.852302 
2402.000000	99.855027 
2401.000000	99.857177 
2400.000000	99.858995 
2399.000000	99.858898 
2398.000000	99.854838 
2397.000000	99.846807 
2396.000000	99.837879 
2395.000000	99.832364 
2394.000000	99.832528 
2393.000000	99.836875 
2392.000000	99.841491 
2391.000000	99.842841 
2390.000000	99.839586 
2389.000000	99.832863 
2388.000000	99.825825 
2387.000000	99.822350 
2386.000000	99.824620 
2385.000000	99.831365 
2384.000000	99.839206 
2383.000000	99.846093 
2382.000000	99.852653 
2381.000000	99.859921 
2380.000000	99.866988 
2379.000000	99.871851 
2378.000000	99.873694 
2377.000000	99.872998 
2376.000000	99.870077 
2375.000000	99.865275 
2374.000000	99.860716 
2373.000000	99.859743 
2372.000000	99.863151 
2371.000000	99.867159 
2370.000000	99.866858 
2369.000000	99.861943 
2368.000000	99.858103 
2367.000000	99.861739 
2366.000000	99.872770 
2365.000000	99.883159 
2364.000000	99.884184 
2363.000000	99.875485 
2362.000000	99.865118 
2361.000000	99.861261 
2360.000000	99.864797 
2359.000000	99.870060 
2358.000000	99.871986 
2357.000000	99.869205 
2356.000000	99.862912 
2355.000000	99.855395 
2354.000000	99.848644 
2353.000000	99.844218 
2352.000000	99.842881 
2351.000000	99.845695 
2350.000000	99.852708 
2349.000000	99.861244 
2348.000000	99.867984 
2347.000000	99.870391 
2346.000000	99.868843 
2345.000000	99.866290 
2344.000000	99.866029 
2343.000000	99.869267 
2342.000000	99.874166 
2341.000000	99.879789 
2340.000000	99.885109 
2339.000000	99.887963 
2338.000000	99.886281 
2337.000000	99.880610 
2336.000000	99.874079 
2335.000000	99.868609 
2334.000000	99.862541 
2333.000000	99.853327 
2332.000000	99.842783 
2331.000000	99.837403 
2330.000000	99.841701 
2329.000000	99.851304 
2328.000000	99.857927 
2327.000000	99.856889 
2326.000000	99.851843 
2325.000000	99.848240 
2324.000000	99.847187 
2323.000000	99.845351 
2322.000000	99.839500 
2321.000000	99.830949 
2320.000000	99.823184 
2319.000000	99.818980 
2318.000000	99.818828 
2317.000000	99.821935 
2316.000000	99.827254 
2315.000000	99.833479 
2314.000000	99.839399 
2313.000000	99.843421 
2312.000000	99.844894 
2311.000000	99.844717 
2310.000000	99.845701 
2309.000000	99.849622 
2308.000000	99.855364 
2307.000000	99.859058 
2306.000000	99.857519 
2305.000000	99.850596 
2304.000000	99.841707 
2303.000000	99.835800 
2302.000000	99.836297 
2301.000000	99.842275 
2300.000000	99.849366 
2299.000000	99.853875 
2298.000000	99.855945 
2297.000000	99.856814 
2296.000000	99.854825 
2295.000000	99.846505 
2294.000000	99.832865 
2293.000000	99.821149 
2292.000000	99.818488 
2291.000000	99.824555 
2290.000000	99.832572 
2289.000000	99.836742 
2288.000000	99.837061 
2287.000000	99.837050 
2286.000000	99.838538 
2285.000000	99.839543 
2284.000000	99.836582 
2283.000000	99.828728 
2282.000000	99.819340 
2281.000000	99.813540 
2280.000000	99.813562 
2279.000000	99.817267 
2278.000000	99.821331 
2277.000000	99.824495 
2276.000000	99.826609 
2275.000000	99.826405 
2274.000000	99.823149 
2273.000000	99.820288 
2272.000000	99.824390 
2271.000000	99.838575 
2270.000000	99.858117 
2269.000000	99.873526 
2268.000000	99.877454 
2267.000000	99.868658 
2266.000000	99.851618 
2265.000000	99.834190 
2264.000000	99.823778 
2263.000000	99.822421 
2262.000000	99.825032 
2261.000000	99.824280 
2260.000000	99.818365 
2259.000000	99.813254 
2258.000000	99.816619 
2257.000000	99.830014 
2256.000000	99.847008 
2255.000000	99.858441 
2254.000000	99.859387 
2253.000000	99.852204 
2252.000000	99.843751 
2251.000000	99.839779 
2250.000000	99.841862 
2249.000000	99.848724 
2248.000000	99.858399 
2247.000000	99.867638 
2246.000000	99.871190 
2245.000000	99.865350 
2244.000000	99.852779 
2243.000000	99.840870 
2242.000000	99.834465 
2241.000000	99.832587 
2240.000000	99.832677 
2239.000000	99.833867 
2238.000000	99.833769 
2237.000000	99.826810 
2236.000000	99.811304 
2235.000000	99.796098 
2234.000000	99.794153 
2233.000000	99.808872 
2232.000000	99.830924 
2231.000000	99.848804 
2230.000000	99.857971 
2229.000000	99.859509 
2228.000000	99.855843 
2227.000000	99.850596 
2226.000000	99.848450 
2225.000000	99.851637 
2224.000000	99.858800 
2223.000000	99.868956 
2222.000000	99.882841 
2221.000000	99.897937 
2220.000000	99.906630 
2219.000000	99.903474 
2218.000000	99.891431 
2217.000000	99.877213 
2216.000000	99.863592 
2215.000000	99.850809 
2214.000000	99.842240 
2213.000000	99.841747 
2212.000000	99.846324 
2211.000000	99.848208 
2210.000000	99.845085 
2209.000000	99.842373 
2208.000000	99.844232 
2207.000000	99.848352 
2206.000000	99.852123 
2205.000000	99.857907 
2204.000000	99.867787 
2203.000000	99.877608 
2202.000000	99.881743 
2201.000000	99.881250 
2200.000000	99.881737 
2199.000000	99.884392 
2198.000000	99.885068 
2197.000000	99.882612 
2196.000000	99.881840 
2195.000000	99.885292 
2194.000000	99.886869 
2193.000000	99.878724 
2192.000000	99.862565 
2191.000000	99.849094 
2190.000000	99.846009 
2189.000000	99.850404 
2188.000000	99.853789 
2187.000000	99.850918 
2186.000000	99.841670 
2185.000000	99.828189 
2184.000000	99.814445 
2183.000000	99.806761 
2182.000000	99.809762 
2181.000000	99.821102 
2180.000000	99.833818 
2179.000000	99.844340 
2178.000000	99.854219 
2177.000000	99.863683 
2176.000000	99.868844 
2175.000000	99.867965 
2174.000000	99.866125 
2173.000000	99.869307 
2172.000000	99.876221 
2171.000000	99.879983 
2170.000000	99.876157 
2169.000000	99.865675 
2168.000000	99.851937 
2167.000000	99.839974 
2166.000000	99.837556 
2165.000000	99.850050 
2164.000000	99.871033 
2163.000000	99.883562 
2162.000000	99.876235 
2161.000000	99.857007 
2160.000000	99.847110 
2159.000000	99.860033 
2158.000000	99.888826 
2157.000000	99.915052 
2156.000000	99.926658 
2155.000000	99.924685 
2154.000000	99.917398 
2153.000000	99.912630 
2152.000000	99.913576 
2151.000000	99.917870 
2150.000000	99.919661 
2149.000000	99.913932 
2148.000000	99.900062 
2147.000000	99.881355 
2146.000000	99.861879 
2145.000000	99.844800 
2144.000000	99.832826 
2143.000000	99.827715 
2142.000000	99.828203 
2141.000000	99.830078 
2140.000000	99.830228 
2139.000000	99.829986 
2138.000000	99.833130 
2137.000000	99.841563 
2136.000000	99.854348 
2135.000000	99.869414 
2134.000000	99.883589 
2133.000000	99.892289 
2132.000000	99.892732 
2131.000000	99.887121 
2130.000000	99.879571 
2129.000000	99.870311 
2128.000000	99.856796 
2127.000000	99.841294 
2126.000000	99.832699 
2125.000000	99.837036 
2124.000000	99.848341 
2123.000000	99.853085 
2122.000000	99.843517 
2121.000000	99.824410 
2120.000000	99.807432 
2119.000000	99.801451 
2118.000000	99.807884 
2117.000000	99.821946 
2116.000000	99.836843 
2115.000000	99.848264 
2114.000000	99.855939 
2113.000000	99.861032 
2112.000000	99.863375 
2111.000000	99.863002 
2110.000000	99.863189 
2109.000000	99.868344 
2108.000000	99.877787 
2107.000000	99.884535 
2106.000000	99.882674 
2105.000000	99.874700 
2104.000000	99.869310 
2103.000000	99.872003 
2102.000000	99.879369 
2101.000000	99.882806 
2100.000000	99.877068 
2099.000000	99.865209 
2098.000000	99.856155 
2097.000000	99.857785 
2096.000000	99.871131 
2095.000000	99.889717 
2094.000000	99.903767 
2093.000000	99.906139 
2092.000000	99.896413 
2091.000000	99.880585 
2090.000000	99.866707 
2089.000000	99.859778 
2088.000000	99.859954 
2087.000000	99.864937 
2086.000000	99.872610 
2085.000000	99.880637 
2084.000000	99.885122 
2083.000000	99.881913 
2082.000000	99.870230 
2081.000000	99.855119 
2080.000000	99.845905 
2079.000000	99.850499 
2078.000000	99.868562 
2077.000000	99.889385 
2076.000000	99.899177 
2075.000000	99.892783 
2074.000000	99.877229 
2073.000000	99.863395 
2072.000000	99.856755 
2071.000000	99.857613 
2070.000000	99.865759 
2069.000000	99.878901 
2068.000000	99.888679 
2067.000000	99.885771 
2066.000000	99.870889 
2065.000000	99.855660 
2064.000000	99.849718 
2063.000000	99.851406 
2062.000000	99.854423 
2061.000000	99.858121 
2060.000000	99.865631 
2059.000000	99.874876 
2058.000000	99.878132 
2057.000000	99.871282 
2056.000000	99.858892 
2055.000000	99.848400 
2054.000000	99.842180 
2053.000000	99.836982 
2052.000000	99.829494 
2051.000000	99.821466 
2050.000000	99.820644 
2049.000000	99.836054 
2048.000000	99.868545 
2047.000000	99.905291 
2046.000000	99.927361 
2045.000000	99.925457 
2044.000000	99.907422 
2043.000000	99.888894 
2042.000000	99.878771 
2041.000000	99.876079 
2040.000000	99.878043 
2039.000000	99.885425 
2038.000000	99.898424 
2037.000000	99.912155 
2036.000000	99.920659 
2035.000000	99.923611 
2034.000000	99.925174 
2033.000000	99.927549 
2032.000000	99.930218 
2031.000000	99.934795 
2030.000000	99.944231 
2029.000000	99.954870 
2028.000000	99.955277 
2027.000000	99.938566 
2026.000000	99.913334 
2025.000000	99.896890 
2024.000000	99.897224 
2023.000000	99.905895 
2022.000000	99.909148 
2021.000000	99.901724 
2020.000000	99.889163 
2019.000000	99.881097 
2018.000000	99.884762 
2017.000000	99.900585 
2016.000000	99.920111 
2015.000000	99.931307 
2014.000000	99.929373 
2013.000000	99.921167 
2012.000000	99.916407 
2011.000000	99.915855 
2010.000000	99.912295 
2009.000000	99.902965 
2008.000000	99.895381 
2007.000000	99.897442 
2006.000000	99.905638 
2005.000000	99.908354 
2004.000000	99.899917 
2003.000000	99.886639 
2002.000000	99.878734 
2001.000000	99.879743 
2000.000000	99.884893 
1999.000000	99.887705 
1998.000000	99.886301 
1997.000000	99.883873 
1996.000000	99.884746 
1995.000000	99.890517 
1994.000000	99.899242 
1993.000000	99.907495 
1992.000000	99.913229 
1991.000000	99.916662 
1990.000000	99.918536 
1989.000000	99.918737 
1988.000000	99.917038 
1987.000000	99.913973 
1986.000000	99.910154 
1985.000000	99.905678 
1984.000000	99.901313 
1983.000000	99.899410 
1982.000000	99.902036 
1981.000000	99.908357 
1980.000000	99.915446 
1979.000000	99.921705 
1978.000000	99.928076 
1977.000000	99.935710 
1976.000000	99.943806 
1975.000000	99.949939 
1974.000000	99.951018 
1973.000000	99.944574 
1972.000000	99.931711 
1971.000000	99.918736 
1970.000000	99.913230 
1969.000000	99.917167 
1968.000000	99.924687 
1967.000000	99.927139 
1966.000000	99.919481 
1965.000000	99.902460 
1964.000000	99.881722 
1963.000000	99.865792 
1962.000000	99.861434 
1961.000000	99.867923 
1960.000000	99.877609 
1959.000000	99.883736 
1958.000000	99.884850 
1957.000000	99.880837 
1956.000000	99.870270 
1955.000000	99.855735 
1954.000000	99.847504 
1953.000000	99.855292 
1952.000000	99.876619 
1951.000000	99.898168 
1950.000000	99.908653 
1949.000000	99.906905 
1948.000000	99.898391 
1947.000000	99.888890 
1946.000000	99.882996 
1945.000000	99.883805 
1944.000000	99.890174 
1943.000000	99.896092 
1942.000000	99.896027 
1941.000000	99.890425 
1940.000000	99.883751 
1939.000000	99.879103 
1938.000000	99.877079 
1937.000000	99.877910 
1936.000000	99.882234 
1935.000000	99.889647 
1934.000000	99.897475 
1933.000000	99.901544 
1932.000000	99.898944 
1931.000000	99.890966 
1930.000000	99.882501 
1929.000000	99.877122 
1928.000000	99.873418 
1927.000000	99.868274 
1926.000000	99.863371 
1925.000000	99.864821 
1924.000000	99.875151 
1923.000000	99.888332 
1922.000000	99.895525 
1921.000000	99.893944 
1920.000000	99.886858 
1919.000000	99.877546 
1918.000000	99.867266 
1917.000000	99.857537 
1916.000000	99.850220 
1915.000000	99.845604 
1914.000000	99.843268 
1913.000000	99.844033 
1912.000000	99.849024 
1911.000000	99.857031 
1910.000000	99.864210 
1909.000000	99.866981 
1908.000000	99.864829 
1907.000000	99.860488 
1906.000000	99.858483 
1905.000000	99.862066 
1904.000000	99.869437 
1903.000000	99.874137 
1902.000000	99.871653 
1901.000000	99.865337 
1900.000000	99.862902 
1899.000000	99.867034 
1898.000000	99.872780 
1897.000000	99.874140 
1896.000000	99.870109 
1895.000000	99.863565 
1894.000000	99.857506 
1893.000000	99.854432 
1892.000000	99.856427 
1891.000000	99.862920 
1890.000000	99.869647 
1889.000000	99.872768 
1888.000000	99.872896 
1887.000000	99.872093 
1886.000000	99.869473 
1885.000000	99.863188 
1884.000000	99.854908 
1883.000000	99.848706 
1882.000000	99.846044 
1881.000000	99.845542 
1880.000000	99.846990 
1879.000000	99.851313 
1878.000000	99.856321 
1877.000000	99.856945 
1876.000000	99.851799 
1875.000000	99.845974 
1874.000000	99.844493 
1873.000000	99.845854 
1872.000000	99.845714 
1871.000000	99.845231 
1870.000000	99.851661 
1869.000000	99.868321 
1868.000000	99.886717 
1867.000000	99.894763 
1866.000000	99.889700 
1865.000000	99.877999 
1864.000000	99.866960 
1863.000000	99.859783 
1862.000000	99.856672 
1861.000000	99.857380 
1860.000000	99.861165 
1859.000000	99.865379 
1858.000000	99.866270 
1857.000000	99.862470 
1856.000000	99.857004 
1855.000000	99.854280 
1854.000000	99.855173 
1853.000000	99.856309 
1852.000000	99.854820 
1851.000000	99.852165 
1850.000000	99.852141 
1849.000000	99.855908 
1848.000000	99.860692 
1847.000000	99.863799 
1846.000000	99.865838 
1845.000000	99.868459 
1844.000000	99.869726 
1843.000000	99.865600 
1842.000000	99.856027 
1841.000000	99.845486 
1840.000000	99.838619 
1839.000000	99.837233 
1838.000000	99.840417 
1837.000000	99.846099 
1836.000000	99.852253 
1835.000000	99.857257 
1834.000000	99.860067 
1833.000000	99.860282 
1832.000000	99.857781 
1831.000000	99.852862 
1830.000000	99.847873 
1829.000000	99.847078 
1828.000000	99.852350 
1827.000000	99.861455 
1826.000000	99.870256 
1825.000000	99.874684 
1824.000000	99.873177 
1823.000000	99.867354 
1822.000000	99.859967 
1821.000000	99.853522 
1820.000000	99.849567 
1819.000000	99.847957 
1818.000000	99.847305 
1817.000000	99.846505 
1816.000000	99.845495 
1815.000000	99.844396 
1814.000000	99.842913 
1813.000000	99.841231 
1812.000000	99.840321 
1811.000000	99.840878 
1810.000000	99.842690 
1809.000000	99.845597 
1808.000000	99.849950 
1807.000000	99.854816 
1806.000000	99.857369 
1805.000000	99.856064 
1804.000000	99.853284 
1803.000000	99.852721 
1802.000000	99.854379 
1801.000000	99.854662 
1800.000000	99.851678 
1799.000000	99.847746 
1798.000000	99.845368 
1797.000000	99.843805 
1796.000000	99.840713 
1795.000000	99.834980 
1794.000000	99.827629 
1793.000000	99.821928 
1792.000000	99.822368 
1791.000000	99.830626 
1790.000000	99.842854 
1789.000000	99.853672 
1788.000000	99.860504 
1787.000000	99.863475 
1786.000000	99.863911 
1785.000000	99.863645 
1784.000000	99.864522 
1783.000000	99.866631 
1782.000000	99.866960 
1781.000000	99.862280 
1780.000000	99.853670 
1779.000000	99.846017 
1778.000000	99.842136 
1777.000000	99.840676 
1776.000000	99.840052 
1775.000000	99.840623 
1774.000000	99.842006 
1773.000000	99.840488 
1772.000000	99.834344 
1771.000000	99.829546 
1770.000000	99.831842 
1769.000000	99.839256 
1768.000000	99.846004 
1767.000000	99.849984 
1766.000000	99.854277 
1765.000000	99.860341 
1764.000000	99.864355 
1763.000000	99.861850 
1762.000000	99.853874 
1761.000000	99.846539 
1760.000000	99.843383 
1759.000000	99.843166 
1758.000000	99.843607 
1757.000000	99.843081 
1756.000000	99.840913 
1755.000000	99.837990 
1754.000000	99.836353 
1753.000000	99.837367 
1752.000000	99.840705 
1751.000000	99.845405 
1750.000000	99.851507 
1749.000000	99.858199 
1748.000000	99.862503 
1747.000000	99.862611 
1746.000000	99.860385 
1745.000000	99.858850 
1744.000000	99.858393 
1743.000000	99.857484 
1742.000000	99.855745 
1741.000000	99.854250 
1740.000000	99.853659 
1739.000000	99.854152 
1738.000000	99.856054 
1737.000000	99.858420 
1736.000000	99.858486 
1735.000000	99.853122 
1734.000000	99.843644 
1733.000000	99.837861 
1732.000000	99.837884 
1731.000000	99.838729 
1730.000000	99.838181 
1729.000000	99.838015 
1728.000000	99.840136 
1727.000000	99.844237 
1726.000000	99.849130 
1725.000000	99.853806 
1724.000000	99.856193 
1723.000000	99.853800 
1722.000000	99.846263 
1721.000000	99.835879 
1720.000000	99.825913 
1719.000000	99.820086 
1718.000000	99.822385 
1717.000000	99.832678 
1716.000000	99.843174 
1715.000000	99.846629 
1714.000000	99.844035 
1713.000000	99.840804 
1712.000000	99.840292 
1711.000000	99.841670 
1710.000000	99.842596 
1709.000000	99.842532 
1708.000000	99.842427 
1707.000000	99.842620 
1706.000000	99.843295 
1705.000000	99.845497 
1704.000000	99.849101 
1703.000000	99.851778 
1702.000000	99.852466 
1701.000000	99.852934 
1700.000000	99.854775 
1699.000000	99.856642 
1698.000000	99.853651 
1697.000000	99.843037 
1696.000000	99.830198 
1695.000000	99.823070 
1694.000000	99.821993 
1693.000000	99.822812 
1692.000000	99.823307 
1691.000000	99.823334 
1690.000000	99.823040 
1689.000000	99.822500 
1688.000000	99.822458 
1687.000000	99.823159 
1686.000000	99.823893 
1685.000000	99.823408 
1684.000000	99.823190 
1683.000000	99.825838 
1682.000000	99.827281 
1681.000000	99.825043 
1680.000000	99.820762 
1679.000000	99.816326 
1678.000000	99.813541 
1677.000000	99.813212 
1676.000000	99.815073 
1675.000000	99.817631 
1674.000000	99.819274 
1673.000000	99.819853 
1672.000000	99.819534 
1671.000000	99.817530 
1670.000000	99.812003 
1669.000000	99.803856 
1668.000000	99.798391 
1667.000000	99.799366 
1666.000000	99.805052 
1665.000000	99.810775 
1664.000000	99.813749 
1663.000000	99.814905 
1662.000000	99.815282 
1661.000000	99.813464 
1660.000000	99.809324 
1659.000000	99.806640 
1658.000000	99.809086 
1657.000000	99.816241 
1656.000000	99.824236 
1655.000000	99.829735 
1654.000000	99.829479 
1653.000000	99.820978 
1652.000000	99.810955 
1651.000000	99.805510 
1650.000000	99.804082 
1649.000000	99.802308 
1648.000000	99.797860 
1647.000000	99.793779 
1646.000000	99.793804 
1645.000000	99.796440 
1644.000000	99.799454 
1643.000000	99.802800 
1642.000000	99.805331 
1641.000000	99.805180 
1640.000000	99.801813 
1639.000000	99.797281 
1638.000000	99.794947 
1637.000000	99.796055 
1636.000000	99.797796 
1635.000000	99.797497 
1634.000000	99.797438 
1633.000000	99.801053 
1632.000000	99.807594 
1631.000000	99.813326 
1630.000000	99.816040 
1629.000000	99.816077 
1628.000000	99.814418 
1627.000000	99.811520 
1626.000000	99.807659 
1625.000000	99.803724 
1624.000000	99.800951 
1623.000000	99.800705 
1622.000000	99.803562 
1621.000000	99.808046 
1620.000000	99.811614 
1619.000000	99.812130 
1618.000000	99.809059 
1617.000000	99.804307 
1616.000000	99.801251 
1615.000000	99.800961 
1614.000000	99.802563 
1613.000000	99.806028 
1612.000000	99.811279 
1611.000000	99.817027 
1610.000000	99.821510 
1609.000000	99.823910 
1608.000000	99.824331 
1607.000000	99.822991 
1606.000000	99.820242 
1605.000000	99.817112 
1604.000000	99.814916 
1603.000000	99.814657 
1602.000000	99.816767 
1601.000000	99.820684 
1600.000000	99.824878 
1599.000000	99.827814 
1598.000000	99.828991 
1597.000000	99.828669 
1596.000000	99.826750 
1595.000000	99.822997 
1594.000000	99.818571 
1593.000000	99.816222 
1592.000000	99.818070 
1591.000000	99.823618 
1590.000000	99.830233 
1589.000000	99.835424 
1588.000000	99.838374 
1587.000000	99.839585 
1586.000000	99.839855 
1585.000000	99.839671 
1584.000000	99.839149 
1583.000000	99.838031 
1582.000000	99.836363 
1581.000000	99.834736 
1580.000000	99.833542 
1579.000000	99.832530 
1578.000000	99.832001 
1577.000000	99.833502 
1576.000000	99.837738 
1575.000000	99.841882 
1574.000000	99.842064 
1573.000000	99.837752 
1572.000000	99.830546 
1571.000000	99.823577 
1570.000000	99.821901 
1569.000000	99.828472 
1568.000000	99.839428 
1567.000000	99.848804 
1566.000000	99.854235 
1565.000000	99.855771 
1564.000000	99.854376 
1563.000000	99.850545 
1562.000000	99.843831 
1561.000000	99.833978 
1560.000000	99.823727 
1559.000000	99.820893 
1558.000000	99.830816 
1557.000000	99.840986 
1556.000000	99.848293 
1555.000000	99.855442 
1554.000000	99.859182 
1553.000000	99.857400 
1552.000000	99.851121 
1551.000000	99.843587 
1550.000000	99.839010 
1549.000000	99.839266 
1548.000000	99.841986 
1547.000000	99.843929 
1546.000000	99.844652 
1545.000000	99.845982 
1544.000000	99.848737 
1543.000000	99.850126 
1542.000000	99.846873 
1541.000000	99.840147 
1540.000000	99.835534 
1539.000000	99.835313 
1538.000000	99.835478 
1537.000000	99.835486 
1536.000000	99.835925 
1535.000000	99.836249 
1534.000000	99.836409 
1533.000000	99.836092 
1532.000000	99.834483 
1531.000000	99.832044 
1530.000000	99.830894 
1529.000000	99.831863 
1528.000000	99.833451 
1527.000000	99.833559 
1526.000000	99.831751 
1525.000000	99.829732 
1524.000000	99.828781 
1523.000000	99.828499 
1522.000000	99.828460 
1521.000000	99.829781 
1520.000000	99.833066 
1519.000000	99.837287 
1518.000000	99.841507 
1517.000000	99.844420 
1516.000000	99.844515 
1515.000000	99.841201 
1514.000000	99.835956 
1513.000000	99.831729 
1512.000000	99.830925 
1511.000000	99.834420 
1510.000000	99.841154 
1509.000000	99.849288 
1508.000000	99.857063 
1507.000000	99.860671 
1506.000000	99.856107 
1505.000000	99.845672 
1504.000000	99.838976 
1503.000000	99.838736 
1502.000000	99.840692 
1501.000000	99.842737 
1500.000000	99.845433 
1499.000000	99.849408 
1498.000000	99.853249 
1497.000000	99.853164 
1496.000000	99.847069 
1495.000000	99.838628 
1494.000000	99.833098 
1493.000000	99.831795 
1492.000000	99.832281 
1491.000000	99.831366 
1490.000000	99.828390 
1489.000000	99.825849 
1488.000000	99.825206 
1487.000000	99.825685 
1486.000000	99.826636 
1485.000000	99.828983 
1484.000000	99.834239 
1483.000000	99.841567 
1482.000000	99.847554 
1481.000000	99.849370 
1480.000000	99.847709 
1479.000000	99.845110 
1478.000000	99.842910 
1477.000000	99.841457 
1476.000000	99.841551 
1475.000000	99.843222 
1474.000000	99.843334 
1473.000000	99.838037 
1472.000000	99.829098 
1471.000000	99.823132 
1470.000000	99.823395 
1469.000000	99.828090 
1468.000000	99.833694 
1467.000000	99.837845 
1466.000000	99.839559 
1465.000000	99.839143 
1464.000000	99.838891 
1463.000000	99.841110 
1462.000000	99.845222 
1461.000000	99.847886 
1460.000000	99.846047 
1459.000000	99.839929 
1458.000000	99.833032 
1457.000000	99.828750 
1456.000000	99.827521 
1455.000000	99.829530 
1454.000000	99.835579 
1453.000000	99.842917 
1452.000000	99.847255 
1451.000000	99.846406 
1450.000000	99.841194 
1449.000000	99.834177 
1448.000000	99.828169 
1447.000000	99.825376 
1446.000000	99.826022 
1445.000000	99.828656 
1444.000000	99.831298 
1443.000000	99.832378 
1442.000000	99.831342 
1441.000000	99.828395 
1440.000000	99.823887 
1439.000000	99.818290 
1438.000000	99.813108 
1437.000000	99.810950 
1436.000000	99.813918 
1435.000000	99.821225 
1434.000000	99.829889 
1433.000000	99.836565 
1432.000000	99.838741 
1431.000000	99.836264 
1430.000000	99.831972 
1429.000000	99.829192 
1428.000000	99.828837 
1427.000000	99.829799 
1426.000000	99.830891 
1425.000000	99.832269 
1424.000000	99.835094 
1423.000000	99.839521 
1422.000000	99.843737 
1421.000000	99.845622 
1420.000000	99.844477 
1419.000000	99.842065 
1418.000000	99.841129 
1417.000000	99.840805 
1416.000000	99.838920 
1415.000000	99.836187 
1414.000000	99.835094 
1413.000000	99.836702 
1412.000000	99.839170 
1411.000000	99.840192 
1410.000000	99.840277 
1409.000000	99.841821 
1408.000000	99.845606 
1407.000000	99.849785 
1406.000000	99.851879 
1405.000000	99.851344 
1404.000000	99.849846 
1403.000000	99.849235 
1402.000000	99.849809 
1401.000000	99.850440 
1400.000000	99.850337 
1399.000000	99.850676 
1398.000000	99.853506 
1397.000000	99.858863 
1396.000000	99.864460 
1395.000000	99.867485 
1394.000000	99.866796 
1393.000000	99.863811 
1392.000000	99.860484 
1391.000000	99.857599 
1390.000000	99.855421 
1389.000000	99.854929 
1388.000000	99.857478 
1387.000000	99.862949 
1386.000000	99.868587 
1385.000000	99.870999 
1384.000000	99.869065 
1383.000000	99.864555 
1382.000000	99.860736 
1381.000000	99.859734 
1380.000000	99.861187 
1379.000000	99.863541 
1378.000000	99.865727 
1377.000000	99.867155 
1376.000000	99.867045 
1375.000000	99.864783 
1374.000000	99.860831 
1373.000000	99.856387 
1372.000000	99.852179 
1371.000000	99.848442 
1370.000000	99.845525 
1369.000000	99.844486 
1368.000000	99.846315 
1367.000000	99.850202 
1366.000000	99.853586 
1365.000000	99.854295 
1364.000000	99.852560 
1363.000000	99.850820 
1362.000000	99.850643 
1361.000000	99.850829 
1360.000000	99.850331 
1359.000000	99.850577 
1358.000000	99.853041 
1357.000000	99.856135 
1356.000000	99.856172 
1355.000000	99.851812 
1354.000000	99.846187 
1353.000000	99.843520 
1352.000000	99.844843 
1351.000000	99.847934 
1350.000000	99.849992 
1349.000000	99.849788 
1348.000000	99.848081 
1347.000000	99.846969 
1346.000000	99.848078 
1345.000000	99.850591 
1344.000000	99.851810 
1343.000000	99.850408 
1342.000000	99.848157 
1341.000000	99.847493 
1340.000000	99.848088 
1339.000000	99.847312 
1338.000000	99.844349 
1337.000000	99.841839 
1336.000000	99.842729 
1335.000000	99.847073 
1334.000000	99.852119 
1333.000000	99.854459 
1332.000000	99.852234 
1331.000000	99.846410 
1330.000000	99.840084 
1329.000000	99.835827 
1328.000000	99.833887 
1327.000000	99.833539 
1326.000000	99.835230 
1325.000000	99.839764 
1324.000000	99.845442 
1323.000000	99.848224 
1322.000000	99.846003 
1321.000000	99.841608 
1320.000000	99.840030 
1319.000000	99.842803 
1318.000000	99.846422 
1317.000000	99.846961 
1316.000000	99.844892 
1315.000000	99.843941 
1314.000000	99.845991 
1313.000000	99.848693 
1312.000000	99.848698 
1311.000000	99.845965 
1310.000000	99.843280 
1309.000000	99.842173 
1308.000000	99.841310 
1307.000000	99.839214 
1306.000000	99.836853 
1305.000000	99.836420 
1304.000000	99.838475 
1303.000000	99.841366 
1302.000000	99.842777 
1301.000000	99.841120 
1300.000000	99.836392 
1299.000000	99.830950 
1298.000000	99.828691 
1297.000000	99.831726 
1296.000000	99.837763 
1295.000000	99.841951 
1294.000000	99.841570 
1293.000000	99.838169 
1292.000000	99.835223 
1291.000000	99.834754 
1290.000000	99.836182 
1289.000000	99.837318 
1288.000000	99.836060 
1287.000000	99.831935 
1286.000000	99.826623 
1285.000000	99.822642 
1284.000000	99.821242 
1283.000000	99.821609 
1282.000000	99.821935 
1281.000000	99.821025 
1280.000000	99.819201 
1279.000000	99.818058 
1278.000000	99.819024 
1277.000000	99.821486 
1276.000000	99.822669 
1275.000000	99.820222 
1274.000000	99.814951 
1273.000000	99.810182 
1272.000000	99.808392 
1271.000000	99.809297 
1270.000000	99.811316 
1269.000000	99.813744 
1268.000000	99.816651 
1267.000000	99.819470 
1266.000000	99.820997 
1265.000000	99.820753 
1264.000000	99.819480 
1263.000000	99.818009 
1262.000000	99.816221 
1261.000000	99.813538 
1260.000000	99.810074 
1259.000000	99.806614 
1258.000000	99.803443 
1257.000000	99.799883 
1256.000000	99.795445 
1255.000000	99.790951 
1254.000000	99.787835 
1253.000000	99.786560 
1252.000000	99.786476 
1251.000000	99.787029 
1250.000000	99.788003 
1249.000000	99.788425 
1248.000000	99.786511 
1247.000000	99.781576 
1246.000000	99.775304 
1245.000000	99.770140 
1244.000000	99.766821 
1243.000000	99.764311 
1242.000000	99.761857 
1241.000000	99.760191 
1240.000000	99.760511 
1239.000000	99.762701 
1238.000000	99.764707 
1237.000000	99.763719 
1236.000000	99.758481 
1235.000000	99.750778 
1234.000000	99.744192 
1233.000000	99.740806 
1232.000000	99.739395 
1231.000000	99.737157 
1230.000000	99.732682 
1229.000000	99.726675 
1228.000000	99.720280 
1227.000000	99.713540 
1226.000000	99.705362 
1225.000000	99.694430 
1224.000000	99.680393 
1223.000000	99.664646 
1222.000000	99.649608 
1221.000000	99.636667 
1220.000000	99.625170 
1219.000000	99.613825 
1218.000000	99.602390 
1217.000000	99.591184 
1216.000000	99.579469 
1215.000000	99.565609 
1214.000000	99.548923 
1213.000000	99.530471 
1212.000000	99.511776 
1211.000000	99.493507 
1210.000000	99.475713 
1209.000000	99.458630 
1208.000000	99.442664 
1207.000000	99.427704 
1206.000000	99.412877 
1205.000000	99.397118 
1204.000000	99.380000 
1203.000000	99.362072 
1202.000000	99.344419 
1201.000000	99.327785 
1200.000000	99.312138 
1199.000000	99.297144 
1198.000000	99.282892 
1197.000000	99.269731 
1196.000000	99.257216 
1195.000000	99.243673 
1194.000000	99.227587 
1193.000000	99.209501 
1192.000000	99.191760 
1191.000000	99.175921 
1190.000000	99.161059 
1189.000000	99.145249 
1188.000000	99.127961 
1187.000000	99.109816 
1186.000000	99.090469 
1185.000000	99.068481 
1184.000000	99.043707 
1183.000000	99.018467 
1182.000000	98.995493 
1181.000000	98.975375 
1180.000000	98.956432 
1179.000000	98.936271 
1178.000000	98.913252 
1177.000000	98.887615 
1176.000000	98.861737 
1175.000000	98.838270 
1174.000000	98.817366 
1173.000000	98.796587 
1172.000000	98.773776 
1171.000000	98.748779 
1170.000000	98.722304 
1169.000000	98.695203 
1168.000000	98.669770 
1167.000000	98.649666 
1166.000000	98.636952 
1165.000000	98.630676 
1164.000000	98.629646 
1163.000000	98.634633 
1162.000000	98.645985 
1161.000000	98.660645 
1160.000000	98.673582 
1159.000000	98.681133 
1158.000000	98.681410 
1157.000000	98.673111 
1156.000000	98.656689 
1155.000000	98.636082 
1154.000000	98.616339 
1153.000000	98.599017 
1152.000000	98.581704 
1151.000000	98.561955 
1150.000000	98.539682 
1149.000000	98.515847 
1148.000000	98.491292 
1147.000000	98.467541 
1146.000000	98.446574 
1145.000000	98.428591 
1144.000000	98.411355 
1143.000000	98.392713 
1142.000000	98.372786 
1141.000000	98.352848 
1140.000000	98.332986 
1139.000000	98.311934 
1138.000000	98.288864 
1137.000000	98.264374 
1136.000000	98.239458 
1135.000000	98.213923 
1134.000000	98.186504 
1133.000000	98.156905 
1132.000000	98.127247 
1131.000000	98.100587 
1130.000000	98.078090 
1129.000000	98.058623 
1128.000000	98.040771 
1127.000000	98.023428 
1126.000000	98.004308 
1125.000000	97.980359 
1124.000000	97.951026 
1123.000000	97.919448 
1122.000000	97.889067 
1121.000000	97.860571 
1120.000000	97.833614 
1119.000000	97.809584 
1118.000000	97.790271 
1117.000000	97.774796 
1116.000000	97.760064 
1115.000000	97.743745 
1114.000000	97.725167 
1113.000000	97.704100 
1112.000000	97.680683 
1111.000000	97.656324 
1110.000000	97.632907 
1109.000000	97.611014 
1108.000000	97.589976 
1107.000000	97.569273 
1106.000000	97.548721 
1105.000000	97.527974 
1104.000000	97.507229 
1103.000000	97.488038 
1102.000000	97.472085 
1101.000000	97.459327 
1100.000000	97.448307 
1099.000000	97.437932 
1098.000000	97.427987 
1097.000000	97.418221 
1096.000000	97.407744 
1095.000000	97.395380 
1094.000000	97.380561 
1093.000000	97.364360 
1092.000000	97.349457 
1091.000000	97.337855 
1090.000000	97.328404 
1089.000000	97.318066 
1088.000000	97.306051 
1087.000000	97.295001 
1086.000000	97.287206 
1085.000000	97.281422 
1084.000000	97.274984 
1083.000000	97.267950 
1082.000000	97.263416 
1081.000000	97.263833 
1080.000000	97.267792 
1079.000000	97.270246 
1078.000000	97.265756 
1077.000000	97.252296 
1076.000000	97.232292 
1075.000000	97.209712 
1074.000000	97.186448 
1073.000000	97.162055 
1072.000000	97.135960 
1071.000000	97.108049 
1070.000000	97.077464 
1069.000000	97.043129 
1068.000000	97.005842 
1067.000000	96.967864 
1066.000000	96.929829 
1065.000000	96.889721 
1064.000000	96.845343 
1063.000000	96.796352 
1062.000000	96.744240 
1061.000000	96.692615 
1060.000000	96.647099 
1059.000000	96.611452 
1058.000000	96.582889 
1057.000000	96.554244 
1056.000000	96.521539 
1055.000000	96.486268 
1054.000000	96.449498 
1053.000000	96.407853 
1052.000000	96.358120 
1051.000000	96.303013 
1050.000000	96.249136 
1049.000000	96.200754 
1048.000000	96.157583 
1047.000000	96.116146 
1046.000000	96.071491 
1045.000000	96.020725 
1044.000000	95.967113 
1043.000000	95.918235 
1042.000000	95.877988 
1041.000000	95.842529 
1040.000000	95.805722 
1039.000000	95.765950 
1038.000000	95.725764 
1037.000000	95.687772 
1036.000000	95.653549 
1035.000000	95.624421 
1034.000000	95.600617 
1033.000000	95.580949 
1032.000000	95.564942 
1031.000000	95.553608 
1030.000000	95.546781 
1029.000000	95.541712 
1028.000000	95.535759 
1027.000000	95.528770 
1026.000000	95.521688 
1025.000000	95.514770 
1024.000000	95.508361 
1023.000000	95.503535 
1022.000000	95.500712 
1021.000000	95.498922 
1020.000000	95.497017 
1019.000000	95.494311 
1018.000000	95.490254 
1017.000000	95.485471 
1016.000000	95.482690 
1015.000000	95.484074 
1014.000000	95.487755 
1013.000000	95.489669 
1012.000000	95.488430 
1011.000000	95.485463 
1010.000000	95.481092 
1009.000000	95.474406 
1008.000000	95.466880 
1007.000000	95.461910 
1006.000000	95.460345 
1005.000000	95.460678 
1004.000000	95.464033 
1003.000000	95.474103 
1002.000000	95.490838 
1001.000000	95.508952 
1000.000000	95.524592 
999.000000	 95.539308 
998.000000	 95.555501 
997.000000	 95.572316 
996.000000	 95.588661 
995.000000	 95.606326 
994.000000	 95.626839 
993.000000	 95.648135 
992.000000	 95.667439 
991.000000	 95.685414 
990.000000	 95.705036 
989.000000	 95.728027 
988.000000	 95.753917 
987.000000	 95.780655 
986.000000	 95.805284 
985.000000	 95.826931 
984.000000	 95.850207 
983.000000	 95.882193 
982.000000	 95.924225 
981.000000	 95.969966 
980.000000	 96.013489 
979.000000	 96.055778 
978.000000	 96.101012 
977.000000	 96.150089 
976.000000	 96.200914 
975.000000	 96.252052 
974.000000	 96.302615 
973.000000	 96.350858 
972.000000	 96.396311 
971.000000	 96.441613 
970.000000	 96.489168 
969.000000	 96.537557 
968.000000	 96.584224 
967.000000	 96.629931 
966.000000	 96.677001 
965.000000	 96.724321 
964.000000	 96.767981 
963.000000	 96.806848 
962.000000	 96.844201 
961.000000	 96.883343 
960.000000	 96.924236 
959.000000	 96.965002 
958.000000	 97.004440 
957.000000	 97.042233 
956.000000	 97.078363 
955.000000	 97.113144 
954.000000	 97.146862 
953.000000	 97.179133 
952.000000	 97.209293 
951.000000	 97.236939 
950.000000	 97.261280 
949.000000	 97.281096 
948.000000	 97.296839 
947.000000	 97.311383 
946.000000	 97.326383 
945.000000	 97.339155 
944.000000	 97.346366 
943.000000	 97.350352 
942.000000	 97.358094 
941.000000	 97.373161 
940.000000	 97.391664 
939.000000	 97.407205 
938.000000	 97.417356 
937.000000	 97.424386 
936.000000	 97.432235 
935.000000	 97.444186 
934.000000	 97.461134 
933.000000	 97.480258 
932.000000	 97.496791 
931.000000	 97.508403 
930.000000	 97.516768 
929.000000	 97.524402 
928.000000	 97.532000 
927.000000	 97.539822 
926.000000	 97.549210 
925.000000	 97.560908 
924.000000	 97.573571 
923.000000	 97.585586 
922.000000	 97.596772 
921.000000	 97.606649 
920.000000	 97.612885 
919.000000	 97.613895 
918.000000	 97.611883 
917.000000	 97.610967 
916.000000	 97.612857 
915.000000	 97.616494 
914.000000	 97.621661 
913.000000	 97.630939 
912.000000	 97.647606 
911.000000	 97.672507 
910.000000	 97.702987 
909.000000	 97.734393 
908.000000	 97.763205 
907.000000	 97.789582 
906.000000	 97.816556 
905.000000	 97.846196 
904.000000	 97.877177 
903.000000	 97.906666 
902.000000	 97.933605 
901.000000	 97.959457 
900.000000	 97.986887 
899.000000	 98.018524 
898.000000	 98.055211 
897.000000	 98.093857 
896.000000	 98.128594 
895.000000	 98.156291 
894.000000	 98.180172 
893.000000	 98.206141 
892.000000	 98.236630 
891.000000	 98.269870 
890.000000	 98.303170 
889.000000	 98.333689 
888.000000	 98.357314 
887.000000	 98.371444 
886.000000	 98.379772 
885.000000	 98.390645 
884.000000	 98.408828 
883.000000	 98.430904 
882.000000	 98.449847 
881.000000	 98.462410 
880.000000	 98.471086 
879.000000	 98.480487 
878.000000	 98.492939 
877.000000	 98.507120 
876.000000	 98.521099 
875.000000	 98.536713 
874.000000	 98.558792 
873.000000	 98.588422 
872.000000	 98.619551 
871.000000	 98.645286 
870.000000	 98.665292 
869.000000	 98.683092 
868.000000	 98.698359 
867.000000	 98.707547 
866.000000	 98.711696 
865.000000	 98.717711 
864.000000	 98.730523 
863.000000	 98.748397 
862.000000	 98.767229 
861.000000	 98.785087 
860.000000	 98.800687 
859.000000	 98.811545 
858.000000	 98.816618 
857.000000	 98.818357 
856.000000	 98.820526 
855.000000	 98.826411 
854.000000	 98.839377 
853.000000	 98.860784 
852.000000	 98.885700 
851.000000	 98.905134 
850.000000	 98.915293 
849.000000	 98.920908 
848.000000	 98.926786 
847.000000	 98.930610 
846.000000	 98.928030 
845.000000	 98.920841 
844.000000	 98.914885 
843.000000	 98.912193 
842.000000	 98.910365 
841.000000	 98.908482 
840.000000	 98.908334 
839.000000	 98.909160 
838.000000	 98.905341 
837.000000	 98.891350 
836.000000	 98.867478 
835.000000	 98.839956 
834.000000	 98.816424 
833.000000	 98.801233 
832.000000	 98.794237 
831.000000	 98.793777 
830.000000	 98.800298 
829.000000	 98.815192 
828.000000	 98.835361 
827.000000	 98.851944 
826.000000	 98.858168 
825.000000	 98.857462 
824.000000	 98.859889 
823.000000	 98.870737 
822.000000	 98.886264 
821.000000	 98.900435 
820.000000	 98.911166 
819.000000	 98.918077 
818.000000	 98.917704 
817.000000	 98.904586 
816.000000	 98.877486 
815.000000	 98.843003 
814.000000	 98.810937 
813.000000	 98.784938 
812.000000	 98.758388 
811.000000	 98.720062 
810.000000	 98.663203 
809.000000	 98.588748 
808.000000	 98.501438 
807.000000	 98.404836 
806.000000	 98.299782 
805.000000	 98.186587 
804.000000	 98.069074 
803.000000	 97.956310 
802.000000	 97.858177 
801.000000	 97.778846 
800.000000	 97.717430 
799.000000	 97.675272 
798.000000	 97.658223 
797.000000	 97.669139 
796.000000	 97.701280 
795.000000	 97.742594 
794.000000	 97.784781 
793.000000	 97.824758 
792.000000	 97.859304 
791.000000	 97.884095 
790.000000	 97.898480 
789.000000	 97.905450 
788.000000	 97.904839 
787.000000	 97.891597 
786.000000	 97.863317 
785.000000	 97.824709 
784.000000	 97.781622 
783.000000	 97.735500 
782.000000	 97.687980 
781.000000	 97.646905 
780.000000	 97.621879 
779.000000	 97.615107 
778.000000	 97.621232 
777.000000	 97.635381 
776.000000	 97.656902 
775.000000	 97.685791 
774.000000	 97.720729 
773.000000	 97.761402 
772.000000	 97.807862 
771.000000	 97.855694 
770.000000	 97.895712 
769.000000	 97.920888 
768.000000	 97.931657 
767.000000	 97.934042 
766.000000	 97.935296 
765.000000	 97.941325 
764.000000	 97.954365 
763.000000	 97.971019 
762.000000	 97.984624 
761.000000	 97.991127 
760.000000	 97.991831 
759.000000	 97.991430 
758.000000	 97.996350 
757.000000	 98.013773 
756.000000	 98.046702 
755.000000	 98.088022 
754.000000	 98.124065 
753.000000	 98.146862 
752.000000	 98.159056 
751.000000	 98.164988 
750.000000	 98.163214 
749.000000	 98.152946 
748.000000	 98.142653 
747.000000	 98.143640 
746.000000	 98.155963 
745.000000	 98.169048 
744.000000	 98.177874 
743.000000	 98.190610 
742.000000	 98.216099 
741.000000	 98.250447 
740.000000	 98.282702 
739.000000	 98.309937 
738.000000	 98.338944 
737.000000	 98.373582 
736.000000	 98.407609 
735.000000	 98.432149 
734.000000	 98.444914 
733.000000	 98.448868 
732.000000	 98.445779 
731.000000	 98.435428 
730.000000	 98.419307 
729.000000	 98.401651 
728.000000	 98.387617 
727.000000	 98.382095 
726.000000	 98.388284 
725.000000	 98.404942 
724.000000	 98.426664 
723.000000	 98.448959 
722.000000	 98.471116 
721.000000	 98.492115 
720.000000	 98.507317 
719.000000	 98.513622 
718.000000	 98.515062 
717.000000	 98.517859 
716.000000	 98.522366 
715.000000	 98.525773 
714.000000	 98.530729 
713.000000	 98.543802 
712.000000	 98.564576 
711.000000	 98.583324 
710.000000	 98.591938 
709.000000	 98.591098 
708.000000	 98.584062 
707.000000	 98.569986 
706.000000	 98.548535 
705.000000	 98.526181 
704.000000	 98.511337 
703.000000	 98.504567 
702.000000	 98.497209 
701.000000	 98.477790 
700.000000	 98.437232 
699.000000	 98.371668 
698.000000	 98.286991 
697.000000	 98.201493 
696.000000	 98.139249 
695.000000	 98.116918 
694.000000	 98.134668 
693.000000	 98.178011 
692.000000	 98.227658 
691.000000	 98.269308 
690.000000	 98.297742 
689.000000	 98.314544 
688.000000	 98.324175 
687.000000	 98.332928 
686.000000	 98.347144 
685.000000	 98.367087 
684.000000	 98.384244 
683.000000	 98.389992 
682.000000	 98.386532 
681.000000	 98.383803 
680.000000	 98.385368 
679.000000	 98.384923 
678.000000	 98.380022 
677.000000	 98.381403 
676.000000	 98.401497 
675.000000	 98.437484 
674.000000	 98.473274 
673.000000	 98.496078 
672.000000	 98.506200 
671.000000	 98.510962 
670.000000	 98.513837 
669.000000	 98.508744 
668.000000	 98.490434 
667.000000	 98.473606 
666.000000	 98.473730 
665.000000	 98.491987 
664.000000	 98.523899 
663.000000	 98.557107 
662.000000	 98.575712 
661.000000	 98.569271 
660.000000	 98.536095 
659.000000	 98.485355 
658.000000	 98.439965 
657.000000	 98.424510 
656.000000	 98.444111 
655.000000	 98.480021 
654.000000	 98.507919 
653.000000	 98.517070 
652.000000	 98.510925 
651.000000	 98.500352 
650.000000	 98.500214 

