4000.000000	99.303012 
3999.000000	99.302955 
3998.000000	99.302863 
3997.000000	99.303131 
3996.000000	99.303683 
3995.000000	99.304092 
3994.000000	99.304113 
3993.000000	99.303894 
3992.000000	99.303675 
3991.000000	99.303385 
3990.000000	99.302687 
3989.000000	99.301372 
3988.000000	99.299678 
3987.000000	99.298230 
3986.000000	99.297625 
3985.000000	99.298073 
3984.000000	99.299263 
3983.000000	99.300660 
3982.000000	99.301966 
3981.000000	99.303191 
3980.000000	99.304325 
3979.000000	99.305117 
3978.000000	99.305290 
3977.000000	99.304854 
3976.000000	99.304097 
3975.000000	99.303274 
3974.000000	99.302418 
3973.000000	99.301473 
3972.000000	99.300520 
3971.000000	99.299851 
3970.000000	99.299821 
3969.000000	99.300559 
3968.000000	99.301767 
3967.000000	99.302813 
3966.000000	99.303172 
3965.000000	99.302769 
3964.000000	99.301951 
3963.000000	99.301236 
3962.000000	99.300986 
3961.000000	99.301191 
3960.000000	99.301473 
3959.000000	99.301369 
3958.000000	99.300777 
3957.000000	99.300042 
3956.000000	99.299586 
3955.000000	99.299460 
3954.000000	99.299387 
3953.000000	99.299133 
3952.000000	99.298744 
3951.000000	99.298421 
3950.000000	99.298248 
3949.000000	99.298088 
3948.000000	99.297781 
3947.000000	99.297373 
3946.000000	99.297056 
3945.000000	99.296915 
3944.000000	99.296831 
3943.000000	99.296626 
3942.000000	99.296239 
3941.000000	99.295749 
3940.000000	99.295254 
3939.000000	99.294790 
3938.000000	99.294378 
3937.000000	99.294055 
3936.000000	99.293827 
3935.000000	99.293630 
3934.000000	99.293418 
3933.000000	99.293207 
3932.000000	99.293029 
3931.000000	99.292878 
3930.000000	99.292699 
3929.000000	99.292450 
3928.000000	99.292132 
3927.000000	99.291743 
3926.000000	99.291286 
3925.000000	99.290820 
3924.000000	99.290457 
3923.000000	99.290247 
3922.000000	99.290085 
3921.000000	99.289824 
3920.000000	99.289477 
3919.000000	99.289156 
3918.000000	99.288882 
3917.000000	99.288581 
3916.000000	99.288249 
3915.000000	99.287981 
3914.000000	99.287810 
3913.000000	99.287651 
3912.000000	99.287404 
3911.000000	99.287016 
3910.000000	99.286545 
3909.000000	99.286098 
3908.000000	99.285778 
3907.000000	99.285587 
3906.000000	99.285446 
3905.000000	99.285244 
3904.000000	99.284936 
3903.000000	99.284580 
3902.000000	99.284257 
3901.000000	99.283955 
3900.000000	99.283618 
3899.000000	99.283229 
3898.000000	99.282807 
3897.000000	99.282344 
3896.000000	99.281805 
3895.000000	99.281222 
3894.000000	99.280822 
3893.000000	99.280816 
3892.000000	99.281028 
3891.000000	99.280977 
3890.000000	99.280702 
3889.000000	99.280563 
3888.000000	99.280470 
3887.000000	99.280064 
3886.000000	99.279283 
3885.000000	99.278481 
3884.000000	99.278184 
3883.000000	99.278209 
3882.000000	99.277844 
3881.000000	99.276899 
3880.000000	99.275811 
3879.000000	99.275171 
3878.000000	99.275192 
3877.000000	99.275324 
3876.000000	99.274948 
3875.000000	99.273957 
3874.000000	99.272816 
3873.000000	99.272231 
3872.000000	99.272065 
3871.000000	99.271210 
3870.000000	99.269275 
3869.000000	99.267887 
3868.000000	99.268843 
3867.000000	99.271128 
3866.000000	99.272307 
3865.000000	99.272092 
3864.000000	99.271882 
3863.000000	99.272230 
3862.000000	99.272443 
3861.000000	99.271814 
3860.000000	99.270454 
3859.000000	99.268271 
3858.000000	99.264955 
3857.000000	99.260838 
3856.000000	99.257795 
3855.000000	99.258016 
3854.000000	99.260422 
3853.000000	99.261072 
3852.000000	99.261659 
3851.000000	99.265283 
3850.000000	99.269453 
3849.000000	99.271818 
3848.000000	99.272966 
3847.000000	99.273814 
3846.000000	99.274361 
3845.000000	99.274337 
3844.000000	99.273812 
3843.000000	99.273098 
3842.000000	99.272518 
3841.000000	99.272008 
3840.000000	99.271537 
3839.000000	99.271269 
3838.000000	99.271293 
3837.000000	99.271417 
3836.000000	99.271575 
3835.000000	99.271730 
3834.000000	99.271755 
3833.000000	99.271610 
3832.000000	99.271464 
3831.000000	99.271548 
3830.000000	99.271922 
3829.000000	99.272323 
3828.000000	99.272370 
3827.000000	99.271955 
3826.000000	99.271455 
3825.000000	99.271338 
3824.000000	99.271645 
3823.000000	99.272059 
3822.000000	99.272248 
3821.000000	99.272099 
3820.000000	99.271993 
3819.000000	99.272214 
3818.000000	99.272475 
3817.000000	99.272548 
3816.000000	99.272521 
3815.000000	99.272568 
3814.000000	99.272712 
3813.000000	99.272840 
3812.000000	99.272885 
3811.000000	99.272876 
3810.000000	99.272882 
3809.000000	99.272939 
3808.000000	99.273002 
3807.000000	99.272969 
3806.000000	99.272898 
3805.000000	99.272984 
3804.000000	99.273205 
3803.000000	99.273314 
3802.000000	99.273120 
3801.000000	99.272634 
3800.000000	99.272361 
3799.000000	99.272642 
3798.000000	99.272935 
3797.000000	99.272846 
3796.000000	99.272815 
3795.000000	99.273424 
3794.000000	99.274587 
3793.000000	99.275709 
3792.000000	99.276463 
3791.000000	99.276970 
3790.000000	99.277241 
3789.000000	99.277233 
3788.000000	99.277328 
3787.000000	99.278210 
3786.000000	99.279964 
3785.000000	99.281816 
3784.000000	99.283168 
3783.000000	99.284232 
3782.000000	99.285228 
3781.000000	99.285669 
3780.000000	99.284933 
3779.000000	99.283066 
3778.000000	99.281112 
3777.000000	99.279781 
3776.000000	99.278628 
3775.000000	99.277280 
3774.000000	99.276511 
3773.000000	99.277119 
3772.000000	99.278539 
3771.000000	99.279190 
3770.000000	99.278326 
3769.000000	99.277017 
3768.000000	99.276790 
3767.000000	99.277442 
3766.000000	99.277747 
3765.000000	99.277538 
3764.000000	99.277953 
3763.000000	99.279596 
3762.000000	99.281463 
3761.000000	99.282603 
3760.000000	99.283350 
3759.000000	99.283783 
3758.000000	99.283217 
3757.000000	99.281389 
3756.000000	99.279076 
3755.000000	99.276867 
3754.000000	99.274861 
3753.000000	99.273854 
3752.000000	99.274599 
3751.000000	99.274715 
3750.000000	99.270648 
3749.000000	99.264146 
3748.000000	99.260045 
3747.000000	99.259156 
3746.000000	99.259367 
3745.000000	99.258771 
3744.000000	99.256557 
3743.000000	99.257006 
3742.000000	99.261837 
3741.000000	99.264622 
3740.000000	99.262873 
3739.000000	99.260696 
3738.000000	99.261551 
3737.000000	99.264706 
3736.000000	99.268066 
3735.000000	99.271052 
3734.000000	99.272835 
3733.000000	99.271253 
3732.000000	99.266542 
3731.000000	99.263050 
3730.000000	99.263844 
3729.000000	99.266867 
3728.000000	99.268708 
3727.000000	99.269489 
3726.000000	99.271559 
3725.000000	99.275254 
3724.000000	99.277608 
3723.000000	99.276487 
3722.000000	99.273272 
3721.000000	99.270730 
3720.000000	99.269980 
3719.000000	99.269440 
3718.000000	99.267036 
3717.000000	99.262173 
3716.000000	99.255648 
3715.000000	99.248069 
3714.000000	99.240098 
3713.000000	99.233485 
3712.000000	99.229270 
3711.000000	99.226633 
3710.000000	99.225294 
3709.000000	99.225203 
3708.000000	99.225040 
3707.000000	99.223273 
3706.000000	99.219561 
3705.000000	99.214632 
3704.000000	99.209647 
3703.000000	99.205702 
3702.000000	99.202857 
3701.000000	99.200407 
3700.000000	99.198269 
3699.000000	99.195766 
3698.000000	99.190986 
3697.000000	99.183567 
3696.000000	99.175815 
3695.000000	99.169939 
3694.000000	99.165451 
3693.000000	99.160738 
3692.000000	99.155793 
3691.000000	99.151472 
3690.000000	99.147044 
3689.000000	99.140638 
3688.000000	99.133968 
3687.000000	99.131649 
3686.000000	99.133991 
3685.000000	99.136663 
3684.000000	99.137410 
3683.000000	99.137605 
3682.000000	99.137965 
3681.000000	99.136080 
3680.000000	99.129387 
3679.000000	99.119320 
3678.000000	99.109142 
3677.000000	99.100792 
3676.000000	99.093882 
3675.000000	99.089164 
3674.000000	99.092004 
3673.000000	99.101669 
3672.000000	99.108873 
3671.000000	99.110218 
3670.000000	99.108734 
3669.000000	99.107176 
3668.000000	99.107397 
3667.000000	99.108237 
3666.000000	99.107794 
3665.000000	99.106858 
3664.000000	99.107280 
3663.000000	99.109481 
3662.000000	99.112352 
3661.000000	99.114612 
3660.000000	99.116129 
3659.000000	99.117955 
3658.000000	99.120679 
3657.000000	99.123533 
3656.000000	99.125258 
3655.000000	99.127368 
3654.000000	99.131383 
3653.000000	99.135622 
3652.000000	99.139205 
3651.000000	99.144029 
3650.000000	99.149334 
3649.000000	99.150428 
3648.000000	99.146894 
3647.000000	99.144310 
3646.000000	99.146625 
3645.000000	99.152650 
3644.000000	99.159152 
3643.000000	99.164306 
3642.000000	99.168650 
3641.000000	99.173296 
3640.000000	99.178455 
3639.000000	99.183647 
3638.000000	99.188960 
3637.000000	99.194956 
3636.000000	99.200770 
3635.000000	99.204243 
3634.000000	99.204542 
3633.000000	99.203573 
3632.000000	99.203614 
3631.000000	99.205438 
3630.000000	99.208597 
3629.000000	99.210227 
3628.000000	99.208943 
3627.000000	99.208725 
3626.000000	99.210507 
3625.000000	99.211987 
3624.000000	99.213500 
3623.000000	99.216224 
3622.000000	99.219485 
3621.000000	99.221697 
3620.000000	99.222387 
3619.000000	99.222274 
3618.000000	99.222777 
3617.000000	99.224869 
3616.000000	99.227651 
3615.000000	99.229448 
3614.000000	99.229608 
3613.000000	99.228761 
3612.000000	99.228073 
3611.000000	99.228197 
3610.000000	99.229030 
3609.000000	99.230470 
3608.000000	99.232447 
3607.000000	99.234600 
3606.000000	99.236385 
3605.000000	99.237464 
3604.000000	99.238212 
3603.000000	99.239373 
3602.000000	99.241081 
3601.000000	99.243019 
3600.000000	99.245186 
3599.000000	99.247681 
3598.000000	99.249917 
3597.000000	99.251214 
3596.000000	99.251303 
3595.000000	99.250436 
3594.000000	99.249218 
3593.000000	99.248716 
3592.000000	99.249867 
3591.000000	99.252842 
3590.000000	99.256791 
3589.000000	99.260032 
3588.000000	99.260706 
3587.000000	99.258392 
3586.000000	99.255007 
3585.000000	99.252685 
3584.000000	99.251693 
3583.000000	99.251435 
3582.000000	99.251429 
3581.000000	99.251278 
3580.000000	99.250582 
3579.000000	99.249254 
3578.000000	99.247579 
3577.000000	99.246188 
3576.000000	99.245693 
3575.000000	99.246255 
3574.000000	99.247471 
3573.000000	99.248664 
3572.000000	99.249427 
3571.000000	99.249729 
3570.000000	99.249690 
3569.000000	99.249374 
3568.000000	99.248876 
3567.000000	99.248465 
3566.000000	99.248678 
3565.000000	99.249713 
3564.000000	99.250851 
3563.000000	99.251327 
3562.000000	99.251200 
3561.000000	99.251043 
3560.000000	99.251216 
3559.000000	99.251602 
3558.000000	99.251855 
3557.000000	99.251801 
3556.000000	99.251613 
3555.000000	99.251547 
3554.000000	99.251643 
3553.000000	99.251719 
3552.000000	99.251638 
3551.000000	99.251433 
3550.000000	99.251201 
3549.000000	99.251036 
3548.000000	99.251076 
3547.000000	99.251369 
3546.000000	99.251789 
3545.000000	99.252169 
3544.000000	99.252426 
3543.000000	99.252569 
3542.000000	99.252624 
3541.000000	99.252644 
3540.000000	99.252692 
3539.000000	99.252798 
3538.000000	99.252943 
3537.000000	99.253090 
3536.000000	99.253212 
3535.000000	99.253311 
3534.000000	99.253396 
3533.000000	99.253473 
3532.000000	99.253544 
3531.000000	99.253609 
3530.000000	99.253671 
3529.000000	99.253730 
3528.000000	99.253781 
3527.000000	99.253825 
3526.000000	99.253857 
3525.000000	99.253876 
3524.000000	99.253882 
3523.000000	99.253878 
3522.000000	99.253867 
3521.000000	99.253851 
3520.000000	99.253829 
3519.000000	99.253802 
3518.000000	99.253768 
3517.000000	99.253731 
3516.000000	99.253692 
3515.000000	99.253652 
3514.000000	99.253611 
3513.000000	99.253567 
3512.000000	99.253518 
3511.000000	99.253461 
3510.000000	99.253395 
3509.000000	99.253322 
3508.000000	99.253243 
3507.000000	99.253156 
3506.000000	99.253058 
3505.000000	99.252948 
3504.000000	99.252827 
3503.000000	99.252699 
3502.000000	99.252570 
3501.000000	99.252440 
3500.000000	99.252304 
3499.000000	99.252156 
3498.000000	99.251993 
3497.000000	99.251813 
3496.000000	99.251623 
3495.000000	99.251423 
3494.000000	99.251219 
3493.000000	99.251010 
3492.000000	99.250799 
3491.000000	99.250589 
3490.000000	99.250382 
3489.000000	99.250180 
3488.000000	99.249981 
3487.000000	99.249784 
3486.000000	99.249589 
3485.000000	99.249394 
3484.000000	99.249200 
3483.000000	99.249007 
3482.000000	99.248818 
3481.000000	99.248625 
3480.000000	99.248417 
3479.000000	99.248190 
3478.000000	99.247956 
3477.000000	99.247741 
3476.000000	99.247553 
3475.000000	99.247365 
3474.000000	99.247144 
3473.000000	99.246903 
3472.000000	99.246698 
3471.000000	99.246568 
3470.000000	99.246496 
3469.000000	99.246425 
3468.000000	99.246316 
3467.000000	99.246167 
3466.000000	99.245990 
3465.000000	99.245786 
3464.000000	99.245538 
3463.000000	99.245215 
3462.000000	99.244795 
3461.000000	99.244307 
3460.000000	99.243844 
3459.000000	99.243524 
3458.000000	99.243407 
3457.000000	99.243453 
3456.000000	99.243519 
3455.000000	99.243447 
3454.000000	99.243205 
3453.000000	99.242930 
3452.000000	99.242812 
3451.000000	99.242906 
3450.000000	99.243105 
3449.000000	99.243258 
3448.000000	99.243283 
3447.000000	99.243191 
3446.000000	99.243021 
3445.000000	99.242828 
3444.000000	99.242671 
3443.000000	99.242581 
3442.000000	99.242531 
3441.000000	99.242463 
3440.000000	99.242354 
3439.000000	99.242237 
3438.000000	99.242148 
3437.000000	99.242082 
3436.000000	99.242014 
3435.000000	99.241951 
3434.000000	99.241932 
3433.000000	99.241986 
3432.000000	99.242102 
3431.000000	99.242217 
3430.000000	99.242252 
3429.000000	99.242169 
3428.000000	99.241992 
3427.000000	99.241797 
3426.000000	99.241652 
3425.000000	99.241588 
3424.000000	99.241606 
3423.000000	99.241681 
3422.000000	99.241771 
3421.000000	99.241835 
3420.000000	99.241851 
3419.000000	99.241831 
3418.000000	99.241818 
3417.000000	99.241858 
3416.000000	99.241949 
3415.000000	99.242005 
3414.000000	99.241898 
3413.000000	99.241572 
3412.000000	99.241147 
3411.000000	99.240872 
3410.000000	99.240925 
3409.000000	99.241282 
3408.000000	99.241739 
3407.000000	99.242045 
3406.000000	99.242036 
3405.000000	99.241684 
3404.000000	99.241133 
3403.000000	99.240677 
3402.000000	99.240633 
3401.000000	99.241157 
3400.000000	99.242082 
3399.000000	99.242956 
3398.000000	99.243389 
3397.000000	99.243392 
3396.000000	99.243319 
3395.000000	99.243429 
3394.000000	99.243674 
3393.000000	99.243990 
3392.000000	99.244514 
3391.000000	99.245274 
3390.000000	99.245828 
3389.000000	99.245578 
3388.000000	99.244395 
3387.000000	99.242745 
3386.000000	99.241235 
3385.000000	99.240138 
3384.000000	99.239399 
3383.000000	99.238880 
3382.000000	99.238492 
3381.000000	99.238203 
3380.000000	99.237983 
3379.000000	99.237770 
3378.000000	99.237577 
3377.000000	99.237693 
3376.000000	99.238555 
3375.000000	99.240277 
3374.000000	99.242426 
3373.000000	99.244391 
3372.000000	99.245811 
3371.000000	99.246521 
3370.000000	99.246369 
3369.000000	99.245408 
3368.000000	99.244121 
3367.000000	99.243066 
3366.000000	99.242247 
3365.000000	99.241200 
3364.000000	99.239782 
3363.000000	99.238551 
3362.000000	99.238215 
3361.000000	99.238866 
3360.000000	99.239907 
3359.000000	99.240616 
3358.000000	99.240781 
3357.000000	99.240834 
3356.000000	99.241327 
3355.000000	99.242227 
3354.000000	99.242881 
3353.000000	99.242842 
3352.000000	99.242516 
3351.000000	99.242751 
3350.000000	99.243883 
3349.000000	99.245455 
3348.000000	99.246814 
3347.000000	99.247681 
3346.000000	99.248031 
3345.000000	99.247823 
3344.000000	99.247067 
3343.000000	99.246007 
3342.000000	99.244999 
3341.000000	99.244284 
3340.000000	99.243960 
3339.000000	99.244059 
3338.000000	99.244450 
3337.000000	99.244770 
3336.000000	99.244669 
3335.000000	99.244153 
3334.000000	99.243592 
3333.000000	99.243379 
3332.000000	99.243596 
3331.000000	99.244013 
3330.000000	99.244321 
3329.000000	99.244405 
3328.000000	99.244429 
3327.000000	99.244645 
3326.000000	99.245117 
3325.000000	99.245641 
3324.000000	99.245989 
3323.000000	99.246171 
3322.000000	99.246379 
3321.000000	99.246655 
3320.000000	99.246753 
3319.000000	99.246410 
3318.000000	99.245705 
3317.000000	99.245093 
3316.000000	99.245027 
3315.000000	99.245579 
3314.000000	99.246378 
3313.000000	99.246910 
3312.000000	99.246964 
3311.000000	99.246729 
3310.000000	99.246527 
3309.000000	99.246470 
3308.000000	99.246432 
3307.000000	99.246324 
3306.000000	99.246233 
3305.000000	99.246193 
3304.000000	99.245973 
3303.000000	99.245304 
3302.000000	99.244300 
3301.000000	99.243478 
3300.000000	99.243248 
3299.000000	99.243555 
3298.000000	99.244075 
3297.000000	99.244611 
3296.000000	99.245198 
3295.000000	99.245957 
3294.000000	99.247003 
3293.000000	99.248377 
3292.000000	99.249840 
3291.000000	99.250855 
3290.000000	99.250970 
3289.000000	99.250222 
3288.000000	99.249031 
3287.000000	99.247766 
3286.000000	99.246585 
3285.000000	99.245620 
3284.000000	99.245039 
3283.000000	99.244842 
3282.000000	99.244835 
3281.000000	99.244842 
3280.000000	99.244791 
3279.000000	99.244584 
3278.000000	99.244113 
3277.000000	99.243491 
3276.000000	99.243075 
3275.000000	99.243110 
3274.000000	99.243439 
3273.000000	99.243611 
3272.000000	99.243237 
3271.000000	99.242227 
3270.000000	99.240846 
3269.000000	99.239630 
3268.000000	99.239121 
3267.000000	99.239578 
3266.000000	99.240832 
3265.000000	99.242394 
3264.000000	99.243738 
3263.000000	99.244579 
3262.000000	99.244975 
3261.000000	99.245163 
3260.000000	99.245231 
3259.000000	99.245012 
3258.000000	99.244386 
3257.000000	99.243576 
3256.000000	99.243019 
3255.000000	99.242938 
3254.000000	99.243196 
3253.000000	99.243532 
3252.000000	99.243807 
3251.000000	99.243984 
3250.000000	99.244030 
3249.000000	99.243945 
3248.000000	99.243817 
3247.000000	99.243726 
3246.000000	99.243649 
3245.000000	99.243522 
3244.000000	99.243383 
3243.000000	99.243416 
3242.000000	99.243816 
3241.000000	99.244641 
3240.000000	99.245707 
3239.000000	99.246584 
3238.000000	99.246883 
3237.000000	99.246581 
3236.000000	99.246093 
3235.000000	99.245904 
3234.000000	99.246110 
3233.000000	99.246467 
3232.000000	99.246771 
3231.000000	99.247076 
3230.000000	99.247490 
3229.000000	99.247906 
3228.000000	99.248065 
3227.000000	99.247823 
3226.000000	99.247284 
3225.000000	99.246741 
3224.000000	99.246492 
3223.000000	99.246666 
3222.000000	99.247166 
3221.000000	99.247762 
3220.000000	99.248274 
3219.000000	99.248653 
3218.000000	99.248885 
3217.000000	99.248940 
3216.000000	99.248851 
3215.000000	99.248808 
3214.000000	99.249043 
3213.000000	99.249635 
3212.000000	99.250462 
3211.000000	99.251317 
3210.000000	99.252063 
3209.000000	99.252641 
3208.000000	99.253022 
3207.000000	99.253184 
3206.000000	99.253159 
3205.000000	99.253100 
3204.000000	99.253268 
3203.000000	99.253852 
3202.000000	99.254809 
3201.000000	99.255871 
3200.000000	99.256732 
3199.000000	99.257185 
3198.000000	99.257164 
3197.000000	99.256803 
3196.000000	99.256483 
3195.000000	99.256639 
3194.000000	99.257334 
3193.000000	99.258106 
3192.000000	99.258434 
3191.000000	99.258351 
3190.000000	99.258428 
3189.000000	99.259089 
3188.000000	99.260137 
3187.000000	99.261015 
3186.000000	99.261416 
3185.000000	99.261433 
3184.000000	99.261237 
3183.000000	99.260824 
3182.000000	99.260171 
3181.000000	99.259484 
3180.000000	99.259140 
3179.000000	99.259363 
3178.000000	99.260018 
3177.000000	99.260694 
3176.000000	99.261031 
3175.000000	99.261038 
3174.000000	99.261104 
3173.000000	99.261654 
3172.000000	99.262739 
3171.000000	99.263918 
3170.000000	99.264593 
3169.000000	99.264556 
3168.000000	99.264173 
3167.000000	99.264066 
3166.000000	99.264544 
3165.000000	99.265396 
3164.000000	99.266181 
3163.000000	99.266691 
3162.000000	99.267095 
3161.000000	99.267689 
3160.000000	99.268563 
3159.000000	99.269491 
3158.000000	99.270116 
3157.000000	99.270242 
3156.000000	99.269963 
3155.000000	99.269566 
3154.000000	99.269292 
3153.000000	99.269223 
3152.000000	99.269333 
3151.000000	99.269527 
3150.000000	99.269638 
3149.000000	99.269529 
3148.000000	99.269301 
3147.000000	99.269295 
3146.000000	99.269764 
3145.000000	99.270554 
3144.000000	99.271200 
3143.000000	99.271386 
3142.000000	99.271223 
3141.000000	99.271077 
3140.000000	99.271171 
3139.000000	99.271396 
3138.000000	99.271515 
3137.000000	99.271464 
3136.000000	99.271395 
3135.000000	99.271454 
3134.000000	99.271610 
3133.000000	99.271719 
3132.000000	99.271706 
3131.000000	99.271618 
3130.000000	99.271508 
3129.000000	99.271346 
3128.000000	99.271096 
3127.000000	99.270838 
3126.000000	99.270727 
3125.000000	99.270816 
3124.000000	99.271022 
3123.000000	99.271213 
3122.000000	99.271319 
3121.000000	99.271364 
3120.000000	99.271436 
3119.000000	99.271605 
3118.000000	99.271849 
3117.000000	99.272035 
3116.000000	99.272054 
3115.000000	99.271935 
3114.000000	99.271828 
3113.000000	99.271831 
3112.000000	99.271908 
3111.000000	99.271972 
3110.000000	99.272024 
3109.000000	99.272139 
3108.000000	99.272345 
3107.000000	99.272565 
3106.000000	99.272717 
3105.000000	99.272812 
3104.000000	99.272933 
3103.000000	99.273152 
3102.000000	99.273491 
3101.000000	99.273922 
3100.000000	99.274352 
3099.000000	99.274640 
3098.000000	99.274684 
3097.000000	99.274506 
3096.000000	99.274288 
3095.000000	99.274264 
3094.000000	99.274567 
3093.000000	99.275152 
3092.000000	99.275801 
3091.000000	99.276255 
3090.000000	99.276347 
3089.000000	99.276089 
3088.000000	99.275758 
3087.000000	99.275837 
3086.000000	99.276648 
3085.000000	99.277979 
3084.000000	99.279210 
3083.000000	99.279860 
3082.000000	99.279932 
3081.000000	99.279744 
3080.000000	99.279595 
3079.000000	99.279584 
3078.000000	99.279430 
3077.000000	99.278410 
3076.000000	99.275924 
3075.000000	99.272520 
3074.000000	99.270045 
3073.000000	99.270241 
3072.000000	99.273230 
3071.000000	99.277561 
3070.000000	99.281507 
3069.000000	99.283792 
3068.000000	99.283380 
3067.000000	99.279718 
3066.000000	99.273756 
3065.000000	99.268033 
3064.000000	99.264848 
3063.000000	99.264440 
3062.000000	99.265418 
3061.000000	99.266615 
3060.000000	99.267872 
3059.000000	99.269206 
3058.000000	99.270139 
3057.000000	99.270271 
3056.000000	99.269985 
3055.000000	99.270112 
3054.000000	99.271003 
3053.000000	99.272170 
3052.000000	99.272697 
3051.000000	99.271917 
3050.000000	99.269838 
3049.000000	99.267062 
3048.000000	99.264045 
3047.000000	99.260420 
3046.000000	99.255459 
3045.000000	99.249393 
3044.000000	99.243784 
3043.000000	99.240105 
3042.000000	99.238187 
3041.000000	99.236459 
3040.000000	99.233615 
3039.000000	99.229677 
3038.000000	99.225554 
3037.000000	99.221958 
3036.000000	99.218771 
3035.000000	99.215152 
3034.000000	99.210303 
3033.000000	99.204234 
3032.000000	99.197667 
3031.000000	99.191083 
3030.000000	99.183789 
3029.000000	99.174347 
3028.000000	99.162311 
3027.000000	99.149302 
3026.000000	99.137922 
3025.000000	99.129501 
3024.000000	99.123007 
3023.000000	99.115999 
3022.000000	99.106400 
3021.000000	99.093596 
3020.000000	99.078601 
3019.000000	99.063574 
3018.000000	99.050809 
3017.000000	99.041354 
3016.000000	99.034100 
3015.000000	99.026353 
3014.000000	99.015657 
3013.000000	99.001228 
3012.000000	98.983765 
3011.000000	98.964269 
3010.000000	98.943568 
3009.000000	98.922931 
3008.000000	98.904358 
3007.000000	98.889596 
3006.000000	98.878770 
3005.000000	98.870102 
3004.000000	98.860802 
3003.000000	98.848296 
3002.000000	98.831449 
3001.000000	98.811674 
3000.000000	98.792699 
2999.000000	98.778005 
2998.000000	98.768016 
2997.000000	98.760429 
2996.000000	98.753311 
2995.000000	98.746382 
2994.000000	98.738215 
2993.000000	98.724030 
2992.000000	98.699406 
2991.000000	98.666870 
2990.000000	98.636544 
2989.000000	98.618200 
2988.000000	98.613576 
2987.000000	98.617149 
2986.000000	98.622960 
2985.000000	98.629152 
2984.000000	98.636151 
2983.000000	98.643149 
2982.000000	98.648069 
2981.000000	98.649876 
2980.000000	98.649365 
2979.000000	98.647685 
2978.000000	98.645167 
2977.000000	98.641792 
2976.000000	98.638090 
2975.000000	98.635071 
2974.000000	98.633451 
2973.000000	98.633212 
2972.000000	98.633942 
2971.000000	98.635550 
2970.000000	98.638687 
2969.000000	98.644440 
2968.000000	98.653519 
2967.000000	98.665555 
2966.000000	98.679061 
2965.000000	98.692143 
2964.000000	98.703595 
2963.000000	98.713599 
2962.000000	98.723240 
2961.000000	98.733088 
2960.000000	98.742404 
2959.000000	98.750146 
2958.000000	98.756645 
2957.000000	98.763556 
2956.000000	98.771789 
2955.000000	98.780023 
2954.000000	98.786039 
2953.000000	98.789679 
2952.000000	98.793949 
2951.000000	98.802599 
2950.000000	98.816281 
2949.000000	98.831189 
2948.000000	98.841954 
2947.000000	98.846076 
2946.000000	98.845597 
2945.000000	98.844772 
2944.000000	98.846265 
2943.000000	98.849868 
2942.000000	98.854178 
2941.000000	98.858176 
2940.000000	98.861101 
2939.000000	98.862171 
2938.000000	98.861374 
2937.000000	98.860147 
2936.000000	98.860576 
2935.000000	98.863844 
2934.000000	98.869484 
2933.000000	98.875706 
2932.000000	98.880199 
2931.000000	98.881190 
2930.000000	98.878479 
2929.000000	98.873548 
2928.000000	98.868399 
2927.000000	98.864368 
2926.000000	98.861992 
2925.000000	98.861230 
2924.000000	98.861270 
2923.000000	98.860737 
2922.000000	98.858911 
2921.000000	98.856449 
2920.000000	98.854154 
2919.000000	98.851427 
2918.000000	98.846842 
2917.000000	98.840128 
2916.000000	98.832617 
2915.000000	98.825728 
2914.000000	98.819979 
2913.000000	98.815680 
2912.000000	98.813400 
2911.000000	98.812990 
2910.000000	98.812864 
2909.000000	98.811171 
2908.000000	98.807467 
2907.000000	98.802519 
2906.000000	98.796595 
2905.000000	98.788696 
2904.000000	98.777906 
2903.000000	98.765432 
2902.000000	98.755193 
2901.000000	98.751906 
2900.000000	98.758010 
2899.000000	98.771722 
2898.000000	98.787715 
2897.000000	98.800530 
2896.000000	98.808032 
2895.000000	98.811968 
2894.000000	98.815550 
2893.000000	98.820558 
2892.000000	98.826409 
2891.000000	98.831438 
2890.000000	98.834800 
2889.000000	98.837160 
2888.000000	98.839724 
2887.000000	98.842889 
2886.000000	98.846127 
2885.000000	98.849102 
2884.000000	98.852515 
2883.000000	98.857609 
2882.000000	98.865038 
2881.000000	98.874534 
2880.000000	98.885607 
2879.000000	98.898237 
2878.000000	98.912586 
2877.000000	98.927936 
2876.000000	98.942099 
2875.000000	98.952325 
2874.000000	98.957262 
2873.000000	98.958230 
2872.000000	98.958480 
2871.000000	98.961021 
2870.000000	98.967068 
2869.000000	98.976170 
2868.000000	98.987273 
2867.000000	98.999482 
2866.000000	99.012289 
2865.000000	99.025460 
2864.000000	99.038608 
2863.000000	99.050696 
2862.000000	99.060338 
2861.000000	99.067170 
2860.000000	99.072898 
2859.000000	99.080339 
2858.000000	99.090855 
2857.000000	99.102913 
2856.000000	99.113579 
2855.000000	99.121428 
2854.000000	99.127593 
2853.000000	99.133902 
2852.000000	99.140447 
2851.000000	99.145686 
2850.000000	99.148960 
2849.000000	99.151945 
2848.000000	99.156952 
2847.000000	99.164203 
2846.000000	99.171576 
2845.000000	99.176915 
2844.000000	99.179859 
2843.000000	99.181523 
2842.000000	99.183301 
2841.000000	99.186235 
2840.000000	99.190701 
2839.000000	99.195902 
2838.000000	99.200030 
2837.000000	99.201614 
2836.000000	99.200821 
2835.000000	99.199326 
2834.000000	99.199061 
2833.000000	99.201151 
2832.000000	99.205512 
2831.000000	99.210952 
2830.000000	99.215919 
2829.000000	99.219735 
2828.000000	99.223075 
2827.000000	99.226874 
2826.000000	99.230902 
2825.000000	99.233902 
2824.000000	99.235152 
2823.000000	99.235443 
2822.000000	99.236342 
2821.000000	99.238752 
2820.000000	99.242303 
2819.000000	99.245910 
2818.000000	99.248713 
2817.000000	99.250486 
2816.000000	99.251343 
2815.000000	99.251355 
2814.000000	99.250702 
2813.000000	99.249987 
2812.000000	99.249867 
2811.000000	99.250216 
2810.000000	99.250144 
2809.000000	99.249201 
2808.000000	99.248146 
2807.000000	99.248070 
2806.000000	99.249044 
2805.000000	99.250153 
2804.000000	99.250760 
2803.000000	99.251204 
2802.000000	99.252223 
2801.000000	99.254077 
2800.000000	99.256364 
2799.000000	99.258408 
2798.000000	99.259735 
2797.000000	99.260326 
2796.000000	99.260487 
2795.000000	99.260479 
2794.000000	99.260360 
2793.000000	99.260193 
2792.000000	99.260196 
2791.000000	99.260538 
2790.000000	99.261194 
2789.000000	99.262178 
2788.000000	99.263658 
2787.000000	99.265589 
2786.000000	99.267482 
2785.000000	99.268866 
2784.000000	99.269810 
2783.000000	99.270616 
2782.000000	99.271170 
2781.000000	99.271069 
2780.000000	99.270389 
2779.000000	99.269874 
2778.000000	99.270158 
2777.000000	99.271093 
2776.000000	99.272014 
2775.000000	99.272443 
2774.000000	99.272366 
2773.000000	99.272034 
2772.000000	99.271773 
2771.000000	99.271906 
2770.000000	99.272637 
2769.000000	99.273942 
2768.000000	99.275637 
2767.000000	99.277473 
2766.000000	99.279067 
2765.000000	99.279921 
2764.000000	99.279819 
2763.000000	99.279203 
2762.000000	99.278906 
2761.000000	99.279388 
2760.000000	99.280495 
2759.000000	99.281927 
2758.000000	99.283542 
2757.000000	99.285081 
2756.000000	99.286033 
2755.000000	99.286126 
2754.000000	99.285687 
2753.000000	99.285255 
2752.000000	99.284958 
2751.000000	99.284599 
2750.000000	99.284190 
2749.000000	99.283950 
2748.000000	99.283839 
2747.000000	99.283503 
2746.000000	99.282779 
2745.000000	99.281988 
2744.000000	99.281587 
2743.000000	99.281772 
2742.000000	99.282541 
2741.000000	99.283857 
2740.000000	99.285553 
2739.000000	99.287240 
2738.000000	99.288543 
2737.000000	99.289393 
2736.000000	99.289971 
2735.000000	99.290419 
2734.000000	99.290725 
2733.000000	99.290863 
2732.000000	99.290901 
2731.000000	99.290964 
2730.000000	99.291138 
2729.000000	99.291454 
2728.000000	99.291904 
2727.000000	99.292460 
2726.000000	99.293074 
2725.000000	99.293706 
2724.000000	99.294358 
2723.000000	99.295078 
2722.000000	99.295882 
2721.000000	99.296646 
2720.000000	99.297129 
2719.000000	99.297167 
2718.000000	99.296843 
2717.000000	99.296446 
2716.000000	99.296284 
2715.000000	99.296566 
2714.000000	99.297360 
2713.000000	99.298516 
2712.000000	99.299623 
2711.000000	99.300262 
2710.000000	99.300388 
2709.000000	99.300354 
2708.000000	99.300527 
2707.000000	99.300856 
2706.000000	99.301010 
2705.000000	99.300836 
2704.000000	99.300533 
2703.000000	99.300409 
2702.000000	99.300561 
2701.000000	99.300845 
2700.000000	99.301071 
2699.000000	99.301164 
2698.000000	99.301188 
2697.000000	99.301224 
2696.000000	99.301280 
2695.000000	99.301344 
2694.000000	99.301487 
2693.000000	99.301793 
2692.000000	99.302178 
2691.000000	99.302400 
2690.000000	99.302325 
2689.000000	99.302131 
2688.000000	99.302174 
2687.000000	99.302610 
2686.000000	99.303228 
2685.000000	99.303656 
2684.000000	99.303725 
2683.000000	99.303553 
2682.000000	99.303368 
2681.000000	99.303325 
2680.000000	99.303446 
2679.000000	99.303615 
2678.000000	99.303650 
2677.000000	99.303462 
2676.000000	99.303158 
2675.000000	99.302946 
2674.000000	99.302929 
2673.000000	99.303027 
2672.000000	99.303068 
2671.000000	99.302925 
2670.000000	99.302568 
2669.000000	99.302003 
2668.000000	99.301240 
2667.000000	99.300376 
2666.000000	99.299719 
2665.000000	99.299668 
2664.000000	99.300365 
2663.000000	99.301506 
2662.000000	99.302578 
2661.000000	99.303313 
2660.000000	99.303741 
2659.000000	99.303864 
2658.000000	99.303539 
2657.000000	99.302785 
2656.000000	99.302015 
2655.000000	99.301704 
2654.000000	99.301881 
2653.000000	99.302100 
2652.000000	99.301885 
2651.000000	99.301177 
2650.000000	99.300355 
2649.000000	99.299858 
2648.000000	99.299760 
2647.000000	99.299785 
2646.000000	99.299764 
2645.000000	99.299922 
2644.000000	99.300511 
2643.000000	99.301341 
2642.000000	99.301933 
2641.000000	99.302102 
2640.000000	99.302137 
2639.000000	99.302375 
2638.000000	99.302792 
2637.000000	99.303113 
2636.000000	99.303169 
2635.000000	99.303008 
2634.000000	99.302760 
2633.000000	99.302563 
2632.000000	99.302520 
2631.000000	99.302637 
2630.000000	99.302813 
2629.000000	99.302938 
2628.000000	99.302984 
2627.000000	99.302993 
2626.000000	99.303016 
2625.000000	99.303092 
2624.000000	99.303229 
2623.000000	99.303394 
2622.000000	99.303523 
2621.000000	99.303579 
2620.000000	99.303581 
2619.000000	99.303566 
2618.000000	99.303527 
2617.000000	99.303430 
2616.000000	99.303289 
2615.000000	99.303211 
2614.000000	99.303291 
2613.000000	99.303496 
2612.000000	99.303666 
2611.000000	99.303680 
2610.000000	99.303550 
2609.000000	99.303375 
2608.000000	99.303232 
2607.000000	99.303136 
2606.000000	99.303076 
2605.000000	99.303050 
2604.000000	99.303032 
2603.000000	99.302945 
2602.000000	99.302691 
2601.000000	99.302266 
2600.000000	99.301813 
2599.000000	99.301490 
2598.000000	99.301294 
2597.000000	99.301094 
2596.000000	99.300809 
2595.000000	99.300431 
2594.000000	99.299916 
2593.000000	99.299225 
2592.000000	99.298550 
2591.000000	99.298275 
2590.000000	99.298594 
2589.000000	99.299269 
2588.000000	99.299804 
2587.000000	99.299920 
2586.000000	99.299637 
2585.000000	99.299029 
2584.000000	99.298123 
2583.000000	99.297044 
2582.000000	99.296081 
2581.000000	99.295471 
2580.000000	99.295194 
2579.000000	99.295016 
2578.000000	99.294711 
2577.000000	99.294292 
2576.000000	99.294023 
2575.000000	99.294154 
2574.000000	99.294656 
2573.000000	99.295218 
2572.000000	99.295500 
2571.000000	99.295382 
2570.000000	99.294957 
2569.000000	99.294392 
2568.000000	99.293856 
2567.000000	99.293517 
2566.000000	99.293471 
2565.000000	99.293658 
2564.000000	99.293916 
2563.000000	99.294129 
2562.000000	99.294260 
2561.000000	99.294299 
2560.000000	99.294282 
2559.000000	99.294347 
2558.000000	99.294612 
2557.000000	99.294961 
2556.000000	99.295090 
2555.000000	99.294938 
2554.000000	99.294909 
2553.000000	99.295433 
2552.000000	99.296356 
2551.000000	99.296998 
2550.000000	99.296965 
2549.000000	99.296648 
2548.000000	99.296703 
2547.000000	99.297146 
2546.000000	99.297349 
2545.000000	99.296959 
2544.000000	99.296424 
2543.000000	99.296445 
2542.000000	99.297170 
2541.000000	99.298179 
2540.000000	99.299095 
2539.000000	99.299876 
2538.000000	99.300400 
2537.000000	99.300184 
2536.000000	99.298822 
2535.000000	99.296608 
2534.000000	99.294531 
2533.000000	99.293517 
2532.000000	99.293796 
2531.000000	99.294945 
2530.000000	99.296412 
2529.000000	99.297894 
2528.000000	99.299217 
2527.000000	99.300159 
2526.000000	99.300571 
2525.000000	99.300690 
2524.000000	99.301112 
2523.000000	99.302208 
2522.000000	99.303626 
2521.000000	99.304614 
2520.000000	99.304830 
2519.000000	99.304596 
2518.000000	99.304308 
2517.000000	99.303872 
2516.000000	99.302935 
2515.000000	99.301510 
2514.000000	99.300113 
2513.000000	99.299266 
2512.000000	99.298986 
2511.000000	99.298811 
2510.000000	99.298340 
2509.000000	99.297755 
2508.000000	99.297670 
2507.000000	99.298351 
2506.000000	99.299215 
2505.000000	99.299343 
2504.000000	99.298467 
2503.000000	99.297184 
2502.000000	99.296271 
2501.000000	99.295955 
2500.000000	99.296057 
2499.000000	99.296474 
2498.000000	99.297249 
2497.000000	99.298236 
2496.000000	99.298993 
2495.000000	99.299124 
2494.000000	99.298550 
2493.000000	99.297475 
2492.000000	99.296245 
2491.000000	99.295221 
2490.000000	99.294638 
2489.000000	99.294485 
2488.000000	99.294526 
2487.000000	99.294459 
2486.000000	99.294141 
2485.000000	99.293674 
2484.000000	99.293283 
2483.000000	99.293105 
2482.000000	99.293085 
2481.000000	99.293053 
2480.000000	99.292896 
2479.000000	99.292646 
2478.000000	99.292404 
2477.000000	99.292223 
2476.000000	99.292081 
2475.000000	99.291940 
2474.000000	99.291806 
2473.000000	99.291721 
2472.000000	99.291710 
2471.000000	99.291745 
2470.000000	99.291757 
2469.000000	99.291675 
2468.000000	99.291462 
2467.000000	99.291115 
2466.000000	99.290672 
2465.000000	99.290218 
2464.000000	99.289868 
2463.000000	99.289693 
2462.000000	99.289652 
2461.000000	99.289587 
2460.000000	99.289360 
2459.000000	99.288996 
2458.000000	99.288682 
2457.000000	99.288579 
2456.000000	99.288653 
2455.000000	99.288664 
2454.000000	99.288390 
2453.000000	99.287820 
2452.000000	99.287153 
2451.000000	99.286634 
2450.000000	99.286363 
2449.000000	99.286294 
2448.000000	99.286345 
2447.000000	99.286455 
2446.000000	99.286575 
2445.000000	99.286699 
2444.000000	99.286893 
2443.000000	99.287198 
2442.000000	99.287498 
2441.000000	99.287585 
2440.000000	99.287383 
2439.000000	99.287058 
2438.000000	99.286818 
2437.000000	99.286672 
2436.000000	99.286444 
2435.000000	99.285966 
2434.000000	99.285160 
2433.000000	99.284031 
2432.000000	99.282734 
2431.000000	99.281629 
2430.000000	99.281105 
2429.000000	99.281315 
2428.000000	99.282154 
2427.000000	99.283460 
2426.000000	99.284997 
2425.000000	99.286233 
2424.000000	99.286468 
2423.000000	99.285417 
2422.000000	99.283647 
2421.000000	99.282289 
2420.000000	99.282023 
2419.000000	99.282648 
2418.000000	99.283569 
2417.000000	99.284424 
2416.000000	99.285127 
2415.000000	99.285502 
2414.000000	99.285315 
2413.000000	99.284697 
2412.000000	99.284219 
2411.000000	99.284349 
2410.000000	99.285012 
2409.000000	99.285856 
2408.000000	99.286824 
2407.000000	99.288174 
2406.000000	99.289873 
2405.000000	99.291362 
2404.000000	99.292045 
2403.000000	99.291854 
2402.000000	99.291254 
2401.000000	99.290753 
2400.000000	99.290588 
2399.000000	99.290788 
2398.000000	99.291325 
2397.000000	99.292120 
2396.000000	99.293051 
2395.000000	99.294087 
2394.000000	99.295341 
2393.000000	99.296881 
2392.000000	99.298544 
2391.000000	99.300088 
2390.000000	99.301499 
2389.000000	99.302987 
2388.000000	99.304675 
2387.000000	99.306445 
2386.000000	99.308093 
2385.000000	99.309543 
2384.000000	99.310848 
2383.000000	99.312104 
2382.000000	99.313412 
2381.000000	99.314845 
2380.000000	99.316339 
2379.000000	99.317666 
2378.000000	99.318649 
2377.000000	99.319407 
2376.000000	99.320298 
2375.000000	99.321558 
2374.000000	99.323075 
2373.000000	99.324524 
2372.000000	99.325734 
2371.000000	99.326858 
2370.000000	99.328139 
2369.000000	99.329582 
2368.000000	99.330916 
2367.000000	99.331894 
2366.000000	99.332557 
2365.000000	99.333235 
2364.000000	99.334234 
2363.000000	99.335569 
2362.000000	99.336981 
2361.000000	99.338160 
2360.000000	99.338988 
2359.000000	99.339585 
2358.000000	99.340193 
2357.000000	99.341025 
2356.000000	99.342103 
2355.000000	99.343208 
2354.000000	99.344065 
2353.000000	99.344529 
2352.000000	99.344679 
2351.000000	99.344640 
2350.000000	99.344432 
2349.000000	99.344119 
2348.000000	99.343897 
2347.000000	99.344027 
2346.000000	99.344425 
2345.000000	99.344652 
2344.000000	99.344454 
2343.000000	99.344044 
2342.000000	99.343874 
2341.000000	99.344035 
2340.000000	99.344249 
2339.000000	99.344128 
2338.000000	99.343580 
2337.000000	99.342856 
2336.000000	99.342311 
2335.000000	99.342031 
2334.000000	99.341810 
2333.000000	99.341301 
2332.000000	99.340368 
2331.000000	99.339130 
2330.000000	99.337734 
2329.000000	99.336376 
2328.000000	99.335153 
2327.000000	99.334344 
2326.000000	99.333871 
2325.000000	99.333246 
2324.000000	99.331908 
2323.000000	99.329977 
2322.000000	99.328494 
2321.000000	99.328289 
2320.000000	99.329094 
2319.000000	99.329588 
2318.000000	99.328745 
2317.000000	99.326623 
2316.000000	99.324083 
2315.000000	99.321887 
2314.000000	99.320199 
2313.000000	99.318940 
2312.000000	99.318046 
2311.000000	99.317544 
2310.000000	99.317276 
2309.000000	99.316949 
2308.000000	99.316018 
2307.000000	99.313950 
2306.000000	99.310649 
2305.000000	99.306735 
2304.000000	99.303085 
2303.000000	99.300104 
2302.000000	99.297652 
2301.000000	99.295655 
2300.000000	99.294243 
2299.000000	99.293228 
2298.000000	99.291932 
2297.000000	99.290052 
2296.000000	99.288172 
2295.000000	99.287004 
2294.000000	99.286207 
2293.000000	99.284684 
2292.000000	99.281962 
2291.000000	99.278842 
2290.000000	99.276453 
2289.000000	99.275137 
2288.000000	99.274453 
2287.000000	99.273875 
2286.000000	99.273132 
2285.000000	99.272052 
2284.000000	99.270509 
2283.000000	99.268514 
2282.000000	99.266148 
2281.000000	99.263440 
2280.000000	99.260604 
2279.000000	99.258294 
2278.000000	99.257213 
2277.000000	99.257380 
2276.000000	99.258064 
2275.000000	99.258470 
2274.000000	99.258356 
2273.000000	99.257807 
2272.000000	99.256617 
2271.000000	99.254334 
2270.000000	99.251061 
2269.000000	99.247984 
2268.000000	99.246533 
2267.000000	99.247018 
2266.000000	99.248350 
2265.000000	99.249145 
2264.000000	99.248952 
2263.000000	99.248217 
2262.000000	99.247575 
2261.000000	99.247430 
2260.000000	99.247783 
2259.000000	99.247974 
2258.000000	99.246918 
2257.000000	99.244154 
2256.000000	99.240598 
2255.000000	99.237759 
2254.000000	99.236198 
2253.000000	99.235260 
2252.000000	99.234348 
2251.000000	99.233865 
2250.000000	99.234597 
2249.000000	99.236602 
2248.000000	99.238937 
2247.000000	99.240262 
2246.000000	99.239675 
2245.000000	99.237203 
2244.000000	99.233764 
2243.000000	99.230446 
2242.000000	99.227800 
2241.000000	99.226015 
2240.000000	99.225299 
2239.000000	99.225518 
2238.000000	99.225639 
2237.000000	99.224261 
2236.000000	99.220933 
2235.000000	99.216540 
2234.000000	99.212456 
2233.000000	99.209737 
2232.000000	99.208985 
2231.000000	99.210160 
2230.000000	99.212405 
2229.000000	99.214709 
2228.000000	99.216892 
2227.000000	99.219214 
2226.000000	99.220975 
2225.000000	99.220621 
2224.000000	99.217630 
2223.000000	99.213497 
2222.000000	99.210420 
2221.000000	99.209412 
2220.000000	99.210093 
2219.000000	99.211597 
2218.000000	99.213149 
2217.000000	99.214259 
2216.000000	99.215111 
2215.000000	99.216479 
2214.000000	99.218609 
2213.000000	99.220272 
2212.000000	99.219662 
2211.000000	99.216404 
2210.000000	99.212330 
2209.000000	99.210013 
2208.000000	99.210325 
2207.000000	99.211585 
2206.000000	99.211193 
2205.000000	99.208118 
2204.000000	99.203583 
2203.000000	99.199579 
2202.000000	99.197087 
2201.000000	99.195990 
2200.000000	99.195801 
2199.000000	99.195709 
2198.000000	99.194528 
2197.000000	99.191806 
2196.000000	99.188888 
2195.000000	99.187835 
2194.000000	99.189240 
2193.000000	99.191864 
2192.000000	99.194125 
2191.000000	99.195097 
2190.000000	99.194224 
2189.000000	99.191519 
2188.000000	99.188421 
2187.000000	99.187119 
2186.000000	99.188436 
2185.000000	99.191350 
2184.000000	99.194625 
2183.000000	99.197896 
2182.000000	99.200475 
2181.000000	99.200825 
2180.000000	99.198441 
2179.000000	99.195005 
2178.000000	99.192618 
2177.000000	99.191408 
2176.000000	99.189958 
2175.000000	99.187431 
2174.000000	99.184350 
2173.000000	99.181812 
2172.000000	99.180613 
2171.000000	99.180804 
2170.000000	99.181746 
2169.000000	99.182756 
2168.000000	99.183795 
2167.000000	99.185095 
2166.000000	99.186206 
2165.000000	99.186211 
2164.000000	99.185071 
2163.000000	99.183895 
2162.000000	99.183661 
2161.000000	99.184308 
2160.000000	99.185378 
2159.000000	99.186676 
2158.000000	99.187967 
2157.000000	99.188831 
2156.000000	99.189248 
2155.000000	99.189690 
2154.000000	99.190382 
2153.000000	99.191029 
2152.000000	99.191394 
2151.000000	99.191736 
2150.000000	99.192472 
2149.000000	99.193702 
2148.000000	99.195234 
2147.000000	99.196749 
2146.000000	99.197869 
2145.000000	99.198364 
2144.000000	99.198386 
2143.000000	99.198434 
2142.000000	99.198838 
2141.000000	99.199452 
2140.000000	99.199975 
2139.000000	99.200340 
2138.000000	99.200690 
2137.000000	99.201100 
2136.000000	99.201504 
2135.000000	99.201878 
2134.000000	99.202344 
2133.000000	99.203011 
2132.000000	99.203834 
2131.000000	99.204622 
2130.000000	99.205200 
2129.000000	99.205514 
2128.000000	99.205631 
2127.000000	99.205697 
2126.000000	99.205833 
2125.000000	99.206075 
2124.000000	99.206441 
2123.000000	99.207026 
2122.000000	99.207912 
2121.000000	99.208899 
2120.000000	99.209527 
2119.000000	99.209520 
2118.000000	99.209067 
2117.000000	99.208601 
2116.000000	99.208284 
2115.000000	99.208007 
2114.000000	99.207755 
2113.000000	99.207740 
2112.000000	99.208113 
2111.000000	99.208649 
2110.000000	99.208858 
2109.000000	99.208425 
2108.000000	99.207481 
2107.000000	99.206421 
2106.000000	99.205453 
2105.000000	99.204382 
2104.000000	99.202987 
2103.000000	99.201602 
2102.000000	99.201025 
2101.000000	99.201654 
2100.000000	99.202966 
2099.000000	99.203929 
2098.000000	99.204036 
2097.000000	99.203799 
2096.000000	99.204127 
2095.000000	99.205145 
2094.000000	99.205658 
2093.000000	99.204204 
2092.000000	99.200858 
2091.000000	99.197713 
2090.000000	99.196873 
2089.000000	99.198040 
2088.000000	99.198834 
2087.000000	99.197716 
2086.000000	99.195728 
2085.000000	99.194911 
2084.000000	99.195902 
2083.000000	99.197665 
2082.000000	99.198923 
2081.000000	99.199256 
2080.000000	99.199072 
2079.000000	99.199089 
2078.000000	99.199832 
2077.000000	99.201365 
2076.000000	99.203584 
2075.000000	99.206579 
2074.000000	99.210087 
2073.000000	99.212829 
2072.000000	99.213366 
2071.000000	99.211675 
2070.000000	99.209138 
2069.000000	99.206854 
2068.000000	99.204798 
2067.000000	99.202833 
2066.000000	99.201277 
2065.000000	99.199766 
2064.000000	99.197043 
2063.000000	99.193033 
2062.000000	99.189944 
2061.000000	99.190035 
2060.000000	99.192959 
2059.000000	99.196138 
2058.000000	99.197530 
2057.000000	99.197010 
2056.000000	99.195278 
2055.000000	99.192576 
2054.000000	99.188892 
2053.000000	99.184767 
2052.000000	99.181238 
2051.000000	99.179104 
2050.000000	99.178436 
2049.000000	99.178491 
2048.000000	99.178067 
2047.000000	99.176305 
2046.000000	99.173275 
2045.000000	99.169746 
2044.000000	99.166564 
2043.000000	99.164225 
2042.000000	99.162875 
2041.000000	99.162372 
2040.000000	99.162312 
2039.000000	99.162213 
2038.000000	99.161731 
2037.000000	99.160711 
2036.000000	99.159107 
2035.000000	99.156948 
2034.000000	99.154366 
2033.000000	99.151621 
2032.000000	99.149118 
2031.000000	99.147314 
2030.000000	99.146431 
2029.000000	99.146174 
2028.000000	99.145832 
2027.000000	99.144908 
2026.000000	99.143682 
2025.000000	99.143038 
2024.000000	99.143518 
2023.000000	99.144653 
2022.000000	99.145231 
2021.000000	99.144413 
2020.000000	99.142470 
2019.000000	99.140640 
2018.000000	99.140043 
2017.000000	99.140726 
2016.000000	99.141774 
2015.000000	99.142209 
2014.000000	99.141790 
2013.000000	99.140998 
2012.000000	99.140584 
2011.000000	99.141009 
2010.000000	99.142186 
2009.000000	99.143728 
2008.000000	99.145319 
2007.000000	99.146749 
2006.000000	99.147688 
2005.000000	99.147791 
2004.000000	99.147183 
2003.000000	99.146544 
2002.000000	99.146434 
2001.000000	99.146699 
2000.000000	99.146778 
1999.000000	99.146418 
1998.000000	99.145895 
1997.000000	99.145674 
1996.000000	99.146005 
1995.000000	99.146860 
1994.000000	99.148015 
1993.000000	99.149095 
1992.000000	99.149737 
1991.000000	99.149873 
1990.000000	99.149817 
1989.000000	99.150017 
1988.000000	99.150706 
1987.000000	99.151707 
1986.000000	99.152499 
1985.000000	99.152614 
1984.000000	99.152082 
1983.000000	99.151478 
1982.000000	99.151329 
1981.000000	99.151482 
1980.000000	99.151264 
1979.000000	99.150300 
1978.000000	99.149031 
1977.000000	99.148186 
1976.000000	99.147866 
1975.000000	99.147585 
1974.000000	99.147119 
1973.000000	99.147021 
1972.000000	99.148010 
1971.000000	99.150057 
1970.000000	99.152141 
1969.000000	99.153040 
1968.000000	99.152370 
1967.000000	99.150818 
1966.000000	99.149518 
1965.000000	99.148948 
1964.000000	99.148853 
1963.000000	99.148942 
1962.000000	99.149179 
1961.000000	99.149468 
1960.000000	99.149619 
1959.000000	99.149877 
1958.000000	99.150957 
1957.000000	99.153133 
1956.000000	99.155616 
1955.000000	99.157315 
1954.000000	99.158037 
1953.000000	99.158468 
1952.000000	99.158998 
1951.000000	99.159205 
1950.000000	99.158710 
1949.000000	99.157980 
1948.000000	99.157886 
1947.000000	99.158544 
1946.000000	99.158908 
1945.000000	99.157684 
1944.000000	99.154725 
1943.000000	99.151728 
1942.000000	99.151128 
1941.000000	99.153772 
1940.000000	99.157987 
1939.000000	99.161242 
1938.000000	99.162908 
1937.000000	99.164836 
1936.000000	99.168949 
1935.000000	99.174523 
1934.000000	99.178628 
1933.000000	99.179531 
1932.000000	99.178546 
1931.000000	99.178324 
1930.000000	99.179626 
1929.000000	99.180933 
1928.000000	99.181310 
1927.000000	99.181890 
1926.000000	99.184254 
1925.000000	99.188150 
1924.000000	99.191748 
1923.000000	99.193762 
1922.000000	99.194317 
1921.000000	99.194096 
1920.000000	99.193338 
1919.000000	99.191819 
1918.000000	99.189294 
1917.000000	99.186070 
1916.000000	99.183267 
1915.000000	99.182023 
1914.000000	99.182634 
1913.000000	99.184649 
1912.000000	99.187376 
1911.000000	99.190222 
1910.000000	99.192409 
1909.000000	99.193285 
1908.000000	99.193483 
1907.000000	99.194481 
1906.000000	99.196893 
1905.000000	99.199632 
1904.000000	99.201308 
1903.000000	99.201940 
1902.000000	99.202245 
1901.000000	99.202448 
1900.000000	99.202651 
1899.000000	99.203415 
1898.000000	99.205169 
1897.000000	99.207274 
1896.000000	99.208508 
1895.000000	99.208522 
1894.000000	99.208038 
1893.000000	99.207866 
1892.000000	99.208311 
1891.000000	99.209256 
1890.000000	99.210126 
1889.000000	99.210208 
1888.000000	99.209713 
1887.000000	99.209831 
1886.000000	99.211419 
1885.000000	99.214198 
1884.000000	99.217183 
1883.000000	99.219681 
1882.000000	99.221419 
1881.000000	99.222251 
1880.000000	99.222442 
1879.000000	99.222745 
1878.000000	99.223818 
1877.000000	99.225652 
1876.000000	99.227624 
1875.000000	99.229066 
1874.000000	99.229546 
1873.000000	99.228921 
1872.000000	99.227677 
1871.000000	99.226894 
1870.000000	99.227230 
1869.000000	99.228010 
1868.000000	99.228204 
1867.000000	99.228105 
1866.000000	99.228570 
1865.000000	99.229496 
1864.000000	99.230097 
1863.000000	99.230070 
1862.000000	99.229943 
1861.000000	99.230339 
1860.000000	99.231453 
1859.000000	99.233224 
1858.000000	99.235264 
1857.000000	99.236815 
1856.000000	99.237467 
1855.000000	99.237786 
1854.000000	99.238622 
1853.000000	99.239875 
1852.000000	99.240777 
1851.000000	99.240990 
1850.000000	99.241030 
1849.000000	99.241660 
1848.000000	99.242964 
1847.000000	99.244290 
1846.000000	99.244892 
1845.000000	99.244628 
1844.000000	99.244163 
1843.000000	99.244445 
1842.000000	99.245517 
1841.000000	99.246474 
1840.000000	99.246662 
1839.000000	99.246190 
1838.000000	99.245601 
1837.000000	99.245181 
1836.000000	99.244843 
1835.000000	99.244642 
1834.000000	99.244792 
1833.000000	99.245261 
1832.000000	99.245655 
1831.000000	99.245532 
1830.000000	99.245038 
1829.000000	99.245005 
1828.000000	99.245812 
1827.000000	99.246843 
1826.000000	99.247400 
1825.000000	99.247473 
1824.000000	99.247440 
1823.000000	99.247405 
1822.000000	99.247047 
1821.000000	99.246286 
1820.000000	99.245751 
1819.000000	99.246235 
1818.000000	99.247882 
1817.000000	99.249717 
1816.000000	99.250591 
1815.000000	99.250627 
1814.000000	99.250818 
1813.000000	99.251692 
1812.000000	99.252705 
1811.000000	99.253300 
1810.000000	99.253878 
1809.000000	99.254761 
1808.000000	99.255428 
1807.000000	99.255301 
1806.000000	99.254345 
1805.000000	99.252794 
1804.000000	99.250970 
1803.000000	99.249492 
1802.000000	99.248850 
1801.000000	99.248917 
1800.000000	99.249099 
1799.000000	99.249376 
1798.000000	99.250385 
1797.000000	99.252173 
1796.000000	99.254004 
1795.000000	99.255240 
1794.000000	99.255796 
1793.000000	99.255873 
1792.000000	99.255528 
1791.000000	99.255082 
1790.000000	99.254982 
1789.000000	99.255126 
1788.000000	99.255339 
1787.000000	99.255780 
1786.000000	99.256597 
1785.000000	99.257407 
1784.000000	99.257680 
1783.000000	99.257455 
1782.000000	99.256985 
1781.000000	99.256515 
1780.000000	99.256135 
1779.000000	99.255919 
1778.000000	99.256056 
1777.000000	99.256564 
1776.000000	99.257243 
1775.000000	99.257656 
1774.000000	99.257521 
1773.000000	99.257106 
1772.000000	99.256979 
1771.000000	99.257372 
1770.000000	99.258082 
1769.000000	99.258797 
1768.000000	99.259380 
1767.000000	99.259795 
1766.000000	99.260053 
1765.000000	99.260242 
1764.000000	99.260458 
1763.000000	99.260757 
1762.000000	99.261113 
1761.000000	99.261490 
1760.000000	99.261864 
1759.000000	99.262248 
1758.000000	99.262703 
1757.000000	99.263275 
1756.000000	99.263909 
1755.000000	99.264418 
1754.000000	99.264696 
1753.000000	99.264830 
1752.000000	99.265023 
1751.000000	99.265296 
1750.000000	99.265525 
1749.000000	99.265711 
1748.000000	99.265985 
1747.000000	99.266388 
1746.000000	99.266776 
1745.000000	99.267064 
1744.000000	99.267319 
1743.000000	99.267649 
1742.000000	99.268077 
1741.000000	99.268524 
1740.000000	99.268894 
1739.000000	99.269226 
1738.000000	99.269613 
1737.000000	99.269985 
1736.000000	99.270206 
1735.000000	99.270326 
1734.000000	99.270402 
1733.000000	99.270488 
1732.000000	99.270592 
1731.000000	99.270595 
1730.000000	99.270506 
1729.000000	99.270441 
1728.000000	99.270477 
1727.000000	99.270587 
1726.000000	99.270703 
1725.000000	99.270783 
1724.000000	99.270812 
1723.000000	99.270805 
1722.000000	99.270794 
1721.000000	99.270791 
1720.000000	99.270790 
1719.000000	99.270793 
1718.000000	99.270796 
1717.000000	99.270763 
1716.000000	99.270674 
1715.000000	99.270549 
1714.000000	99.270419 
1713.000000	99.270287 
1712.000000	99.270151 
1711.000000	99.270017 
1710.000000	99.269891 
1709.000000	99.269767 
1708.000000	99.269640 
1707.000000	99.269505 
1706.000000	99.269358 
1705.000000	99.269198 
1704.000000	99.269027 
1703.000000	99.268849 
1702.000000	99.268667 
1701.000000	99.268485 
1700.000000	99.268305 
1699.000000	99.268131 
1698.000000	99.267967 
1697.000000	99.267810 
1696.000000	99.267654 
1695.000000	99.267502 
1694.000000	99.267361 
1693.000000	99.267237 
1692.000000	99.267134 
1691.000000	99.267054 
1690.000000	99.266997 
1689.000000	99.266962 
1688.000000	99.266943 
1687.000000	99.266936 
1686.000000	99.266934 
1685.000000	99.266935 
1684.000000	99.266939 
1683.000000	99.266950 
1682.000000	99.266971 
1681.000000	99.267001 
1680.000000	99.267037 
1679.000000	99.267079 
1678.000000	99.267124 
1677.000000	99.267174 
1676.000000	99.267234 
1675.000000	99.267312 
1674.000000	99.267409 
1673.000000	99.267523 
1672.000000	99.267649 
1671.000000	99.267781 
1670.000000	99.267916 
1669.000000	99.268051 
1668.000000	99.268188 
1667.000000	99.268327 
1666.000000	99.268465 
1665.000000	99.268604 
1664.000000	99.268749 
1663.000000	99.268904 
1662.000000	99.269067 
1661.000000	99.269240 
1660.000000	99.269428 
1659.000000	99.269637 
1658.000000	99.269868 
1657.000000	99.270095 
1656.000000	99.270286 
1655.000000	99.270416 
1654.000000	99.270553 
1653.000000	99.270680 
1652.000000	99.270866 
1651.000000	99.271258 
1650.000000	99.271698 
1649.000000	99.272028 
1648.000000	99.272284 
1647.000000	99.272478 
1646.000000	99.272661 
1645.000000	99.272981 
1644.000000	99.273428 
1643.000000	99.273879 
1642.000000	99.274170 
1641.000000	99.274227 
1640.000000	99.274170 
1639.000000	99.274130 
1638.000000	99.274151 
1637.000000	99.274345 
1636.000000	99.274876 
1635.000000	99.275652 
1634.000000	99.276530 
1633.000000	99.277095 
1632.000000	99.276951 
1631.000000	99.276428 
1630.000000	99.276081 
1629.000000	99.276162 
1628.000000	99.276636 
1627.000000	99.277333 
1626.000000	99.277746 
1625.000000	99.277503 
1624.000000	99.276962 
1623.000000	99.276836 
1622.000000	99.277332 
1621.000000	99.278145 
1620.000000	99.279044 
1619.000000	99.279912 
1618.000000	99.280916 
1617.000000	99.282000 
1616.000000	99.283628 
1615.000000	99.286262 
1614.000000	99.288645 
1613.000000	99.289622 
1612.000000	99.289993 
1611.000000	99.291020 
1610.000000	99.292191 
1609.000000	99.292329 
1608.000000	99.291872 
1607.000000	99.292084 
1606.000000	99.292686 
1605.000000	99.292842 
1604.000000	99.292795 
1603.000000	99.293080 
1602.000000	99.293773 
1601.000000	99.294827 
1600.000000	99.296412 
1599.000000	99.298250 
1598.000000	99.299473 
1597.000000	99.299676 
1596.000000	99.299342 
1595.000000	99.299083 
1594.000000	99.298935 
1593.000000	99.298909 
1592.000000	99.299527 
1591.000000	99.301029 
1590.000000	99.302587 
1589.000000	99.303229 
1588.000000	99.303125 
1587.000000	99.303107 
1586.000000	99.303368 
1585.000000	99.303451 
1584.000000	99.303509 
1583.000000	99.303810 
1582.000000	99.304021 
1581.000000	99.303871 
1580.000000	99.303558 
1579.000000	99.303194 
1578.000000	99.302704 
1577.000000	99.302222 
1576.000000	99.301976 
1575.000000	99.302132 
1574.000000	99.302449 
1573.000000	99.302598 
1572.000000	99.302601 
1571.000000	99.302672 
1570.000000	99.302771 
1569.000000	99.302762 
1568.000000	99.302743 
1567.000000	99.302679 
1566.000000	99.302485 
1565.000000	99.302230 
1564.000000	99.302080 
1563.000000	99.302026 
1562.000000	99.301990 
1561.000000	99.301918 
1560.000000	99.301985 
1559.000000	99.302002 
1558.000000	99.301888 
1557.000000	99.301861 
1556.000000	99.301854 
1555.000000	99.301787 
1554.000000	99.301644 
1553.000000	99.301434 
1552.000000	99.301186 
1551.000000	99.300912 
1550.000000	99.300653 
1549.000000	99.300435 
1548.000000	99.300246 
1547.000000	99.300044 
1546.000000	99.299788 
1545.000000	99.299474 
1544.000000	99.299155 
1543.000000	99.298913 
1542.000000	99.298800 
1541.000000	99.298802 
1540.000000	99.298762 
1539.000000	99.298603 
1538.000000	99.298403 
1537.000000	99.298186 
1536.000000	99.297927 
1535.000000	99.297692 
1534.000000	99.297474 
1533.000000	99.297146 
1532.000000	99.296700 
1531.000000	99.296259 
1530.000000	99.295904 
1529.000000	99.295565 
1528.000000	99.295117 
1527.000000	99.294639 
1526.000000	99.294380 
1525.000000	99.294447 
1524.000000	99.294682 
1523.000000	99.294952 
1522.000000	99.295211 
1521.000000	99.295107 
1520.000000	99.294425 
1519.000000	99.293250 
1518.000000	99.291750 
1517.000000	99.290328 
1516.000000	99.289321 
1515.000000	99.288705 
1514.000000	99.288233 
1513.000000	99.287882 
1512.000000	99.287636 
1511.000000	99.287221 
1510.000000	99.286596 
1509.000000	99.286000 
1508.000000	99.286071 
1507.000000	99.286671 
1506.000000	99.287026 
1505.000000	99.286684 
1504.000000	99.285858 
1503.000000	99.285003 
1502.000000	99.284403 
1501.000000	99.283894 
1500.000000	99.282863 
1499.000000	99.280947 
1498.000000	99.278805 
1497.000000	99.277389 
1496.000000	99.276598 
1495.000000	99.276463 
1494.000000	99.277439 
1493.000000	99.279306 
1492.000000	99.281116 
1491.000000	99.281921 
1490.000000	99.281394 
1489.000000	99.279949 
1488.000000	99.277869 
1487.000000	99.275616 
1486.000000	99.273642 
1485.000000	99.271426 
1484.000000	99.268910 
1483.000000	99.266740 
1482.000000	99.265693 
1481.000000	99.265660 
1480.000000	99.265598 
1479.000000	99.264943 
1478.000000	99.264070 
1477.000000	99.263343 
1476.000000	99.262575 
1475.000000	99.262445 
1474.000000	99.264058 
1473.000000	99.266911 
1472.000000	99.268565 
1471.000000	99.268034 
1470.000000	99.266459 
1469.000000	99.264561 
1468.000000	99.262428 
1467.000000	99.260621 
1466.000000	99.259925 
1465.000000	99.260339 
1464.000000	99.261245 
1463.000000	99.261780 
1462.000000	99.261690 
1461.000000	99.260884 
1460.000000	99.259420 
1459.000000	99.256908 
1458.000000	99.252458 
1457.000000	99.244335 
1456.000000	99.234207 
1455.000000	99.226185 
1454.000000	99.221417 
1453.000000	99.220378 
1452.000000	99.223109 
1451.000000	99.227617 
1450.000000	99.231508 
1449.000000	99.233777 
1448.000000	99.234284 
1447.000000	99.234144 
1446.000000	99.234141 
1445.000000	99.234755 
1444.000000	99.235874 
1443.000000	99.236475 
1442.000000	99.236566 
1441.000000	99.236908 
1440.000000	99.237708 
1439.000000	99.238014 
1438.000000	99.238687 
1437.000000	99.240159 
1436.000000	99.239703 
1435.000000	99.235706 
1434.000000	99.230283 
1433.000000	99.225783 
1432.000000	99.222940 
1431.000000	99.220399 
1430.000000	99.216695 
1429.000000	99.212175 
1428.000000	99.207327 
1427.000000	99.202420 
1426.000000	99.197395 
1425.000000	99.193332 
1424.000000	99.191028 
1423.000000	99.188540 
1422.000000	99.183555 
1421.000000	99.175800 
1420.000000	99.166831 
1419.000000	99.157710 
1418.000000	99.149805 
1417.000000	99.143240 
1416.000000	99.135133 
1415.000000	99.123565 
1414.000000	99.109799 
1413.000000	99.096905 
1412.000000	99.087015 
1411.000000	99.079683 
1410.000000	99.073554 
1409.000000	99.068178 
1408.000000	99.063771 
1407.000000	99.061105 
1406.000000	99.060605 
1405.000000	99.062304 
1404.000000	99.065951 
1403.000000	99.070776 
1402.000000	99.076501 
1401.000000	99.083452 
1400.000000	99.091291 
1399.000000	99.097377 
1398.000000	99.097762 
1397.000000	99.089633 
1396.000000	99.073422 
1395.000000	99.055864 
1394.000000	99.047774 
1393.000000	99.054475 
1392.000000	99.071316 
1391.000000	99.089079 
1390.000000	99.101353 
1389.000000	99.106689 
1388.000000	99.106481 
1387.000000	99.102989 
1386.000000	99.098795 
1385.000000	99.096034 
1384.000000	99.095403 
1383.000000	99.096112 
1382.000000	99.097224 
1381.000000	99.098728 
1380.000000	99.101475 
1379.000000	99.106058 
1378.000000	99.112025 
1377.000000	99.118437 
1376.000000	99.124781 
1375.000000	99.131105 
1374.000000	99.137655 
1373.000000	99.144857 
1372.000000	99.152676 
1371.000000	99.160433 
1370.000000	99.167277 
1369.000000	99.173197 
1368.000000	99.179044 
1367.000000	99.185247 
1366.000000	99.191529 
1365.000000	99.197758 
1364.000000	99.204268 
1363.000000	99.211087 
1362.000000	99.217419 
1361.000000	99.222358 
1360.000000	99.225953 
1359.000000	99.229369 
1358.000000	99.234022 
1357.000000	99.240514 
1356.000000	99.247945 
1355.000000	99.254420 
1354.000000	99.258961 
1353.000000	99.262550 
1352.000000	99.266197 
1351.000000	99.269350 
1350.000000	99.270623 
1349.000000	99.270723 
1348.000000	99.271790 
1347.000000	99.274413 
1346.000000	99.277340 
1345.000000	99.279670 
1344.000000	99.281714 
1343.000000	99.283507 
1342.000000	99.284440 
1341.000000	99.284797 
1340.000000	99.286015 
1339.000000	99.288448 
1338.000000	99.290620 
1337.000000	99.291692 
1336.000000	99.292637 
1335.000000	99.294194 
1334.000000	99.295475 
1333.000000	99.295543 
1332.000000	99.294991 
1331.000000	99.294881 
1330.000000	99.295091 
1329.000000	99.295041 
1328.000000	99.295005 
1327.000000	99.295479 
1326.000000	99.295776 
1325.000000	99.295089 
1324.000000	99.294178 
1323.000000	99.294540 
1322.000000	99.296500 
1321.000000	99.299123 
1320.000000	99.301779 
1319.000000	99.304602 
1318.000000	99.307310 
1317.000000	99.308547 
1316.000000	99.307182 
1315.000000	99.303886 
1314.000000	99.300888 
1313.000000	99.299884 
1312.000000	99.300411 
1311.000000	99.300744 
1310.000000	99.300129 
1309.000000	99.299444 
1308.000000	99.299505 
1307.000000	99.299719 
1306.000000	99.298881 
1305.000000	99.297193 
1304.000000	99.296367 
1303.000000	99.297631 
1302.000000	99.300375 
1301.000000	99.302841 
1300.000000	99.303694 
1299.000000	99.302895 
1298.000000	99.301702 
1297.000000	99.301763 
1296.000000	99.303679 
1295.000000	99.306210 
1294.000000	99.307325 
1293.000000	99.306134 
1292.000000	99.303460 
1291.000000	99.300777 
1290.000000	99.299015 
1289.000000	99.298223 
1288.000000	99.297762 
1287.000000	99.296728 
1286.000000	99.294720 
1285.000000	99.292203 
1284.000000	99.289703 
1283.000000	99.286975 
1282.000000	99.283274 
1281.000000	99.278202 
1280.000000	99.272341 
1279.000000	99.266781 
1278.000000	99.262218 
1277.000000	99.258684 
1276.000000	99.255719 
1275.000000	99.252585 
1274.000000	99.248642 
1273.000000	99.243850 
1272.000000	99.238770 
1271.000000	99.233937 
1270.000000	99.229263 
1269.000000	99.224148 
1268.000000	99.218086 
1267.000000	99.211106 
1266.000000	99.203805 
1265.000000	99.196955 
1264.000000	99.190921 
1263.000000	99.185398 
1262.000000	99.179740 
1261.000000	99.173593 
1260.000000	99.167326 
1259.000000	99.161718 
1258.000000	99.157254 
1257.000000	99.153789 
1256.000000	99.150986 
1255.000000	99.148886 
1254.000000	99.147733 
1253.000000	99.147250 
1252.000000	99.146645 
1251.000000	99.145669 
1250.000000	99.145228 
1249.000000	99.146446 
1248.000000	99.149350 
1247.000000	99.152726 
1246.000000	99.154817 
1245.000000	99.153776 
1244.000000	99.148360 
1243.000000	99.139789 
1242.000000	99.132699 
1241.000000	99.132004 
1240.000000	99.138265 
1239.000000	99.146741 
1238.000000	99.151747 
1237.000000	99.151789 
1236.000000	99.149131 
1235.000000	99.145910 
1234.000000	99.142311 
1233.000000	99.138066 
1232.000000	99.133665 
1231.000000	99.129581 
1230.000000	99.125806 
1229.000000	99.122801 
1228.000000	99.121714 
1227.000000	99.122933 
1226.000000	99.125257 
1225.000000	99.127187 
1224.000000	99.128401 
1223.000000	99.129472 
1222.000000	99.130920 
1221.000000	99.133142 
1220.000000	99.136564 
1219.000000	99.141081 
1218.000000	99.145654 
1217.000000	99.149040 
1216.000000	99.150742 
1215.000000	99.151085 
1214.000000	99.150688 
1213.000000	99.149942 
1212.000000	99.148632 
1211.000000	99.146212 
1210.000000	99.142960 
1209.000000	99.140563 
1208.000000	99.140584 
1207.000000	99.142322 
1206.000000	99.143264 
1205.000000	99.141902 
1204.000000	99.139024 
1203.000000	99.136036 
1202.000000	99.133225 
1201.000000	99.130290 
1200.000000	99.127486 
1199.000000	99.125319 
1198.000000	99.123769 
1197.000000	99.122399 
1196.000000	99.120373 
1195.000000	99.116259 
1194.000000	99.109219 
1193.000000	99.100559 
1192.000000	99.093061 
1191.000000	99.088186 
1190.000000	99.084624 
1189.000000	99.080207 
1188.000000	99.074408 
1187.000000	99.068289 
1186.000000	99.062915 
1185.000000	99.058617 
1184.000000	99.055127 
1183.000000	99.051593 
1182.000000	99.047014 
1181.000000	99.041402 
1180.000000	99.035977 
1179.000000	99.031478 
1178.000000	99.027003 
1177.000000	99.021446 
1176.000000	99.015320 
1175.000000	99.009791 
1174.000000	99.004256 
1173.000000	98.996534 
1172.000000	98.985855 
1171.000000	98.974443 
1170.000000	98.965306 
1169.000000	98.959067 
1168.000000	98.953653 
1167.000000	98.946869 
1166.000000	98.938904 
1165.000000	98.932326 
1164.000000	98.929831 
1163.000000	98.932055 
1162.000000	98.937271 
1161.000000	98.942955 
1160.000000	98.947429 
1159.000000	98.949921 
1158.000000	98.949658 
1157.000000	98.945524 
1156.000000	98.936817 
1155.000000	98.924509 
1154.000000	98.911830 
1153.000000	98.902909 
1152.000000	98.899598 
1151.000000	98.899303 
1150.000000	98.896836 
1149.000000	98.889163 
1148.000000	98.877849 
1147.000000	98.866569 
1146.000000	98.856948 
1145.000000	98.847675 
1144.000000	98.837003 
1143.000000	98.824760 
1142.000000	98.812090 
1141.000000	98.800460 
1140.000000	98.791145 
1139.000000	98.784638 
1138.000000	98.779921 
1137.000000	98.774746 
1136.000000	98.767054 
1135.000000	98.756104 
1134.000000	98.742427 
1133.000000	98.727126 
1132.000000	98.711364 
1131.000000	98.696242 
1130.000000	98.682893 
1129.000000	98.672232 
1128.000000	98.663878 
1127.000000	98.655164 
1126.000000	98.642528 
1125.000000	98.625058 
1124.000000	98.606095 
1123.000000	98.590054 
1122.000000	98.577724 
1121.000000	98.565880 
1120.000000	98.551434 
1119.000000	98.534520 
1118.000000	98.517313 
1117.000000	98.501183 
1116.000000	98.485769 
1115.000000	98.469983 
1114.000000	98.453191 
1113.000000	98.435836 
1112.000000	98.419138 
1111.000000	98.403541 
1110.000000	98.387275 
1109.000000	98.367686 
1108.000000	98.344697 
1107.000000	98.321781 
1106.000000	98.302405 
1105.000000	98.286442 
1104.000000	98.270794 
1103.000000	98.253158 
1102.000000	98.234313 
1101.000000	98.216751 
1100.000000	98.201746 
1099.000000	98.188559 
1098.000000	98.175987 
1097.000000	98.163864 
1096.000000	98.152431 
1095.000000	98.140345 
1094.000000	98.124325 
1093.000000	98.101355 
1092.000000	98.070977 
1091.000000	98.035427 
1090.000000	97.998185 
1089.000000	97.962431 
1088.000000	97.929910 
1087.000000	97.900276 
1086.000000	97.871831 
1085.000000	97.843720 
1084.000000	97.817012 
1083.000000	97.792829 
1082.000000	97.770052 
1081.000000	97.746166 
1080.000000	97.720073 
1079.000000	97.692848 
1078.000000	97.666240 
1077.000000	97.641981 
1076.000000	97.622207 
1075.000000	97.608537 
1074.000000	97.600418 
1073.000000	97.595706 
1072.000000	97.592120 
1071.000000	97.585729 
1070.000000	97.569154 
1069.000000	97.536233 
1068.000000	97.491033 
1067.000000	97.449369 
1066.000000	97.426925 
1065.000000	97.426350 
1064.000000	97.437312 
1063.000000	97.446621 
1062.000000	97.446046 
1061.000000	97.432013 
1060.000000	97.403998 
1059.000000	97.366764 
1058.000000	97.330976 
1057.000000	97.306622 
1056.000000	97.295093 
1055.000000	97.289183 
1054.000000	97.280894 
1053.000000	97.268358 
1052.000000	97.255091 
1051.000000	97.244373 
1050.000000	97.235889 
1049.000000	97.227086 
1048.000000	97.216187 
1047.000000	97.203897 
1046.000000	97.193217 
1045.000000	97.187241 
1044.000000	97.185993 
1043.000000	97.185735 
1042.000000	97.182753 
1041.000000	97.177645 
1040.000000	97.174377 
1039.000000	97.175670 
1038.000000	97.181583 
1037.000000	97.192314 
1036.000000	97.209179 
1035.000000	97.231676 
1034.000000	97.256063 
1033.000000	97.278042 
1032.000000	97.294432 
1031.000000	97.301695 
1030.000000	97.297342 
1029.000000	97.286101 
1028.000000	97.281236 
1027.000000	97.294293 
1026.000000	97.323536 
1025.000000	97.355414 
1024.000000	97.377619 
1023.000000	97.388158 
1022.000000	97.392733 
1021.000000	97.397597 
1020.000000	97.405967 
1019.000000	97.417986 
1018.000000	97.431483 
1017.000000	97.443743 
1016.000000	97.453923 
1015.000000	97.463482 
1014.000000	97.474185 
1013.000000	97.486395 
1012.000000	97.499196 
1011.000000	97.511235 
1010.000000	97.521604 
1009.000000	97.530983 
1008.000000	97.541664 
1007.000000	97.555480 
1006.000000	97.571924 
1005.000000	97.589165 
1004.000000	97.606342 
1003.000000	97.623837 
1002.000000	97.641909 
1001.000000	97.660335 
1000.000000	97.678883 
999.000000	 97.696855 
998.000000	 97.712802 
997.000000	 97.726391 
996.000000	 97.740265 
995.000000	 97.758158 
994.000000	 97.780733 
993.000000	 97.804533 
992.000000	 97.825454 
991.000000	 97.842127 
990.000000	 97.855684 
989.000000	 97.867912 
988.000000	 97.880582 
987.000000	 97.895406 
986.000000	 97.913358 
985.000000	 97.934258 
984.000000	 97.957125 
983.000000	 97.980552 
982.000000	 98.003123 
981.000000	 98.024003 
980.000000	 98.043419 
979.000000	 98.062586 
978.000000	 98.083287 
977.000000	 98.107413 
976.000000	 98.135744 
975.000000	 98.166238 
974.000000	 98.194554 
973.000000	 98.217956 
972.000000	 98.238415 
971.000000	 98.260664 
970.000000	 98.287304 
969.000000	 98.316724 
968.000000	 98.345373 
967.000000	 98.370755 
966.000000	 98.392456 
965.000000	 98.411712 
964.000000	 98.430309 
963.000000	 98.449345 
962.000000	 98.468868 
961.000000	 98.488731 
960.000000	 98.509075 
959.000000	 98.529308 
958.000000	 98.547515 
957.000000	 98.562212 
956.000000	 98.574417 
955.000000	 98.586833 
954.000000	 98.600978 
953.000000	 98.616034 
952.000000	 98.630504 
951.000000	 98.643800 
950.000000	 98.655742 
949.000000	 98.665428 
948.000000	 98.671574 
947.000000	 98.674008 
946.000000	 98.674300 
945.000000	 98.674573 
944.000000	 98.675792 
943.000000	 98.677757 
942.000000	 98.680737 
941.000000	 98.685994 
940.000000	 98.693605 
939.000000	 98.700603 
938.000000	 98.703295 
937.000000	 98.701794 
936.000000	 98.700696 
935.000000	 98.704503 
934.000000	 98.713499 
933.000000	 98.724863 
932.000000	 98.736434 
931.000000	 98.747970 
930.000000	 98.759351 
929.000000	 98.768862 
928.000000	 98.773435 
927.000000	 98.770779 
926.000000	 98.762242 
925.000000	 98.753751 
924.000000	 98.752231 
923.000000	 98.759772 
922.000000	 98.771813 
921.000000	 98.781588 
920.000000	 98.785700 
919.000000	 98.784932 
918.000000	 98.781473 
917.000000	 98.777057 
916.000000	 98.772925 
915.000000	 98.769750 
914.000000	 98.767406 
913.000000	 98.765823 
912.000000	 98.765992 
911.000000	 98.769383 
910.000000	 98.776676 
909.000000	 98.787624 
908.000000	 98.801389 
907.000000	 98.816021 
906.000000	 98.828505 
905.000000	 98.836859 
904.000000	 98.842008 
903.000000	 98.846722 
902.000000	 98.853169 
901.000000	 98.862151 
900.000000	 98.873758 
899.000000	 98.887225 
898.000000	 98.900332 
897.000000	 98.910497 
896.000000	 98.916680 
895.000000	 98.919704 
894.000000	 98.921350 
893.000000	 98.923972 
892.000000	 98.930239 
891.000000	 98.941620 
890.000000	 98.956974 
889.000000	 98.973587 
888.000000	 98.989455 
887.000000	 99.003679 
886.000000	 99.015416 
885.000000	 99.024178 
884.000000	 99.030918 
883.000000	 99.037011 
882.000000	 99.042166 
881.000000	 99.045429 
880.000000	 99.048538 
879.000000	 99.055557 
878.000000	 99.067795 
877.000000	 99.081226 
876.000000	 99.090846 
875.000000	 99.096108 
874.000000	 99.100125 
873.000000	 99.104862 
872.000000	 99.109528 
871.000000	 99.113262 
870.000000	 99.117001 
869.000000	 99.122520 
868.000000	 99.131258 
867.000000	 99.143970 
866.000000	 99.159696 
865.000000	 99.174968 
864.000000	 99.186324 
863.000000	 99.194342 
862.000000	 99.203236 
861.000000	 99.215080 
860.000000	 99.226394 
859.000000	 99.232704 
858.000000	 99.234820 
857.000000	 99.237852 
856.000000	 99.244716 
855.000000	 99.253873 
854.000000	 99.263439 
853.000000	 99.273457 
852.000000	 99.282772 
851.000000	 99.287781 
850.000000	 99.287340 
849.000000	 99.286090 
848.000000	 99.289361 
847.000000	 99.296403 
846.000000	 99.302111 
845.000000	 99.303875 
844.000000	 99.303003 
843.000000	 99.300808 
842.000000	 99.297733 
841.000000	 99.296036 
840.000000	 99.298574 
839.000000	 99.303781 
838.000000	 99.305991 
837.000000	 99.302393 
836.000000	 99.295993 
835.000000	 99.290049 
834.000000	 99.283630 
833.000000	 99.275930 
832.000000	 99.271165 
831.000000	 99.273855 
830.000000	 99.280550 
829.000000	 99.281982 
828.000000	 99.274901 
827.000000	 99.267507 
826.000000	 99.270132 
825.000000	 99.282598 
824.000000	 99.294467 
823.000000	 99.297470 
822.000000	 99.294260 
821.000000	 99.293585 
820.000000	 99.299294 
819.000000	 99.306918 
818.000000	 99.310510 
817.000000	 99.309772 
816.000000	 99.308628 
815.000000	 99.308511 
814.000000	 99.306270 
813.000000	 99.298940 
812.000000	 99.287077 
811.000000	 99.271538 
810.000000	 99.249865 
809.000000	 99.219136 
808.000000	 99.181364 
807.000000	 99.143010 
806.000000	 99.108476 
805.000000	 99.076375 
804.000000	 99.043452 
803.000000	 99.010750 
802.000000	 98.984176 
801.000000	 98.968764 
800.000000	 98.963267 
799.000000	 98.961271 
798.000000	 98.958389 
797.000000	 98.957451 
796.000000	 98.964227 
795.000000	 98.978613 
794.000000	 98.993126 
793.000000	 99.001207 
792.000000	 99.004254 
791.000000	 99.008117 
790.000000	 99.014977 
789.000000	 99.021504 
788.000000	 99.023618 
787.000000	 99.020090 
786.000000	 99.011710 
785.000000	 98.999342 
784.000000	 98.983643 
783.000000	 98.965952 
782.000000	 98.949132 
781.000000	 98.937234 
780.000000	 98.933091 
779.000000	 98.935677 
778.000000	 98.941139 
777.000000	 98.947117 
776.000000	 98.954654 
775.000000	 98.965299 
774.000000	 98.978346 
773.000000	 98.992039 
772.000000	 99.005575 
771.000000	 99.018567 
770.000000	 99.030553 
769.000000	 99.042213 
768.000000	 99.054798 
767.000000	 99.067165 
766.000000	 99.075926 
765.000000	 99.080229 
764.000000	 99.083755 
763.000000	 99.089754 
762.000000	 99.096180 
761.000000	 99.098446 
760.000000	 99.095616 
759.000000	 99.091590 
758.000000	 99.091128 
757.000000	 99.096102 
756.000000	 99.104377 
755.000000	 99.110746 
754.000000	 99.110604 
753.000000	 99.104880 
752.000000	 99.100593 
751.000000	 99.104629 
750.000000	 99.117441 
749.000000	 99.133533 
748.000000	 99.146934 
747.000000	 99.155353 
746.000000	 99.160049 
745.000000	 99.163986 
744.000000	 99.169775 
743.000000	 99.177662 
742.000000	 99.185515 
741.000000	 99.191694 
740.000000	 99.197266 
739.000000	 99.204252 
738.000000	 99.212503 
737.000000	 99.219605 
736.000000	 99.223300 
735.000000	 99.222907 
734.000000	 99.219402 
733.000000	 99.215677 
732.000000	 99.215884 
731.000000	 99.222293 
730.000000	 99.232617 
729.000000	 99.242132 
728.000000	 99.249086 
727.000000	 99.255520 
726.000000	 99.262271 
725.000000	 99.266371 
724.000000	 99.265167 
723.000000	 99.260399 
722.000000	 99.256415 
721.000000	 99.256058 
720.000000	 99.259765 
719.000000	 99.266703 
718.000000	 99.274828 
717.000000	 99.281150 
716.000000	 99.283637 
715.000000	 99.282382 
714.000000	 99.278853 
713.000000	 99.275191 
712.000000	 99.274361 
711.000000	 99.278607 
710.000000	 99.286189 
709.000000	 99.291579 
708.000000	 99.290569 
707.000000	 99.283856 
706.000000	 99.274741 
705.000000	 99.265464 
704.000000	 99.257199 
703.000000	 99.251752 
702.000000	 99.250595 
701.000000	 99.252457 
700.000000	 99.253825 
699.000000	 99.252023 
698.000000	 99.247409 
697.000000	 99.242987 
696.000000	 99.241970 
695.000000	 99.244938 
694.000000	 99.249405 
693.000000	 99.252440 
692.000000	 99.253611 
691.000000	 99.254706 
690.000000	 99.257089 
689.000000	 99.260692 
688.000000	 99.265040 
687.000000	 99.269465 
686.000000	 99.272423 
685.000000	 99.272471 
684.000000	 99.270223 
683.000000	 99.268171 
682.000000	 99.268235 
681.000000	 99.270247 
680.000000	 99.272806 
679.000000	 99.274642 
678.000000	 99.275295 
677.000000	 99.275088 
676.000000	 99.275078 
675.000000	 99.276182 
674.000000	 99.278227 
673.000000	 99.280209 
672.000000	 99.281487 
671.000000	 99.282377 
670.000000	 99.283602 
669.000000	 99.285405 
668.000000	 99.286893 
667.000000	 99.287533 
666.000000	 99.287841 
665.000000	 99.288215 
664.000000	 99.288925 
663.000000	 99.290105 
662.000000	 99.291616 
661.000000	 99.293017 
660.000000	 99.294025 
659.000000	 99.294667 
658.000000	 99.295146 
657.000000	 99.295599 
656.000000	 99.295938 
655.000000	 99.296277 
654.000000	 99.297102 
653.000000	 99.298664 
652.000000	 99.300702 
651.000000	 99.302673 
650.000000	 99.304277 

