4000.000000	99.606014 
3999.000000	99.605790 
3998.000000	99.605635 
3997.000000	99.605728 
3996.000000	99.606029 
3995.000000	99.606319 
3994.000000	99.606456 
3993.000000	99.606510 
3992.000000	99.606593 
3991.000000	99.606638 
3990.000000	99.606435 
3989.000000	99.605847 
3988.000000	99.604989 
3987.000000	99.604177 
3986.000000	99.603699 
3985.000000	99.603658 
3984.000000	99.603944 
3983.000000	99.604391 
3982.000000	99.604973 
3981.000000	99.605784 
3980.000000	99.606805 
3979.000000	99.607721 
3978.000000	99.608103 
3977.000000	99.607770 
3976.000000	99.606933 
3975.000000	99.605970 
3974.000000	99.605096 
3973.000000	99.604326 
3972.000000	99.603696 
3971.000000	99.603387 
3970.000000	99.603598 
3969.000000	99.604303 
3968.000000	99.605144 
3967.000000	99.605627 
3966.000000	99.605488 
3965.000000	99.604845 
3964.000000	99.604076 
3963.000000	99.603546 
3962.000000	99.603393 
3961.000000	99.603494 
3960.000000	99.603550 
3959.000000	99.603277 
3958.000000	99.602652 
3957.000000	99.601945 
3956.000000	99.601493 
3955.000000	99.601390 
3954.000000	99.601443 
3953.000000	99.601397 
3952.000000	99.601159 
3951.000000	99.600818 
3950.000000	99.600487 
3949.000000	99.600183 
3948.000000	99.599874 
3947.000000	99.599601 
3946.000000	99.599464 
3945.000000	99.599482 
3944.000000	99.599532 
3943.000000	99.599455 
3942.000000	99.599214 
3941.000000	99.598914 
3940.000000	99.598648 
3939.000000	99.598401 
3938.000000	99.598120 
3937.000000	99.597796 
3936.000000	99.597467 
3935.000000	99.597180 
3934.000000	99.596982 
3933.000000	99.596925 
3932.000000	99.597020 
3931.000000	99.597202 
3930.000000	99.597348 
3929.000000	99.597359 
3928.000000	99.597208 
3927.000000	99.596902 
3926.000000	99.596458 
3925.000000	99.595964 
3924.000000	99.595614 
3923.000000	99.595537 
3922.000000	99.595592 
3921.000000	99.595503 
3920.000000	99.595217 
3919.000000	99.594912 
3918.000000	99.594701 
3917.000000	99.594537 
3916.000000	99.594442 
3915.000000	99.594544 
3914.000000	99.594839 
3913.000000	99.595100 
3912.000000	99.595110 
3911.000000	99.594818 
3910.000000	99.594381 
3909.000000	99.594033 
3908.000000	99.593947 
3907.000000	99.594122 
3906.000000	99.594379 
3905.000000	99.594485 
3904.000000	99.594348 
3903.000000	99.594124 
3902.000000	99.594011 
3901.000000	99.593962 
3900.000000	99.593790 
3899.000000	99.593468 
3898.000000	99.593138 
3897.000000	99.592872 
3896.000000	99.592622 
3895.000000	99.592425 
3894.000000	99.592547 
3893.000000	99.593115 
3892.000000	99.593815 
3891.000000	99.594133 
3890.000000	99.594098 
3889.000000	99.594080 
3888.000000	99.594151 
3887.000000	99.594111 
3886.000000	99.593840 
3885.000000	99.593441 
3884.000000	99.593207 
3883.000000	99.593166 
3882.000000	99.593040 
3881.000000	99.592713 
3880.000000	99.592336 
3879.000000	99.592157 
3878.000000	99.592284 
3877.000000	99.592508 
3876.000000	99.592549 
3875.000000	99.592310 
3874.000000	99.591918 
3873.000000	99.591637 
3872.000000	99.591537 
3871.000000	99.591361 
3870.000000	99.590924 
3869.000000	99.590564 
3868.000000	99.590783 
3867.000000	99.591448 
3866.000000	99.591923 
3865.000000	99.591990 
3864.000000	99.591929 
3863.000000	99.591959 
3862.000000	99.591991 
3861.000000	99.591847 
3860.000000	99.591530 
3859.000000	99.591063 
3858.000000	99.590436 
3857.000000	99.589777 
3856.000000	99.589493 
3855.000000	99.589931 
3854.000000	99.590662 
3853.000000	99.590781 
3852.000000	99.590815 
3851.000000	99.591531 
3850.000000	99.592431 
3849.000000	99.592932 
3848.000000	99.593111 
3847.000000	99.593203 
3846.000000	99.593307 
3845.000000	99.593424 
3844.000000	99.593548 
3843.000000	99.593676 
3842.000000	99.593815 
3841.000000	99.593961 
3840.000000	99.594108 
3839.000000	99.594252 
3838.000000	99.594381 
3837.000000	99.594473 
3836.000000	99.594537 
3835.000000	99.594593 
3834.000000	99.594649 
3833.000000	99.594709 
3832.000000	99.594773 
3831.000000	99.594836 
3830.000000	99.594890 
3829.000000	99.594922 
3828.000000	99.594927 
3827.000000	99.594915 
3826.000000	99.594907 
3825.000000	99.594918 
3824.000000	99.594950 
3823.000000	99.594996 
3822.000000	99.595040 
3821.000000	99.595070 
3820.000000	99.595092 
3819.000000	99.595136 
3818.000000	99.595194 
3817.000000	99.595229 
3816.000000	99.595213 
3815.000000	99.595164 
3814.000000	99.595142 
3813.000000	99.595153 
3812.000000	99.595105 
3811.000000	99.594938 
3810.000000	99.594741 
3809.000000	99.594660 
3808.000000	99.594713 
3807.000000	99.594722 
3806.000000	99.594642 
3805.000000	99.594714 
3804.000000	99.594944 
3803.000000	99.594975 
3802.000000	99.594511 
3801.000000	99.593528 
3800.000000	99.592720 
3799.000000	99.592675 
3798.000000	99.592789 
3797.000000	99.592350 
3796.000000	99.591595 
3795.000000	99.591284 
3794.000000	99.591771 
3793.000000	99.592726 
3792.000000	99.593699 
3791.000000	99.594575 
3790.000000	99.595301 
3789.000000	99.595806 
3788.000000	99.596265 
3787.000000	99.597056 
3786.000000	99.598273 
3785.000000	99.599550 
3784.000000	99.600591 
3783.000000	99.601422 
3782.000000	99.601949 
3781.000000	99.601712 
3780.000000	99.600425 
3779.000000	99.598382 
3778.000000	99.596433 
3777.000000	99.595102 
3776.000000	99.594123 
3775.000000	99.593257 
3774.000000	99.593020 
3773.000000	99.593953 
3772.000000	99.595635 
3771.000000	99.596808 
3770.000000	99.596674 
3769.000000	99.595814 
3768.000000	99.595403 
3767.000000	99.595573 
3766.000000	99.595558 
3765.000000	99.595108 
3764.000000	99.594957 
3763.000000	99.595799 
3762.000000	99.597344 
3761.000000	99.598866 
3760.000000	99.600032 
3759.000000	99.600579 
3758.000000	99.600298 
3757.000000	99.599424 
3756.000000	99.598585 
3755.000000	99.598116 
3754.000000	99.597881 
3753.000000	99.597930 
3752.000000	99.598398 
3751.000000	99.598397 
3750.000000	99.596642 
3749.000000	99.593790 
3748.000000	99.591750 
3747.000000	99.590985 
3746.000000	99.590787 
3745.000000	99.590474 
3744.000000	99.589571 
3743.000000	99.589675 
3742.000000	99.591752 
3741.000000	99.592989 
3740.000000	99.591832 
3739.000000	99.590155 
3738.000000	99.590023 
3737.000000	99.591423 
3736.000000	99.593062 
3735.000000	99.594362 
3734.000000	99.595480 
3733.000000	99.596000 
3732.000000	99.595517 
3731.000000	99.595026 
3730.000000	99.595677 
3729.000000	99.596966 
3728.000000	99.597664 
3727.000000	99.597766 
3726.000000	99.598339 
3725.000000	99.599854 
3724.000000	99.601164 
3723.000000	99.600851 
3722.000000	99.598947 
3721.000000	99.596739 
3720.000000	99.595423 
3719.000000	99.594986 
3718.000000	99.594587 
3717.000000	99.593529 
3716.000000	99.591741 
3715.000000	99.589442 
3714.000000	99.587019 
3713.000000	99.585175 
3712.000000	99.584239 
3711.000000	99.583832 
3710.000000	99.583808 
3709.000000	99.584159 
3708.000000	99.584419 
3707.000000	99.584115 
3706.000000	99.583284 
3705.000000	99.582389 
3704.000000	99.581942 
3703.000000	99.582224 
3702.000000	99.583044 
3701.000000	99.583911 
3700.000000	99.584534 
3699.000000	99.584730 
3698.000000	99.584271 
3697.000000	99.583248 
3696.000000	99.582178 
3695.000000	99.581492 
3694.000000	99.581172 
3693.000000	99.580977 
3692.000000	99.580768 
3691.000000	99.580477 
3690.000000	99.580023 
3689.000000	99.579414 
3688.000000	99.578852 
3687.000000	99.578476 
3686.000000	99.578183 
3685.000000	99.577807 
3684.000000	99.577319 
3683.000000	99.576788 
3682.000000	99.576270 
3681.000000	99.575779 
3680.000000	99.575313 
3679.000000	99.574872 
3678.000000	99.574460 
3677.000000	99.574074 
3676.000000	99.573711 
3675.000000	99.573372 
3674.000000	99.573067 
3673.000000	99.572792 
3672.000000	99.572532 
3671.000000	99.572267 
3670.000000	99.571983 
3669.000000	99.571673 
3668.000000	99.571340 
3667.000000	99.570991 
3666.000000	99.570629 
3665.000000	99.570265 
3664.000000	99.569918 
3663.000000	99.569594 
3662.000000	99.569280 
3661.000000	99.568951 
3660.000000	99.568603 
3659.000000	99.568260 
3658.000000	99.567945 
3657.000000	99.567628 
3656.000000	99.567250 
3655.000000	99.566856 
3654.000000	99.566561 
3653.000000	99.566354 
3652.000000	99.566137 
3651.000000	99.565859 
3650.000000	99.565412 
3649.000000	99.564610 
3648.000000	99.563523 
3647.000000	99.562582 
3646.000000	99.562106 
3645.000000	99.562060 
3644.000000	99.562162 
3643.000000	99.562161 
3642.000000	99.562019 
3641.000000	99.561838 
3640.000000	99.561728 
3639.000000	99.561763 
3638.000000	99.562015 
3637.000000	99.562540 
3636.000000	99.563168 
3635.000000	99.563466 
3634.000000	99.563130 
3633.000000	99.562364 
3632.000000	99.561657 
3631.000000	99.561316 
3630.000000	99.561279 
3629.000000	99.560850 
3628.000000	99.559668 
3627.000000	99.558864 
3626.000000	99.558990 
3625.000000	99.559388 
3624.000000	99.559743 
3623.000000	99.560184 
3622.000000	99.560698 
3621.000000	99.561094 
3620.000000	99.561257 
3619.000000	99.561241 
3618.000000	99.561387 
3617.000000	99.562103 
3616.000000	99.563253 
3615.000000	99.564162 
3614.000000	99.564210 
3613.000000	99.563269 
3612.000000	99.561791 
3611.000000	99.560451 
3610.000000	99.559646 
3609.000000	99.559467 
3608.000000	99.559820 
3607.000000	99.560547 
3606.000000	99.561508 
3605.000000	99.562541 
3604.000000	99.563531 
3603.000000	99.564427 
3602.000000	99.565112 
3601.000000	99.565515 
3600.000000	99.565836 
3599.000000	99.566363 
3598.000000	99.567037 
3597.000000	99.567527 
3596.000000	99.567521 
3595.000000	99.566947 
3594.000000	99.566066 
3593.000000	99.565498 
3592.000000	99.565811 
3591.000000	99.567095 
3590.000000	99.568822 
3589.000000	99.569987 
3588.000000	99.569682 
3587.000000	99.567943 
3586.000000	99.566017 
3585.000000	99.565085 
3584.000000	99.565109 
3583.000000	99.565405 
3582.000000	99.565378 
3581.000000	99.564821 
3580.000000	99.563882 
3579.000000	99.562881 
3578.000000	99.562037 
3577.000000	99.561419 
3576.000000	99.561082 
3575.000000	99.561083 
3574.000000	99.561381 
3573.000000	99.561801 
3572.000000	99.562203 
3571.000000	99.562553 
3570.000000	99.562803 
3569.000000	99.562793 
3568.000000	99.562394 
3567.000000	99.561809 
3566.000000	99.561609 
3565.000000	99.562136 
3564.000000	99.563014 
3563.000000	99.563577 
3562.000000	99.563558 
3561.000000	99.563137 
3560.000000	99.562643 
3559.000000	99.562307 
3558.000000	99.562201 
3557.000000	99.562293 
3556.000000	99.562516 
3555.000000	99.562758 
3554.000000	99.562857 
3553.000000	99.562680 
3552.000000	99.562268 
3551.000000	99.561832 
3550.000000	99.561522 
3549.000000	99.561272 
3548.000000	99.560988 
3547.000000	99.560748 
3546.000000	99.560730 
3545.000000	99.561041 
3544.000000	99.561628 
3543.000000	99.562281 
3542.000000	99.562760 
3541.000000	99.562953 
3540.000000	99.562945 
3539.000000	99.562898 
3538.000000	99.562879 
3537.000000	99.562841 
3536.000000	99.562729 
3535.000000	99.562557 
3534.000000	99.562373 
3533.000000	99.562241 
3532.000000	99.562231 
3531.000000	99.562391 
3530.000000	99.562680 
3529.000000	99.562993 
3528.000000	99.563251 
3527.000000	99.563448 
3526.000000	99.563585 
3525.000000	99.563641 
3524.000000	99.563607 
3523.000000	99.563529 
3522.000000	99.563480 
3521.000000	99.563486 
3520.000000	99.563524 
3519.000000	99.563560 
3518.000000	99.563583 
3517.000000	99.563595 
3516.000000	99.563600 
3515.000000	99.563599 
3514.000000	99.563594 
3513.000000	99.563585 
3512.000000	99.563567 
3511.000000	99.563537 
3510.000000	99.563494 
3509.000000	99.563441 
3508.000000	99.563377 
3507.000000	99.563299 
3506.000000	99.563203 
3505.000000	99.563085 
3504.000000	99.562947 
3503.000000	99.562796 
3502.000000	99.562642 
3501.000000	99.562491 
3500.000000	99.562343 
3499.000000	99.562188 
3498.000000	99.562013 
3497.000000	99.561812 
3496.000000	99.561589 
3495.000000	99.561350 
3494.000000	99.561105 
3493.000000	99.560858 
3492.000000	99.560611 
3491.000000	99.560365 
3490.000000	99.560120 
3489.000000	99.559877 
3488.000000	99.559635 
3487.000000	99.559389 
3486.000000	99.559138 
3485.000000	99.558881 
3484.000000	99.558621 
3483.000000	99.558359 
3482.000000	99.558098 
3481.000000	99.557836 
3480.000000	99.557567 
3479.000000	99.557285 
3478.000000	99.556994 
3477.000000	99.556704 
3476.000000	99.556421 
3475.000000	99.556117 
3474.000000	99.555758 
3473.000000	99.555342 
3472.000000	99.554921 
3471.000000	99.554557 
3470.000000	99.554269 
3469.000000	99.554041 
3468.000000	99.553846 
3467.000000	99.553638 
3466.000000	99.553355 
3465.000000	99.552959 
3464.000000	99.552480 
3463.000000	99.551980 
3462.000000	99.551460 
3461.000000	99.550852 
3460.000000	99.550108 
3459.000000	99.549331 
3458.000000	99.548773 
3457.000000	99.548611 
3456.000000	99.548788 
3455.000000	99.549053 
3454.000000	99.549166 
3453.000000	99.549143 
3452.000000	99.549234 
3451.000000	99.549647 
3450.000000	99.550301 
3449.000000	99.550845 
3448.000000	99.550890 
3447.000000	99.550303 
3446.000000	99.549332 
3445.000000	99.548485 
3444.000000	99.548139 
3443.000000	99.548230 
3442.000000	99.548323 
3441.000000	99.548017 
3440.000000	99.547313 
3439.000000	99.546507 
3438.000000	99.545811 
3437.000000	99.545163 
3436.000000	99.544475 
3435.000000	99.543915 
3434.000000	99.543794 
3433.000000	99.544195 
3432.000000	99.544848 
3431.000000	99.545346 
3430.000000	99.545479 
3429.000000	99.545293 
3428.000000	99.544948 
3427.000000	99.544575 
3426.000000	99.544255 
3425.000000	99.544074 
3424.000000	99.544106 
3423.000000	99.544320 
3422.000000	99.544536 
3421.000000	99.544538 
3420.000000	99.544246 
3419.000000	99.543765 
3418.000000	99.543294 
3417.000000	99.542974 
3416.000000	99.542808 
3415.000000	99.542677 
3414.000000	99.542429 
3413.000000	99.542011 
3412.000000	99.541551 
3411.000000	99.541277 
3410.000000	99.541329 
3409.000000	99.541656 
3408.000000	99.542059 
3407.000000	99.542308 
3406.000000	99.542252 
3405.000000	99.541874 
3404.000000	99.541320 
3403.000000	99.540861 
3402.000000	99.540741 
3401.000000	99.541024 
3400.000000	99.541510 
3399.000000	99.541847 
3398.000000	99.541815 
3397.000000	99.541535 
3396.000000	99.541365 
3395.000000	99.541540 
3394.000000	99.541962 
3393.000000	99.542378 
3392.000000	99.542654 
3391.000000	99.542813 
3390.000000	99.542903 
3389.000000	99.542963 
3388.000000	99.543026 
3387.000000	99.543030 
3386.000000	99.542764 
3385.000000	99.542090 
3384.000000	99.541202 
3383.000000	99.540507 
3382.000000	99.540178 
3381.000000	99.539973 
3380.000000	99.539531 
3379.000000	99.538785 
3378.000000	99.538074 
3377.000000	99.537868 
3376.000000	99.538390 
3375.000000	99.539423 
3374.000000	99.540437 
3373.000000	99.540989 
3372.000000	99.540999 
3371.000000	99.540629 
3370.000000	99.540040 
3369.000000	99.539373 
3368.000000	99.538895 
3367.000000	99.538893 
3366.000000	99.539320 
3365.000000	99.539689 
3364.000000	99.539477 
3363.000000	99.538622 
3362.000000	99.537546 
3361.000000	99.536743 
3360.000000	99.536370 
3359.000000	99.536282 
3358.000000	99.536349 
3357.000000	99.536676 
3356.000000	99.537467 
3355.000000	99.538612 
3354.000000	99.539578 
3353.000000	99.539903 
3352.000000	99.539700 
3351.000000	99.539528 
3350.000000	99.539796 
3349.000000	99.540401 
3348.000000	99.540969 
3347.000000	99.541288 
3346.000000	99.541415 
3345.000000	99.541511 
3344.000000	99.541654 
3343.000000	99.541769 
3342.000000	99.541667 
3341.000000	99.541222 
3340.000000	99.540582 
3339.000000	99.540129 
3338.000000	99.540105 
3337.000000	99.540375 
3336.000000	99.540594 
3335.000000	99.540607 
3334.000000	99.540554 
3333.000000	99.540618 
3332.000000	99.540800 
3331.000000	99.540985 
3330.000000	99.541113 
3329.000000	99.541225 
3328.000000	99.541377 
3327.000000	99.541563 
3326.000000	99.541711 
3325.000000	99.541754 
3324.000000	99.541718 
3323.000000	99.541735 
3322.000000	99.541939 
3321.000000	99.542295 
3320.000000	99.542562 
3319.000000	99.542504 
3318.000000	99.542104 
3317.000000	99.541605 
3316.000000	99.541331 
3315.000000	99.541420 
3314.000000	99.541742 
3313.000000	99.541980 
3312.000000	99.541916 
3311.000000	99.541605 
3310.000000	99.541286 
3309.000000	99.541122 
3308.000000	99.541085 
3307.000000	99.541118 
3306.000000	99.541301 
3305.000000	99.541699 
3304.000000	99.542091 
3303.000000	99.542100 
3302.000000	99.541697 
3301.000000	99.541391 
3300.000000	99.541691 
3299.000000	99.542467 
3298.000000	99.543034 
3297.000000	99.542912 
3296.000000	99.542332 
3295.000000	99.541973 
3294.000000	99.542359 
3293.000000	99.543611 
3292.000000	99.545498 
3291.000000	99.547499 
3290.000000	99.548947 
3289.000000	99.549374 
3288.000000	99.548876 
3287.000000	99.548077 
3286.000000	99.547644 
3285.000000	99.547774 
3284.000000	99.548187 
3283.000000	99.548509 
3282.000000	99.548564 
3281.000000	99.548280 
3280.000000	99.547491 
3279.000000	99.546050 
3278.000000	99.544147 
3277.000000	99.542378 
3276.000000	99.541334 
3275.000000	99.541143 
3274.000000	99.541486 
3273.000000	99.541897 
3272.000000	99.541907 
3271.000000	99.541140 
3270.000000	99.539632 
3269.000000	99.538106 
3268.000000	99.537607 
3267.000000	99.538714 
3266.000000	99.541153 
3265.000000	99.544078 
3264.000000	99.546678 
3263.000000	99.548538 
3262.000000	99.549645 
3261.000000	99.550241 
3260.000000	99.550570 
3259.000000	99.550649 
3258.000000	99.550330 
3257.000000	99.549574 
3256.000000	99.548562 
3255.000000	99.547575 
3254.000000	99.546918 
3253.000000	99.546924 
3252.000000	99.547785 
3251.000000	99.549218 
3250.000000	99.550499 
3249.000000	99.551063 
3248.000000	99.550993 
3247.000000	99.550770 
3246.000000	99.550646 
3245.000000	99.550470 
3244.000000	99.550088 
3243.000000	99.549708 
3242.000000	99.549779 
3241.000000	99.550575 
3240.000000	99.551909 
3239.000000	99.553135 
3238.000000	99.553553 
3237.000000	99.552939 
3236.000000	99.551749 
3235.000000	99.550805 
3234.000000	99.550605 
3233.000000	99.551048 
3232.000000	99.551743 
3231.000000	99.552448 
3230.000000	99.553141 
3229.000000	99.553747 
3228.000000	99.553980 
3227.000000	99.553512 
3226.000000	99.552275 
3225.000000	99.550678 
3224.000000	99.549491 
3223.000000	99.549336 
3222.000000	99.550205 
3221.000000	99.551430 
3220.000000	99.552221 
3219.000000	99.552249 
3218.000000	99.551685 
3217.000000	99.550891 
3216.000000	99.550251 
3215.000000	99.550129 
3214.000000	99.550669 
3213.000000	99.551593 
3212.000000	99.552473 
3211.000000	99.553294 
3210.000000	99.554524 
3209.000000	99.556423 
3208.000000	99.558430 
3207.000000	99.559549 
3206.000000	99.559372 
3205.000000	99.558561 
3204.000000	99.558276 
3203.000000	99.559128 
3202.000000	99.560798 
3201.000000	99.562544 
3200.000000	99.563892 
3199.000000	99.564750 
3198.000000	99.565126 
3197.000000	99.565089 
3196.000000	99.564950 
3195.000000	99.565120 
3194.000000	99.565570 
3193.000000	99.565676 
3192.000000	99.564900 
3191.000000	99.563557 
3190.000000	99.562623 
3189.000000	99.562705 
3188.000000	99.563457 
3187.000000	99.564015 
3186.000000	99.563811 
3185.000000	99.562943 
3184.000000	99.561973 
3183.000000	99.561472 
3182.000000	99.561620 
3181.000000	99.562079 
3180.000000	99.562247 
3179.000000	99.561765 
3178.000000	99.560791 
3177.000000	99.559767 
3176.000000	99.558988 
3175.000000	99.558515 
3174.000000	99.558486 
3173.000000	99.559258 
3172.000000	99.561016 
3171.000000	99.563275 
3170.000000	99.564979 
3169.000000	99.565371 
3168.000000	99.564717 
3167.000000	99.564114 
3166.000000	99.564471 
3165.000000	99.565765 
3164.000000	99.567266 
3163.000000	99.568310 
3162.000000	99.568775 
3161.000000	99.568894 
3160.000000	99.568935 
3159.000000	99.569084 
3158.000000	99.569399 
3157.000000	99.569764 
3156.000000	99.569941 
3155.000000	99.569791 
3154.000000	99.569452 
3153.000000	99.569270 
3152.000000	99.569542 
3151.000000	99.570249 
3150.000000	99.571016 
3149.000000	99.571374 
3148.000000	99.571183 
3147.000000	99.570777 
3146.000000	99.570656 
3145.000000	99.570958 
3144.000000	99.571377 
3143.000000	99.571605 
3142.000000	99.571732 
3141.000000	99.572053 
3140.000000	99.572593 
3139.000000	99.573025 
3138.000000	99.573087 
3137.000000	99.572898 
3136.000000	99.572768 
3135.000000	99.572807 
3134.000000	99.572855 
3133.000000	99.572753 
3132.000000	99.572544 
3131.000000	99.572404 
3130.000000	99.572413 
3129.000000	99.572428 
3128.000000	99.572214 
3127.000000	99.571732 
3126.000000	99.571243 
3125.000000	99.571069 
3124.000000	99.571272 
3123.000000	99.571622 
3122.000000	99.571795 
3121.000000	99.571634 
3120.000000	99.571245 
3119.000000	99.570903 
3118.000000	99.570810 
3117.000000	99.570913 
3116.000000	99.570972 
3115.000000	99.570846 
3114.000000	99.570652 
3113.000000	99.570575 
3112.000000	99.570614 
3111.000000	99.570629 
3110.000000	99.570582 
3109.000000	99.570571 
3108.000000	99.570608 
3107.000000	99.570570 
3106.000000	99.570410 
3105.000000	99.570290 
3104.000000	99.570443 
3103.000000	99.570929 
3102.000000	99.571618 
3101.000000	99.572307 
3100.000000	99.572818 
3099.000000	99.573034 
3098.000000	99.572959 
3097.000000	99.572757 
3096.000000	99.572661 
3095.000000	99.572776 
3094.000000	99.573032 
3093.000000	99.573276 
3092.000000	99.573414 
3091.000000	99.573451 
3090.000000	99.573430 
3089.000000	99.573399 
3088.000000	99.573417 
3087.000000	99.573537 
3086.000000	99.573764 
3085.000000	99.574021 
3084.000000	99.574213 
3083.000000	99.574301 
3082.000000	99.574325 
3081.000000	99.574349 
3080.000000	99.574402 
3079.000000	99.574487 
3078.000000	99.574594 
3077.000000	99.574695 
3076.000000	99.574743 
3075.000000	99.574718 
3074.000000	99.574667 
3073.000000	99.574674 
3072.000000	99.574784 
3071.000000	99.574988 
3070.000000	99.575240 
3069.000000	99.575470 
3068.000000	99.575577 
3067.000000	99.575459 
3066.000000	99.575114 
3065.000000	99.574716 
3064.000000	99.574503 
3063.000000	99.574561 
3062.000000	99.574732 
3061.000000	99.574783 
3060.000000	99.574689 
3059.000000	99.574681 
3058.000000	99.574997 
3057.000000	99.575620 
3056.000000	99.576242 
3055.000000	99.576547 
3054.000000	99.576500 
3053.000000	99.576329 
3052.000000	99.576266 
3051.000000	99.576337 
3050.000000	99.576452 
3049.000000	99.576526 
3048.000000	99.576418 
3047.000000	99.575892 
3046.000000	99.574851 
3045.000000	99.573637 
3044.000000	99.572868 
3043.000000	99.572839 
3042.000000	99.573274 
3041.000000	99.573632 
3040.000000	99.573664 
3039.000000	99.573545 
3038.000000	99.573539 
3037.000000	99.573717 
3036.000000	99.573979 
3035.000000	99.574235 
3034.000000	99.574488 
3033.000000	99.574746 
3032.000000	99.574933 
3031.000000	99.574925 
3030.000000	99.574683 
3029.000000	99.574273 
3028.000000	99.573760 
3027.000000	99.573147 
3026.000000	99.572498 
3025.000000	99.572001 
3024.000000	99.571788 
3023.000000	99.571693 
3022.000000	99.571343 
3021.000000	99.570548 
3020.000000	99.569507 
3019.000000	99.568628 
3018.000000	99.568184 
3017.000000	99.568148 
3016.000000	99.568252 
3015.000000	99.568169 
3014.000000	99.567734 
3013.000000	99.567015 
3012.000000	99.566165 
3011.000000	99.565244 
3010.000000	99.564245 
3009.000000	99.563268 
3008.000000	99.562559 
3007.000000	99.562285 
3006.000000	99.562376 
3005.000000	99.562572 
3004.000000	99.562582 
3003.000000	99.562180 
3002.000000	99.561258 
3001.000000	99.559941 
3000.000000	99.558672 
2999.000000	99.557888 
2998.000000	99.557616 
2997.000000	99.557487 
2996.000000	99.557207 
2995.000000	99.556918 
2994.000000	99.556886 
2993.000000	99.556983 
2992.000000	99.556745 
2991.000000	99.555943 
2990.000000	99.554892 
2989.000000	99.554117 
2988.000000	99.553755 
2987.000000	99.553469 
2986.000000	99.552932 
2985.000000	99.552315 
2984.000000	99.552117 
2983.000000	99.552559 
2982.000000	99.553350 
2981.000000	99.554024 
2980.000000	99.554439 
2979.000000	99.554751 
2978.000000	99.555043 
2977.000000	99.555174 
2976.000000	99.555019 
2975.000000	99.554682 
2974.000000	99.554392 
2973.000000	99.554279 
2972.000000	99.554330 
2971.000000	99.554495 
2970.000000	99.554741 
2969.000000	99.555040 
2968.000000	99.555391 
2967.000000	99.555843 
2966.000000	99.556447 
2965.000000	99.557193 
2964.000000	99.558015 
2963.000000	99.558843 
2962.000000	99.559627 
2961.000000	99.560303 
2960.000000	99.560822 
2959.000000	99.561229 
2958.000000	99.561693 
2957.000000	99.562380 
2956.000000	99.563255 
2955.000000	99.564021 
2954.000000	99.564368 
2953.000000	99.564321 
2952.000000	99.564352 
2951.000000	99.564981 
2950.000000	99.566284 
2949.000000	99.567791 
2948.000000	99.568885 
2947.000000	99.569411 
2946.000000	99.569695 
2945.000000	99.570119 
2944.000000	99.570732 
2943.000000	99.571358 
2942.000000	99.571916 
2941.000000	99.572479 
2940.000000	99.573064 
2939.000000	99.573523 
2938.000000	99.573720 
2937.000000	99.573753 
2936.000000	99.573941 
2935.000000	99.574595 
2934.000000	99.575793 
2933.000000	99.577270 
2932.000000	99.578500 
2931.000000	99.579034 
2930.000000	99.578803 
2929.000000	99.578169 
2928.000000	99.577637 
2927.000000	99.577537 
2926.000000	99.577929 
2925.000000	99.578628 
2924.000000	99.579225 
2923.000000	99.579297 
2922.000000	99.578749 
2921.000000	99.577897 
2920.000000	99.577075 
2919.000000	99.576274 
2918.000000	99.575341 
2917.000000	99.574422 
2916.000000	99.573927 
2915.000000	99.574091 
2914.000000	99.574819 
2913.000000	99.575899 
2912.000000	99.577075 
2911.000000	99.577897 
2910.000000	99.577885 
2909.000000	99.577056 
2908.000000	99.576064 
2907.000000	99.575586 
2906.000000	99.575653 
2905.000000	99.575809 
2904.000000	99.575665 
2903.000000	99.575027 
2902.000000	99.573742 
2901.000000	99.571881 
2900.000000	99.570079 
2899.000000	99.569198 
2898.000000	99.569452 
2897.000000	99.570191 
2896.000000	99.570627 
2895.000000	99.570710 
2894.000000	99.570992 
2893.000000	99.571772 
2892.000000	99.572674 
2891.000000	99.573093 
2890.000000	99.572869 
2889.000000	99.572426 
2888.000000	99.572342 
2887.000000	99.572849 
2886.000000	99.573717 
2885.000000	99.574516 
2884.000000	99.574943 
2883.000000	99.574985 
2882.000000	99.574864 
2881.000000	99.574874 
2880.000000	99.575236 
2879.000000	99.576016 
2878.000000	99.577123 
2877.000000	99.578349 
2876.000000	99.579405 
2875.000000	99.580013 
2874.000000	99.580068 
2873.000000	99.579759 
2872.000000	99.579534 
2871.000000	99.579796 
2870.000000	99.580609 
2869.000000	99.581702 
2868.000000	99.582712 
2867.000000	99.583478 
2866.000000	99.584106 
2865.000000	99.584803 
2864.000000	99.585658 
2863.000000	99.586537 
2862.000000	99.587176 
2861.000000	99.587433 
2860.000000	99.587433 
2859.000000	99.587494 
2858.000000	99.587855 
2857.000000	99.588497 
2856.000000	99.589218 
2855.000000	99.589817 
2854.000000	99.590242 
2853.000000	99.590563 
2852.000000	99.590850 
2851.000000	99.591115 
2850.000000	99.591355 
2849.000000	99.591613 
2848.000000	99.591939 
2847.000000	99.592315 
2846.000000	99.592643 
2845.000000	99.592832 
2844.000000	99.592877 
2843.000000	99.592860 
2842.000000	99.592894 
2841.000000	99.593048 
2840.000000	99.593305 
2839.000000	99.593575 
2838.000000	99.593758 
2837.000000	99.593808 
2836.000000	99.593745 
2835.000000	99.593635 
2834.000000	99.593571 
2833.000000	99.593635 
2832.000000	99.593845 
2831.000000	99.594110 
2830.000000	99.594290 
2829.000000	99.594340 
2828.000000	99.594339 
2827.000000	99.594381 
2826.000000	99.594448 
2825.000000	99.594438 
2824.000000	99.594304 
2823.000000	99.594127 
2822.000000	99.594050 
2821.000000	99.594174 
2820.000000	99.594495 
2819.000000	99.594904 
2818.000000	99.595225 
2817.000000	99.595347 
2816.000000	99.595275 
2815.000000	99.595063 
2814.000000	99.594747 
2813.000000	99.594369 
2812.000000	99.594024 
2811.000000	99.593763 
2810.000000	99.593474 
2809.000000	99.593039 
2808.000000	99.592580 
2807.000000	99.592401 
2806.000000	99.592603 
2805.000000	99.592980 
2804.000000	99.593327 
2803.000000	99.593694 
2802.000000	99.594215 
2801.000000	99.594838 
2800.000000	99.595342 
2799.000000	99.595511 
2798.000000	99.595277 
2797.000000	99.594788 
2796.000000	99.594378 
2795.000000	99.594312 
2794.000000	99.594498 
2793.000000	99.594528 
2792.000000	99.594113 
2791.000000	99.593375 
2790.000000	99.592745 
2789.000000	99.592625 
2788.000000	99.593178 
2787.000000	99.594224 
2786.000000	99.595269 
2785.000000	99.595873 
2784.000000	99.596050 
2783.000000	99.596145 
2782.000000	99.596313 
2781.000000	99.596352 
2780.000000	99.596125 
2779.000000	99.595811 
2778.000000	99.595586 
2777.000000	99.595333 
2776.000000	99.594910 
2775.000000	99.594456 
2774.000000	99.594128 
2773.000000	99.593772 
2772.000000	99.593183 
2771.000000	99.592576 
2770.000000	99.592482 
2769.000000	99.593204 
2768.000000	99.594640 
2767.000000	99.596454 
2766.000000	99.598155 
2765.000000	99.599151 
2764.000000	99.599106 
2763.000000	99.598324 
2762.000000	99.597624 
2761.000000	99.597649 
2760.000000	99.598425 
2759.000000	99.599560 
2758.000000	99.600592 
2757.000000	99.601157 
2756.000000	99.601136 
2755.000000	99.600796 
2754.000000	99.600561 
2753.000000	99.600479 
2752.000000	99.600141 
2751.000000	99.599269 
2750.000000	99.598169 
2749.000000	99.597388 
2748.000000	99.597069 
2747.000000	99.596925 
2746.000000	99.596750 
2745.000000	99.596667 
2744.000000	99.596860 
2743.000000	99.597306 
2742.000000	99.597870 
2741.000000	99.598484 
2740.000000	99.599109 
2739.000000	99.599623 
2738.000000	99.599895 
2737.000000	99.599948 
2736.000000	99.599952 
2735.000000	99.600022 
2734.000000	99.600084 
2733.000000	99.599973 
2732.000000	99.599626 
2731.000000	99.599136 
2730.000000	99.598697 
2729.000000	99.598507 
2728.000000	99.598708 
2727.000000	99.599308 
2726.000000	99.600101 
2725.000000	99.600748 
2724.000000	99.601019 
2723.000000	99.600951 
2722.000000	99.600762 
2721.000000	99.600644 
2720.000000	99.600631 
2719.000000	99.600648 
2718.000000	99.600623 
2717.000000	99.600551 
2716.000000	99.600496 
2715.000000	99.600553 
2714.000000	99.600784 
2713.000000	99.601136 
2712.000000	99.601444 
2711.000000	99.601532 
2710.000000	99.601377 
2709.000000	99.601139 
2708.000000	99.601033 
2707.000000	99.601115 
2706.000000	99.601223 
2705.000000	99.601145 
2704.000000	99.600840 
2703.000000	99.600435 
2702.000000	99.600095 
2701.000000	99.599895 
2700.000000	99.599815 
2699.000000	99.599820 
2698.000000	99.599887 
2697.000000	99.599977 
2696.000000	99.600028 
2695.000000	99.600006 
2694.000000	99.599952 
2693.000000	99.599928 
2692.000000	99.599915 
2691.000000	99.599806 
2690.000000	99.599526 
2689.000000	99.599148 
2688.000000	99.598870 
2687.000000	99.598815 
2686.000000	99.598923 
2685.000000	99.598990 
2684.000000	99.598870 
2683.000000	99.598611 
2682.000000	99.598387 
2681.000000	99.598310 
2680.000000	99.598336 
2679.000000	99.598353 
2678.000000	99.598311 
2677.000000	99.598246 
2676.000000	99.598227 
2675.000000	99.598294 
2674.000000	99.598401 
2673.000000	99.598411 
2672.000000	99.598207 
2671.000000	99.597817 
2670.000000	99.597402 
2669.000000	99.597083 
2668.000000	99.596809 
2667.000000	99.596483 
2666.000000	99.596179 
2665.000000	99.596124 
2664.000000	99.596431 
2663.000000	99.596967 
2662.000000	99.597483 
2661.000000	99.597823 
2660.000000	99.597947 
2659.000000	99.597824 
2658.000000	99.597454 
2657.000000	99.596962 
2656.000000	99.596564 
2655.000000	99.596373 
2654.000000	99.596302 
2653.000000	99.596163 
2652.000000	99.595839 
2651.000000	99.595378 
2650.000000	99.594973 
2649.000000	99.594813 
2648.000000	99.594887 
2647.000000	99.594970 
2646.000000	99.594881 
2645.000000	99.594704 
2644.000000	99.594666 
2643.000000	99.594824 
2642.000000	99.595011 
2641.000000	99.595082 
2640.000000	99.595117 
2639.000000	99.595292 
2638.000000	99.595655 
2637.000000	99.596104 
2636.000000	99.596468 
2635.000000	99.596600 
2634.000000	99.596448 
2633.000000	99.596119 
2632.000000	99.595878 
2631.000000	99.595893 
2630.000000	99.596103 
2629.000000	99.596316 
2628.000000	99.596437 
2627.000000	99.596538 
2626.000000	99.596700 
2625.000000	99.596890 
2624.000000	99.597035 
2623.000000	99.597127 
2622.000000	99.597208 
2621.000000	99.597310 
2620.000000	99.597448 
2619.000000	99.597616 
2618.000000	99.597766 
2617.000000	99.597832 
2616.000000	99.597814 
2615.000000	99.597813 
2614.000000	99.597930 
2613.000000	99.598152 
2612.000000	99.598381 
2611.000000	99.598548 
2610.000000	99.598652 
2609.000000	99.598708 
2608.000000	99.598760 
2607.000000	99.598904 
2606.000000	99.599220 
2605.000000	99.599661 
2604.000000	99.600037 
2603.000000	99.600166 
2602.000000	99.600010 
2601.000000	99.599686 
2600.000000	99.599391 
2599.000000	99.599277 
2598.000000	99.599351 
2597.000000	99.599475 
2596.000000	99.599484 
2595.000000	99.599299 
2594.000000	99.598937 
2593.000000	99.598460 
2592.000000	99.598017 
2591.000000	99.597804 
2590.000000	99.597902 
2589.000000	99.598199 
2588.000000	99.598466 
2587.000000	99.598556 
2586.000000	99.598451 
2585.000000	99.598144 
2584.000000	99.597626 
2583.000000	99.596995 
2582.000000	99.596495 
2581.000000	99.596304 
2580.000000	99.596380 
2579.000000	99.596498 
2578.000000	99.596472 
2577.000000	99.596287 
2576.000000	99.596042 
2575.000000	99.595859 
2574.000000	99.595807 
2573.000000	99.595861 
2572.000000	99.595923 
2571.000000	99.595890 
2570.000000	99.595728 
2569.000000	99.595473 
2568.000000	99.595214 
2567.000000	99.595059 
2566.000000	99.595081 
2565.000000	99.595246 
2564.000000	99.595425 
2563.000000	99.595509 
2562.000000	99.595491 
2561.000000	99.595425 
2560.000000	99.595385 
2559.000000	99.595502 
2558.000000	99.595910 
2557.000000	99.596458 
2556.000000	99.596614 
2555.000000	99.596035 
2554.000000	99.595251 
2553.000000	99.595388 
2552.000000	99.596962 
2551.000000	99.599151 
2550.000000	99.600514 
2549.000000	99.600391 
2548.000000	99.599164 
2547.000000	99.597472 
2546.000000	99.595655 
2545.000000	99.594013 
2544.000000	99.593102 
2543.000000	99.593350 
2542.000000	99.594567 
2541.000000	99.596073 
2540.000000	99.597221 
2539.000000	99.597607 
2538.000000	99.596940 
2537.000000	99.595141 
2536.000000	99.592639 
2535.000000	99.590349 
2534.000000	99.589104 
2533.000000	99.589132 
2532.000000	99.590093 
2531.000000	99.591478 
2530.000000	99.593009 
2529.000000	99.594700 
2528.000000	99.596598 
2527.000000	99.598597 
2526.000000	99.600542 
2525.000000	99.602495 
2524.000000	99.604693 
2523.000000	99.607051 
2522.000000	99.608904 
2521.000000	99.609459 
2520.000000	99.608502 
2519.000000	99.606654 
2518.000000	99.604862 
2517.000000	99.603631 
2516.000000	99.602785 
2515.000000	99.601908 
2514.000000	99.600951 
2513.000000	99.600279 
2512.000000	99.600065 
2511.000000	99.599821 
2510.000000	99.598892 
2509.000000	99.597473 
2508.000000	99.596713 
2507.000000	99.597481 
2506.000000	99.599254 
2505.000000	99.600500 
2504.000000	99.600243 
2503.000000	99.598873 
2502.000000	99.597510 
2501.000000	99.596877 
2500.000000	99.596967 
2499.000000	99.597537 
2498.000000	99.598507 
2497.000000	99.599810 
2496.000000	99.601115 
2495.000000	99.601898 
2494.000000	99.601780 
2493.000000	99.600719 
2492.000000	99.598988 
2491.000000	99.597085 
2490.000000	99.595607 
2489.000000	99.594955 
2488.000000	99.595006 
2487.000000	99.595140 
2486.000000	99.594848 
2485.000000	99.594397 
2484.000000	99.594576 
2483.000000	99.595723 
2482.000000	99.597300 
2481.000000	99.598363 
2480.000000	99.598488 
2479.000000	99.597973 
2478.000000	99.597434 
2477.000000	99.597262 
2476.000000	99.597440 
2475.000000	99.597759 
2474.000000	99.598058 
2473.000000	99.598311 
2472.000000	99.598617 
2471.000000	99.599159 
2470.000000	99.600052 
2469.000000	99.601131 
2468.000000	99.601913 
2467.000000	99.601924 
2466.000000	99.601107 
2465.000000	99.599985 
2464.000000	99.599295 
2463.000000	99.599367 
2462.000000	99.599888 
2461.000000	99.600221 
2460.000000	99.600017 
2459.000000	99.599491 
2458.000000	99.599138 
2457.000000	99.599225 
2456.000000	99.599580 
2455.000000	99.599790 
2454.000000	99.599559 
2453.000000	99.598922 
2452.000000	99.598203 
2451.000000	99.597765 
2450.000000	99.597764 
2449.000000	99.598103 
2448.000000	99.598561 
2447.000000	99.598959 
2446.000000	99.599275 
2445.000000	99.599728 
2444.000000	99.600652 
2443.000000	99.602119 
2442.000000	99.603680 
2441.000000	99.604660 
2440.000000	99.604769 
2439.000000	99.604257 
2438.000000	99.603406 
2437.000000	99.602279 
2436.000000	99.600966 
2435.000000	99.599631 
2434.000000	99.598252 
2433.000000	99.596640 
2432.000000	99.594912 
2431.000000	99.593637 
2430.000000	99.593216 
2429.000000	99.593418 
2428.000000	99.593860 
2427.000000	99.594714 
2426.000000	99.596376 
2425.000000	99.598494 
2424.000000	99.599816 
2423.000000	99.599366 
2422.000000	99.597373 
2421.000000	99.595175 
2420.000000	99.594111 
2419.000000	99.594478 
2418.000000	99.595712 
2417.000000	99.597096 
2416.000000	99.598263 
2415.000000	99.599123 
2414.000000	99.599569 
2413.000000	99.599533 
2412.000000	99.599215 
2411.000000	99.599030 
2410.000000	99.599258 
2409.000000	99.599828 
2408.000000	99.600513 
2407.000000	99.601225 
2406.000000	99.601984 
2405.000000	99.602716 
2404.000000	99.603242 
2403.000000	99.603452 
2402.000000	99.603433 
2401.000000	99.603399 
2400.000000	99.603522 
2399.000000	99.603841 
2398.000000	99.604302 
2397.000000	99.604875 
2396.000000	99.605605 
2395.000000	99.606520 
2394.000000	99.607553 
2393.000000	99.608569 
2392.000000	99.609488 
2391.000000	99.610348 
2390.000000	99.611237 
2389.000000	99.612182 
2388.000000	99.613134 
2387.000000	99.614027 
2386.000000	99.614835 
2385.000000	99.615586 
2384.000000	99.616320 
2383.000000	99.617059 
2382.000000	99.617800 
2381.000000	99.618531 
2380.000000	99.619245 
2379.000000	99.619946 
2378.000000	99.620639 
2377.000000	99.621318 
2376.000000	99.621989 
2375.000000	99.622664 
2374.000000	99.623346 
2373.000000	99.624031 
2372.000000	99.624709 
2371.000000	99.625374 
2370.000000	99.626020 
2369.000000	99.626638 
2368.000000	99.627218 
2367.000000	99.627754 
2366.000000	99.628254 
2365.000000	99.628734 
2364.000000	99.629212 
2363.000000	99.629697 
2362.000000	99.630185 
2361.000000	99.630668 
2360.000000	99.631137 
2359.000000	99.631590 
2358.000000	99.632027 
2357.000000	99.632444 
2356.000000	99.632835 
2355.000000	99.633195 
2354.000000	99.633521 
2353.000000	99.633817 
2352.000000	99.634092 
2351.000000	99.634359 
2350.000000	99.634625 
2349.000000	99.634886 
2348.000000	99.635128 
2347.000000	99.635336 
2346.000000	99.635499 
2345.000000	99.635621 
2344.000000	99.635713 
2343.000000	99.635788 
2342.000000	99.635853 
2341.000000	99.635904 
2340.000000	99.635935 
2339.000000	99.635940 
2338.000000	99.635921 
2337.000000	99.635887 
2336.000000	99.635854 
2335.000000	99.635829 
2334.000000	99.635785 
2333.000000	99.635672 
2332.000000	99.635471 
2331.000000	99.635204 
2330.000000	99.634870 
2329.000000	99.634466 
2328.000000	99.634043 
2327.000000	99.633696 
2326.000000	99.633440 
2325.000000	99.633146 
2324.000000	99.632706 
2323.000000	99.632213 
2322.000000	99.631936 
2321.000000	99.632043 
2320.000000	99.632374 
2319.000000	99.632543 
2318.000000	99.632233 
2317.000000	99.631385 
2316.000000	99.630212 
2315.000000	99.629035 
2314.000000	99.628065 
2313.000000	99.627338 
2312.000000	99.626757 
2311.000000	99.626248 
2310.000000	99.625852 
2309.000000	99.625617 
2308.000000	99.625344 
2307.000000	99.624583 
2306.000000	99.623103 
2305.000000	99.621177 
2304.000000	99.619351 
2303.000000	99.617936 
2302.000000	99.616841 
2301.000000	99.615882 
2300.000000	99.614997 
2299.000000	99.614126 
2298.000000	99.613188 
2297.000000	99.612327 
2296.000000	99.611902 
2295.000000	99.612012 
2294.000000	99.612141 
2293.000000	99.611567 
2292.000000	99.610136 
2291.000000	99.608359 
2290.000000	99.606857 
2289.000000	99.605828 
2288.000000	99.605142 
2287.000000	99.604652 
2286.000000	99.604242 
2285.000000	99.603735 
2284.000000	99.602968 
2283.000000	99.601908 
2282.000000	99.600546 
2281.000000	99.598828 
2280.000000	99.596883 
2279.000000	99.595264 
2278.000000	99.594610 
2277.000000	99.595045 
2276.000000	99.595977 
2275.000000	99.596495 
2274.000000	99.595960 
2273.000000	99.594278 
2272.000000	99.591820 
2271.000000	99.589167 
2270.000000	99.586888 
2269.000000	99.585553 
2268.000000	99.585713 
2267.000000	99.587528 
2266.000000	99.590302 
2265.000000	99.592650 
2264.000000	99.593430 
2263.000000	99.592635 
2262.000000	99.591517 
2261.000000	99.591702 
2260.000000	99.593798 
2259.000000	99.596544 
2258.000000	99.597566 
2257.000000	99.595455 
2256.000000	99.591004 
2255.000000	99.586477 
2254.000000	99.583540 
2253.000000	99.582398 
2252.000000	99.582767 
2251.000000	99.584651 
2250.000000	99.587791 
2249.000000	99.591115 
2248.000000	99.593428 
2247.000000	99.594313 
2246.000000	99.593854 
2245.000000	99.591948 
2244.000000	99.588621 
2243.000000	99.584812 
2242.000000	99.582046 
2241.000000	99.581155 
2240.000000	99.581556 
2239.000000	99.581779 
2238.000000	99.580627 
2237.000000	99.577895 
2236.000000	99.574198 
2235.000000	99.570250 
2234.000000	99.566586 
2233.000000	99.564037 
2232.000000	99.563803 
2231.000000	99.566426 
2230.000000	99.570941 
2229.000000	99.575654 
2228.000000	99.579777 
2227.000000	99.583443 
2226.000000	99.586171 
2225.000000	99.586557 
2224.000000	99.583991 
2223.000000	99.579930 
2222.000000	99.576916 
2221.000000	99.576438 
2220.000000	99.578126 
2219.000000	99.580610 
2218.000000	99.582761 
2217.000000	99.584337 
2216.000000	99.585822 
2215.000000	99.587615 
2214.000000	99.589253 
2213.000000	99.589616 
2212.000000	99.588024 
2211.000000	99.585035 
2210.000000	99.582203 
2209.000000	99.580984 
2208.000000	99.581671 
2207.000000	99.583100 
2206.000000	99.583450 
2205.000000	99.581761 
2204.000000	99.578620 
2203.000000	99.575491 
2202.000000	99.573483 
2201.000000	99.572900 
2200.000000	99.573505 
2199.000000	99.574625 
2198.000000	99.575234 
2197.000000	99.574658 
2196.000000	99.573310 
2195.000000	99.572401 
2194.000000	99.572705 
2193.000000	99.573904 
2192.000000	99.575047 
2191.000000	99.575398 
2190.000000	99.574825 
2189.000000	99.573691 
2188.000000	99.572726 
2187.000000	99.572588 
2186.000000	99.573399 
2185.000000	99.574731 
2184.000000	99.576046 
2183.000000	99.577088 
2182.000000	99.577671 
2181.000000	99.577618 
2180.000000	99.577117 
2179.000000	99.576756 
2178.000000	99.576873 
2177.000000	99.577160 
2176.000000	99.577104 
2175.000000	99.576577 
2174.000000	99.575803 
2173.000000	99.575053 
2172.000000	99.574587 
2171.000000	99.574634 
2170.000000	99.575212 
2169.000000	99.576080 
2168.000000	99.577007 
2167.000000	99.577950 
2166.000000	99.578821 
2165.000000	99.579368 
2164.000000	99.579516 
2163.000000	99.579590 
2162.000000	99.579996 
2161.000000	99.580780 
2160.000000	99.581705 
2159.000000	99.582543 
2158.000000	99.583134 
2157.000000	99.583365 
2156.000000	99.583338 
2155.000000	99.583385 
2154.000000	99.583721 
2153.000000	99.584196 
2152.000000	99.584584 
2151.000000	99.584957 
2150.000000	99.585588 
2149.000000	99.586595 
2148.000000	99.587795 
2147.000000	99.588772 
2146.000000	99.589164 
2145.000000	99.588911 
2144.000000	99.588322 
2143.000000	99.587921 
2142.000000	99.587906 
2141.000000	99.588062 
2140.000000	99.588079 
2139.000000	99.587915 
2138.000000	99.587737 
2137.000000	99.587599 
2136.000000	99.587394 
2135.000000	99.587098 
2134.000000	99.586859 
2133.000000	99.586786 
2132.000000	99.586810 
2131.000000	99.586737 
2130.000000	99.586412 
2129.000000	99.585806 
2128.000000	99.585025 
2127.000000	99.584255 
2126.000000	99.583599 
2125.000000	99.582974 
2124.000000	99.582267 
2123.000000	99.581642 
2122.000000	99.581428 
2121.000000	99.581649 
2120.000000	99.581855 
2119.000000	99.581584 
2118.000000	99.580825 
2117.000000	99.579927 
2116.000000	99.579197 
2115.000000	99.578747 
2114.000000	99.578653 
2113.000000	99.578931 
2112.000000	99.579330 
2111.000000	99.579342 
2110.000000	99.578560 
2109.000000	99.577013 
2108.000000	99.575241 
2107.000000	99.573963 
2106.000000	99.573409 
2105.000000	99.572941 
2104.000000	99.571596 
2103.000000	99.569216 
2102.000000	99.566842 
2101.000000	99.565703 
2100.000000	99.566076 
2099.000000	99.567206 
2098.000000	99.568177 
2097.000000	99.568726 
2096.000000	99.569106 
2095.000000	99.569372 
2094.000000	99.568859 
2093.000000	99.566668 
2092.000000	99.563014 
2091.000000	99.559889 
2090.000000	99.559402 
2089.000000	99.561470 
2088.000000	99.563856 
2087.000000	99.564626 
2086.000000	99.564121 
2085.000000	99.563955 
2084.000000	99.564882 
2083.000000	99.566257 
2082.000000	99.567179 
2081.000000	99.567532 
2080.000000	99.567865 
2079.000000	99.568647 
2078.000000	99.569835 
2077.000000	99.571115 
2076.000000	99.572448 
2075.000000	99.574119 
2074.000000	99.576048 
2073.000000	99.577421 
2072.000000	99.577454 
2071.000000	99.576278 
2070.000000	99.574685 
2069.000000	99.573219 
2068.000000	99.571977 
2067.000000	99.571065 
2066.000000	99.570613 
2065.000000	99.570395 
2064.000000	99.570052 
2063.000000	99.569733 
2062.000000	99.569969 
2061.000000	99.570906 
2060.000000	99.572070 
2059.000000	99.572998 
2058.000000	99.573521 
2057.000000	99.573485 
2056.000000	99.572694 
2055.000000	99.571188 
2054.000000	99.569416 
2053.000000	99.567976 
2052.000000	99.567195 
2051.000000	99.567005 
2050.000000	99.567017 
2049.000000	99.566714 
2048.000000	99.565848 
2047.000000	99.564590 
2046.000000	99.563357 
2045.000000	99.562464 
2044.000000	99.561934 
2043.000000	99.561601 
2042.000000	99.561301 
2041.000000	99.560933 
2040.000000	99.560445 
2039.000000	99.559878 
2038.000000	99.559376 
2037.000000	99.559023 
2036.000000	99.558714 
2035.000000	99.558255 
2034.000000	99.557579 
2033.000000	99.556796 
2032.000000	99.556063 
2031.000000	99.555458 
2030.000000	99.554999 
2029.000000	99.554684 
2028.000000	99.554494 
2027.000000	99.554365 
2026.000000	99.554240 
2025.000000	99.554131 
2024.000000	99.554106 
2023.000000	99.554136 
2022.000000	99.554020 
2021.000000	99.553553 
2020.000000	99.552818 
2019.000000	99.552319 
2018.000000	99.552469 
2017.000000	99.553196 
2016.000000	99.553958 
2015.000000	99.554314 
2014.000000	99.554299 
2013.000000	99.554213 
2012.000000	99.554345 
2011.000000	99.554820 
2010.000000	99.555655 
2009.000000	99.556802 
2008.000000	99.558080 
2007.000000	99.559226 
2006.000000	99.560047 
2005.000000	99.560499 
2004.000000	99.560710 
2003.000000	99.560876 
2002.000000	99.561121 
2001.000000	99.561437 
2000.000000	99.561745 
1999.000000	99.561998 
1998.000000	99.562215 
1997.000000	99.562455 
1996.000000	99.562796 
1995.000000	99.563292 
1994.000000	99.563903 
1993.000000	99.564459 
1992.000000	99.564783 
1991.000000	99.564869 
1990.000000	99.564869 
1989.000000	99.564954 
1988.000000	99.565184 
1987.000000	99.565496 
1986.000000	99.565745 
1985.000000	99.565802 
1984.000000	99.565659 
1983.000000	99.565431 
1982.000000	99.565266 
1981.000000	99.565184 
1980.000000	99.565049 
1979.000000	99.564729 
1978.000000	99.564247 
1977.000000	99.563749 
1976.000000	99.563308 
1975.000000	99.562911 
1974.000000	99.562584 
1973.000000	99.562436 
1972.000000	99.562520 
1971.000000	99.562725 
1970.000000	99.562849 
1969.000000	99.562714 
1968.000000	99.562253 
1967.000000	99.561584 
1966.000000	99.560989 
1965.000000	99.560640 
1964.000000	99.560482 
1963.000000	99.560320 
1962.000000	99.560037 
1961.000000	99.559661 
1960.000000	99.559291 
1959.000000	99.559037 
1958.000000	99.559028 
1957.000000	99.559298 
1956.000000	99.559615 
1955.000000	99.559637 
1954.000000	99.559317 
1953.000000	99.558949 
1952.000000	99.558668 
1951.000000	99.558170 
1950.000000	99.557175 
1949.000000	99.556026 
1948.000000	99.555510 
1947.000000	99.555997 
1946.000000	99.556846 
1945.000000	99.556732 
1944.000000	99.554818 
1943.000000	99.551851 
1942.000000	99.550031 
1941.000000	99.550842 
1940.000000	99.553547 
1939.000000	99.556028 
1938.000000	99.557162 
1937.000000	99.557764 
1936.000000	99.559044 
1935.000000	99.560802 
1934.000000	99.561845 
1933.000000	99.562003 
1932.000000	99.562737 
1931.000000	99.565411 
1930.000000	99.569394 
1929.000000	99.572439 
1928.000000	99.573144 
1927.000000	99.572162 
1926.000000	99.571153 
1925.000000	99.570968 
1924.000000	99.571254 
1923.000000	99.571534 
1922.000000	99.571900 
1921.000000	99.572510 
1920.000000	99.572847 
1919.000000	99.571936 
1918.000000	99.569331 
1917.000000	99.565930 
1916.000000	99.563392 
1915.000000	99.562577 
1914.000000	99.563180 
1913.000000	99.564570 
1912.000000	99.566447 
1911.000000	99.568618 
1910.000000	99.570335 
1909.000000	99.570700 
1908.000000	99.569966 
1907.000000	99.569573 
1906.000000	99.570613 
1905.000000	99.572632 
1904.000000	99.574200 
1903.000000	99.574385 
1902.000000	99.573188 
1901.000000	99.571233 
1900.000000	99.569415 
1899.000000	99.568497 
1898.000000	99.568709 
1897.000000	99.569614 
1896.000000	99.570618 
1895.000000	99.571409 
1894.000000	99.571826 
1893.000000	99.571800 
1892.000000	99.571650 
1891.000000	99.571851 
1890.000000	99.572107 
1889.000000	99.571292 
1888.000000	99.569089 
1887.000000	99.566797 
1886.000000	99.565872 
1885.000000	99.566463 
1884.000000	99.567761 
1883.000000	99.569343 
1882.000000	99.571248 
1881.000000	99.573071 
1880.000000	99.574168 
1879.000000	99.574700 
1878.000000	99.575739 
1877.000000	99.577975 
1876.000000	99.580728 
1875.000000	99.582595 
1874.000000	99.582691 
1873.000000	99.581056 
1872.000000	99.578524 
1871.000000	99.576225 
1870.000000	99.574749 
1869.000000	99.573679 
1868.000000	99.572533 
1867.000000	99.571808 
1866.000000	99.571962 
1865.000000	99.572182 
1864.000000	99.571104 
1863.000000	99.568549 
1862.000000	99.566084 
1861.000000	99.565581 
1860.000000	99.567607 
1859.000000	99.571350 
1858.000000	99.575277 
1857.000000	99.577907 
1856.000000	99.578656 
1855.000000	99.578238 
1854.000000	99.577923 
1853.000000	99.578170 
1852.000000	99.578421 
1851.000000	99.578140 
1850.000000	99.577710 
1849.000000	99.578052 
1848.000000	99.579453 
1847.000000	99.581178 
1846.000000	99.582182 
1845.000000	99.582098 
1844.000000	99.581549 
1843.000000	99.581504 
1842.000000	99.582089 
1841.000000	99.582555 
1840.000000	99.582247 
1839.000000	99.581135 
1838.000000	99.579817 
1837.000000	99.579053 
1836.000000	99.579165 
1835.000000	99.579907 
1834.000000	99.580709 
1833.000000	99.581124 
1832.000000	99.581058 
1831.000000	99.580610 
1830.000000	99.580018 
1829.000000	99.579654 
1828.000000	99.579701 
1827.000000	99.579987 
1826.000000	99.580257 
1825.000000	99.580405 
1824.000000	99.580448 
1823.000000	99.580388 
1822.000000	99.580120 
1821.000000	99.579633 
1820.000000	99.579238 
1819.000000	99.579391 
1818.000000	99.580253 
1817.000000	99.581348 
1816.000000	99.581995 
1815.000000	99.582126 
1814.000000	99.582209 
1813.000000	99.582589 
1812.000000	99.583142 
1811.000000	99.583713 
1810.000000	99.584378 
1809.000000	99.584933 
1808.000000	99.584870 
1807.000000	99.584025 
1806.000000	99.582767 
1805.000000	99.581614 
1804.000000	99.580878 
1803.000000	99.580628 
1802.000000	99.580619 
1801.000000	99.580427 
1800.000000	99.579932 
1799.000000	99.579622 
1798.000000	99.579996 
1797.000000	99.580914 
1796.000000	99.581806 
1795.000000	99.582316 
1794.000000	99.582436 
1793.000000	99.582193 
1792.000000	99.581563 
1791.000000	99.580826 
1790.000000	99.580399 
1789.000000	99.580303 
1788.000000	99.580363 
1787.000000	99.580584 
1786.000000	99.581101 
1785.000000	99.581801 
1784.000000	99.582312 
1783.000000	99.582429 
1782.000000	99.582238 
1781.000000	99.581952 
1780.000000	99.581681 
1779.000000	99.581442 
1778.000000	99.581319 
1777.000000	99.581422 
1776.000000	99.581748 
1775.000000	99.582117 
1774.000000	99.582338 
1773.000000	99.582425 
1772.000000	99.582524 
1771.000000	99.582681 
1770.000000	99.582797 
1769.000000	99.582805 
1768.000000	99.582760 
1767.000000	99.582770 
1766.000000	99.582880 
1765.000000	99.583055 
1764.000000	99.583232 
1763.000000	99.583365 
1762.000000	99.583449 
1761.000000	99.583532 
1760.000000	99.583650 
1759.000000	99.583816 
1758.000000	99.584082 
1757.000000	99.584512 
1756.000000	99.585068 
1755.000000	99.585535 
1754.000000	99.585752 
1753.000000	99.585785 
1752.000000	99.585833 
1751.000000	99.585908 
1750.000000	99.585827 
1749.000000	99.585584 
1748.000000	99.585454 
1747.000000	99.585645 
1746.000000	99.586063 
1745.000000	99.586480 
1744.000000	99.586751 
1743.000000	99.586899 
1742.000000	99.587073 
1741.000000	99.587387 
1740.000000	99.587795 
1739.000000	99.588196 
1738.000000	99.588535 
1737.000000	99.588737 
1736.000000	99.588773 
1735.000000	99.588917 
1734.000000	99.589201 
1733.000000	99.589332 
1732.000000	99.589204 
1731.000000	99.588750 
1730.000000	99.588051 
1729.000000	99.587391 
1728.000000	99.587008 
1727.000000	99.586921 
1726.000000	99.587042 
1725.000000	99.587314 
1724.000000	99.587522 
1723.000000	99.587458 
1722.000000	99.587181 
1721.000000	99.586893 
1720.000000	99.586761 
1719.000000	99.586945 
1718.000000	99.587378 
1717.000000	99.587423 
1716.000000	99.586739 
1715.000000	99.585912 
1714.000000	99.585495 
1713.000000	99.585254 
1712.000000	99.584740 
1711.000000	99.584015 
1710.000000	99.583464 
1709.000000	99.583209 
1708.000000	99.583041 
1707.000000	99.582777 
1706.000000	99.582439 
1705.000000	99.581905 
1704.000000	99.581057 
1703.000000	99.580080 
1702.000000	99.579358 
1701.000000	99.578940 
1700.000000	99.577905 
1699.000000	99.576271 
1698.000000	99.575151 
1697.000000	99.574700 
1696.000000	99.574387 
1695.000000	99.573707 
1694.000000	99.572687 
1693.000000	99.571627 
1692.000000	99.570620 
1691.000000	99.569816 
1690.000000	99.569282 
1689.000000	99.568874 
1688.000000	99.568468 
1687.000000	99.568020 
1686.000000	99.567715 
1685.000000	99.567650 
1684.000000	99.567253 
1683.000000	99.566379 
1682.000000	99.565347 
1681.000000	99.564281 
1680.000000	99.563474 
1679.000000	99.563019 
1678.000000	99.562609 
1677.000000	99.562049 
1676.000000	99.561551 
1675.000000	99.561324 
1674.000000	99.561270 
1673.000000	99.561343 
1672.000000	99.561514 
1671.000000	99.561645 
1670.000000	99.561369 
1669.000000	99.560508 
1668.000000	99.559510 
1667.000000	99.558703 
1666.000000	99.557925 
1665.000000	99.557048 
1664.000000	99.556306 
1663.000000	99.556088 
1662.000000	99.556285 
1661.000000	99.556433 
1660.000000	99.556503 
1659.000000	99.556797 
1658.000000	99.557394 
1657.000000	99.557938 
1656.000000	99.558019 
1655.000000	99.557432 
1654.000000	99.556545 
1653.000000	99.555780 
1652.000000	99.555611 
1651.000000	99.556127 
1650.000000	99.556683 
1649.000000	99.556887 
1648.000000	99.556762 
1647.000000	99.556306 
1646.000000	99.555732 
1645.000000	99.555527 
1644.000000	99.555887 
1643.000000	99.556674 
1642.000000	99.557525 
1641.000000	99.558179 
1640.000000	99.558674 
1639.000000	99.559161 
1638.000000	99.559773 
1637.000000	99.560736 
1636.000000	99.562164 
1635.000000	99.563500 
1634.000000	99.564072 
1633.000000	99.563724 
1632.000000	99.562678 
1631.000000	99.561485 
1630.000000	99.560691 
1629.000000	99.560542 
1628.000000	99.561062 
1627.000000	99.562052 
1626.000000	99.562958 
1625.000000	99.563330 
1624.000000	99.563405 
1623.000000	99.563877 
1622.000000	99.565013 
1621.000000	99.566440 
1620.000000	99.567752 
1619.000000	99.568732 
1618.000000	99.569390 
1617.000000	99.569772 
1616.000000	99.570424 
1615.000000	99.571927 
1614.000000	99.573815 
1613.000000	99.575488 
1612.000000	99.577218 
1611.000000	99.579279 
1610.000000	99.580782 
1609.000000	99.580710 
1608.000000	99.579502 
1607.000000	99.578491 
1606.000000	99.578144 
1605.000000	99.578266 
1604.000000	99.578956 
1603.000000	99.580331 
1602.000000	99.582092 
1601.000000	99.583795 
1600.000000	99.585232 
1599.000000	99.586199 
1598.000000	99.586457 
1597.000000	99.586203 
1596.000000	99.586016 
1595.000000	99.586115 
1594.000000	99.586071 
1593.000000	99.585722 
1592.000000	99.585771 
1591.000000	99.586829 
1590.000000	99.588332 
1589.000000	99.589236 
1588.000000	99.589468 
1587.000000	99.589821 
1586.000000	99.590638 
1585.000000	99.591466 
1584.000000	99.592118 
1583.000000	99.592500 
1582.000000	99.592112 
1581.000000	99.590769 
1580.000000	99.589022 
1579.000000	99.587362 
1578.000000	99.585897 
1577.000000	99.584885 
1576.000000	99.584558 
1575.000000	99.584799 
1574.000000	99.585052 
1573.000000	99.584999 
1572.000000	99.584945 
1571.000000	99.585454 
1570.000000	99.586280 
1569.000000	99.586659 
1568.000000	99.586639 
1567.000000	99.586383 
1566.000000	99.585854 
1565.000000	99.585196 
1564.000000	99.584767 
1563.000000	99.584422 
1562.000000	99.583949 
1561.000000	99.583399 
1560.000000	99.583653 
1559.000000	99.583848 
1558.000000	99.583639 
1557.000000	99.583860 
1556.000000	99.584166 
1555.000000	99.584189 
1554.000000	99.583798 
1553.000000	99.583143 
1552.000000	99.582449 
1551.000000	99.581762 
1550.000000	99.581230 
1549.000000	99.581016 
1548.000000	99.581054 
1547.000000	99.580999 
1546.000000	99.580505 
1545.000000	99.579596 
1544.000000	99.578810 
1543.000000	99.578748 
1542.000000	99.579515 
1541.000000	99.580639 
1540.000000	99.581393 
1539.000000	99.581717 
1538.000000	99.581931 
1537.000000	99.582124 
1536.000000	99.582294 
1535.000000	99.582535 
1534.000000	99.582753 
1533.000000	99.582672 
1532.000000	99.582367 
1531.000000	99.582216 
1530.000000	99.582400 
1529.000000	99.582719 
1528.000000	99.582853 
1527.000000	99.582843 
1526.000000	99.583042 
1525.000000	99.583592 
1524.000000	99.584335 
1523.000000	99.585290 
1522.000000	99.586601 
1521.000000	99.587750 
1520.000000	99.587958 
1519.000000	99.587124 
1518.000000	99.585741 
1517.000000	99.584592 
1516.000000	99.584202 
1515.000000	99.584402 
1514.000000	99.584734 
1513.000000	99.585077 
1512.000000	99.585439 
1511.000000	99.585686 
1510.000000	99.585817 
1509.000000	99.586094 
1508.000000	99.587122 
1507.000000	99.589155 
1506.000000	99.591365 
1505.000000	99.592438 
1504.000000	99.592435 
1503.000000	99.592171 
1502.000000	99.592072 
1501.000000	99.592125 
1500.000000	99.591947 
1499.000000	99.591248 
1498.000000	99.590345 
1497.000000	99.589836 
1496.000000	99.589824 
1495.000000	99.590407 
1494.000000	99.591860 
1493.000000	99.594084 
1492.000000	99.596519 
1491.000000	99.598409 
1490.000000	99.599158 
1489.000000	99.598681 
1488.000000	99.597324 
1487.000000	99.595805 
1486.000000	99.594617 
1485.000000	99.593570 
1484.000000	99.592594 
1483.000000	99.592031 
1482.000000	99.592286 
1481.000000	99.593168 
1480.000000	99.593927 
1479.000000	99.594145 
1478.000000	99.594028 
1477.000000	99.593823 
1476.000000	99.593528 
1475.000000	99.593388 
1474.000000	99.593848 
1473.000000	99.594867 
1472.000000	99.595736 
1471.000000	99.596079 
1470.000000	99.596179 
1469.000000	99.596230 
1468.000000	99.596120 
1467.000000	99.595799 
1466.000000	99.595473 
1465.000000	99.595452 
1464.000000	99.595839 
1463.000000	99.596393 
1462.000000	99.596890 
1461.000000	99.597210 
1460.000000	99.597215 
1459.000000	99.596693 
1458.000000	99.595564 
1457.000000	99.594070 
1456.000000	99.592819 
1455.000000	99.592185 
1454.000000	99.592119 
1453.000000	99.592610 
1452.000000	99.593591 
1451.000000	99.594656 
1450.000000	99.595252 
1449.000000	99.595075 
1448.000000	99.594224 
1447.000000	99.593304 
1446.000000	99.592882 
1445.000000	99.593072 
1444.000000	99.593611 
1443.000000	99.594110 
1442.000000	99.594418 
1441.000000	99.594573 
1440.000000	99.594540 
1439.000000	99.594218 
1438.000000	99.593953 
1437.000000	99.594077 
1436.000000	99.594067 
1435.000000	99.593350 
1434.000000	99.592280 
1433.000000	99.591378 
1432.000000	99.590682 
1431.000000	99.589797 
1430.000000	99.588639 
1429.000000	99.587720 
1428.000000	99.587251 
1427.000000	99.586983 
1426.000000	99.586723 
1425.000000	99.586863 
1424.000000	99.587647 
1423.000000	99.588286 
1422.000000	99.587906 
1421.000000	99.586575 
1420.000000	99.585030 
1419.000000	99.583674 
1418.000000	99.582833 
1417.000000	99.582714 
1416.000000	99.582783 
1415.000000	99.582529 
1414.000000	99.582070 
1413.000000	99.581868 
1412.000000	99.582027 
1411.000000	99.581978 
1410.000000	99.581283 
1409.000000	99.580159 
1408.000000	99.579051 
1407.000000	99.578457 
1406.000000	99.578664 
1405.000000	99.579569 
1404.000000	99.580709 
1403.000000	99.581710 
1402.000000	99.582837 
1401.000000	99.584430 
1400.000000	99.586128 
1399.000000	99.587037 
1398.000000	99.586915 
1397.000000	99.586247 
1396.000000	99.585330 
1395.000000	99.584286 
1394.000000	99.583659 
1393.000000	99.584165 
1392.000000	99.585726 
1391.000000	99.587476 
1390.000000	99.588666 
1389.000000	99.589188 
1388.000000	99.589295 
1387.000000	99.589212 
1386.000000	99.589095 
1385.000000	99.589109 
1384.000000	99.589294 
1383.000000	99.589459 
1382.000000	99.589433 
1381.000000	99.589311 
1380.000000	99.589417 
1379.000000	99.589973 
1378.000000	99.590869 
1377.000000	99.591810 
1376.000000	99.592600 
1375.000000	99.593237 
1374.000000	99.593825 
1373.000000	99.594488 
1372.000000	99.595217 
1371.000000	99.595872 
1370.000000	99.596273 
1369.000000	99.596380 
1368.000000	99.596342 
1367.000000	99.596362 
1366.000000	99.596554 
1365.000000	99.596922 
1364.000000	99.597405 
1363.000000	99.597905 
1362.000000	99.598319 
1361.000000	99.598590 
1360.000000	99.598770 
1359.000000	99.599021 
1358.000000	99.599497 
1357.000000	99.600187 
1356.000000	99.600890 
1355.000000	99.601400 
1354.000000	99.601731 
1353.000000	99.602036 
1352.000000	99.602336 
1351.000000	99.602535 
1350.000000	99.602619 
1349.000000	99.602759 
1348.000000	99.603059 
1347.000000	99.603366 
1346.000000	99.603491 
1345.000000	99.603471 
1344.000000	99.603492 
1343.000000	99.603643 
1342.000000	99.603878 
1341.000000	99.604159 
1340.000000	99.604509 
1339.000000	99.604891 
1338.000000	99.605189 
1337.000000	99.605368 
1336.000000	99.605525 
1335.000000	99.605736 
1334.000000	99.605941 
1333.000000	99.606027 
1332.000000	99.605981 
1331.000000	99.605885 
1330.000000	99.605800 
1329.000000	99.605760 
1328.000000	99.605817 
1327.000000	99.605989 
1326.000000	99.606173 
1325.000000	99.606251 
1324.000000	99.606234 
1323.000000	99.606201 
1322.000000	99.606153 
1321.000000	99.606062 
1320.000000	99.606042 
1319.000000	99.606300 
1318.000000	99.606834 
1317.000000	99.607264 
1316.000000	99.607183 
1315.000000	99.606581 
1314.000000	99.605909 
1313.000000	99.605618 
1312.000000	99.605692 
1311.000000	99.605751 
1310.000000	99.605546 
1309.000000	99.605219 
1308.000000	99.605053 
1307.000000	99.605115 
1306.000000	99.605224 
1305.000000	99.605238 
1304.000000	99.605230 
1303.000000	99.605363 
1302.000000	99.605690 
1301.000000	99.606060 
1300.000000	99.606234 
1299.000000	99.606140 
1298.000000	99.606030 
1297.000000	99.606272 
1296.000000	99.606906 
1295.000000	99.607514 
1294.000000	99.607624 
1293.000000	99.607133 
1292.000000	99.606280 
1291.000000	99.605410 
1290.000000	99.604888 
1289.000000	99.605064 
1288.000000	99.606013 
1287.000000	99.607255 
1286.000000	99.607994 
1285.000000	99.607809 
1284.000000	99.606918 
1283.000000	99.605811 
1282.000000	99.604778 
1281.000000	99.603873 
1280.000000	99.603180 
1279.000000	99.602810 
1278.000000	99.602728 
1277.000000	99.602807 
1276.000000	99.603051 
1275.000000	99.603561 
1274.000000	99.604213 
1273.000000	99.604548 
1272.000000	99.604220 
1271.000000	99.603488 
1270.000000	99.603070 
1269.000000	99.603402 
1268.000000	99.604219 
1267.000000	99.604893 
1266.000000	99.605026 
1265.000000	99.604690 
1264.000000	99.604167 
1263.000000	99.603615 
1262.000000	99.602932 
1261.000000	99.601904 
1260.000000	99.600615 
1259.000000	99.599638 
1258.000000	99.599530 
1257.000000	99.600105 
1256.000000	99.600605 
1255.000000	99.600870 
1254.000000	99.601794 
1253.000000	99.604077 
1252.000000	99.606893 
1251.000000	99.608597 
1250.000000	99.608632 
1249.000000	99.607907 
1248.000000	99.607362 
1247.000000	99.606946 
1246.000000	99.606161 
1245.000000	99.604666 
1244.000000	99.602076 
1243.000000	99.598194 
1242.000000	99.593988 
1241.000000	99.591420 
1240.000000	99.591514 
1239.000000	99.593103 
1238.000000	99.594100 
1237.000000	99.593703 
1236.000000	99.592745 
1235.000000	99.592313 
1234.000000	99.592726 
1233.000000	99.593490 
1232.000000	99.593417 
1231.000000	99.591037 
1230.000000	99.585995 
1229.000000	99.580241 
1228.000000	99.576952 
1227.000000	99.577579 
1226.000000	99.580287 
1225.000000	99.581660 
1224.000000	99.579855 
1223.000000	99.575730 
1222.000000	99.571304 
1221.000000	99.567683 
1220.000000	99.564720 
1219.000000	99.562150 
1218.000000	99.560123 
1217.000000	99.558438 
1216.000000	99.555982 
1215.000000	99.551658 
1214.000000	99.545553 
1213.000000	99.538625 
1212.000000	99.531505 
1211.000000	99.524446 
1210.000000	99.518226 
1209.000000	99.513906 
1208.000000	99.511324 
1207.000000	99.508754 
1206.000000	99.504696 
1205.000000	99.499350 
1204.000000	99.493805 
1203.000000	99.488549 
1202.000000	99.483563 
1201.000000	99.479225 
1200.000000	99.476025 
1199.000000	99.473556 
1198.000000	99.470703 
1197.000000	99.466800 
1196.000000	99.461710 
1195.000000	99.455038 
1194.000000	99.446326 
1193.000000	99.436161 
1192.000000	99.426343 
1191.000000	99.418404 
1190.000000	99.412198 
1189.000000	99.406375 
1188.000000	99.399959 
1187.000000	99.393181 
1186.000000	99.386957 
1185.000000	99.381829 
1184.000000	99.377354 
1183.000000	99.372443 
1182.000000	99.366392 
1181.000000	99.359587 
1180.000000	99.352998 
1179.000000	99.346957 
1178.000000	99.340787 
1177.000000	99.333793 
1176.000000	99.326187 
1175.000000	99.318614 
1174.000000	99.311014 
1173.000000	99.302607 
1172.000000	99.293111 
1171.000000	99.283408 
1170.000000	99.274617 
1169.000000	99.266803 
1168.000000	99.259041 
1167.000000	99.250783 
1166.000000	99.242910 
1165.000000	99.237255 
1164.000000	99.235156 
1163.000000	99.236467 
1162.000000	99.239736 
1161.000000	99.243318 
1160.000000	99.246378 
1159.000000	99.248662 
1158.000000	99.249320 
1157.000000	99.246410 
1156.000000	99.238226 
1155.000000	99.225423 
1154.000000	99.211679 
1153.000000	99.201387 
1152.000000	99.196153 
1151.000000	99.193683 
1150.000000	99.190111 
1149.000000	99.183499 
1148.000000	99.175069 
1147.000000	99.167277 
1146.000000	99.160977 
1145.000000	99.154701 
1144.000000	99.146542 
1143.000000	99.136284 
1142.000000	99.125634 
1141.000000	99.116655 
1140.000000	99.110208 
1139.000000	99.105633 
1138.000000	99.101397 
1137.000000	99.096027 
1136.000000	99.088903 
1135.000000	99.080464 
1134.000000	99.071563 
1133.000000	99.062501 
1132.000000	99.052971 
1131.000000	99.043106 
1130.000000	99.034111 
1129.000000	99.027246 
1128.000000	99.022160 
1127.000000	99.016682 
1126.000000	99.008649 
1125.000000	98.997891 
1124.000000	98.986373 
1123.000000	98.976485 
1122.000000	98.969120 
1121.000000	98.963254 
1120.000000	98.957049 
1119.000000	98.949485 
1118.000000	98.940996 
1117.000000	98.932677 
1116.000000	98.925118 
1115.000000	98.918165 
1114.000000	98.911578 
1113.000000	98.905533 
1112.000000	98.900288 
1111.000000	98.895377 
1110.000000	98.889313 
1109.000000	98.880592 
1108.000000	98.869423 
1107.000000	98.858403 
1106.000000	98.850600 
1105.000000	98.846338 
1104.000000	98.842444 
1103.000000	98.835528 
1102.000000	98.825722 
1101.000000	98.816158 
1100.000000	98.808919 
1099.000000	98.803338 
1098.000000	98.798282 
1097.000000	98.794220 
1096.000000	98.791758 
1095.000000	98.789503 
1094.000000	98.785314 
1093.000000	98.779029 
1092.000000	98.772152 
1091.000000	98.765200 
1090.000000	98.757274 
1089.000000	98.748376 
1088.000000	98.740219 
1087.000000	98.734004 
1086.000000	98.728899 
1085.000000	98.723769 
1084.000000	98.719242 
1083.000000	98.716776 
1082.000000	98.716123 
1081.000000	98.714689 
1080.000000	98.709323 
1079.000000	98.698487 
1078.000000	98.683410 
1077.000000	98.667772 
1076.000000	98.655688 
1075.000000	98.648914 
1074.000000	98.645696 
1073.000000	98.642398 
1072.000000	98.636040 
1071.000000	98.625396 
1070.000000	98.610758 
1069.000000	98.593455 
1068.000000	98.575231 
1067.000000	98.557356 
1066.000000	98.540227 
1065.000000	98.523983 
1064.000000	98.509119 
1063.000000	98.495932 
1062.000000	98.483459 
1061.000000	98.469527 
1060.000000	98.452274 
1059.000000	98.431848 
1058.000000	98.410604 
1057.000000	98.391277 
1056.000000	98.374595 
1055.000000	98.358890 
1054.000000	98.342340 
1053.000000	98.325213 
1052.000000	98.309247 
1051.000000	98.295118 
1050.000000	98.281427 
1049.000000	98.266059 
1048.000000	98.247603 
1047.000000	98.226009 
1046.000000	98.203251 
1045.000000	98.182599 
1044.000000	98.165327 
1043.000000	98.148546 
1042.000000	98.128643 
1041.000000	98.106979 
1040.000000	98.089147 
1039.000000	98.077695 
1038.000000	98.068705 
1037.000000	98.057379 
1036.000000	98.044338 
1035.000000	98.033402 
1034.000000	98.025391 
1033.000000	98.017765 
1032.000000	98.009450 
1031.000000	98.002663 
1030.000000	97.999841 
1029.000000	98.001278 
1028.000000	98.005829 
1027.000000	98.011773 
1026.000000	98.016805 
1025.000000	98.019046 
1024.000000	98.018449 
1023.000000	98.016219 
1022.000000	98.013343 
1021.000000	98.010747 
1020.000000	98.009909 
1019.000000	98.011379 
1018.000000	98.013242 
1017.000000	98.013017 
1016.000000	98.010898 
1015.000000	98.009278 
1014.000000	98.009302 
1013.000000	98.009665 
1012.000000	98.008789 
1011.000000	98.006496 
1010.000000	98.003551 
1009.000000	98.001133 
1008.000000	98.000909 
1007.000000	98.004150 
1006.000000	98.010452 
1005.000000	98.018279 
1004.000000	98.026649 
1003.000000	98.035324 
1002.000000	98.043823 
1001.000000	98.051573 
1000.000000	98.058692 
999.000000	 98.065460 
998.000000	 98.071627 
997.000000	 98.077671 
996.000000	 98.085952 
995.000000	 98.098663 
994.000000	 98.114772 
993.000000	 98.130619 
992.000000	 98.143579 
991.000000	 98.153641 
990.000000	 98.161563 
989.000000	 98.167439 
988.000000	 98.171743 
987.000000	 98.176524 
986.000000	 98.184673 
985.000000	 98.198241 
984.000000	 98.217238 
983.000000	 98.239317 
982.000000	 98.261026 
981.000000	 98.280305 
980.000000	 98.297582 
979.000000	 98.314182 
978.000000	 98.330890 
977.000000	 98.348861 
976.000000	 98.370128 
975.000000	 98.395020 
974.000000	 98.419943 
973.000000	 98.440445 
972.000000	 98.456721 
971.000000	 98.473902 
970.000000	 98.496265 
969.000000	 98.522653 
968.000000	 98.548254 
967.000000	 98.569646 
966.000000	 98.587312 
965.000000	 98.604087 
964.000000	 98.621967 
963.000000	 98.640431 
962.000000	 98.657824 
961.000000	 98.674222 
960.000000	 98.691927 
959.000000	 98.712302 
958.000000	 98.732954 
957.000000	 98.749644 
956.000000	 98.760769 
955.000000	 98.768709 
954.000000	 98.776973 
953.000000	 98.787220 
952.000000	 98.799150 
951.000000	 98.811603 
950.000000	 98.822925 
949.000000	 98.831454 
948.000000	 98.836770 
947.000000	 98.840116 
946.000000	 98.842987 
945.000000	 98.845723 
944.000000	 98.848142 
943.000000	 98.851196 
942.000000	 98.857101 
941.000000	 98.867268 
940.000000	 98.880076 
939.000000	 98.891065 
938.000000	 98.896223 
937.000000	 98.895745 
936.000000	 98.894437 
935.000000	 98.897804 
934.000000	 98.907483 
933.000000	 98.920710 
932.000000	 98.933718 
931.000000	 98.944810 
930.000000	 98.954130 
929.000000	 98.961508 
928.000000	 98.965482 
927.000000	 98.964801 
926.000000	 98.960719 
925.000000	 98.957340 
924.000000	 98.958960 
923.000000	 98.966625 
922.000000	 98.977356 
921.000000	 98.986886 
920.000000	 98.993033 
919.000000	 98.996327 
918.000000	 98.998170 
917.000000	 98.999236 
916.000000	 98.999512 
915.000000	 98.999142 
914.000000	 98.998921 
913.000000	 99.000147 
912.000000	 99.004076 
911.000000	 99.011438 
910.000000	 99.022523 
909.000000	 99.037517 
908.000000	 99.056006 
907.000000	 99.075972 
906.000000	 99.094348 
905.000000	 99.109608 
904.000000	 99.123310 
903.000000	 99.138255 
902.000000	 99.155408 
901.000000	 99.173269 
900.000000	 99.189808 
899.000000	 99.203878 
898.000000	 99.214824 
897.000000	 99.222009 
896.000000	 99.225514 
895.000000	 99.227133 
894.000000	 99.230006 
893.000000	 99.236685 
892.000000	 99.247335 
891.000000	 99.259764 
890.000000	 99.271503 
889.000000	 99.282109 
888.000000	 99.293188 
887.000000	 99.306130 
886.000000	 99.320258 
885.000000	 99.333559 
884.000000	 99.344806 
883.000000	 99.354401 
882.000000	 99.363298 
881.000000	 99.371692 
880.000000	 99.379067 
879.000000	 99.385279 
878.000000	 99.391238 
877.000000	 99.398330 
876.000000	 99.407073 
875.000000	 99.416503 
874.000000	 99.425107 
873.000000	 99.432239 
872.000000	 99.438478 
871.000000	 99.444936 
870.000000	 99.452592 
869.000000	 99.462016 
868.000000	 99.472948 
867.000000	 99.483878 
866.000000	 99.492770 
865.000000	 99.499115 
864.000000	 99.505289 
863.000000	 99.515022 
862.000000	 99.529438 
861.000000	 99.544590 
860.000000	 99.554250 
859.000000	 99.555764 
858.000000	 99.552623 
857.000000	 99.550755 
856.000000	 99.552718 
855.000000	 99.557112 
854.000000	 99.562547 
853.000000	 99.569128 
852.000000	 99.575813 
851.000000	 99.579951 
850.000000	 99.581419 
849.000000	 99.584242 
848.000000	 99.591345 
847.000000	 99.599913 
846.000000	 99.605056 
845.000000	 99.606156 
844.000000	 99.606140 
843.000000	 99.606194 
842.000000	 99.605477 
841.000000	 99.605177 
840.000000	 99.607728 
839.000000	 99.611288 
838.000000	 99.609905 
837.000000	 99.601337 
836.000000	 99.591015 
835.000000	 99.585746 
834.000000	 99.586136 
833.000000	 99.587754 
832.000000	 99.587102 
831.000000	 99.583366 
830.000000	 99.576617 
829.000000	 99.568473 
828.000000	 99.563967 
827.000000	 99.568534 
826.000000	 99.581639 
825.000000	 99.595519 
824.000000	 99.601768 
823.000000	 99.598476 
822.000000	 99.591000 
821.000000	 99.586938 
820.000000	 99.590295 
819.000000	 99.599498 
818.000000	 99.610157 
817.000000	 99.619062 
816.000000	 99.624691 
815.000000	 99.624904 
814.000000	 99.617347 
813.000000	 99.603263 
812.000000	 99.587997 
811.000000	 99.575045 
810.000000	 99.561045 
809.000000	 99.539381 
808.000000	 99.507852 
807.000000	 99.470378 
806.000000	 99.431668 
805.000000	 99.393032 
804.000000	 99.354616 
803.000000	 99.319549 
802.000000	 99.293388 
801.000000	 99.279284 
800.000000	 99.274632 
799.000000	 99.272964 
798.000000	 99.270002 
797.000000	 99.267598 
796.000000	 99.270323 
795.000000	 99.278816 
794.000000	 99.288701 
793.000000	 99.296208 
792.000000	 99.302076 
791.000000	 99.308477 
790.000000	 99.314743 
789.000000	 99.318295 
788.000000	 99.317714 
787.000000	 99.312570 
786.000000	 99.301991 
785.000000	 99.286017 
784.000000	 99.267418 
783.000000	 99.249975 
782.000000	 99.235570 
781.000000	 99.224391 
780.000000	 99.216447 
779.000000	 99.210929 
778.000000	 99.205787 
777.000000	 99.200769 
776.000000	 99.199782 
775.000000	 99.207198 
774.000000	 99.222117 
773.000000	 99.238885 
772.000000	 99.253072 
771.000000	 99.264492 
770.000000	 99.274809 
769.000000	 99.284741 
768.000000	 99.293637 
767.000000	 99.300199 
766.000000	 99.303862 
765.000000	 99.306750 
764.000000	 99.313140 
763.000000	 99.324803 
762.000000	 99.337370 
761.000000	 99.343785 
760.000000	 99.341695 
759.000000	 99.335970 
758.000000	 99.334134 
757.000000	 99.340038 
756.000000	 99.351490 
755.000000	 99.362258 
754.000000	 99.366920 
753.000000	 99.365563 
752.000000	 99.363887 
751.000000	 99.367823 
750.000000	 99.378027 
749.000000	 99.390127 
748.000000	 99.399641 
747.000000	 99.405617 
746.000000	 99.409827 
745.000000	 99.414154 
744.000000	 99.419272 
743.000000	 99.424932 
742.000000	 99.430839 
741.000000	 99.437400 
740.000000	 99.445575 
739.000000	 99.455654 
738.000000	 99.466300 
737.000000	 99.475159 
736.000000	 99.480386 
735.000000	 99.481600 
734.000000	 99.480192 
733.000000	 99.479255 
732.000000	 99.482191 
731.000000	 99.490092 
730.000000	 99.500287 
729.000000	 99.508574 
728.000000	 99.513447 
727.000000	 99.516772 
726.000000	 99.520380 
725.000000	 99.523507 
724.000000	 99.524237 
723.000000	 99.522112 
722.000000	 99.518790 
721.000000	 99.517235 
720.000000	 99.520304 
719.000000	 99.528582 
718.000000	 99.539149 
717.000000	 99.547770 
716.000000	 99.552501 
715.000000	 99.553965 
714.000000	 99.553246 
713.000000	 99.551640 
712.000000	 99.552205 
711.000000	 99.558323 
710.000000	 99.569101 
709.000000	 99.578486 
708.000000	 99.580777 
707.000000	 99.575328 
706.000000	 99.565149 
705.000000	 99.553414 
704.000000	 99.542911 
703.000000	 99.536734 
702.000000	 99.536529 
701.000000	 99.539957 
700.000000	 99.542029 
699.000000	 99.539393 
698.000000	 99.532893 
697.000000	 99.526274 
696.000000	 99.522635 
695.000000	 99.521998 
694.000000	 99.521929 
693.000000	 99.520740 
692.000000	 99.519967 
691.000000	 99.522532 
690.000000	 99.529144 
689.000000	 99.537852 
688.000000	 99.546405 
687.000000	 99.553542 
686.000000	 99.557935 
685.000000	 99.558239 
684.000000	 99.555066 
683.000000	 99.551305 
682.000000	 99.549673 
681.000000	 99.550859 
680.000000	 99.554001 
679.000000	 99.557545 
678.000000	 99.559855 
677.000000	 99.560531 
676.000000	 99.561394 
675.000000	 99.564380 
674.000000	 99.568768 
673.000000	 99.571812 
672.000000	 99.572166 
671.000000	 99.571079 
670.000000	 99.570649 
669.000000	 99.571934 
668.000000	 99.574493 
667.000000	 99.577163 
666.000000	 99.579244 
665.000000	 99.580747 
664.000000	 99.582304 
663.000000	 99.584917 
662.000000	 99.589049 
661.000000	 99.593530 
660.000000	 99.596330 
659.000000	 99.596849 
658.000000	 99.596055 
657.000000	 99.595498 
656.000000	 99.595903 
655.000000	 99.597314 
654.000000	 99.599550 
653.000000	 99.602098 
652.000000	 99.604199 
651.000000	 99.605660 
650.000000	 99.606909 

