4000.000000	99.143643 
3999.000000	99.142539 
3998.000000	99.143297 
3997.000000	99.146975 
3996.000000	99.151631 
3995.000000	99.154258 
3994.000000	99.153992 
3993.000000	99.152813 
3992.000000	99.153008 
3991.000000	99.154501 
3990.000000	99.155028 
3989.000000	99.152492 
3988.000000	99.146914 
3987.000000	99.140605 
3986.000000	99.136819 
3985.000000	99.137798 
3984.000000	99.143241 
3983.000000	99.150588 
3982.000000	99.157009 
3981.000000	99.161207 
3980.000000	99.163445 
3979.000000	99.164392 
3978.000000	99.164444 
3977.000000	99.163842 
3976.000000	99.162595 
3975.000000	99.160264 
3974.000000	99.156398 
3973.000000	99.151471 
3972.000000	99.146953 
3971.000000	99.144335 
3970.000000	99.144446 
3969.000000	99.147323 
3968.000000	99.152347 
3967.000000	99.158221 
3966.000000	99.163186 
3965.000000	99.165555 
3964.000000	99.164485 
3963.000000	99.160786 
3962.000000	99.156895 
3961.000000	99.155203 
3960.000000	99.155672 
3959.000000	99.155747 
3958.000000	99.153651 
3957.000000	99.150792 
3956.000000	99.150285 
3955.000000	99.153255 
3954.000000	99.157770 
3953.000000	99.161022 
3952.000000	99.161487 
3951.000000	99.159391 
3950.000000	99.155720 
3949.000000	99.151468 
3948.000000	99.147682 
3947.000000	99.145627 
3946.000000	99.145893 
3945.000000	99.147390 
3944.000000	99.147933 
3943.000000	99.146194 
3942.000000	99.143006 
3941.000000	99.140368 
3940.000000	99.138849 
3939.000000	99.137225 
3938.000000	99.135263 
3937.000000	99.134391 
3936.000000	99.135625 
3935.000000	99.137677 
3934.000000	99.138650 
3933.000000	99.138932 
3932.000000	99.140617 
3931.000000	99.144700 
3930.000000	99.149610 
3929.000000	99.152886 
3928.000000	99.153347 
3927.000000	99.150792 
3926.000000	99.145763 
3925.000000	99.140638 
3924.000000	99.139025 
3923.000000	99.141505 
3922.000000	99.143574 
3921.000000	99.141163 
3920.000000	99.136419 
3919.000000	99.134721 
3918.000000	99.137677 
3917.000000	99.142177 
3916.000000	99.145604 
3915.000000	99.148106 
3914.000000	99.149937 
3913.000000	99.150414 
3912.000000	99.149814 
3911.000000	99.148425 
3910.000000	99.146144 
3909.000000	99.142773 
3908.000000	99.140006 
3907.000000	99.140070 
3906.000000	99.143040 
3905.000000	99.145843 
3904.000000	99.145588 
3903.000000	99.143716 
3902.000000	99.143621 
3901.000000	99.144893 
3900.000000	99.144309 
3899.000000	99.141016 
3898.000000	99.136504 
3897.000000	99.130891 
3896.000000	99.123270 
3895.000000	99.116172 
3894.000000	99.116074 
3893.000000	99.125249 
3892.000000	99.136884 
3891.000000	99.142227 
3890.000000	99.144012 
3889.000000	99.148387 
3888.000000	99.152990 
3887.000000	99.151992 
3886.000000	99.144691 
3885.000000	99.136979 
3884.000000	99.136776 
3883.000000	99.142419 
3882.000000	99.145235 
3881.000000	99.141685 
3880.000000	99.134898 
3879.000000	99.130828 
3878.000000	99.132759 
3877.000000	99.136923 
3876.000000	99.138297 
3875.000000	99.134926 
3874.000000	99.128899 
3873.000000	99.125558 
3872.000000	99.125482 
3871.000000	99.122454 
3870.000000	99.114303 
3869.000000	99.110656 
3868.000000	99.120915 
3867.000000	99.135807 
3866.000000	99.141172 
3865.000000	99.139586 
3864.000000	99.141772 
3863.000000	99.148019 
3862.000000	99.150100 
3861.000000	99.143853 
3860.000000	99.134219 
3859.000000	99.125408 
3858.000000	99.117373 
3857.000000	99.109359 
3856.000000	99.105289 
3855.000000	99.110512 
3854.000000	99.118460 
3853.000000	99.115846 
3852.000000	99.114942 
3851.000000	99.128860 
3850.000000	99.142379 
3849.000000	99.145285 
3848.000000	99.144297 
3847.000000	99.146454 
3846.000000	99.150702 
3845.000000	99.152224 
3844.000000	99.148641 
3843.000000	99.141938 
3842.000000	99.136931 
3841.000000	99.135568 
3840.000000	99.136917 
3839.000000	99.139401 
3838.000000	99.142112 
3837.000000	99.144301 
3836.000000	99.146547 
3835.000000	99.148722 
3834.000000	99.149097 
3833.000000	99.146152 
3832.000000	99.140803 
3831.000000	99.136517 
3830.000000	99.136573 
3829.000000	99.140121 
3828.000000	99.142355 
3827.000000	99.139006 
3826.000000	99.132705 
3825.000000	99.131300 
3824.000000	99.138780 
3823.000000	99.150685 
3822.000000	99.157638 
3821.000000	99.151699 
3820.000000	99.141490 
3819.000000	99.139967 
3818.000000	99.140451 
3817.000000	99.133471 
3816.000000	99.122667 
3815.000000	99.119291 
3814.000000	99.127541 
3813.000000	99.135996 
3812.000000	99.134006 
3811.000000	99.127064 
3810.000000	99.125875 
3809.000000	99.131822 
3808.000000	99.136295 
3807.000000	99.133115 
3806.000000	99.129530 
3805.000000	99.135365 
3804.000000	99.144864 
3803.000000	99.145458 
3802.000000	99.134275 
3801.000000	99.119414 
3800.000000	99.115916 
3799.000000	99.124647 
3798.000000	99.129780 
3797.000000	99.125089 
3796.000000	99.118763 
3795.000000	99.119910 
3794.000000	99.127763 
3793.000000	99.135110 
3792.000000	99.138148 
3791.000000	99.138598 
3790.000000	99.138319 
3789.000000	99.138274 
3788.000000	99.140429 
3787.000000	99.146481 
3786.000000	99.153988 
3785.000000	99.158041 
3784.000000	99.157800 
3783.000000	99.157430 
3782.000000	99.159552 
3781.000000	99.161852 
3780.000000	99.160406 
3779.000000	99.154137 
3778.000000	99.147090 
3777.000000	99.143000 
3776.000000	99.141254 
3775.000000	99.140517 
3774.000000	99.142281 
3773.000000	99.146934 
3772.000000	99.150472 
3771.000000	99.148261 
3770.000000	99.141890 
3769.000000	99.138519 
3768.000000	99.142046 
3767.000000	99.147176 
3766.000000	99.147472 
3765.000000	99.144694 
3764.000000	99.145837 
3763.000000	99.152325 
3762.000000	99.157307 
3761.000000	99.156169 
3760.000000	99.153018 
3759.000000	99.152219 
3758.000000	99.152560 
3757.000000	99.151192 
3756.000000	99.148438 
3755.000000	99.144947 
3754.000000	99.140404 
3753.000000	99.137403 
3752.000000	99.139734 
3751.000000	99.142204 
3750.000000	99.134556 
3749.000000	99.120649 
3748.000000	99.113379 
3747.000000	99.114414 
3746.000000	99.116285 
3745.000000	99.112638 
3744.000000	99.103019 
3743.000000	99.102408 
3742.000000	99.115377 
3741.000000	99.122411 
3740.000000	99.117167 
3739.000000	99.111388 
3738.000000	99.112733 
3737.000000	99.117155 
3736.000000	99.120832 
3735.000000	99.127835 
3734.000000	99.139211 
3733.000000	99.145641 
3732.000000	99.140964 
3731.000000	99.132849 
3730.000000	99.130527 
3729.000000	99.132469 
3728.000000	99.132644 
3727.000000	99.131575 
3726.000000	99.134589 
3725.000000	99.142727 
3724.000000	99.148946 
3723.000000	99.147177 
3722.000000	99.139812 
3721.000000	99.133744 
3720.000000	99.133004 
3719.000000	99.135313 
3718.000000	99.136133 
3717.000000	99.133611 
3716.000000	99.128783 
3715.000000	99.121824 
3714.000000	99.112307 
3713.000000	99.102183 
3712.000000	99.094069 
3711.000000	99.088858 
3710.000000	99.087601 
3709.000000	99.089179 
3708.000000	99.089625 
3707.000000	99.086671 
3706.000000	99.082058 
3705.000000	99.078596 
3704.000000	99.076937 
3703.000000	99.075451 
3702.000000	99.071850 
3701.000000	99.066343 
3700.000000	99.062539 
3699.000000	99.061277 
3698.000000	99.057788 
3697.000000	99.048810 
3696.000000	99.037191 
3695.000000	99.027607 
3694.000000	99.020675 
3693.000000	99.014778 
3692.000000	99.010228 
3691.000000	99.007213 
3690.000000	99.002314 
3689.000000	98.991909 
3688.000000	98.981520 
3687.000000	98.981259 
3686.000000	98.990284 
3685.000000	98.997853 
3684.000000	98.998973 
3683.000000	98.998204 
3682.000000	98.999610 
3681.000000	98.999427 
3680.000000	98.991537 
3679.000000	98.977614 
3678.000000	98.963337 
3677.000000	98.951276 
3676.000000	98.939649 
3675.000000	98.930929 
3674.000000	98.937398 
3673.000000	98.956395 
3672.000000	98.967600 
3671.000000	98.965521 
3670.000000	98.959788 
3669.000000	98.958023 
3668.000000	98.961318 
3667.000000	98.963008 
3666.000000	98.958592 
3665.000000	98.952274 
3664.000000	98.949758 
3663.000000	98.951303 
3662.000000	98.953091 
3661.000000	98.952703 
3660.000000	98.951878 
3659.000000	98.954109 
3658.000000	98.959707 
3657.000000	98.965275 
3656.000000	98.967935 
3655.000000	98.971908 
3654.000000	98.980728 
3653.000000	98.989931 
3652.000000	98.996361 
3651.000000	99.003660 
3650.000000	99.011341 
3649.000000	99.010431 
3648.000000	98.999036 
3647.000000	98.987500 
3646.000000	98.984882 
3645.000000	98.990871 
3644.000000	99.000279 
3643.000000	99.009227 
3642.000000	99.017299 
3641.000000	99.025079 
3640.000000	99.032350 
3639.000000	99.038920 
3638.000000	99.046599 
3637.000000	99.057526 
3636.000000	99.068938 
3635.000000	99.073997 
3634.000000	99.069765 
3633.000000	99.061713 
3632.000000	99.056714 
3631.000000	99.056254 
3630.000000	99.057280 
3629.000000	99.053305 
3628.000000	99.044955 
3627.000000	99.043852 
3626.000000	99.049705 
3625.000000	99.053661 
3624.000000	99.055678 
3623.000000	99.059739 
3622.000000	99.065185 
3621.000000	99.067714 
3620.000000	99.065568 
3619.000000	99.061726 
3618.000000	99.061984 
3617.000000	99.069250 
3616.000000	99.079041 
3615.000000	99.084571 
3614.000000	99.083544 
3613.000000	99.078834 
3612.000000	99.074516 
3611.000000	99.071729 
3610.000000	99.069049 
3609.000000	99.066313 
3608.000000	99.065073 
3607.000000	99.066413 
3606.000000	99.069959 
3605.000000	99.074508 
3604.000000	99.079655 
3603.000000	99.085231 
3602.000000	99.089506 
3601.000000	99.091248 
3600.000000	99.092472 
3599.000000	99.096071 
3598.000000	99.101102 
3597.000000	99.104583 
3596.000000	99.104574 
3595.000000	99.101542 
3594.000000	99.097432 
3593.000000	99.095299 
3592.000000	99.097356 
3591.000000	99.103812 
3590.000000	99.112965 
3589.000000	99.121697 
3588.000000	99.125678 
3587.000000	99.122941 
3586.000000	99.117319 
3585.000000	99.112866 
3584.000000	99.109426 
3583.000000	99.106279 
3582.000000	99.103789 
3581.000000	99.101879 
3580.000000	99.099278 
3579.000000	99.095040 
3578.000000	99.089255 
3577.000000	99.083557 
3576.000000	99.080407 
3575.000000	99.081553 
3574.000000	99.086778 
3573.000000	99.093964 
3572.000000	99.100582 
3571.000000	99.104683 
3570.000000	99.104998 
3569.000000	99.100963 
3568.000000	99.093830 
3567.000000	99.087260 
3566.000000	99.085944 
3565.000000	99.090885 
3564.000000	99.097004 
3563.000000	99.099038 
3562.000000	99.096674 
3561.000000	99.092906 
3560.000000	99.090345 
3559.000000	99.089846 
3558.000000	99.091141 
3557.000000	99.093475 
3556.000000	99.096083 
3555.000000	99.098064 
3554.000000	99.098575 
3553.000000	99.097316 
3552.000000	99.094962 
3551.000000	99.092396 
3550.000000	99.089504 
3549.000000	99.085790 
3548.000000	99.082595 
3547.000000	99.082669 
3546.000000	99.086872 
3545.000000	99.092762 
3544.000000	99.096868 
3543.000000	99.097358 
3542.000000	99.095038 
3541.000000	99.092497 
3540.000000	99.092432 
3539.000000	99.095508 
3538.000000	99.099824 
3537.000000	99.102771 
3536.000000	99.103367 
3535.000000	99.102448 
3534.000000	99.100762 
3533.000000	99.098558 
3532.000000	99.096487 
3531.000000	99.095678 
3530.000000	99.095961 
3529.000000	99.095884 
3528.000000	99.095110 
3527.000000	99.095451 
3526.000000	99.097962 
3525.000000	99.100491 
3524.000000	99.099930 
3523.000000	99.096159 
3522.000000	99.092209 
3521.000000	99.090717 
3520.000000	99.091777 
3519.000000	99.094181 
3518.000000	99.097045 
3517.000000	99.099653 
3516.000000	99.100921 
3515.000000	99.100507 
3514.000000	99.099844 
3513.000000	99.100828 
3512.000000	99.103308 
3511.000000	99.105167 
3510.000000	99.104806 
3509.000000	99.102804 
3508.000000	99.100647 
3507.000000	99.098443 
3506.000000	99.094491 
3505.000000	99.087296 
3504.000000	99.077771 
3503.000000	99.069861 
3502.000000	99.068624 
3501.000000	99.076172 
3500.000000	99.088646 
3499.000000	99.097907 
3498.000000	99.097479 
3497.000000	99.088008 
3496.000000	99.076844 
3495.000000	99.071560 
3494.000000	99.073866 
3493.000000	99.079632 
3492.000000	99.083712 
3491.000000	99.084037 
3490.000000	99.081976 
3489.000000	99.080129 
3488.000000	99.080160 
3487.000000	99.082002 
3486.000000	99.084345 
3485.000000	99.085928 
3484.000000	99.086611 
3483.000000	99.087146 
3482.000000	99.087655 
3481.000000	99.086895 
3480.000000	99.083605 
3479.000000	99.078530 
3478.000000	99.074349 
3477.000000	99.073178 
3476.000000	99.074539 
3475.000000	99.076162 
3474.000000	99.076701 
3473.000000	99.076811 
3472.000000	99.077519 
3471.000000	99.078678 
3470.000000	99.079682 
3469.000000	99.080770 
3468.000000	99.082510 
3467.000000	99.084243 
3466.000000	99.084157 
3465.000000	99.081213 
3464.000000	99.076536 
3463.000000	99.072518 
3462.000000	99.070560 
3461.000000	99.069970 
3460.000000	99.069094 
3459.000000	99.067448 
3458.000000	99.066463 
3457.000000	99.067745 
3456.000000	99.070747 
3455.000000	99.072849 
3454.000000	99.071964 
3453.000000	99.068885 
3452.000000	99.066589 
3451.000000	99.067403 
3450.000000	99.070880 
3449.000000	99.074466 
3448.000000	99.075823 
3447.000000	99.074497 
3446.000000	99.071769 
3445.000000	99.069279 
3444.000000	99.067915 
3443.000000	99.067680 
3442.000000	99.068038 
3441.000000	99.068420 
3440.000000	99.068773 
3439.000000	99.069452 
3438.000000	99.070453 
3437.000000	99.070983 
3436.000000	99.070274 
3435.000000	99.068871 
3434.000000	99.068362 
3433.000000	99.069771 
3432.000000	99.072525 
3431.000000	99.075289 
3430.000000	99.077186 
3429.000000	99.077948 
3428.000000	99.077269 
3427.000000	99.074746 
3426.000000	99.070793 
3425.000000	99.067096 
3424.000000	99.065511 
3423.000000	99.066349 
3422.000000	99.068032 
3421.000000	99.068570 
3420.000000	99.067136 
3419.000000	99.064372 
3418.000000	99.061670 
3417.000000	99.060286 
3416.000000	99.060499 
3415.000000	99.061267 
3414.000000	99.061167 
3413.000000	99.060048 
3412.000000	99.059348 
3411.000000	99.060459 
3410.000000	99.063373 
3409.000000	99.067148 
3408.000000	99.070844 
3407.000000	99.073272 
3406.000000	99.072887 
3405.000000	99.069362 
3404.000000	99.065020 
3403.000000	99.063389 
3402.000000	99.065872 
3401.000000	99.070476 
3400.000000	99.073943 
3399.000000	99.074699 
3398.000000	99.073746 
3397.000000	99.073207 
3396.000000	99.074148 
3395.000000	99.075718 
3394.000000	99.076348 
3393.000000	99.075610 
3392.000000	99.074480 
3391.000000	99.073730 
3390.000000	99.072819 
3389.000000	99.070869 
3388.000000	99.068122 
3387.000000	99.065729 
3386.000000	99.064491 
3385.000000	99.064516 
3384.000000	99.065667 
3383.000000	99.067486 
3382.000000	99.068784 
3381.000000	99.068293 
3380.000000	99.065934 
3379.000000	99.063115 
3378.000000	99.061637 
3377.000000	99.062500 
3376.000000	99.065522 
3375.000000	99.069640 
3374.000000	99.073623 
3373.000000	99.076747 
3372.000000	99.078821 
3371.000000	99.079624 
3370.000000	99.078926 
3369.000000	99.077374 
3368.000000	99.076596 
3367.000000	99.077507 
3366.000000	99.078834 
3365.000000	99.078390 
3364.000000	99.075920 
3363.000000	99.073726 
3362.000000	99.074048 
3361.000000	99.076389 
3360.000000	99.077814 
3359.000000	99.075669 
3358.000000	99.070013 
3357.000000	99.063842 
3356.000000	99.060913 
3355.000000	99.062649 
3354.000000	99.066886 
3353.000000	99.070084 
3352.000000	99.070853 
3351.000000	99.070936 
3350.000000	99.072871 
3349.000000	99.077424 
3348.000000	99.083407 
3347.000000	99.089003 
3346.000000	99.092690 
3345.000000	99.093721 
3344.000000	99.092580 
3343.000000	99.090604 
3342.000000	99.088505 
3341.000000	99.085714 
3340.000000	99.081784 
3339.000000	99.077790 
3338.000000	99.075226 
3337.000000	99.073840 
3336.000000	99.072011 
3335.000000	99.069600 
3334.000000	99.068964 
3333.000000	99.072217 
3332.000000	99.078261 
3331.000000	99.083595 
3330.000000	99.085873 
3329.000000	99.085870 
3328.000000	99.085950 
3327.000000	99.087307 
3326.000000	99.089005 
3325.000000	99.089413 
3324.000000	99.088260 
3323.000000	99.087218 
3322.000000	99.088253 
3321.000000	99.091187 
3320.000000	99.093160 
3319.000000	99.091203 
3318.000000	99.085528 
3317.000000	99.079774 
3316.000000	99.077737 
3315.000000	99.080104 
3314.000000	99.084439 
3313.000000	99.087788 
3312.000000	99.088906 
3311.000000	99.088569 
3310.000000	99.088505 
3309.000000	99.089994 
3308.000000	99.092875 
3307.000000	99.095673 
3306.000000	99.096860 
3305.000000	99.095939 
3304.000000	99.093253 
3303.000000	99.089381 
3302.000000	99.085411 
3301.000000	99.083300 
3300.000000	99.084637 
3299.000000	99.088708 
3298.000000	99.092636 
3297.000000	99.094039 
3296.000000	99.093096 
3295.000000	99.091734 
3294.000000	99.091562 
3293.000000	99.093107 
3292.000000	99.096130 
3291.000000	99.099652 
3290.000000	99.101992 
3289.000000	99.101945 
3288.000000	99.100081 
3287.000000	99.098197 
3286.000000	99.097317 
3285.000000	99.096874 
3284.000000	99.096021 
3283.000000	99.094989 
3282.000000	99.094678 
3281.000000	99.095202 
3280.000000	99.095387 
3279.000000	99.093913 
3278.000000	99.090885 
3277.000000	99.088169 
3276.000000	99.087976 
3275.000000	99.090891 
3274.000000	99.095239 
3273.000000	99.098438 
3272.000000	99.098889 
3271.000000	99.096566 
3270.000000	99.092277 
3269.000000	99.087031 
3268.000000	99.082311 
3267.000000	99.080346 
3266.000000	99.083147 
3265.000000	99.090712 
3264.000000	99.100305 
3263.000000	99.108213 
3262.000000	99.112777 
3261.000000	99.115384 
3260.000000	99.118109 
3259.000000	99.120770 
3258.000000	99.120976 
3257.000000	99.116846 
3256.000000	99.109062 
3255.000000	99.100405 
3254.000000	99.094037 
3253.000000	99.092031 
3252.000000	99.094221 
3251.000000	99.097928 
3250.000000	99.099760 
3249.000000	99.098539 
3248.000000	99.096025 
3247.000000	99.094378 
3246.000000	99.093644 
3245.000000	99.092473 
3244.000000	99.090657 
3243.000000	99.089987 
3242.000000	99.092809 
3241.000000	99.100054 
3240.000000	99.109855 
3239.000000	99.117551 
3238.000000	99.118396 
3237.000000	99.111882 
3236.000000	99.103044 
3235.000000	99.097989 
3234.000000	99.098259 
3233.000000	99.100824 
3232.000000	99.103052 
3231.000000	99.105486 
3230.000000	99.109236 
3229.000000	99.112870 
3228.000000	99.113606 
3227.000000	99.110602 
3226.000000	99.105634 
3225.000000	99.101157 
3224.000000	99.098875 
3223.000000	99.099529 
3222.000000	99.102559 
3221.000000	99.105990 
3220.000000	99.107945 
3219.000000	99.108578 
3218.000000	99.109587 
3217.000000	99.111517 
3216.000000	99.112724 
3215.000000	99.111642 
3214.000000	99.109184 
3213.000000	99.107903 
3212.000000	99.109219 
3211.000000	99.112380 
3210.000000	99.115901 
3209.000000	99.118953 
3208.000000	99.121200 
3207.000000	99.122336 
3206.000000	99.122538 
3205.000000	99.122817 
3204.000000	99.124038 
3203.000000	99.125780 
3202.000000	99.127089 
3201.000000	99.128235 
3200.000000	99.130461 
3199.000000	99.133434 
3198.000000	99.134253 
3197.000000	99.130522 
3196.000000	99.124046 
3195.000000	99.119767 
3194.000000	99.120533 
3193.000000	99.124091 
3192.000000	99.125902 
3191.000000	99.124024 
3190.000000	99.120383 
3189.000000	99.118001 
3188.000000	99.118183 
3187.000000	99.120203 
3186.000000	99.122490 
3185.000000	99.123610 
3184.000000	99.122863 
3183.000000	99.120637 
3182.000000	99.118142 
3181.000000	99.116574 
3180.000000	99.116561 
3179.000000	99.118094 
3178.000000	99.120438 
3177.000000	99.122132 
3176.000000	99.121812 
3175.000000	99.119507 
3174.000000	99.116911 
3173.000000	99.116028 
3172.000000	99.117505 
3171.000000	99.120341 
3170.000000	99.123086 
3169.000000	99.125249 
3168.000000	99.127554 
3167.000000	99.130931 
3166.000000	99.135351 
3165.000000	99.139798 
3164.000000	99.143392 
3163.000000	99.146158 
3162.000000	99.148422 
3161.000000	99.149918 
3160.000000	99.150194 
3159.000000	99.149629 
3158.000000	99.149160 
3157.000000	99.148888 
3156.000000	99.147812 
3155.000000	99.145395 
3154.000000	99.142834 
3153.000000	99.142167 
3152.000000	99.144194 
3151.000000	99.147549 
3150.000000	99.149792 
3149.000000	99.149506 
3148.000000	99.147657 
3147.000000	99.146806 
3146.000000	99.148448 
3145.000000	99.151045 
3144.000000	99.151401 
3143.000000	99.148375 
3142.000000	99.144599 
3141.000000	99.143868 
3140.000000	99.147063 
3139.000000	99.151320 
3138.000000	99.153165 
3137.000000	99.151853 
3136.000000	99.149402 
3135.000000	99.147915 
3134.000000	99.147470 
3133.000000	99.146680 
3132.000000	99.144930 
3131.000000	99.143435 
3130.000000	99.143698 
3129.000000	99.145309 
3128.000000	99.146154 
3127.000000	99.144968 
3126.000000	99.142885 
3125.000000	99.141993 
3124.000000	99.142997 
3123.000000	99.144845 
3122.000000	99.146292 
3121.000000	99.147253 
3120.000000	99.148628 
3119.000000	99.151005 
3118.000000	99.153490 
3117.000000	99.153998 
3116.000000	99.151359 
3115.000000	99.147155 
3114.000000	99.144351 
3113.000000	99.143658 
3112.000000	99.142558 
3111.000000	99.139060 
3110.000000	99.135178 
3109.000000	99.134755 
3108.000000	99.138219 
3107.000000	99.141594 
3106.000000	99.141206 
3105.000000	99.137812 
3104.000000	99.135337 
3103.000000	99.136775 
3102.000000	99.142322 
3101.000000	99.150365 
3100.000000	99.158604 
3099.000000	99.164368 
3098.000000	99.165693 
3097.000000	99.163080 
3096.000000	99.159555 
3095.000000	99.158150 
3094.000000	99.159383 
3093.000000	99.161481 
3092.000000	99.162625 
3091.000000	99.162397 
3090.000000	99.161294 
3089.000000	99.159833 
3088.000000	99.158645 
3087.000000	99.158801 
3086.000000	99.161036 
3085.000000	99.164502 
3084.000000	99.167031 
3083.000000	99.167084 
3082.000000	99.165179 
3081.000000	99.163141 
3080.000000	99.162236 
3079.000000	99.162334 
3078.000000	99.162464 
3077.000000	99.161619 
3076.000000	99.159316 
3075.000000	99.156134 
3074.000000	99.153708 
3073.000000	99.153681 
3072.000000	99.156573 
3071.000000	99.161819 
3070.000000	99.168321 
3069.000000	99.174120 
3068.000000	99.176050 
3067.000000	99.171528 
3066.000000	99.161619 
3065.000000	99.151338 
3064.000000	99.145708 
3063.000000	99.145660 
3062.000000	99.148373 
3061.000000	99.150997 
3060.000000	99.153020 
3059.000000	99.155314 
3058.000000	99.158133 
3057.000000	99.160591 
3056.000000	99.161562 
3055.000000	99.160720 
3054.000000	99.158869 
3053.000000	99.157335 
3052.000000	99.156834 
3051.000000	99.156885 
3050.000000	99.156468 
3049.000000	99.154985 
3048.000000	99.152223 
3047.000000	99.147805 
3046.000000	99.141608 
3045.000000	99.134813 
3044.000000	99.129679 
3043.000000	99.127710 
3042.000000	99.128284 
3041.000000	99.129238 
3040.000000	99.128598 
3039.000000	99.125830 
3038.000000	99.121918 
3037.000000	99.118453 
3036.000000	99.116216 
3035.000000	99.114376 
3034.000000	99.111260 
3033.000000	99.105903 
3032.000000	99.098528 
3031.000000	99.089663 
3030.000000	99.079439 
3029.000000	99.067954 
3028.000000	99.055845 
3027.000000	99.044208 
3026.000000	99.034087 
3025.000000	99.025964 
3024.000000	99.019183 
3023.000000	99.011668 
3022.000000	99.000869 
3021.000000	98.985748 
3020.000000	98.968100 
3019.000000	98.951708 
3018.000000	98.939898 
3017.000000	98.933252 
3016.000000	98.928946 
3015.000000	98.922390 
3014.000000	98.910338 
3013.000000	98.892892 
3012.000000	98.872314 
3011.000000	98.850216 
3010.000000	98.826892 
3009.000000	98.803402 
3008.000000	98.782726 
3007.000000	98.767601 
3006.000000	98.757692 
3005.000000	98.749719 
3004.000000	98.739934 
3003.000000	98.725924 
3002.000000	98.707116 
3001.000000	98.685363 
3000.000000	98.664795 
2999.000000	98.649076 
2998.000000	98.638168 
2997.000000	98.629055 
2996.000000	98.619891 
2995.000000	98.611312 
2994.000000	98.602286 
2993.000000	98.587011 
2992.000000	98.559545 
2991.000000	98.521978 
2990.000000	98.485550 
2989.000000	98.462001 
2988.000000	98.454543 
2987.000000	98.457892 
2986.000000	98.465396 
2985.000000	98.474192 
2984.000000	98.484101 
2983.000000	98.494255 
2982.000000	98.502373 
2981.000000	98.506613 
2980.000000	98.507077 
2979.000000	98.505333 
2978.000000	98.502860 
2977.000000	98.499980 
2976.000000	98.496069 
2975.000000	98.490663 
2974.000000	98.484224 
2973.000000	98.477865 
2972.000000	98.472674 
2971.000000	98.469676 
2970.000000	98.470151 
2969.000000	98.475261 
2968.000000	98.485078 
2967.000000	98.498208 
2966.000000	98.512525 
2965.000000	98.526198 
2964.000000	98.538323 
2963.000000	98.549094 
2962.000000	98.559287 
2961.000000	98.569089 
2960.000000	98.577687 
2959.000000	98.584774 
2958.000000	98.592241 
2957.000000	98.602829 
2956.000000	98.616370 
2955.000000	98.628603 
2954.000000	98.635266 
2953.000000	98.637267 
2952.000000	98.640592 
2951.000000	98.650675 
2950.000000	98.667176 
2949.000000	98.684206 
2948.000000	98.695124 
2947.000000	98.697281 
2946.000000	98.693206 
2945.000000	98.688028 
2944.000000	98.685746 
2943.000000	98.687292 
2942.000000	98.691197 
2941.000000	98.695216 
2940.000000	98.697236 
2939.000000	98.695773 
2938.000000	98.690811 
2937.000000	98.684229 
2936.000000	98.678644 
2935.000000	98.675449 
2934.000000	98.674152 
2933.000000	98.673430 
2932.000000	98.672270 
2931.000000	98.670033 
2930.000000	98.666080 
2929.000000	98.659940 
2928.000000	98.651950 
2927.000000	98.643589 
2926.000000	98.636918 
2925.000000	98.633239 
2924.000000	98.632098 
2923.000000	98.631918 
2922.000000	98.631803 
2921.000000	98.632330 
2920.000000	98.634257 
2919.000000	98.637004 
2918.000000	98.638989 
2917.000000	98.639149 
2916.000000	98.637624 
2915.000000	98.635338 
2914.000000	98.633585 
2913.000000	98.633675 
2912.000000	98.635901 
2911.000000	98.638657 
2910.000000	98.639385 
2909.000000	98.636840 
2908.000000	98.632051 
2907.000000	98.626763 
2906.000000	98.621256 
2905.000000	98.613882 
2904.000000	98.602843 
2903.000000	98.588927 
2902.000000	98.577001 
2901.000000	98.574000 
2900.000000	98.584012 
2899.000000	98.604467 
2898.000000	98.627412 
2897.000000	98.645256 
2896.000000	98.655495 
2895.000000	98.660755 
2894.000000	98.665279 
2893.000000	98.671402 
2892.000000	98.678361 
2891.000000	98.683702 
2890.000000	98.686099 
2889.000000	98.686985 
2888.000000	98.689046 
2887.000000	98.693169 
2886.000000	98.697726 
2885.000000	98.701164 
2884.000000	98.704363 
2883.000000	98.709717 
2882.000000	98.718494 
2881.000000	98.729918 
2880.000000	98.742513 
2879.000000	98.755554 
2878.000000	98.769104 
2877.000000	98.783114 
2876.000000	98.796487 
2875.000000	98.806988 
2874.000000	98.812624 
2873.000000	98.813749 
2872.000000	98.813548 
2871.000000	98.815786 
2870.000000	98.822006 
2869.000000	98.831104 
2868.000000	98.841237 
2867.000000	98.851544 
2866.000000	98.862251 
2865.000000	98.873848 
2864.000000	98.886228 
2863.000000	98.898113 
2862.000000	98.907435 
2861.000000	98.913121 
2860.000000	98.916864 
2859.000000	98.922349 
2858.000000	98.931939 
2857.000000	98.944265 
2856.000000	98.955604 
2855.000000	98.963644 
2854.000000	98.969420 
2853.000000	98.975551 
2852.000000	98.983327 
2851.000000	98.992177 
2850.000000	99.001559 
2849.000000	99.012059 
2848.000000	99.024044 
2847.000000	99.036136 
2846.000000	99.046079 
2845.000000	99.052926 
2844.000000	99.057563 
2843.000000	99.061302 
2842.000000	99.065015 
2841.000000	99.069575 
2840.000000	99.075739 
2839.000000	99.082865 
2838.000000	99.088758 
2837.000000	99.091814 
2836.000000	99.092954 
2835.000000	99.094809 
2834.000000	99.099282 
2833.000000	99.106322 
2832.000000	99.114347 
2831.000000	99.121068 
2830.000000	99.124489 
2829.000000	99.124397 
2828.000000	99.123036 
2827.000000	99.123352 
2826.000000	99.126158 
2825.000000	99.129442 
2824.000000	99.130725 
2823.000000	99.129774 
2822.000000	99.128807 
2821.000000	99.130261 
2820.000000	99.134466 
2819.000000	99.139379 
2818.000000	99.142571 
2817.000000	99.143477 
2816.000000	99.143574 
2815.000000	99.144451 
2814.000000	99.146193 
2813.000000	99.147813 
2812.000000	99.148596 
2811.000000	99.148456 
2810.000000	99.147519 
2809.000000	99.146240 
2808.000000	99.145692 
2807.000000	99.146809 
2806.000000	99.149181 
2805.000000	99.151314 
2804.000000	99.152427 
2803.000000	99.153429 
2802.000000	99.155718 
2801.000000	99.159212 
2800.000000	99.161992 
2799.000000	99.162052 
2798.000000	99.159421 
2797.000000	99.156473 
2796.000000	99.155851 
2795.000000	99.157990 
2794.000000	99.160885 
2793.000000	99.162360 
2792.000000	99.162152 
2791.000000	99.161669 
2790.000000	99.162351 
2789.000000	99.164754 
2788.000000	99.168527 
2787.000000	99.172495 
2786.000000	99.175181 
2785.000000	99.176169 
2784.000000	99.176712 
2783.000000	99.178047 
2782.000000	99.179347 
2781.000000	99.178572 
2780.000000	99.175500 
2779.000000	99.172645 
2778.000000	99.172569 
2777.000000	99.175094 
2776.000000	99.177788 
2775.000000	99.178494 
2774.000000	99.176785 
2773.000000	99.173604 
2772.000000	99.170399 
2771.000000	99.168419 
2770.000000	99.168214 
2769.000000	99.169756 
2768.000000	99.173101 
2767.000000	99.178409 
2766.000000	99.184909 
2765.000000	99.190453 
2764.000000	99.192918 
2763.000000	99.192046 
2762.000000	99.189597 
2761.000000	99.187935 
2760.000000	99.188713 
2759.000000	99.192182 
2758.000000	99.196930 
2757.000000	99.200621 
2756.000000	99.201984 
2755.000000	99.202098 
2754.000000	99.202958 
2753.000000	99.204832 
2752.000000	99.205907 
2751.000000	99.204613 
2750.000000	99.201247 
2749.000000	99.196960 
2748.000000	99.192195 
2747.000000	99.186930 
2746.000000	99.181764 
2745.000000	99.177817 
2744.000000	99.175798 
2743.000000	99.175890 
2742.000000	99.178227 
2741.000000	99.182667 
2740.000000	99.188164 
2739.000000	99.193185 
2738.000000	99.196935 
2737.000000	99.199715 
2736.000000	99.202049 
2735.000000	99.203995 
2734.000000	99.205283 
2733.000000	99.205545 
2732.000000	99.204377 
2731.000000	99.201816 
2730.000000	99.198937 
2729.000000	99.197306 
2728.000000	99.197519 
2727.000000	99.198764 
2726.000000	99.199982 
2725.000000	99.200851 
2724.000000	99.201444 
2723.000000	99.201700 
2722.000000	99.201704 
2721.000000	99.201812 
2720.000000	99.201969 
2719.000000	99.201480 
2718.000000	99.200047 
2717.000000	99.198498 
2716.000000	99.197951 
2715.000000	99.198836 
2714.000000	99.201220 
2713.000000	99.205117 
2712.000000	99.209559 
2711.000000	99.212422 
2710.000000	99.212724 
2709.000000	99.212472 
2708.000000	99.214367 
2707.000000	99.217843 
2706.000000	99.219363 
2705.000000	99.217128 
2704.000000	99.213611 
2703.000000	99.212374 
2702.000000	99.213866 
2701.000000	99.215701 
2700.000000	99.216105 
2699.000000	99.215510 
2698.000000	99.215006 
2697.000000	99.214638 
2696.000000	99.213679 
2695.000000	99.212070 
2694.000000	99.211178 
2693.000000	99.212699 
2692.000000	99.216335 
2691.000000	99.218891 
2690.000000	99.217022 
2689.000000	99.211406 
2688.000000	99.206943 
2687.000000	99.207702 
2686.000000	99.212399 
2685.000000	99.215960 
2684.000000	99.215035 
2683.000000	99.210853 
2682.000000	99.207041 
2681.000000	99.206052 
2680.000000	99.207834 
2679.000000	99.210631 
2678.000000	99.212407 
2677.000000	99.212206 
2676.000000	99.210926 
2675.000000	99.210656 
2674.000000	99.212836 
2673.000000	99.216882 
2672.000000	99.220500 
2671.000000	99.221259 
2670.000000	99.218167 
2669.000000	99.212240 
2668.000000	99.205820 
2667.000000	99.201290 
2666.000000	99.200140 
2665.000000	99.202535 
2664.000000	99.207068 
2663.000000	99.211208 
2662.000000	99.213038 
2661.000000	99.212871 
2660.000000	99.212386 
2659.000000	99.211958 
2658.000000	99.210066 
2657.000000	99.206024 
2656.000000	99.202006 
2655.000000	99.200899 
2654.000000	99.202692 
2653.000000	99.204474 
2652.000000	99.203958 
2651.000000	99.201827 
2650.000000	99.200507 
2649.000000	99.201563 
2648.000000	99.204463 
2647.000000	99.207288 
2646.000000	99.208718 
2645.000000	99.209763 
2644.000000	99.212922 
2643.000000	99.218803 
2642.000000	99.224416 
2641.000000	99.226378 
2640.000000	99.225380 
2639.000000	99.225513 
2638.000000	99.229040 
2637.000000	99.233716 
2636.000000	99.235924 
2635.000000	99.234784 
2634.000000	99.232084 
2633.000000	99.229525 
2632.000000	99.227326 
2631.000000	99.224779 
2630.000000	99.221036 
2629.000000	99.215792 
2628.000000	99.210133 
2627.000000	99.206454 
2626.000000	99.206717 
2625.000000	99.210629 
2624.000000	99.215590 
2623.000000	99.218196 
2622.000000	99.216204 
2621.000000	99.210272 
2620.000000	99.204181 
2619.000000	99.202194 
2618.000000	99.205232 
2617.000000	99.210066 
2616.000000	99.212699 
2615.000000	99.211883 
2614.000000	99.209009 
2613.000000	99.205892 
2612.000000	99.203906 
2611.000000	99.204454 
2610.000000	99.208454 
2609.000000	99.214848 
2608.000000	99.220722 
2607.000000	99.223852 
2606.000000	99.225006 
2605.000000	99.226915 
2604.000000	99.230416 
2603.000000	99.232223 
2602.000000	99.228099 
2601.000000	99.218860 
2600.000000	99.211458 
2599.000000	99.212094 
2598.000000	99.219008 
2597.000000	99.224523 
2596.000000	99.224147 
2595.000000	99.220871 
2594.000000	99.219723 
2593.000000	99.221119 
2592.000000	99.221873 
2591.000000	99.220785 
2590.000000	99.220327 
2589.000000	99.223337 
2588.000000	99.230082 
2587.000000	99.238082 
2586.000000	99.242969 
2585.000000	99.240424 
2584.000000	99.230205 
2583.000000	99.218664 
2582.000000	99.214507 
2581.000000	99.220204 
2580.000000	99.228756 
2579.000000	99.230545 
2578.000000	99.223108 
2577.000000	99.213317 
2576.000000	99.210127 
2575.000000	99.215824 
2574.000000	99.224355 
2573.000000	99.227703 
2572.000000	99.223504 
2571.000000	99.216267 
2570.000000	99.211567 
2569.000000	99.210216 
2568.000000	99.208857 
2567.000000	99.205237 
2566.000000	99.201214 
2565.000000	99.200382 
2564.000000	99.203917 
2563.000000	99.209153 
2562.000000	99.211572 
2561.000000	99.208425 
2560.000000	99.201690 
2559.000000	99.197478 
2558.000000	99.200588 
2557.000000	99.208633 
2556.000000	99.213383 
2555.000000	99.209856 
2554.000000	99.202958 
2553.000000	99.202676 
2552.000000	99.212778 
2551.000000	99.226658 
2550.000000	99.234866 
2549.000000	99.234372 
2548.000000	99.229068 
2547.000000	99.223489 
2546.000000	99.218919 
2545.000000	99.214866 
2544.000000	99.211252 
2543.000000	99.208268 
2542.000000	99.206015 
2541.000000	99.205188 
2540.000000	99.206489 
2539.000000	99.208292 
2538.000000	99.206473 
2537.000000	99.198383 
2536.000000	99.186569 
2535.000000	99.177320 
2534.000000	99.175623 
2533.000000	99.181857 
2532.000000	99.192229 
2531.000000	99.201293 
2530.000000	99.205295 
2529.000000	99.205072 
2528.000000	99.205451 
2527.000000	99.210079 
2526.000000	99.217099 
2525.000000	99.221728 
2524.000000	99.222957 
2523.000000	99.225168 
2522.000000	99.232129 
2521.000000	99.241483 
2520.000000	99.247033 
2519.000000	99.245422 
2518.000000	99.238889 
2517.000000	99.232133 
2516.000000	99.228178 
2515.000000	99.227199 
2514.000000	99.227550 
2513.000000	99.226960 
2512.000000	99.223617 
2511.000000	99.217495 
2510.000000	99.211112 
2509.000000	99.208406 
2508.000000	99.211808 
2507.000000	99.219726 
2506.000000	99.227167 
2505.000000	99.229503 
2504.000000	99.225858 
2503.000000	99.218666 
2502.000000	99.210539 
2501.000000	99.202751 
2500.000000	99.196831 
2499.000000	99.196045 
2498.000000	99.203530 
2497.000000	99.218345 
2496.000000	99.233934 
2495.000000	99.241604 
2494.000000	99.236896 
2493.000000	99.223309 
2492.000000	99.209358 
2491.000000	99.201181 
2490.000000	99.198068 
2489.000000	99.195347 
2488.000000	99.190619 
2487.000000	99.185973 
2486.000000	99.184893 
2485.000000	99.188744 
2484.000000	99.196177 
2483.000000	99.204084 
2482.000000	99.208778 
2481.000000	99.208229 
2480.000000	99.204201 
2479.000000	99.200793 
2478.000000	99.199861 
2477.000000	99.199195 
2476.000000	99.196313 
2475.000000	99.192563 
2474.000000	99.191688 
2473.000000	99.195186 
2472.000000	99.201044 
2471.000000	99.206803 
2470.000000	99.211969 
2469.000000	99.216937 
2468.000000	99.220907 
2467.000000	99.221897 
2466.000000	99.218751 
2465.000000	99.213115 
2464.000000	99.209349 
2463.000000	99.211460 
2462.000000	99.218980 
2461.000000	99.226266 
2460.000000	99.227299 
2459.000000	99.221562 
2458.000000	99.214502 
2457.000000	99.212108 
2456.000000	99.215621 
2455.000000	99.221294 
2454.000000	99.224143 
2453.000000	99.221623 
2452.000000	99.214858 
2451.000000	99.207333 
2450.000000	99.202107 
2449.000000	99.199547 
2448.000000	99.197602 
2447.000000	99.194511 
2446.000000	99.191233 
2445.000000	99.191031 
2444.000000	99.196379 
2443.000000	99.205984 
2442.000000	99.214794 
2441.000000	99.217609 
2440.000000	99.213463 
2439.000000	99.206505 
2438.000000	99.202096 
2437.000000	99.201939 
2436.000000	99.203065 
2435.000000	99.201191 
2434.000000	99.194663 
2433.000000	99.185626 
2432.000000	99.178222 
2431.000000	99.175442 
2430.000000	99.176792 
2429.000000	99.178997 
2428.000000	99.179966 
2427.000000	99.181940 
2426.000000	99.188995 
2425.000000	99.200551 
2424.000000	99.209134 
2423.000000	99.207028 
2422.000000	99.195189 
2421.000000	99.183650 
2420.000000	99.182086 
2419.000000	99.190987 
2418.000000	99.202684 
2417.000000	99.209668 
2416.000000	99.210427 
2415.000000	99.208058 
2414.000000	99.205766 
2413.000000	99.204747 
2412.000000	99.204879 
2411.000000	99.205523 
2410.000000	99.205686 
2409.000000	99.204624 
2408.000000	99.202794 
2407.000000	99.201717 
2406.000000	99.202674 
2405.000000	99.205754 
2404.000000	99.210084 
2403.000000	99.214433 
2402.000000	99.217447 
2401.000000	99.217876 
2400.000000	99.215099 
2399.000000	99.209532 
2398.000000	99.202616 
2397.000000	99.196584 
2396.000000	99.193885 
2395.000000	99.195932 
2394.000000	99.201851 
2393.000000	99.208671 
2392.000000	99.213330 
2391.000000	99.214835 
2390.000000	99.214602 
2389.000000	99.214861 
2388.000000	99.216820 
2387.000000	99.220206 
2386.000000	99.224270 
2385.000000	99.228801 
2384.000000	99.233881 
2383.000000	99.238956 
2382.000000	99.242913 
2381.000000	99.245325 
2380.000000	99.246850 
2379.000000	99.247746 
2378.000000	99.246825 
2377.000000	99.243425 
2376.000000	99.239805 
2375.000000	99.239891 
2374.000000	99.244791 
2373.000000	99.251372 
2372.000000	99.256827 
2371.000000	99.262642 
2370.000000	99.271425 
2369.000000	99.280701 
2368.000000	99.282886 
2367.000000	99.272497 
2366.000000	99.252637 
2365.000000	99.234595 
2364.000000	99.229155 
2363.000000	99.237027 
2362.000000	99.250881 
2361.000000	99.261832 
2360.000000	99.265564 
2359.000000	99.265744 
2358.000000	99.266565 
2357.000000	99.269750 
2356.000000	99.273357 
2355.000000	99.274056 
2354.000000	99.271945 
2353.000000	99.269237 
2352.000000	99.270786 
2351.000000	99.275345 
2350.000000	99.275788 
2349.000000	99.267567 
2348.000000	99.251281 
2347.000000	99.236299 
2346.000000	99.229678 
2345.000000	99.232371 
2344.000000	99.239449 
2343.000000	99.246364 
2342.000000	99.256838 
2341.000000	99.270951 
2340.000000	99.284369 
2339.000000	99.290130 
2338.000000	99.287853 
2337.000000	99.283115 
2336.000000	99.281951 
2335.000000	99.284363 
2334.000000	99.286863 
2333.000000	99.285532 
2332.000000	99.281129 
2331.000000	99.275673 
2330.000000	99.270596 
2329.000000	99.268750 
2328.000000	99.268564 
2327.000000	99.270109 
2326.000000	99.269488 
2325.000000	99.266065 
2324.000000	99.260824 
2323.000000	99.256547 
2322.000000	99.257359 
2321.000000	99.262908 
2320.000000	99.271040 
2319.000000	99.276994 
2318.000000	99.279430 
2317.000000	99.278706 
2316.000000	99.275560 
2315.000000	99.269445 
2314.000000	99.260053 
2313.000000	99.250291 
2312.000000	99.243809 
2311.000000	99.243241 
2310.000000	99.246772 
2309.000000	99.251471 
2308.000000	99.253858 
2307.000000	99.252911 
2306.000000	99.248919 
2305.000000	99.243508 
2304.000000	99.236924 
2303.000000	99.227991 
2302.000000	99.216295 
2301.000000	99.205096 
2300.000000	99.198527 
2299.000000	99.197108 
2298.000000	99.196384 
2297.000000	99.193402 
2296.000000	99.189751 
2295.000000	99.189229 
2294.000000	99.191094 
2293.000000	99.191554 
2292.000000	99.188501 
2291.000000	99.184214 
2290.000000	99.180932 
2289.000000	99.178036 
2288.000000	99.173966 
2287.000000	99.169562 
2286.000000	99.167096 
2285.000000	99.167005 
2284.000000	99.167540 
2283.000000	99.166928 
2282.000000	99.164371 
2281.000000	99.158683 
2280.000000	99.149193 
2279.000000	99.138906 
2278.000000	99.135216 
2277.000000	99.143728 
2276.000000	99.161604 
2275.000000	99.179051 
2274.000000	99.188035 
2273.000000	99.187645 
2272.000000	99.180491 
2271.000000	99.168035 
2270.000000	99.152735 
2269.000000	99.142047 
2268.000000	99.144082 
2267.000000	99.158245 
2266.000000	99.174278 
2265.000000	99.182425 
2264.000000	99.181419 
2263.000000	99.175763 
2262.000000	99.169445 
2261.000000	99.165485 
2260.000000	99.167115 
2259.000000	99.174251 
2258.000000	99.180797 
2257.000000	99.179835 
2256.000000	99.171492 
2255.000000	99.161709 
2254.000000	99.154331 
2253.000000	99.148384 
2252.000000	99.143149 
2251.000000	99.141339 
2250.000000	99.145627 
2249.000000	99.155131 
2248.000000	99.166422 
2247.000000	99.175789 
2246.000000	99.179570 
2245.000000	99.175393 
2244.000000	99.164937 
2243.000000	99.153758 
2242.000000	99.146612 
2241.000000	99.143684 
2240.000000	99.141770 
2239.000000	99.137858 
2238.000000	99.130897 
2237.000000	99.121603 
2236.000000	99.111657 
2235.000000	99.102597 
2234.000000	99.095313 
2233.000000	99.090996 
2232.000000	99.091731 
2231.000000	99.098657 
2230.000000	99.110096 
2229.000000	99.123222 
2228.000000	99.137082 
2227.000000	99.151532 
2226.000000	99.163265 
2225.000000	99.166181 
2224.000000	99.157568 
2223.000000	99.142414 
2222.000000	99.130080 
2221.000000	99.126808 
2220.000000	99.131299 
2219.000000	99.137033 
2218.000000	99.139394 
2217.000000	99.141408 
2216.000000	99.151268 
2215.000000	99.172338 
2214.000000	99.196517 
2213.000000	99.210101 
2212.000000	99.206702 
2211.000000	99.192841 
2210.000000	99.181068 
2209.000000	99.179089 
2208.000000	99.184406 
2207.000000	99.187125 
2206.000000	99.178217 
2205.000000	99.157235 
2204.000000	99.132366 
2203.000000	99.112480 
2202.000000	99.100709 
2201.000000	99.096103 
2200.000000	99.097365 
2199.000000	99.101622 
2198.000000	99.102867 
2197.000000	99.097288 
2196.000000	99.089440 
2195.000000	99.088383 
2194.000000	99.097791 
2193.000000	99.113286 
2192.000000	99.128163 
2191.000000	99.137144 
2190.000000	99.135805 
2189.000000	99.123055 
2188.000000	99.105655 
2187.000000	99.095083 
2186.000000	99.098071 
2185.000000	99.112720 
2184.000000	99.132669 
2183.000000	99.150413 
2182.000000	99.158077 
2181.000000	99.152851 
2180.000000	99.142669 
2179.000000	99.138758 
2178.000000	99.140815 
2177.000000	99.136676 
2176.000000	99.119254 
2175.000000	99.096891 
2174.000000	99.082573 
2173.000000	99.078673 
2172.000000	99.077609 
2171.000000	99.073620 
2170.000000	99.069051 
2169.000000	99.071098 
2168.000000	99.084832 
2167.000000	99.106815 
2166.000000	99.124163 
2165.000000	99.124200 
2164.000000	99.107854 
2163.000000	99.089644 
2162.000000	99.082927 
2161.000000	99.089531 
2160.000000	99.103468 
2159.000000	99.117266 
2158.000000	99.123102 
2157.000000	99.117599 
2156.000000	99.109127 
2155.000000	99.110719 
2154.000000	99.122368 
2153.000000	99.128745 
2152.000000	99.118953 
2151.000000	99.101515 
2150.000000	99.094157 
2149.000000	99.104498 
2148.000000	99.126170 
2147.000000	99.148514 
2146.000000	99.163320 
2145.000000	99.166605 
2144.000000	99.161698 
2143.000000	99.158315 
2142.000000	99.162599 
2141.000000	99.169825 
2140.000000	99.171560 
2139.000000	99.167194 
2138.000000	99.162585 
2137.000000	99.159837 
2136.000000	99.155508 
2135.000000	99.148965 
2134.000000	99.146170 
2133.000000	99.152694 
2132.000000	99.166198 
2131.000000	99.177495 
2130.000000	99.177806 
2129.000000	99.165778 
2128.000000	99.149192 
2127.000000	99.138453 
2126.000000	99.136741 
2125.000000	99.138243 
2124.000000	99.137508 
2123.000000	99.137167 
2122.000000	99.142609 
2121.000000	99.151976 
2120.000000	99.157290 
2119.000000	99.154957 
2118.000000	99.149600 
2117.000000	99.146653 
2116.000000	99.146165 
2115.000000	99.145955 
2114.000000	99.146516 
2113.000000	99.149193 
2112.000000	99.152037 
2111.000000	99.151336 
2110.000000	99.146813 
2109.000000	99.142603 
2108.000000	99.142528 
2107.000000	99.145653 
2106.000000	99.146885 
2105.000000	99.141600 
2104.000000	99.130080 
2103.000000	99.117921 
2102.000000	99.111755 
2101.000000	99.113972 
2100.000000	99.121268 
2099.000000	99.128198 
2098.000000	99.132107 
2097.000000	99.135005 
2096.000000	99.140690 
2095.000000	99.149139 
2094.000000	99.153749 
2093.000000	99.146348 
2092.000000	99.126596 
2091.000000	99.104892 
2090.000000	99.093611 
2089.000000	99.095284 
2088.000000	99.101208 
2087.000000	99.102302 
2086.000000	99.099006 
2085.000000	99.098867 
2084.000000	99.105988 
2083.000000	99.115765 
2082.000000	99.120905 
2081.000000	99.120566 
2080.000000	99.120889 
2079.000000	99.126504 
2078.000000	99.134777 
2077.000000	99.140659 
2076.000000	99.144716 
2075.000000	99.151997 
2074.000000	99.163344 
2073.000000	99.172744 
2072.000000	99.174705 
2071.000000	99.170110 
2070.000000	99.162630 
2069.000000	99.153541 
2068.000000	99.143414 
2067.000000	99.135282 
2066.000000	99.131412 
2065.000000	99.128731 
2064.000000	99.122693 
2063.000000	99.115436 
2062.000000	99.115181 
2061.000000	99.126411 
2060.000000	99.143996 
2059.000000	99.158418 
2058.000000	99.164350 
2057.000000	99.162862 
2056.000000	99.157417 
2055.000000	99.149650 
2054.000000	99.138996 
2053.000000	99.125933 
2052.000000	99.114900 
2051.000000	99.112327 
2050.000000	99.120016 
2049.000000	99.130493 
2048.000000	99.131886 
2047.000000	99.119531 
2046.000000	99.101048 
2045.000000	99.089023 
2044.000000	99.089747 
2043.000000	99.099104 
2042.000000	99.107856 
2041.000000	99.110155 
2040.000000	99.107709 
2039.000000	99.106005 
2038.000000	99.107217 
2037.000000	99.108222 
2036.000000	99.105530 
2035.000000	99.100059 
2034.000000	99.095419 
2033.000000	99.092619 
2032.000000	99.088423 
2031.000000	99.078974 
2030.000000	99.064350 
2029.000000	99.049685 
2028.000000	99.041238 
2027.000000	99.040817 
2026.000000	99.045420 
2025.000000	99.053315 
2024.000000	99.067057 
2023.000000	99.086357 
2022.000000	99.100787 
2021.000000	99.097590 
2020.000000	99.078733 
2019.000000	99.062754 
2018.000000	99.065497 
2017.000000	99.083160 
2016.000000	99.098739 
2015.000000	99.101464 
2014.000000	99.093418 
2013.000000	99.080916 
2012.000000	99.067225 
2011.000000	99.053726 
2010.000000	99.043822 
2009.000000	99.043545 
2008.000000	99.057569 
2007.000000	99.082742 
2006.000000	99.105994 
2005.000000	99.113998 
2004.000000	99.107305 
2003.000000	99.100084 
2002.000000	99.103448 
2001.000000	99.113159 
2000.000000	99.116692 
1999.000000	99.107864 
1998.000000	99.090677 
1997.000000	99.073401 
1996.000000	99.064037 
1995.000000	99.068478 
1994.000000	99.086354 
1993.000000	99.107449 
1992.000000	99.117464 
1991.000000	99.110643 
1990.000000	99.094147 
1989.000000	99.080375 
1988.000000	99.078252 
1987.000000	99.089134 
1986.000000	99.106143 
1985.000000	99.118848 
1984.000000	99.123007 
1983.000000	99.124811 
1982.000000	99.131577 
1981.000000	99.139694 
1980.000000	99.137402 
1979.000000	99.119387 
1978.000000	99.093796 
1977.000000	99.073063 
1976.000000	99.061656 
1975.000000	99.056378 
1974.000000	99.055438 
1973.000000	99.062564 
1972.000000	99.082074 
1971.000000	99.110721 
1970.000000	99.134535 
1969.000000	99.136580 
1968.000000	99.112394 
1967.000000	99.077467 
1966.000000	99.054328 
1965.000000	99.051824 
1964.000000	99.061234 
1963.000000	99.070357 
1962.000000	99.074661 
1961.000000	99.075645 
1960.000000	99.075664 
1959.000000	99.077541 
1958.000000	99.084777 
1957.000000	99.097453 
1956.000000	99.109935 
1955.000000	99.116204 
1954.000000	99.116444 
1953.000000	99.115646 
1952.000000	99.116089 
1951.000000	99.114676 
1950.000000	99.108140 
1949.000000	99.098113 
1948.000000	99.089755 
1947.000000	99.085884 
1946.000000	99.083697 
1945.000000	99.077769 
1944.000000	99.066269 
1943.000000	99.054327 
1942.000000	99.050341 
1941.000000	99.057596 
1940.000000	99.070520 
1939.000000	99.080517 
1938.000000	99.084651 
1937.000000	99.087740 
1936.000000	99.095251 
1935.000000	99.105314 
1934.000000	99.111027 
1933.000000	99.110701 
1932.000000	99.111310 
1931.000000	99.119771 
1930.000000	99.133342 
1929.000000	99.142359 
1928.000000	99.141703 
1927.000000	99.134758 
1926.000000	99.127449 
1925.000000	99.122329 
1924.000000	99.119549 
1923.000000	99.119693 
1922.000000	99.122490 
1921.000000	99.125486 
1920.000000	99.125830 
1919.000000	99.122057 
1918.000000	99.114049 
1917.000000	99.103965 
1916.000000	99.096892 
1915.000000	99.096516 
1914.000000	99.100745 
1913.000000	99.104441 
1912.000000	99.106067 
1911.000000	99.109246 
1910.000000	99.115723 
1909.000000	99.121315 
1908.000000	99.122590 
1907.000000	99.122390 
1906.000000	99.125329 
1905.000000	99.130491 
1904.000000	99.132992 
1903.000000	99.130913 
1902.000000	99.125880 
1901.000000	99.119693 
1900.000000	99.114179 
1899.000000	99.111996 
1898.000000	99.114683 
1897.000000	99.120283 
1896.000000	99.125283 
1895.000000	99.128363 
1894.000000	99.129745 
1893.000000	99.129175 
1892.000000	99.127093 
1891.000000	99.125598 
1890.000000	99.125395 
1889.000000	99.123950 
1888.000000	99.120144 
1887.000000	99.117137 
1886.000000	99.117547 
1885.000000	99.119795 
1884.000000	99.121635 
1883.000000	99.124713 
1882.000000	99.131665 
1881.000000	99.141137 
1880.000000	99.149819 
1879.000000	99.156604 
1878.000000	99.161804 
1877.000000	99.164499 
1876.000000	99.163863 
1875.000000	99.161819 
1874.000000	99.160255 
1873.000000	99.156912 
1872.000000	99.148653 
1871.000000	99.137581 
1870.000000	99.129825 
1869.000000	99.127491 
1868.000000	99.127145 
1867.000000	99.127505 
1866.000000	99.130032 
1865.000000	99.132609 
1864.000000	99.129933 
1863.000000	99.120152 
1862.000000	99.108106 
1861.000000	99.101160 
1860.000000	99.103719 
1859.000000	99.115545 
1858.000000	99.131824 
1857.000000	99.144582 
1856.000000	99.148281 
1855.000000	99.145368 
1854.000000	99.143194 
1853.000000	99.145363 
1852.000000	99.149727 
1851.000000	99.153060 
1850.000000	99.155405 
1849.000000	99.159172 
1848.000000	99.165166 
1847.000000	99.171328 
1846.000000	99.174457 
1845.000000	99.172960 
1844.000000	99.168618 
1843.000000	99.166155 
1842.000000	99.167818 
1841.000000	99.170581 
1840.000000	99.170904 
1839.000000	99.167932 
1838.000000	99.162851 
1837.000000	99.157004 
1836.000000	99.151809 
1835.000000	99.149243 
1834.000000	99.149705 
1833.000000	99.151152 
1832.000000	99.151406 
1831.000000	99.149804 
1830.000000	99.147021 
1829.000000	99.144693 
1828.000000	99.144256 
1827.000000	99.145222 
1826.000000	99.146095 
1825.000000	99.146145 
1824.000000	99.145763 
1823.000000	99.145748 
1822.000000	99.144933 
1821.000000	99.141143 
1820.000000	99.135685 
1819.000000	99.134203 
1818.000000	99.140953 
1817.000000	99.151879 
1816.000000	99.158701 
1815.000000	99.159373 
1814.000000	99.158185 
1813.000000	99.158441 
1812.000000	99.159802 
1811.000000	99.163209 
1810.000000	99.171513 
1809.000000	99.181433 
1808.000000	99.184133 
1807.000000	99.176426 
1806.000000	99.164732 
1805.000000	99.156622 
1804.000000	99.153574 
1803.000000	99.153422 
1802.000000	99.154441 
1801.000000	99.155206 
1800.000000	99.153476 
1799.000000	99.150008 
1798.000000	99.149653 
1797.000000	99.154895 
1796.000000	99.162559 
1795.000000	99.167634 
1794.000000	99.168208 
1793.000000	99.166236 
1792.000000	99.163737 
1791.000000	99.161693 
1790.000000	99.160407 
1789.000000	99.158533 
1788.000000	99.155563 
1787.000000	99.153948 
1786.000000	99.156714 
1785.000000	99.162571 
1784.000000	99.166543 
1783.000000	99.165917 
1782.000000	99.161380 
1781.000000	99.155872 
1780.000000	99.151526 
1779.000000	99.148310 
1778.000000	99.145717 
1777.000000	99.143778 
1776.000000	99.143818 
1775.000000	99.146223 
1774.000000	99.149458 
1773.000000	99.151611 
1772.000000	99.150955 
1771.000000	99.148442 
1770.000000	99.147767 
1769.000000	99.150269 
1768.000000	99.154107 
1767.000000	99.156718 
1766.000000	99.156877 
1765.000000	99.155056 
1764.000000	99.151895 
1763.000000	99.148665 
1762.000000	99.146909 
1761.000000	99.147363 
1760.000000	99.148455 
1759.000000	99.148377 
1758.000000	99.148506 
1757.000000	99.152648 
1756.000000	99.161425 
1755.000000	99.169174 
1754.000000	99.170756 
1753.000000	99.167676 
1752.000000	99.165880 
1751.000000	99.166916 
1750.000000	99.166560 
1749.000000	99.162518 
1748.000000	99.157616 
1747.000000	99.154677 
1746.000000	99.153078 
1745.000000	99.152593 
1744.000000	99.154124 
1743.000000	99.157055 
1742.000000	99.158978 
1741.000000	99.158223 
1740.000000	99.155948 
1739.000000	99.156013 
1738.000000	99.160200 
1737.000000	99.164792 
1736.000000	99.164628 
1735.000000	99.159871 
1734.000000	99.153291 
1733.000000	99.149448 
1732.000000	99.151991 
1731.000000	99.156473 
1730.000000	99.157128 
1729.000000	99.153125 
1728.000000	99.148299 
1727.000000	99.147179 
1726.000000	99.150151 
1725.000000	99.153834 
1724.000000	99.153329 
1723.000000	99.148437 
1722.000000	99.144716 
1721.000000	99.146327 
1720.000000	99.152678 
1719.000000	99.161366 
1718.000000	99.168434 
1717.000000	99.167433 
1716.000000	99.159320 
1715.000000	99.154139 
1714.000000	99.156891 
1713.000000	99.161967 
1712.000000	99.161715 
1711.000000	99.156664 
1710.000000	99.154028 
1709.000000	99.157831 
1708.000000	99.164200 
1707.000000	99.166398 
1706.000000	99.162840 
1705.000000	99.156726 
1704.000000	99.152424 
1703.000000	99.151499 
1702.000000	99.153294 
1701.000000	99.155922 
1700.000000	99.151057 
1699.000000	99.141950 
1698.000000	99.140981 
1697.000000	99.146766 
1696.000000	99.151254 
1695.000000	99.149896 
1694.000000	99.145859 
1693.000000	99.142896 
1692.000000	99.141100 
1691.000000	99.142342 
1690.000000	99.146667 
1689.000000	99.150511 
1688.000000	99.151863 
1687.000000	99.151709 
1686.000000	99.153810 
1685.000000	99.160933 
1684.000000	99.163871 
1683.000000	99.157824 
1682.000000	99.150826 
1681.000000	99.145599 
1680.000000	99.143108 
1679.000000	99.143965 
1678.000000	99.144320 
1677.000000	99.140750 
1676.000000	99.134361 
1675.000000	99.129332 
1674.000000	99.128477 
1673.000000	99.132424 
1672.000000	99.138478 
1671.000000	99.143941 
1670.000000	99.145724 
1669.000000	99.142083 
1668.000000	99.138164 
1667.000000	99.137644 
1666.000000	99.137841 
1665.000000	99.136051 
1664.000000	99.133296 
1663.000000	99.132626 
1662.000000	99.133556 
1661.000000	99.134172 
1660.000000	99.135244 
1659.000000	99.137525 
1658.000000	99.139842 
1657.000000	99.139724 
1656.000000	99.136712 
1655.000000	99.131795 
1654.000000	99.131850 
1653.000000	99.132341 
1652.000000	99.130222 
1651.000000	99.135094 
1650.000000	99.141425 
1649.000000	99.143608 
1648.000000	99.144010 
1647.000000	99.141116 
1646.000000	99.134734 
1645.000000	99.131183 
1644.000000	99.134318 
1643.000000	99.141104 
1642.000000	99.146735 
1641.000000	99.147970 
1640.000000	99.144987 
1639.000000	99.140571 
1638.000000	99.138043 
1637.000000	99.140160 
1636.000000	99.145401 
1635.000000	99.147336 
1634.000000	99.146269 
1633.000000	99.145397 
1632.000000	99.143228 
1631.000000	99.139333 
1630.000000	99.134641 
1629.000000	99.130172 
1628.000000	99.127318 
1627.000000	99.127146 
1626.000000	99.128646 
1625.000000	99.129993 
1624.000000	99.130783 
1623.000000	99.131114 
1622.000000	99.130911 
1621.000000	99.131189 
1620.000000	99.132838 
1619.000000	99.134995 
1618.000000	99.136733 
1617.000000	99.137202 
1616.000000	99.138466 
1615.000000	99.143655 
1614.000000	99.150348 
1613.000000	99.154657 
1612.000000	99.157629 
1611.000000	99.161633 
1610.000000	99.164747 
1609.000000	99.164204 
1608.000000	99.162051 
1607.000000	99.161871 
1606.000000	99.162389 
1605.000000	99.160951 
1604.000000	99.158947 
1603.000000	99.159153 
1602.000000	99.161866 
1601.000000	99.165503 
1600.000000	99.169074 
1599.000000	99.171771 
1598.000000	99.172398 
1597.000000	99.171129 
1596.000000	99.169764 
1595.000000	99.169262 
1594.000000	99.168355 
1593.000000	99.166339 
1592.000000	99.165303 
1591.000000	99.167427 
1590.000000	99.171685 
1589.000000	99.175684 
1588.000000	99.179145 
1587.000000	99.182803 
1586.000000	99.185276 
1585.000000	99.184427 
1584.000000	99.182216 
1583.000000	99.182087 
1582.000000	99.183708 
1581.000000	99.184376 
1580.000000	99.183046 
1579.000000	99.179795 
1578.000000	99.174905 
1577.000000	99.170546 
1576.000000	99.168506 
1575.000000	99.168706 
1574.000000	99.169278 
1573.000000	99.168313 
1572.000000	99.166668 
1571.000000	99.167749 
1570.000000	99.171207 
1569.000000	99.172753 
1568.000000	99.173043 
1567.000000	99.173776 
1566.000000	99.173610 
1565.000000	99.171571 
1564.000000	99.169209 
1563.000000	99.165129 
1562.000000	99.157546 
1561.000000	99.145897 
1560.000000	99.143165 
1559.000000	99.149071 
1558.000000	99.148964 
1557.000000	99.150747 
1556.000000	99.157704 
1555.000000	99.163339 
1554.000000	99.165505 
1553.000000	99.165003 
1552.000000	99.164284 
1551.000000	99.163379 
1550.000000	99.162790 
1549.000000	99.163592 
1548.000000	99.166467 
1547.000000	99.169727 
1546.000000	99.169503 
1545.000000	99.163597 
1544.000000	99.154337 
1543.000000	99.147961 
1542.000000	99.150326 
1541.000000	99.161708 
1540.000000	99.171405 
1539.000000	99.172114 
1538.000000	99.170312 
1537.000000	99.169602 
1536.000000	99.168559 
1535.000000	99.169323 
1534.000000	99.171859 
1533.000000	99.171065 
1532.000000	99.165738 
1531.000000	99.161279 
1530.000000	99.160760 
1529.000000	99.161968 
1528.000000	99.161420 
1527.000000	99.159155 
1526.000000	99.158282 
1525.000000	99.160417 
1524.000000	99.164296 
1523.000000	99.169309 
1522.000000	99.175493 
1521.000000	99.177958 
1520.000000	99.173368 
1519.000000	99.165107 
1518.000000	99.157538 
1517.000000	99.153425 
1516.000000	99.151340 
1515.000000	99.148158 
1514.000000	99.143913 
1513.000000	99.141947 
1512.000000	99.144650 
1511.000000	99.149650 
1510.000000	99.152865 
1509.000000	99.151950 
1508.000000	99.149589 
1507.000000	99.148279 
1506.000000	99.147842 
1505.000000	99.150197 
1504.000000	99.154736 
1503.000000	99.157495 
1502.000000	99.158167 
1501.000000	99.157983 
1500.000000	99.156924 
1499.000000	99.154122 
1498.000000	99.149672 
1497.000000	99.143634 
1496.000000	99.135632 
1495.000000	99.130505 
1494.000000	99.133623 
1493.000000	99.143686 
1492.000000	99.155453 
1491.000000	99.164048 
1490.000000	99.165947 
1489.000000	99.160214 
1488.000000	99.149710 
1487.000000	99.140342 
1486.000000	99.135126 
1485.000000	99.130733 
1484.000000	99.124735 
1483.000000	99.119129 
1482.000000	99.117941 
1481.000000	99.121531 
1480.000000	99.125420 
1479.000000	99.125992 
1478.000000	99.123291 
1477.000000	99.118663 
1476.000000	99.113379 
1475.000000	99.111017 
1474.000000	99.114680 
1473.000000	99.120822 
1472.000000	99.121119 
1471.000000	99.115585 
1470.000000	99.111278 
1469.000000	99.109838 
1468.000000	99.108031 
1467.000000	99.104162 
1466.000000	99.100145 
1465.000000	99.098922 
1464.000000	99.101069 
1463.000000	99.104424 
1462.000000	99.106947 
1461.000000	99.107096 
1460.000000	99.104170 
1459.000000	99.097789 
1458.000000	99.088433 
1457.000000	99.075624 
1456.000000	99.061625 
1455.000000	99.051725 
1454.000000	99.046762 
1453.000000	99.046982 
1452.000000	99.053053 
1451.000000	99.061898 
1450.000000	99.068895 
1449.000000	99.071506 
1448.000000	99.069743 
1447.000000	99.066719 
1446.000000	99.066008 
1445.000000	99.069377 
1444.000000	99.075402 
1443.000000	99.080318 
1442.000000	99.082419 
1441.000000	99.083050 
1440.000000	99.083739 
1439.000000	99.083994 
1438.000000	99.084788 
1437.000000	99.087391 
1436.000000	99.089057 
1435.000000	99.087012 
1434.000000	99.082775 
1433.000000	99.078601 
1432.000000	99.075595 
1431.000000	99.073066 
1430.000000	99.070219 
1429.000000	99.068168 
1428.000000	99.067533 
1427.000000	99.067395 
1426.000000	99.065421 
1425.000000	99.060869 
1424.000000	99.054343 
1423.000000	99.045371 
1422.000000	99.033997 
1421.000000	99.021498 
1420.000000	99.009399 
1419.000000	98.996426 
1418.000000	98.982089 
1417.000000	98.968726 
1416.000000	98.955890 
1415.000000	98.941588 
1414.000000	98.926015 
1413.000000	98.911187 
1412.000000	98.898451 
1411.000000	98.887029 
1410.000000	98.876553 
1409.000000	98.868230 
1408.000000	98.862538 
1407.000000	98.859064 
1406.000000	98.857219 
1405.000000	98.858099 
1404.000000	98.864166 
1403.000000	98.875928 
1402.000000	98.891658 
1401.000000	98.909075 
1400.000000	98.925551 
1399.000000	98.936276 
1398.000000	98.935361 
1397.000000	98.918240 
1396.000000	98.884592 
1395.000000	98.845996 
1394.000000	98.825257 
1393.000000	98.837253 
1392.000000	98.873987 
1391.000000	98.914728 
1390.000000	98.943274 
1389.000000	98.954134 
1388.000000	98.949513 
1387.000000	98.935635 
1386.000000	98.920971 
1385.000000	98.912303 
1384.000000	98.910491 
1383.000000	98.911031 
1382.000000	98.909546 
1381.000000	98.906338 
1380.000000	98.905975 
1379.000000	98.912374 
1378.000000	98.924723 
1377.000000	98.938458 
1376.000000	98.949294 
1375.000000	98.956065 
1374.000000	98.961231 
1373.000000	98.969437 
1372.000000	98.982857 
1371.000000	98.998854 
1370.000000	99.012543 
1369.000000	99.021490 
1368.000000	99.027196 
1367.000000	99.032240 
1366.000000	99.037985 
1365.000000	99.044761 
1364.000000	99.052399 
1363.000000	99.059815 
1362.000000	99.065820 
1361.000000	99.070997 
1360.000000	99.076970 
1359.000000	99.084199 
1358.000000	99.091702 
1357.000000	99.098347 
1356.000000	99.103520 
1355.000000	99.107165 
1354.000000	99.110213 
1353.000000	99.114060 
1352.000000	99.118408 
1351.000000	99.121380 
1350.000000	99.121632 
1349.000000	99.120838 
1348.000000	99.121971 
1347.000000	99.125135 
1346.000000	99.127720 
1345.000000	99.128307 
1344.000000	99.128282 
1343.000000	99.129399 
1342.000000	99.131873 
1341.000000	99.135105 
1340.000000	99.138295 
1339.000000	99.140058 
1338.000000	99.139746 
1337.000000	99.139104 
1336.000000	99.140315 
1335.000000	99.142728 
1334.000000	99.143557 
1333.000000	99.141914 
1332.000000	99.140155 
1331.000000	99.140486 
1330.000000	99.142031 
1329.000000	99.142641 
1328.000000	99.141826 
1327.000000	99.140476 
1326.000000	99.138982 
1325.000000	99.137649 
1324.000000	99.137505 
1323.000000	99.138898 
1322.000000	99.140560 
1321.000000	99.141530 
1320.000000	99.143059 
1319.000000	99.146803 
1318.000000	99.151521 
1317.000000	99.153391 
1316.000000	99.150061 
1315.000000	99.143296 
1314.000000	99.137403 
1313.000000	99.135380 
1312.000000	99.136544 
1311.000000	99.137842 
1310.000000	99.137231 
1309.000000	99.135505 
1308.000000	99.134750 
1307.000000	99.135726 
1306.000000	99.137212 
1305.000000	99.138026 
1304.000000	99.138506 
1303.000000	99.139540 
1302.000000	99.141040 
1301.000000	99.141954 
1300.000000	99.141498 
1299.000000	99.139956 
1298.000000	99.138516 
1297.000000	99.138375 
1296.000000	99.139824 
1295.000000	99.141930 
1294.000000	99.143191 
1293.000000	99.142505 
1292.000000	99.139579 
1291.000000	99.135027 
1290.000000	99.130493 
1289.000000	99.128005 
1288.000000	99.128238 
1287.000000	99.129455 
1286.000000	99.128957 
1285.000000	99.125682 
1284.000000	99.120787 
1283.000000	99.115852 
1282.000000	99.111299 
1281.000000	99.106526 
1280.000000	99.100962 
1279.000000	99.094626 
1278.000000	99.088213 
1277.000000	99.082824 
1276.000000	99.079119 
1275.000000	99.076446 
1274.000000	99.073232 
1273.000000	99.068559 
1272.000000	99.063034 
1271.000000	99.057824 
1270.000000	99.053157 
1269.000000	99.047981 
1268.000000	99.040828 
1267.000000	99.030789 
1266.000000	99.018243 
1265.000000	99.005034 
1264.000000	98.993414 
1263.000000	98.984227 
1262.000000	98.976209 
1261.000000	98.967618 
1260.000000	98.958558 
1259.000000	98.950856 
1258.000000	98.945563 
1257.000000	98.941603 
1256.000000	98.937542 
1255.000000	98.933800 
1254.000000	98.931791 
1253.000000	98.931128 
1252.000000	98.929459 
1251.000000	98.925896 
1250.000000	98.923314 
1249.000000	98.925837 
1248.000000	98.934467 
1247.000000	98.945786 
1246.000000	98.953940 
1245.000000	98.953041 
1244.000000	98.940035 
1243.000000	98.919053 
1242.000000	98.902426 
1241.000000	98.902446 
1240.000000	98.919518 
1239.000000	98.940559 
1238.000000	98.951274 
1237.000000	98.948572 
1236.000000	98.939463 
1235.000000	98.930825 
1234.000000	98.923797 
1233.000000	98.916500 
1232.000000	98.907777 
1231.000000	98.897697 
1230.000000	98.887615 
1229.000000	98.880745 
1228.000000	98.880141 
1227.000000	98.884852 
1226.000000	98.889986 
1225.000000	98.891971 
1224.000000	98.892251 
1223.000000	98.894462 
1222.000000	98.899334 
1221.000000	98.904054 
1220.000000	98.906089 
1219.000000	98.906131 
1218.000000	98.907141 
1217.000000	98.911132 
1216.000000	98.917028 
1215.000000	98.921524 
1214.000000	98.922029 
1213.000000	98.918607 
1212.000000	98.912985 
1211.000000	98.906540 
1210.000000	98.900013 
1209.000000	98.894381 
1208.000000	98.890561 
1207.000000	98.888318 
1206.000000	98.886563 
1205.000000	98.884663 
1204.000000	98.882433 
1203.000000	98.879121 
1202.000000	98.873899 
1201.000000	98.867572 
1200.000000	98.862423 
1199.000000	98.859754 
1198.000000	98.858384 
1197.000000	98.855775 
1196.000000	98.849768 
1195.000000	98.839485 
1194.000000	98.826105 
1193.000000	98.813025 
1192.000000	98.803538 
1191.000000	98.797382 
1190.000000	98.790768 
1189.000000	98.780862 
1188.000000	98.769300 
1187.000000	98.760226 
1186.000000	98.755543 
1185.000000	98.753182 
1184.000000	98.749630 
1183.000000	98.743268 
1182.000000	98.735446 
1181.000000	98.728876 
1180.000000	98.724668 
1179.000000	98.720610 
1178.000000	98.713044 
1177.000000	98.701000 
1176.000000	98.687678 
1175.000000	98.676974 
1174.000000	98.668905 
1173.000000	98.659382 
1172.000000	98.644538 
1171.000000	98.624842 
1170.000000	98.605158 
1169.000000	98.590795 
1168.000000	98.582845 
1167.000000	98.577084 
1166.000000	98.568467 
1165.000000	98.557417 
1164.000000	98.550547 
1163.000000	98.553930 
1162.000000	98.566355 
1161.000000	98.580502 
1160.000000	98.590118 
1159.000000	98.594276 
1158.000000	98.594882 
1157.000000	98.592174 
1156.000000	98.583997 
1155.000000	98.569093 
1154.000000	98.550243 
1153.000000	98.533629 
1152.000000	98.524421 
1151.000000	98.522210 
1150.000000	98.520896 
1149.000000	98.513886 
1148.000000	98.499707 
1147.000000	98.482446 
1146.000000	98.467279 
1145.000000	98.456053 
1144.000000	98.446517 
1143.000000	98.434654 
1142.000000	98.418170 
1141.000000	98.399203 
1140.000000	98.383574 
1139.000000	98.375549 
1138.000000	98.372442 
1137.000000	98.365823 
1136.000000	98.349425 
1135.000000	98.325295 
1134.000000	98.301124 
1133.000000	98.282037 
1132.000000	98.266471 
1131.000000	98.250024 
1130.000000	98.231545 
1129.000000	98.214064 
1128.000000	98.200074 
1127.000000	98.187309 
1126.000000	98.170304 
1125.000000	98.146208 
1124.000000	98.118270 
1123.000000	98.092978 
1122.000000	98.073975 
1121.000000	98.059241 
1120.000000	98.043907 
1119.000000	98.024838 
1118.000000	98.002409 
1117.000000	97.979056 
1116.000000	97.957163 
1115.000000	97.937976 
1114.000000	97.921310 
1113.000000	97.905607 
1112.000000	97.888454 
1111.000000	97.867733 
1110.000000	97.842934 
1109.000000	97.815708 
1108.000000	97.788818 
1107.000000	97.764214 
1106.000000	97.741910 
1105.000000	97.720658 
1104.000000	97.699665 
1103.000000	97.679591 
1102.000000	97.661891 
1101.000000	97.647097 
1100.000000	97.633462 
1099.000000	97.618267 
1098.000000	97.601201 
1097.000000	97.585856 
1096.000000	97.575866 
1095.000000	97.568834 
1094.000000	97.555920 
1093.000000	97.529042 
1092.000000	97.487908 
1091.000000	97.439445 
1090.000000	97.391476 
1089.000000	97.347699 
1088.000000	97.307354 
1087.000000	97.267945 
1086.000000	97.228612 
1085.000000	97.191790 
1084.000000	97.160505 
1083.000000	97.133109 
1082.000000	97.102781 
1081.000000	97.064764 
1080.000000	97.022703 
1079.000000	96.985004 
1078.000000	96.955885 
1077.000000	96.933098 
1076.000000	96.913882 
1075.000000	96.899464 
1074.000000	96.893219 
1073.000000	96.896760 
1072.000000	96.906702 
1071.000000	96.911546 
1070.000000	96.893731 
1069.000000	96.842622 
1068.000000	96.769329 
1067.000000	96.704392 
1066.000000	96.674945 
1065.000000	96.683420 
1064.000000	96.709642 
1063.000000	96.729880 
1062.000000	96.730711 
1061.000000	96.709200 
1060.000000	96.668584 
1059.000000	96.617411 
1058.000000	96.568431 
1057.000000	96.532596 
1056.000000	96.512707 
1055.000000	96.503457 
1054.000000	96.496968 
1053.000000	96.487633 
1052.000000	96.472986 
1051.000000	96.452883 
1050.000000	96.429415 
1049.000000	96.406223 
1048.000000	96.385937 
1047.000000	96.368406 
1046.000000	96.352276 
1045.000000	96.337543 
1044.000000	96.325405 
1043.000000	96.316207 
1042.000000	96.308771 
1041.000000	96.301329 
1040.000000	96.292371 
1039.000000	96.282325 
1038.000000	96.276490 
1037.000000	96.283901 
1036.000000	96.308542 
1035.000000	96.341871 
1034.000000	96.368842 
1033.000000	96.382060 
1032.000000	96.385361 
1031.000000	96.383380 
1030.000000	96.375184 
1029.000000	96.362183 
1028.000000	96.355618 
1027.000000	96.368291 
1026.000000	96.400263 
1025.000000	96.438312 
1024.000000	96.468485 
1023.000000	96.484916 
1022.000000	96.488805 
1021.000000	96.485295 
1020.000000	96.482137 
1019.000000	96.486271 
1018.000000	96.498645 
1017.000000	96.513626 
1016.000000	96.524447 
1015.000000	96.528850 
1014.000000	96.530665 
1013.000000	96.536951 
1012.000000	96.551534 
1011.000000	96.569415 
1010.000000	96.580096 
1009.000000	96.579631 
1008.000000	96.577330 
1007.000000	96.586853 
1006.000000	96.611755 
1005.000000	96.643055 
1004.000000	96.669737 
1003.000000	96.688003 
1002.000000	96.701647 
1001.000000	96.717564 
1000.000000	96.740326 
999.000000	 96.767130 
998.000000	 96.788470 
997.000000	 96.798206 
996.000000	 96.803103 
995.000000	 96.817731 
994.000000	 96.848227 
993.000000	 96.884673 
992.000000	 96.911598 
991.000000	 96.923422 
990.000000	 96.927985 
989.000000	 96.937292 
988.000000	 96.956859 
987.000000	 96.982590 
986.000000	 97.005972 
985.000000	 97.022761 
984.000000	 97.037638 
983.000000	 97.059927 
982.000000	 97.093895 
981.000000	 97.133489 
980.000000	 97.167333 
979.000000	 97.189531 
978.000000	 97.206192 
977.000000	 97.230696 
976.000000	 97.270496 
975.000000	 97.317885 
974.000000	 97.356043 
973.000000	 97.376420 
972.000000	 97.388812 
971.000000	 97.411837 
970.000000	 97.453639 
969.000000	 97.503752 
968.000000	 97.544004 
967.000000	 97.565997 
966.000000	 97.578041 
965.000000	 97.596034 
964.000000	 97.627705 
963.000000	 97.665420 
962.000000	 97.694737 
961.000000	 97.709996 
960.000000	 97.720124 
959.000000	 97.738505 
958.000000	 97.768591 
957.000000	 97.800746 
956.000000	 97.822508 
955.000000	 97.830977 
954.000000	 97.835755 
953.000000	 97.849986 
952.000000	 97.877143 
951.000000	 97.906171 
950.000000	 97.921461 
949.000000	 97.918872 
948.000000	 97.910414 
947.000000	 97.911934 
946.000000	 97.927159 
945.000000	 97.944735 
944.000000	 97.949970 
943.000000	 97.939145 
942.000000	 97.923996 
941.000000	 97.922252 
940.000000	 97.940954 
939.000000	 97.968008 
938.000000	 97.983149 
937.000000	 97.979294 
936.000000	 97.970319 
935.000000	 97.975343 
934.000000	 97.997732 
933.000000	 98.022564 
932.000000	 98.033230 
931.000000	 98.027668 
930.000000	 98.019406 
929.000000	 98.024488 
928.000000	 98.045614 
927.000000	 98.067193 
926.000000	 98.068688 
925.000000	 98.046247 
924.000000	 98.019307 
923.000000	 98.012318 
922.000000	 98.030517 
921.000000	 98.056154 
920.000000	 98.067022 
919.000000	 98.055673 
918.000000	 98.032829 
917.000000	 98.016342 
916.000000	 98.015875 
915.000000	 98.024371 
914.000000	 98.025198 
913.000000	 98.011658 
912.000000	 97.997821 
911.000000	 98.004196 
910.000000	 98.032759 
909.000000	 98.063065 
908.000000	 98.075546 
907.000000	 98.072749 
906.000000	 98.073851 
905.000000	 98.092240 
904.000000	 98.122681 
903.000000	 98.148323 
902.000000	 98.157054 
901.000000	 98.152765 
900.000000	 98.153114 
899.000000	 98.174086 
898.000000	 98.213020 
897.000000	 98.248083 
896.000000	 98.258442 
895.000000	 98.245684 
894.000000	 98.233066 
893.000000	 98.242330 
892.000000	 98.272768 
891.000000	 98.304297 
890.000000	 98.319978 
889.000000	 98.323382 
888.000000	 98.332624 
887.000000	 98.358588 
886.000000	 98.391579 
885.000000	 98.410878 
884.000000	 98.406368 
883.000000	 98.389068 
882.000000	 98.380506 
881.000000	 98.392489 
880.000000	 98.417205 
879.000000	 98.436347 
878.000000	 98.439750 
877.000000	 98.435276 
876.000000	 98.439676 
875.000000	 98.459639 
874.000000	 98.483319 
873.000000	 98.492087 
872.000000	 98.480316 
871.000000	 98.462729 
870.000000	 98.462274 
869.000000	 98.489923 
868.000000	 98.534351 
867.000000	 98.570667 
866.000000	 98.581833 
865.000000	 98.574472 
864.000000	 98.572878 
863.000000	 98.595091 
862.000000	 98.634273 
861.000000	 98.664991 
860.000000	 98.668375 
859.000000	 98.650548 
858.000000	 98.636256 
857.000000	 98.644414 
856.000000	 98.670402 
855.000000	 98.692970 
854.000000	 98.697936 
853.000000	 98.692612 
852.000000	 98.695101 
851.000000	 98.712222 
850.000000	 98.732459 
849.000000	 98.740179 
848.000000	 98.732028 
847.000000	 98.718438 
846.000000	 98.713382 
845.000000	 98.723467 
844.000000	 98.741887 
843.000000	 98.751048 
842.000000	 98.737376 
841.000000	 98.708037 
840.000000	 98.687465 
839.000000	 98.691206 
838.000000	 98.707220 
837.000000	 98.710434 
836.000000	 98.692961 
835.000000	 98.671265 
834.000000	 98.664574 
833.000000	 98.675439 
832.000000	 98.692993 
831.000000	 98.705957 
830.000000	 98.708321 
829.000000	 98.700911 
828.000000	 98.694121 
827.000000	 98.702006 
826.000000	 98.724026 
825.000000	 98.737643 
824.000000	 98.721677 
823.000000	 98.686051 
822.000000	 98.665437 
821.000000	 98.680483 
820.000000	 98.715930 
819.000000	 98.739956 
818.000000	 98.736976 
817.000000	 98.718495 
816.000000	 98.706955 
815.000000	 98.712990 
814.000000	 98.726470 
813.000000	 98.727070 
812.000000	 98.704015 
811.000000	 98.666217 
810.000000	 98.631689 
809.000000	 98.606327 
808.000000	 98.576163 
807.000000	 98.523142 
806.000000	 98.446450 
805.000000	 98.365280 
804.000000	 98.302066 
803.000000	 98.265825 
802.000000	 98.249329 
801.000000	 98.237356 
800.000000	 98.217990 
799.000000	 98.192153 
798.000000	 98.175353 
797.000000	 98.184898 
796.000000	 98.220156 
795.000000	 98.258583 
794.000000	 98.277354 
793.000000	 98.277765 
792.000000	 98.281654 
791.000000	 98.303624 
790.000000	 98.333697 
789.000000	 98.349865 
788.000000	 98.341958 
787.000000	 98.319065 
786.000000	 98.297214 
785.000000	 98.283682 
784.000000	 98.271789 
783.000000	 98.248840 
782.000000	 98.211035 
781.000000	 98.171890 
780.000000	 98.152435 
779.000000	 98.160230 
778.000000	 98.180835 
777.000000	 98.193313 
776.000000	 98.191811 
775.000000	 98.188793 
774.000000	 98.199700 
773.000000	 98.227931 
772.000000	 98.262885 
771.000000	 98.289280 
770.000000	 98.300170 
769.000000	 98.303770 
768.000000	 98.315380 
767.000000	 98.340090 
766.000000	 98.366065 
765.000000	 98.377976 
764.000000	 98.374178 
763.000000	 98.367078 
762.000000	 98.369330 
761.000000	 98.383088 
760.000000	 98.399857 
759.000000	 98.407017 
758.000000	 98.397826 
757.000000	 98.379849 
756.000000	 98.370157 
755.000000	 98.376534 
754.000000	 98.386612 
753.000000	 98.382857 
752.000000	 98.366272 
751.000000	 98.357121 
750.000000	 98.371983 
749.000000	 98.406652 
748.000000	 98.441801 
747.000000	 98.458991 
746.000000	 98.451896 
745.000000	 98.430705 
744.000000	 98.417691 
743.000000	 98.430073 
742.000000	 98.462227 
741.000000	 98.490133 
740.000000	 98.497209 
739.000000	 98.490698 
738.000000	 98.489346 
737.000000	 98.500524 
736.000000	 98.514508 
735.000000	 98.517507 
734.000000	 98.505282 
733.000000	 98.486648 
732.000000	 98.478102 
731.000000	 98.492029 
730.000000	 98.524264 
729.000000	 98.554690 
728.000000	 98.566108 
727.000000	 98.562341 
726.000000	 98.562530 
725.000000	 98.576973 
724.000000	 98.594009 
723.000000	 98.593896 
722.000000	 98.572352 
721.000000	 98.546839 
720.000000	 98.540199 
719.000000	 98.559806 
718.000000	 98.592644 
717.000000	 98.617714 
716.000000	 98.621005 
715.000000	 98.603099 
714.000000	 98.578576 
713.000000	 98.566844 
712.000000	 98.577301 
711.000000	 98.600644 
710.000000	 98.617368 
709.000000	 98.616588 
708.000000	 98.603849 
707.000000	 98.589552 
706.000000	 98.574678 
705.000000	 98.552305 
704.000000	 98.520183 
703.000000	 98.487090 
702.000000	 98.467651 
701.000000	 98.471311 
700.000000	 98.491143 
699.000000	 98.501691 
698.000000	 98.477544 
697.000000	 98.422819 
696.000000	 98.375135 
695.000000	 98.369002 
694.000000	 98.399154 
693.000000	 98.430975 
692.000000	 98.443083 
691.000000	 98.445521 
690.000000	 98.457066 
689.000000	 98.480861 
688.000000	 98.506274 
687.000000	 98.520908 
686.000000	 98.515532 
685.000000	 98.490835 
684.000000	 98.466215 
683.000000	 98.467909 
682.000000	 98.498089 
681.000000	 98.526352 
680.000000	 98.523376 
679.000000	 98.496468 
678.000000	 98.479109 
677.000000	 98.491026 
676.000000	 98.521989 
675.000000	 98.548173 
674.000000	 98.552780 
673.000000	 98.535649 
672.000000	 98.517037 
671.000000	 98.528276 
670.000000	 98.586559 
669.000000	 98.668871 
668.000000	 98.712620 
667.000000	 98.685861 
666.000000	 98.630617 
665.000000	 98.595745 
664.000000	 98.590217 
663.000000	 98.591463 
662.000000	 98.573351 
661.000000	 98.535180 
660.000000	 98.504456 
659.000000	 98.509261 
658.000000	 98.543406 
657.000000	 98.564172 
656.000000	 98.537167 
655.000000	 98.479455 
654.000000	 98.448992 
653.000000	 98.485040 
652.000000	 98.565680 
651.000000	 98.626134 
650.000000	 98.617444 

