4000.000000	99.197762 
3999.000000	99.197889 
3998.000000	99.197687 
3997.000000	99.196909 
3996.000000	99.195500 
3995.000000	99.193764 
3994.000000	99.192314 
3993.000000	99.191714 
3992.000000	99.192079 
3991.000000	99.192872 
3990.000000	99.193241 
3989.000000	99.192805 
3988.000000	99.192027 
3987.000000	99.191766 
3986.000000	99.192442 
3985.000000	99.193629 
3984.000000	99.194397 
3983.000000	99.194071 
3982.000000	99.192697 
3981.000000	99.190916 
3980.000000	99.189390 
3979.000000	99.188303 
3978.000000	99.187521 
3977.000000	99.187077 
3976.000000	99.187335 
3975.000000	99.188594 
3974.000000	99.190635 
3973.000000	99.192647 
3972.000000	99.193722 
3971.000000	99.193555 
3970.000000	99.192607 
3969.000000	99.191650 
3968.000000	99.191096 
3967.000000	99.190759 
3966.000000	99.190223 
3965.000000	99.189369 
3964.000000	99.188409 
3963.000000	99.187481 
3962.000000	99.186475 
3961.000000	99.185288 
3960.000000	99.184088 
3959.000000	99.183219 
3958.000000	99.182880 
3957.000000	99.182915 
3956.000000	99.183006 
3955.000000	99.182948 
3954.000000	99.182697 
3953.000000	99.182228 
3952.000000	99.181480 
3951.000000	99.180554 
3950.000000	99.179802 
3949.000000	99.179577 
3948.000000	99.179882 
3947.000000	99.180318 
3946.000000	99.180507 
3945.000000	99.180501 
3944.000000	99.180691 
3943.000000	99.181240 
3942.000000	99.181813 
3941.000000	99.181954 
3940.000000	99.181486 
3939.000000	99.180484 
3938.000000	99.179064 
3937.000000	99.177399 
3936.000000	99.175924 
3935.000000	99.175280 
3934.000000	99.175919 
3933.000000	99.177739 
3932.000000	99.179993 
3931.000000	99.181674 
3930.000000	99.182168 
3929.000000	99.181549 
3928.000000	99.180457 
3927.000000	99.179657 
3926.000000	99.179639 
3925.000000	99.180331 
3924.000000	99.181021 
3923.000000	99.180938 
3922.000000	99.179967 
3921.000000	99.178784 
3920.000000	99.178283 
3919.000000	99.178890 
3918.000000	99.180354 
3917.000000	99.181960 
3916.000000	99.183004 
3915.000000	99.183282 
3914.000000	99.183270 
3913.000000	99.183731 
3912.000000	99.184950 
3911.000000	99.186470 
3910.000000	99.187585 
3909.000000	99.187980 
3908.000000	99.187783 
3907.000000	99.187137 
3906.000000	99.185909 
3905.000000	99.183924 
3904.000000	99.181257 
3903.000000	99.178459 
3902.000000	99.176481 
3901.000000	99.176029 
3900.000000	99.177044 
3899.000000	99.178607 
3898.000000	99.179600 
3897.000000	99.179644 
3896.000000	99.179088 
3895.000000	99.178393 
3894.000000	99.177773 
3893.000000	99.177242 
3892.000000	99.176805 
3891.000000	99.176441 
3890.000000	99.176018 
3889.000000	99.175450 
3888.000000	99.174907 
3887.000000	99.174803 
3886.000000	99.175323 
3885.000000	99.176026 
3884.000000	99.176251 
3883.000000	99.175955 
3882.000000	99.175724 
3881.000000	99.176009 
3880.000000	99.176591 
3879.000000	99.176875 
3878.000000	99.176667 
3877.000000	99.176323 
3876.000000	99.176289 
3875.000000	99.176638 
3874.000000	99.177034 
3873.000000	99.177130 
3872.000000	99.176975 
3871.000000	99.176941 
3870.000000	99.177251 
3869.000000	99.177750 
3868.000000	99.178164 
3867.000000	99.178449 
3866.000000	99.178741 
3865.000000	99.179138 
3864.000000	99.179596 
3863.000000	99.180012 
3862.000000	99.180350 
3861.000000	99.180675 
3860.000000	99.181066 
3859.000000	99.181547 
3858.000000	99.182062 
3857.000000	99.182539 
3856.000000	99.182954 
3855.000000	99.183420 
3854.000000	99.184118 
3853.000000	99.185005 
3852.000000	99.185772 
3851.000000	99.186269 
3850.000000	99.186602 
3849.000000	99.186925 
3848.000000	99.187262 
3847.000000	99.187529 
3846.000000	99.187678 
3845.000000	99.187752 
3844.000000	99.187860 
3843.000000	99.188127 
3842.000000	99.188598 
3841.000000	99.189190 
3840.000000	99.189771 
3839.000000	99.190254 
3838.000000	99.190611 
3837.000000	99.190894 
3836.000000	99.191187 
3835.000000	99.191554 
3834.000000	99.192009 
3833.000000	99.192531 
3832.000000	99.193063 
3831.000000	99.193496 
3830.000000	99.193728 
3829.000000	99.193771 
3828.000000	99.193738 
3827.000000	99.193761 
3826.000000	99.193880 
3825.000000	99.194031 
3824.000000	99.194134 
3823.000000	99.194195 
3822.000000	99.194289 
3821.000000	99.194448 
3820.000000	99.194615 
3819.000000	99.194728 
3818.000000	99.194795 
3817.000000	99.194854 
3816.000000	99.194913 
3815.000000	99.194929 
3814.000000	99.194883 
3813.000000	99.194803 
3812.000000	99.194727 
3811.000000	99.194662 
3810.000000	99.194597 
3809.000000	99.194520 
3808.000000	99.194426 
3807.000000	99.194315 
3806.000000	99.194184 
3805.000000	99.194031 
3804.000000	99.193861 
3803.000000	99.193679 
3802.000000	99.193488 
3801.000000	99.193285 
3800.000000	99.193064 
3799.000000	99.192822 
3798.000000	99.192565 
3797.000000	99.192302 
3796.000000	99.192041 
3795.000000	99.191785 
3794.000000	99.191530 
3793.000000	99.191269 
3792.000000	99.191001 
3791.000000	99.190736 
3790.000000	99.190491 
3789.000000	99.190272 
3788.000000	99.190056 
3787.000000	99.189774 
3786.000000	99.189373 
3785.000000	99.188975 
3784.000000	99.188859 
3783.000000	99.189124 
3782.000000	99.189533 
3781.000000	99.189841 
3780.000000	99.190089 
3779.000000	99.190370 
3778.000000	99.190492 
3777.000000	99.190135 
3776.000000	99.189262 
3775.000000	99.188215 
3774.000000	99.187269 
3773.000000	99.186360 
3772.000000	99.185450 
3771.000000	99.184868 
3770.000000	99.184699 
3769.000000	99.184255 
3768.000000	99.183055 
3767.000000	99.181825 
3766.000000	99.181707 
3765.000000	99.182778 
3764.000000	99.183699 
3763.000000	99.183224 
3762.000000	99.181743 
3761.000000	99.180780 
3760.000000	99.181034 
3759.000000	99.181592 
3758.000000	99.181636 
3757.000000	99.181814 
3756.000000	99.182902 
3755.000000	99.184660 
3754.000000	99.186356 
3753.000000	99.187789 
3752.000000	99.189040 
3751.000000	99.189537 
3750.000000	99.189026 
3749.000000	99.188526 
3748.000000	99.188878 
3747.000000	99.189946 
3746.000000	99.191556 
3745.000000	99.193605 
3744.000000	99.194400 
3743.000000	99.191377 
3742.000000	99.184549 
3741.000000	99.176675 
3740.000000	99.170075 
3739.000000	99.164852 
3738.000000	99.160496 
3737.000000	99.157949 
3736.000000	99.158072 
3735.000000	99.159338 
3734.000000	99.159398 
3733.000000	99.158788 
3732.000000	99.159712 
3731.000000	99.161998 
3730.000000	99.163293 
3729.000000	99.162264 
3728.000000	99.160247 
3727.000000	99.159453 
3726.000000	99.159945 
3725.000000	99.159725 
3724.000000	99.157838 
3723.000000	99.155770 
3722.000000	99.155286 
3721.000000	99.156442 
3720.000000	99.157734 
3719.000000	99.157422 
3718.000000	99.154928 
3717.000000	99.150849 
3716.000000	99.145556 
3715.000000	99.139076 
3714.000000	99.132213 
3713.000000	99.127071 
3712.000000	99.125185 
3711.000000	99.125432 
3710.000000	99.125006 
3709.000000	99.121851 
3708.000000	99.115910 
3707.000000	99.108553 
3706.000000	99.101167 
3705.000000	99.094421 
3704.000000	99.088321 
3703.000000	99.082667 
3702.000000	99.077213 
3701.000000	99.071772 
3700.000000	99.066317 
3699.000000	99.061005 
3698.000000	99.056167 
3697.000000	99.052275 
3696.000000	99.049480 
3695.000000	99.047606 
3694.000000	99.046627 
3693.000000	99.046375 
3692.000000	99.045699 
3691.000000	99.042805 
3690.000000	99.037179 
3689.000000	99.030617 
3688.000000	99.025351 
3687.000000	99.021600 
3686.000000	99.018281 
3685.000000	99.015262 
3684.000000	99.013291 
3683.000000	99.012368 
3682.000000	99.011087 
3681.000000	99.007977 
3680.000000	99.002861 
3679.000000	98.996431 
3678.000000	98.989362 
3677.000000	98.982728 
3676.000000	98.977974 
3675.000000	98.974449 
3674.000000	98.969445 
3673.000000	98.961640 
3672.000000	98.952500 
3671.000000	98.945133 
3670.000000	98.941331 
3669.000000	98.939566 
3668.000000	98.937414 
3667.000000	98.934564 
3666.000000	98.931817 
3665.000000	98.929100 
3664.000000	98.925331 
3663.000000	98.919690 
3662.000000	98.912573 
3661.000000	98.904940 
3660.000000	98.897157 
3659.000000	98.889193 
3658.000000	98.881756 
3657.000000	98.876260 
3656.000000	98.872955 
3655.000000	98.869890 
3654.000000	98.864921 
3653.000000	98.857425 
3652.000000	98.847537 
3651.000000	98.835201 
3650.000000	98.821034 
3649.000000	98.808029 
3648.000000	98.799902 
3647.000000	98.797310 
3646.000000	98.798055 
3645.000000	98.800303 
3644.000000	98.803701 
3643.000000	98.807922 
3642.000000	98.811768 
3641.000000	98.813675 
3640.000000	98.813012 
3639.000000	98.810322 
3638.000000	98.806195 
3637.000000	98.800652 
3636.000000	98.793691 
3635.000000	98.785951 
3634.000000	98.778095 
3633.000000	98.769959 
3632.000000	98.761285 
3631.000000	98.752973 
3630.000000	98.746904 
3629.000000	98.743019 
3628.000000	98.738048 
3627.000000	98.730617 
3626.000000	98.723820 
3625.000000	98.720606 
3624.000000	98.720360 
3623.000000	98.720326 
3622.000000	98.719022 
3621.000000	98.718373 
3620.000000	98.721334 
3619.000000	98.727618 
3618.000000	98.734040 
3617.000000	98.739105 
3616.000000	98.744129 
3615.000000	98.750810 
3614.000000	98.758703 
3613.000000	98.765463 
3612.000000	98.769806 
3611.000000	98.773419 
3610.000000	98.778881 
3609.000000	98.786103 
3608.000000	98.792001 
3607.000000	98.794428 
3606.000000	98.795232 
3605.000000	98.797872 
3604.000000	98.803532 
3603.000000	98.810759 
3602.000000	98.817676 
3601.000000	98.823888 
3600.000000	98.829377 
3599.000000	98.832967 
3598.000000	98.833484 
3597.000000	98.831557 
3596.000000	98.829436 
3595.000000	98.829634 
3594.000000	98.832842 
3593.000000	98.837426 
3592.000000	98.841019 
3591.000000	98.841769 
3590.000000	98.839356 
3589.000000	98.835420 
3588.000000	98.832682 
3587.000000	98.832037 
3586.000000	98.832370 
3585.000000	98.833280 
3584.000000	98.835798 
3583.000000	98.840176 
3582.000000	98.844806 
3581.000000	98.847536 
3580.000000	98.847580 
3579.000000	98.845698 
3578.000000	98.842788 
3577.000000	98.839240 
3576.000000	98.835637 
3575.000000	98.833182 
3574.000000	98.832775 
3573.000000	98.833696 
3572.000000	98.834093 
3571.000000	98.832553 
3570.000000	98.828850 
3569.000000	98.823909 
3568.000000	98.819506 
3567.000000	98.817105 
3566.000000	98.816811 
3565.000000	98.817928 
3564.000000	98.819974 
3563.000000	98.822653 
3562.000000	98.825367 
3561.000000	98.827093 
3560.000000	98.827053 
3559.000000	98.825311 
3558.000000	98.822778 
3557.000000	98.820572 
3556.000000	98.819377 
3555.000000	98.819159 
3554.000000	98.819322 
3553.000000	98.818965 
3552.000000	98.817350 
3551.000000	98.814498 
3550.000000	98.811171 
3549.000000	98.808224 
3548.000000	98.806108 
3547.000000	98.804757 
3546.000000	98.803825 
3545.000000	98.802901 
3544.000000	98.801805 
3543.000000	98.800845 
3542.000000	98.800666 
3541.000000	98.801585 
3540.000000	98.803120 
3539.000000	98.804177 
3538.000000	98.803941 
3537.000000	98.802478 
3536.000000	98.800570 
3535.000000	98.799047 
3534.000000	98.798115 
3533.000000	98.797431 
3532.000000	98.796634 
3531.000000	98.795701 
3530.000000	98.794777 
3529.000000	98.793824 
3528.000000	98.792644 
3527.000000	98.791250 
3526.000000	98.789974 
3525.000000	98.789132 
3524.000000	98.788686 
3523.000000	98.788313 
3522.000000	98.787766 
3521.000000	98.787050 
3520.000000	98.786325 
3519.000000	98.785741 
3518.000000	98.785365 
3517.000000	98.785138 
3516.000000	98.784851 
3515.000000	98.784256 
3514.000000	98.783227 
3513.000000	98.781839 
3512.000000	98.780337 
3511.000000	98.779008 
3510.000000	98.778018 
3509.000000	98.777343 
3508.000000	98.776816 
3507.000000	98.776268 
3506.000000	98.775642 
3505.000000	98.774958 
3504.000000	98.774224 
3503.000000	98.773435 
3502.000000	98.772644 
3501.000000	98.771946 
3500.000000	98.771380 
3499.000000	98.770851 
3498.000000	98.770167 
3497.000000	98.769222 
3496.000000	98.768098 
3495.000000	98.767015 
3494.000000	98.766097 
3493.000000	98.765287 
3492.000000	98.764473 
3491.000000	98.763630 
3490.000000	98.762823 
3489.000000	98.762097 
3488.000000	98.761379 
3487.000000	98.760507 
3486.000000	98.759362 
3485.000000	98.757994 
3484.000000	98.756616 
3483.000000	98.755443 
3482.000000	98.754514 
3481.000000	98.753690 
3480.000000	98.752838 
3479.000000	98.751945 
3478.000000	98.751007 
3477.000000	98.749931 
3476.000000	98.748670 
3475.000000	98.747432 
3474.000000	98.746560 
3473.000000	98.746102 
3472.000000	98.745625 
3471.000000	98.744646 
3470.000000	98.743245 
3469.000000	98.742020 
3468.000000	98.741371 
3467.000000	98.740941 
3466.000000	98.740003 
3465.000000	98.738268 
3464.000000	98.736110 
3463.000000	98.734118 
3462.000000	98.732553 
3461.000000	98.731352 
3460.000000	98.730467 
3459.000000	98.729945 
3458.000000	98.729593 
3457.000000	98.728804 
3456.000000	98.726987 
3455.000000	98.724142 
3454.000000	98.720967 
3453.000000	98.718288 
3452.000000	98.716325 
3451.000000	98.714676 
3450.000000	98.712845 
3449.000000	98.710745 
3448.000000	98.708648 
3447.000000	98.706752 
3446.000000	98.704919 
3445.000000	98.702930 
3444.000000	98.700899 
3443.000000	98.699230 
3442.000000	98.698131 
3441.000000	98.697297 
3440.000000	98.696174 
3439.000000	98.694501 
3438.000000	98.692435 
3437.000000	98.690245 
3436.000000	98.688088 
3435.000000	98.686134 
3434.000000	98.684638 
3433.000000	98.683719 
3432.000000	98.683095 
3431.000000	98.682259 
3430.000000	98.680972 
3429.000000	98.679482 
3428.000000	98.678226 
3427.000000	98.677298 
3426.000000	98.676290 
3425.000000	98.674664 
3424.000000	98.672274 
3423.000000	98.669525 
3422.000000	98.667047 
3421.000000	98.665220 
3420.000000	98.664091 
3419.000000	98.663619 
3418.000000	98.663758 
3417.000000	98.664224 
3416.000000	98.664424 
3415.000000	98.663828 
3414.000000	98.662403 
3413.000000	98.660638 
3412.000000	98.659152 
3411.000000	98.658263 
3410.000000	98.657844 
3409.000000	98.657451 
3408.000000	98.656587 
3407.000000	98.655023 
3406.000000	98.653012 
3405.000000	98.651191 
3404.000000	98.650143 
3403.000000	98.649979 
3402.000000	98.650308 
3401.000000	98.650586 
3400.000000	98.650579 
3399.000000	98.650482 
3398.000000	98.650609 
3397.000000	98.650966 
3396.000000	98.651130 
3395.000000	98.650578 
3394.000000	98.649116 
3393.000000	98.647044 
3392.000000	98.645005 
3391.000000	98.643618 
3390.000000	98.643177 
3389.000000	98.643624 
3388.000000	98.644673 
3387.000000	98.645941 
3386.000000	98.647074 
3385.000000	98.647854 
3384.000000	98.648241 
3383.000000	98.648290 
3382.000000	98.648000 
3381.000000	98.647336 
3380.000000	98.646424 
3379.000000	98.645636 
3378.000000	98.645329 
3377.000000	98.645490 
3376.000000	98.645769 
3375.000000	98.645841 
3374.000000	98.645714 
3373.000000	98.645620 
3372.000000	98.645694 
3371.000000	98.645850 
3370.000000	98.645923 
3369.000000	98.645825 
3368.000000	98.645585 
3367.000000	98.645325 
3366.000000	98.645206 
3365.000000	98.645313 
3364.000000	98.645574 
3363.000000	98.645841 
3362.000000	98.646037 
3361.000000	98.646185 
3360.000000	98.646305 
3359.000000	98.646379 
3358.000000	98.646396 
3357.000000	98.646406 
3356.000000	98.646476 
3355.000000	98.646618 
3354.000000	98.646781 
3353.000000	98.646921 
3352.000000	98.647043 
3351.000000	98.647180 
3350.000000	98.647352 
3349.000000	98.647548 
3348.000000	98.647752 
3347.000000	98.647952 
3346.000000	98.648147 
3345.000000	98.648340 
3344.000000	98.648536 
3343.000000	98.648742 
3342.000000	98.648967 
3341.000000	98.649214 
3340.000000	98.649476 
3339.000000	98.649737 
3338.000000	98.649994 
3337.000000	98.650262 
3336.000000	98.650559 
3335.000000	98.650887 
3334.000000	98.651230 
3333.000000	98.651584 
3332.000000	98.651961 
3331.000000	98.652363 
3330.000000	98.652765 
3329.000000	98.653132 
3328.000000	98.653449 
3327.000000	98.653734 
3326.000000	98.654025 
3325.000000	98.654340 
3324.000000	98.654658 
3323.000000	98.654944 
3322.000000	98.655197 
3321.000000	98.655478 
3320.000000	98.655854 
3319.000000	98.656333 
3318.000000	98.656861 
3317.000000	98.657374 
3316.000000	98.657841 
3315.000000	98.658255 
3314.000000	98.658631 
3313.000000	98.659008 
3312.000000	98.659443 
3311.000000	98.659961 
3310.000000	98.660499 
3309.000000	98.660948 
3308.000000	98.661262 
3307.000000	98.661504 
3306.000000	98.661784 
3305.000000	98.662179 
3304.000000	98.662729 
3303.000000	98.663429 
3302.000000	98.664169 
3301.000000	98.664736 
3300.000000	98.664965 
3299.000000	98.664894 
3298.000000	98.664799 
3297.000000	98.664987 
3296.000000	98.665550 
3295.000000	98.666274 
3294.000000	98.666804 
3293.000000	98.666996 
3292.000000	98.667107 
3291.000000	98.667552 
3290.000000	98.668419 
3289.000000	98.669311 
3288.000000	98.669789 
3287.000000	98.669889 
3286.000000	98.670048 
3285.000000	98.670563 
3284.000000	98.671314 
3283.000000	98.672068 
3282.000000	98.672870 
3281.000000	98.674000 
3280.000000	98.675615 
3279.000000	98.677491 
3278.000000	98.679136 
3277.000000	98.680142 
3276.000000	98.680433 
3275.000000	98.680248 
3274.000000	98.679898 
3273.000000	98.679633 
3272.000000	98.679718 
3271.000000	98.680431 
3270.000000	98.681879 
3269.000000	98.683884 
3268.000000	98.686099 
3267.000000	98.688181 
3266.000000	98.689790 
3265.000000	98.690672 
3264.000000	98.690986 
3263.000000	98.691425 
3262.000000	98.692739 
3261.000000	98.695109 
3260.000000	98.698078 
3259.000000	98.700970 
3258.000000	98.703314 
3257.000000	98.705032 
3256.000000	98.706463 
3255.000000	98.708102 
3254.000000	98.710140 
3253.000000	98.712312 
3252.000000	98.714324 
3251.000000	98.716230 
3250.000000	98.718191 
3249.000000	98.720053 
3248.000000	98.721458 
3247.000000	98.722314 
3246.000000	98.722871 
3245.000000	98.723401 
3244.000000	98.724042 
3243.000000	98.724918 
3242.000000	98.726099 
3241.000000	98.727392 
3240.000000	98.728517 
3239.000000	98.729656 
3238.000000	98.731587 
3237.000000	98.735018 
3236.000000	98.739792 
3235.000000	98.744714 
3234.000000	98.748294 
3233.000000	98.749812 
3232.000000	98.749744 
3231.000000	98.749374 
3230.000000	98.749785 
3229.000000	98.751101 
3228.000000	98.752711 
3227.000000	98.753964 
3226.000000	98.754565 
3225.000000	98.754535 
3224.000000	98.754153 
3223.000000	98.753947 
3222.000000	98.754443 
3221.000000	98.755722 
3220.000000	98.757330 
3219.000000	98.758759 
3218.000000	98.759962 
3217.000000	98.761353 
3216.000000	98.763363 
3215.000000	98.766053 
3214.000000	98.769007 
3213.000000	98.771545 
3212.000000	98.773108 
3211.000000	98.773576 
3210.000000	98.773319 
3209.000000	98.773005 
3208.000000	98.773237 
3207.000000	98.774213 
3206.000000	98.775643 
3205.000000	98.777028 
3204.000000	98.778150 
3203.000000	98.779241 
3202.000000	98.780593 
3201.000000	98.782162 
3200.000000	98.783712 
3199.000000	98.785233 
3198.000000	98.786915 
3197.000000	98.788771 
3196.000000	98.790579 
3195.000000	98.792253 
3194.000000	98.793958 
3193.000000	98.795716 
3192.000000	98.797142 
3191.000000	98.797802 
3190.000000	98.797707 
3189.000000	98.797326 
3188.000000	98.797214 
3187.000000	98.797773 
3186.000000	98.799202 
3185.000000	98.801439 
3184.000000	98.804068 
3183.000000	98.806429 
3182.000000	98.808068 
3181.000000	98.809108 
3180.000000	98.810196 
3179.000000	98.811983 
3178.000000	98.814489 
3177.000000	98.816987 
3176.000000	98.818689 
3175.000000	98.819542 
3174.000000	98.820227 
3173.000000	98.821306 
3172.000000	98.822547 
3171.000000	98.823334 
3170.000000	98.823542 
3169.000000	98.823728 
3168.000000	98.824441 
3167.000000	98.825655 
3166.000000	98.826999 
3165.000000	98.828284 
3164.000000	98.829630 
3163.000000	98.831156 
3162.000000	98.832730 
3161.000000	98.834111 
3160.000000	98.835241 
3159.000000	98.836243 
3158.000000	98.837132 
3157.000000	98.837703 
3156.000000	98.837833 
3155.000000	98.837779 
3154.000000	98.837957 
3153.000000	98.838448 
3152.000000	98.838954 
3151.000000	98.839305 
3150.000000	98.839803 
3149.000000	98.840872 
3148.000000	98.842535 
3147.000000	98.844401 
3146.000000	98.846109 
3145.000000	98.847605 
3144.000000	98.848982 
3143.000000	98.850273 
3142.000000	98.851446 
3141.000000	98.852487 
3140.000000	98.853416 
3139.000000	98.854260 
3138.000000	98.855062 
3137.000000	98.855893 
3136.000000	98.856827 
3135.000000	98.857903 
3134.000000	98.859090 
3133.000000	98.860297 
3132.000000	98.861417 
3131.000000	98.862400 
3130.000000	98.863278 
3129.000000	98.864152 
3128.000000	98.865124 
3127.000000	98.866226 
3126.000000	98.867416 
3125.000000	98.868612 
3124.000000	98.869724 
3123.000000	98.870724 
3122.000000	98.871639 
3121.000000	98.872525 
3120.000000	98.873433 
3119.000000	98.874375 
3118.000000	98.875339 
3117.000000	98.876311 
3116.000000	98.877281 
3115.000000	98.878246 
3114.000000	98.879204 
3113.000000	98.880153 
3112.000000	98.881089 
3111.000000	98.882006 
3110.000000	98.882903 
3109.000000	98.883785 
3108.000000	98.884652 
3107.000000	98.885502 
3106.000000	98.886326 
3105.000000	98.887115 
3104.000000	98.887871 
3103.000000	98.888624 
3102.000000	98.889411 
3101.000000	98.890247 
3100.000000	98.891103 
3099.000000	98.891930 
3098.000000	98.892709 
3097.000000	98.893452 
3096.000000	98.894170 
3095.000000	98.894868 
3094.000000	98.895546 
3093.000000	98.896198 
3092.000000	98.896796 
3091.000000	98.897321 
3090.000000	98.897820 
3089.000000	98.898394 
3088.000000	98.899096 
3087.000000	98.899861 
3086.000000	98.900557 
3085.000000	98.901108 
3084.000000	98.901565 
3083.000000	98.902000 
3082.000000	98.902354 
3081.000000	98.902488 
3080.000000	98.902439 
3079.000000	98.902558 
3078.000000	98.903302 
3077.000000	98.904824 
3076.000000	98.906763 
3075.000000	98.908465 
3074.000000	98.909397 
3073.000000	98.909431 
3072.000000	98.908899 
3071.000000	98.908286 
3070.000000	98.907746 
3069.000000	98.907027 
3068.000000	98.905984 
3067.000000	98.905077 
3066.000000	98.905188 
3065.000000	98.906940 
3064.000000	98.910121 
3063.000000	98.913528 
3062.000000	98.915433 
3061.000000	98.914626 
3060.000000	98.911449 
3059.000000	98.907777 
3058.000000	98.905606 
3057.000000	98.905686 
3056.000000	98.907617 
3055.000000	98.910751 
3054.000000	98.914393 
3053.000000	98.917327 
3052.000000	98.918004 
3051.000000	98.915710 
3050.000000	98.911490 
3049.000000	98.907743 
3048.000000	98.906618 
3047.000000	98.908429 
3046.000000	98.911322 
3045.000000	98.912725 
3044.000000	98.911631 
3043.000000	98.909453 
3042.000000	98.908455 
3041.000000	98.909435 
3040.000000	98.911246 
3039.000000	98.912304 
3038.000000	98.911872 
3037.000000	98.909944 
3036.000000	98.906630 
3035.000000	98.902060 
3034.000000	98.896518 
3033.000000	98.890325 
3032.000000	98.883829 
3031.000000	98.877661 
3030.000000	98.872742 
3029.000000	98.869834 
3028.000000	98.869138 
3027.000000	98.870142 
3026.000000	98.871551 
3025.000000	98.871498 
3024.000000	98.868475 
3023.000000	98.862460 
3022.000000	98.854974 
3021.000000	98.847601 
3020.000000	98.840402 
3019.000000	98.832125 
3018.000000	98.822157 
3017.000000	98.811924 
3016.000000	98.803783 
3015.000000	98.798419 
3014.000000	98.793993 
3013.000000	98.788346 
3012.000000	98.781606 
3011.000000	98.775658 
3010.000000	98.771200 
3009.000000	98.766583 
3008.000000	98.760029 
3007.000000	98.751947 
3006.000000	98.744146 
3005.000000	98.737380 
3004.000000	98.730789 
3003.000000	98.723609 
3002.000000	98.716344 
3001.000000	98.709953 
3000.000000	98.704608 
2999.000000	98.699708 
2998.000000	98.694817 
2997.000000	98.690238 
2996.000000	98.686575 
2995.000000	98.683640 
2994.000000	98.679790 
2993.000000	98.672786 
2992.000000	98.661740 
2991.000000	98.648207 
2990.000000	98.635197 
2989.000000	98.625232 
2988.000000	98.619539 
2987.000000	98.618363 
2986.000000	98.620946 
2985.000000	98.625228 
2984.000000	98.628515 
2983.000000	98.629055 
2982.000000	98.626778 
2981.000000	98.622694 
2980.000000	98.618122 
2979.000000	98.614354 
2978.000000	98.612075 
2977.000000	98.610561 
2976.000000	98.607929 
2975.000000	98.602743 
2974.000000	98.595324 
2973.000000	98.587444 
2972.000000	98.581019 
2971.000000	98.577059 
2970.000000	98.575246 
2969.000000	98.574171 
2968.000000	98.572372 
2967.000000	98.569594 
2966.000000	98.566891 
2965.000000	98.565408 
2964.000000	98.565237 
2963.000000	98.565521 
2962.000000	98.565328 
2961.000000	98.564285 
2960.000000	98.562674 
2959.000000	98.561196 
2958.000000	98.560479 
2957.000000	98.560731 
2956.000000	98.561933 
2955.000000	98.564297 
2954.000000	98.568262 
2953.000000	98.573995 
2952.000000	98.581046 
2951.000000	98.588366 
2950.000000	98.594505 
2949.000000	98.598027 
2948.000000	98.598129 
2947.000000	98.595018 
2946.000000	98.589778 
2945.000000	98.584045 
2944.000000	98.579399 
2943.000000	98.575997 
2942.000000	98.571410 
2941.000000	98.561920 
2940.000000	98.546123 
2939.000000	98.527073 
2938.000000	98.509877 
2937.000000	98.497171 
2936.000000	98.487656 
2935.000000	98.478543 
2934.000000	98.468034 
2933.000000	98.455369 
2932.000000	98.439973 
2931.000000	98.421629 
2930.000000	98.401283 
2929.000000	98.381120 
2928.000000	98.363505 
2927.000000	98.349327 
2926.000000	98.337181 
2925.000000	98.324856 
2924.000000	98.312432 
2923.000000	98.303211 
2922.000000	98.300635 
2921.000000	98.304728 
2920.000000	98.312683 
2919.000000	98.322431 
2918.000000	98.334258 
2917.000000	98.348911 
2916.000000	98.365732 
2915.000000	98.383262 
2914.000000	98.400698 
2913.000000	98.418164 
2912.000000	98.436181 
2911.000000	98.455099 
2910.000000	98.474321 
2909.000000	98.491942 
2908.000000	98.505904 
2907.000000	98.515866 
2906.000000	98.523205 
2905.000000	98.528976 
2904.000000	98.532695 
2903.000000	98.533734 
2902.000000	98.533461 
2901.000000	98.535799 
2900.000000	98.544513 
2899.000000	98.560423 
2898.000000	98.579788 
2897.000000	98.596254 
2896.000000	98.605684 
2895.000000	98.609408 
2894.000000	98.612309 
2893.000000	98.617790 
2892.000000	98.625489 
2891.000000	98.633469 
2890.000000	98.640838 
2889.000000	98.647548 
2888.000000	98.653218 
2887.000000	98.657575 
2886.000000	98.661400 
2885.000000	98.665868 
2884.000000	98.671206 
2883.000000	98.676869 
2882.000000	98.682760 
2881.000000	98.689418 
2880.000000	98.697004 
2879.000000	98.704745 
2878.000000	98.711569 
2877.000000	98.716905 
2876.000000	98.720845 
2875.000000	98.723833 
2874.000000	98.726317 
2873.000000	98.728567 
2872.000000	98.730705 
2871.000000	98.732696 
2870.000000	98.734250 
2869.000000	98.735097 
2868.000000	98.735745 
2867.000000	98.737545 
2866.000000	98.741112 
2865.000000	98.744740 
2864.000000	98.745307 
2863.000000	98.741053 
2862.000000	98.732822 
2861.000000	98.722574 
2860.000000	98.711648 
2859.000000	98.700873 
2858.000000	98.691071 
2857.000000	98.682441 
2856.000000	98.674152 
2855.000000	98.665744 
2854.000000	98.658775 
2853.000000	98.656179 
2852.000000	98.660079 
2851.000000	98.670718 
2850.000000	98.687211 
2849.000000	98.708488 
2848.000000	98.733455 
2847.000000	98.760683 
2846.000000	98.788204 
2845.000000	98.813607 
2844.000000	98.834716 
2843.000000	98.850724 
2842.000000	98.862855 
2841.000000	98.873532 
2840.000000	98.884526 
2839.000000	98.895793 
2838.000000	98.906152 
2837.000000	98.915020 
2836.000000	98.923181 
2835.000000	98.931616 
2834.000000	98.939875 
2833.000000	98.946309 
2832.000000	98.950117 
2831.000000	98.952393 
2830.000000	98.954543 
2829.000000	98.956366 
2828.000000	98.956821 
2827.000000	98.956478 
2826.000000	98.957848 
2825.000000	98.962720 
2824.000000	98.970031 
2823.000000	98.976973 
2822.000000	98.981658 
2821.000000	98.984171 
2820.000000	98.985650 
2819.000000	98.987166 
2818.000000	98.989303 
2817.000000	98.992081 
2816.000000	98.994992 
2815.000000	98.997286 
2814.000000	98.998400 
2813.000000	98.998244 
2812.000000	98.997388 
2811.000000	98.997064 
2810.000000	98.998561 
2809.000000	99.002226 
2808.000000	99.007019 
2807.000000	99.011226 
2806.000000	99.013613 
2805.000000	99.014058 
2804.000000	99.013462 
2803.000000	99.013182 
2802.000000	99.014214 
2801.000000	99.016528 
2800.000000	99.019182 
2799.000000	99.021131 
2798.000000	99.021871 
2797.000000	99.021391 
2796.000000	99.019953 
2795.000000	99.018185 
2794.000000	99.017129 
2793.000000	99.017692 
2792.000000	99.019771 
2791.000000	99.022133 
2790.000000	99.023535 
2789.000000	99.024061 
2788.000000	99.025073 
2787.000000	99.027543 
2786.000000	99.030680 
2785.000000	99.032600 
2784.000000	99.032375 
2783.000000	99.030948 
2782.000000	99.030028 
2781.000000	99.030423 
2780.000000	99.031752 
2779.000000	99.033341 
2778.000000	99.034877 
2777.000000	99.036374 
2776.000000	99.037919 
2775.000000	99.039512 
2774.000000	99.040991 
2773.000000	99.042163 
2772.000000	99.043097 
2771.000000	99.044156 
2770.000000	99.045495 
2769.000000	99.046636 
2768.000000	99.046958 
2767.000000	99.046539 
2766.000000	99.046186 
2765.000000	99.046440 
2764.000000	99.046917 
2763.000000	99.046874 
2762.000000	99.046144 
2761.000000	99.045283 
2760.000000	99.044933 
2759.000000	99.045262 
2758.000000	99.046073 
2757.000000	99.047178 
2756.000000	99.048478 
2755.000000	99.049752 
2754.000000	99.050601 
2753.000000	99.050795 
2752.000000	99.050605 
2751.000000	99.050641 
2750.000000	99.051276 
2749.000000	99.052325 
2748.000000	99.053333 
2747.000000	99.054058 
2746.000000	99.054590 
2745.000000	99.055071 
2744.000000	99.055495 
2743.000000	99.055769 
2742.000000	99.055879 
2741.000000	99.055950 
2740.000000	99.056158 
2739.000000	99.056570 
2738.000000	99.057102 
2737.000000	99.057652 
2736.000000	99.058271 
2735.000000	99.059075 
2734.000000	99.059996 
2733.000000	99.060735 
2732.000000	99.061082 
2731.000000	99.061140 
2730.000000	99.061210 
2729.000000	99.061494 
2728.000000	99.061970 
2727.000000	99.062513 
2726.000000	99.063011 
2725.000000	99.063436 
2724.000000	99.063867 
2723.000000	99.064465 
2722.000000	99.065328 
2721.000000	99.066371 
2720.000000	99.067388 
2719.000000	99.068219 
2718.000000	99.068834 
2717.000000	99.069291 
2716.000000	99.069684 
2715.000000	99.070113 
2714.000000	99.070636 
2713.000000	99.071225 
2712.000000	99.071810 
2711.000000	99.072361 
2710.000000	99.072914 
2709.000000	99.073494 
2708.000000	99.074073 
2707.000000	99.074593 
2706.000000	99.075012 
2705.000000	99.075344 
2704.000000	99.075665 
2703.000000	99.076085 
2702.000000	99.076650 
2701.000000	99.077293 
2700.000000	99.077893 
2699.000000	99.078406 
2698.000000	99.078906 
2697.000000	99.079463 
2696.000000	99.080031 
2695.000000	99.080487 
2694.000000	99.080776 
2693.000000	99.080966 
2692.000000	99.081201 
2691.000000	99.081563 
2690.000000	99.082002 
2689.000000	99.082394 
2688.000000	99.082682 
2687.000000	99.082931 
2686.000000	99.083247 
2685.000000	99.083658 
2684.000000	99.084115 
2683.000000	99.084557 
2682.000000	99.084948 
2681.000000	99.085276 
2680.000000	99.085546 
2679.000000	99.085786 
2678.000000	99.086045 
2677.000000	99.086355 
2676.000000	99.086725 
2675.000000	99.087140 
2674.000000	99.087573 
2673.000000	99.087980 
2672.000000	99.088330 
2671.000000	99.088628 
2670.000000	99.088905 
2669.000000	99.089188 
2668.000000	99.089484 
2667.000000	99.089805 
2666.000000	99.090166 
2665.000000	99.090565 
2664.000000	99.090980 
2663.000000	99.091395 
2662.000000	99.091818 
2661.000000	99.092259 
2660.000000	99.092714 
2659.000000	99.093170 
2658.000000	99.093620 
2657.000000	99.094068 
2656.000000	99.094517 
2655.000000	99.094972 
2654.000000	99.095435 
2653.000000	99.095909 
2652.000000	99.096395 
2651.000000	99.096893 
2650.000000	99.097402 
2649.000000	99.097913 
2648.000000	99.098421 
2647.000000	99.098924 
2646.000000	99.099426 
2645.000000	99.099932 
2644.000000	99.100442 
2643.000000	99.100954 
2642.000000	99.101463 
2641.000000	99.101973 
2640.000000	99.102489 
2639.000000	99.103020 
2638.000000	99.103566 
2637.000000	99.104120 
2636.000000	99.104674 
2635.000000	99.105211 
2634.000000	99.105724 
2633.000000	99.106230 
2632.000000	99.106747 
2631.000000	99.107284 
2630.000000	99.107875 
2629.000000	99.108547 
2628.000000	99.109232 
2627.000000	99.109809 
2626.000000	99.110258 
2625.000000	99.110707 
2624.000000	99.111266 
2623.000000	99.111903 
2622.000000	99.112500 
2621.000000	99.112934 
2620.000000	99.113118 
2619.000000	99.113077 
2618.000000	99.113002 
2617.000000	99.113103 
2616.000000	99.113424 
2615.000000	99.113925 
2614.000000	99.114666 
2613.000000	99.115732 
2612.000000	99.116977 
2611.000000	99.118007 
2610.000000	99.118471 
2609.000000	99.118301 
2608.000000	99.117739 
2607.000000	99.117223 
2606.000000	99.117145 
2605.000000	99.117593 
2604.000000	99.118417 
2603.000000	99.119564 
2602.000000	99.121112 
2601.000000	99.122886 
2600.000000	99.124366 
2599.000000	99.125105 
2598.000000	99.125014 
2597.000000	99.124136 
2596.000000	99.122536 
2595.000000	99.120591 
2594.000000	99.119003 
2593.000000	99.118240 
2592.000000	99.118200 
2591.000000	99.118575 
2590.000000	99.119210 
2589.000000	99.120011 
2588.000000	99.120762 
2587.000000	99.121248 
2586.000000	99.121421 
2585.000000	99.121362 
2584.000000	99.121199 
2583.000000	99.121080 
2582.000000	99.121050 
2581.000000	99.120964 
2580.000000	99.120699 
2579.000000	99.120403 
2578.000000	99.120307 
2577.000000	99.120329 
2576.000000	99.120141 
2575.000000	99.119630 
2574.000000	99.119077 
2573.000000	99.118791 
2572.000000	99.118772 
2571.000000	99.118829 
2570.000000	99.118838 
2569.000000	99.118774 
2568.000000	99.118603 
2567.000000	99.118311 
2566.000000	99.117967 
2565.000000	99.117669 
2564.000000	99.117487 
2563.000000	99.117481 
2562.000000	99.117670 
2561.000000	99.117923 
2560.000000	99.117992 
2559.000000	99.117735 
2558.000000	99.117210 
2557.000000	99.116596 
2556.000000	99.116089 
2555.000000	99.115856 
2554.000000	99.115995 
2553.000000	99.116383 
2552.000000	99.116629 
2551.000000	99.116425 
2550.000000	99.115857 
2549.000000	99.115289 
2548.000000	99.114906 
2547.000000	99.114593 
2546.000000	99.114204 
2545.000000	99.113774 
2544.000000	99.113456 
2543.000000	99.113343 
2542.000000	99.113329 
2541.000000	99.113103 
2540.000000	99.112396 
2539.000000	99.111289 
2538.000000	99.110222 
2537.000000	99.109518 
2536.000000	99.109079 
2535.000000	99.108694 
2534.000000	99.108417 
2533.000000	99.108360 
2532.000000	99.108344 
2531.000000	99.108129 
2530.000000	99.107892 
2529.000000	99.108036 
2528.000000	99.108579 
2527.000000	99.109026 
2526.000000	99.108898 
2525.000000	99.108278 
2524.000000	99.107754 
2523.000000	99.107835 
2522.000000	99.108504 
2521.000000	99.109320 
2520.000000	99.109812 
2519.000000	99.109762 
2518.000000	99.109207 
2517.000000	99.108350 
2516.000000	99.107538 
2515.000000	99.107144 
2514.000000	99.107302 
2513.000000	99.107810 
2512.000000	99.108436 
2511.000000	99.109252 
2510.000000	99.110378 
2509.000000	99.111517 
2508.000000	99.112180 
2507.000000	99.112391 
2506.000000	99.112685 
2505.000000	99.113289 
2504.000000	99.113713 
2503.000000	99.113419 
2502.000000	99.112537 
2501.000000	99.111679 
2500.000000	99.111319 
2499.000000	99.111639 
2498.000000	99.112657 
2497.000000	99.114083 
2496.000000	99.115271 
2495.000000	99.115727 
2494.000000	99.115577 
2493.000000	99.115349 
2492.000000	99.115438 
2491.000000	99.115967 
2490.000000	99.116941 
2489.000000	99.118264 
2488.000000	99.119789 
2487.000000	99.121516 
2486.000000	99.123372 
2485.000000	99.124603 
2484.000000	99.124121 
2483.000000	99.121784 
2482.000000	99.118965 
2481.000000	99.117288 
2480.000000	99.116951 
2479.000000	99.117063 
2478.000000	99.117003 
2477.000000	99.116875 
2476.000000	99.116829 
2475.000000	99.116777 
2474.000000	99.116812 
2473.000000	99.117230 
2472.000000	99.117943 
2471.000000	99.118387 
2470.000000	99.118210 
2469.000000	99.117672 
2468.000000	99.117204 
2467.000000	99.116886 
2466.000000	99.116575 
2465.000000	99.116268 
2464.000000	99.116063 
2463.000000	99.115945 
2462.000000	99.115802 
2461.000000	99.115571 
2460.000000	99.115243 
2459.000000	99.114850 
2458.000000	99.114525 
2457.000000	99.114434 
2456.000000	99.114553 
2455.000000	99.114646 
2454.000000	99.114546 
2453.000000	99.114358 
2452.000000	99.114265 
2451.000000	99.114233 
2450.000000	99.114059 
2449.000000	99.113672 
2448.000000	99.113255 
2447.000000	99.113050 
2446.000000	99.113097 
2445.000000	99.113246 
2444.000000	99.113329 
2443.000000	99.113289 
2442.000000	99.113154 
2441.000000	99.112970 
2440.000000	99.112791 
2439.000000	99.112686 
2438.000000	99.112684 
2437.000000	99.112723 
2436.000000	99.112694 
2435.000000	99.112556 
2434.000000	99.112359 
2433.000000	99.112187 
2432.000000	99.112084 
2431.000000	99.112050 
2430.000000	99.112045 
2429.000000	99.111970 
2428.000000	99.111713 
2427.000000	99.111259 
2426.000000	99.110730 
2425.000000	99.110295 
2424.000000	99.110042 
2423.000000	99.109978 
2422.000000	99.110053 
2421.000000	99.110157 
2420.000000	99.110131 
2419.000000	99.109839 
2418.000000	99.109256 
2417.000000	99.108499 
2416.000000	99.107785 
2415.000000	99.107305 
2414.000000	99.107081 
2413.000000	99.106958 
2412.000000	99.106759 
2411.000000	99.106457 
2410.000000	99.106151 
2409.000000	99.105902 
2408.000000	99.105661 
2407.000000	99.105362 
2406.000000	99.105026 
2405.000000	99.104737 
2404.000000	99.104582 
2403.000000	99.104601 
2402.000000	99.104715 
2401.000000	99.104700 
2400.000000	99.104353 
2399.000000	99.103719 
2398.000000	99.103029 
2397.000000	99.102463 
2396.000000	99.102096 
2395.000000	99.102011 
2394.000000	99.102210 
2393.000000	99.102431 
2392.000000	99.102343 
2391.000000	99.101946 
2390.000000	99.101560 
2389.000000	99.101407 
2388.000000	99.101515 
2387.000000	99.101976 
2386.000000	99.102913 
2385.000000	99.104063 
2384.000000	99.104795 
2383.000000	99.104809 
2382.000000	99.104465 
2381.000000	99.104310 
2380.000000	99.104382 
2379.000000	99.104397 
2378.000000	99.104385 
2377.000000	99.104675 
2376.000000	99.105377 
2375.000000	99.106207 
2374.000000	99.106792 
2373.000000	99.106898 
2372.000000	99.106477 
2371.000000	99.105814 
2370.000000	99.105492 
2369.000000	99.105862 
2368.000000	99.106717 
2367.000000	99.107685 
2366.000000	99.108718 
2365.000000	99.109979 
2364.000000	99.111438 
2363.000000	99.112834 
2362.000000	99.113930 
2361.000000	99.114622 
2360.000000	99.115012 
2359.000000	99.115293 
2358.000000	99.115556 
2357.000000	99.115860 
2356.000000	99.116452 
2355.000000	99.117605 
2354.000000	99.118976 
2353.000000	99.120028 
2352.000000	99.120647 
2351.000000	99.121166 
2350.000000	99.121921 
2349.000000	99.122858 
2348.000000	99.123775 
2347.000000	99.124524 
2346.000000	99.125325 
2345.000000	99.126540 
2344.000000	99.128090 
2343.000000	99.129597 
2342.000000	99.130588 
2341.000000	99.130995 
2340.000000	99.131143 
2339.000000	99.131657 
2338.000000	99.132753 
2337.000000	99.133899 
2336.000000	99.134406 
2335.000000	99.134083 
2334.000000	99.133485 
2333.000000	99.133391 
2332.000000	99.134204 
2331.000000	99.135341 
2330.000000	99.136083 
2329.000000	99.136324 
2328.000000	99.137049 
2327.000000	99.138801 
2326.000000	99.141304 
2325.000000	99.143564 
2324.000000	99.144918 
2323.000000	99.145474 
2322.000000	99.145857 
2321.000000	99.146488 
2320.000000	99.146966 
2319.000000	99.146556 
2318.000000	99.145296 
2317.000000	99.144006 
2316.000000	99.143523 
2315.000000	99.143696 
2314.000000	99.144047 
2313.000000	99.144285 
2312.000000	99.144682 
2311.000000	99.145217 
2310.000000	99.145634 
2309.000000	99.145629 
2308.000000	99.145365 
2307.000000	99.145068 
2306.000000	99.144900 
2305.000000	99.144840 
2304.000000	99.144936 
2303.000000	99.145174 
2302.000000	99.145506 
2301.000000	99.145802 
2300.000000	99.146066 
2299.000000	99.146327 
2298.000000	99.146599 
2297.000000	99.146656 
2296.000000	99.146264 
2295.000000	99.145406 
2294.000000	99.144528 
2293.000000	99.144229 
2292.000000	99.144817 
2291.000000	99.146046 
2290.000000	99.147251 
2289.000000	99.147842 
2288.000000	99.147762 
2287.000000	99.147378 
2286.000000	99.146984 
2285.000000	99.146445 
2284.000000	99.145505 
2283.000000	99.144356 
2282.000000	99.143572 
2281.000000	99.143466 
2280.000000	99.143747 
2279.000000	99.143913 
2278.000000	99.143827 
2277.000000	99.143758 
2276.000000	99.143916 
2275.000000	99.144166 
2274.000000	99.144278 
2273.000000	99.144268 
2272.000000	99.144326 
2271.000000	99.144567 
2270.000000	99.144976 
2269.000000	99.145485 
2268.000000	99.145996 
2267.000000	99.146377 
2266.000000	99.146514 
2265.000000	99.146360 
2264.000000	99.145920 
2263.000000	99.145277 
2262.000000	99.144675 
2261.000000	99.144437 
2260.000000	99.144712 
2259.000000	99.145329 
2258.000000	99.145924 
2257.000000	99.146297 
2256.000000	99.146492 
2255.000000	99.146628 
2254.000000	99.146766 
2253.000000	99.146944 
2252.000000	99.147219 
2251.000000	99.147611 
2250.000000	99.148020 
2249.000000	99.148288 
2248.000000	99.148355 
2247.000000	99.148324 
2246.000000	99.148322 
2245.000000	99.148394 
2244.000000	99.148534 
2243.000000	99.148724 
2242.000000	99.148947 
2241.000000	99.149180 
2240.000000	99.149411 
2239.000000	99.149629 
2238.000000	99.149820 
2237.000000	99.149972 
2236.000000	99.150080 
2235.000000	99.150149 
2234.000000	99.150198 
2233.000000	99.150246 
2232.000000	99.150307 
2231.000000	99.150385 
2230.000000	99.150478 
2229.000000	99.150586 
2228.000000	99.150711 
2227.000000	99.150846 
2226.000000	99.150985 
2225.000000	99.151120 
2224.000000	99.151253 
2223.000000	99.151386 
2222.000000	99.151517 
2221.000000	99.151639 
2220.000000	99.151743 
2219.000000	99.151828 
2218.000000	99.151908 
2217.000000	99.152001 
2216.000000	99.152116 
2215.000000	99.152249 
2214.000000	99.152389 
2213.000000	99.152534 
2212.000000	99.152694 
2211.000000	99.152885 
2210.000000	99.153128 
2209.000000	99.153431 
2208.000000	99.153796 
2207.000000	99.154210 
2206.000000	99.154660 
2205.000000	99.155139 
2204.000000	99.155656 
2203.000000	99.156117 
2202.000000	99.156536 
2201.000000	99.157308 
2200.000000	99.158450 
2199.000000	99.159316 
2198.000000	99.159414 
2197.000000	99.159058 
2196.000000	99.159000 
2195.000000	99.159667 
2194.000000	99.160972 
2193.000000	99.162553 
2192.000000	99.163928 
2191.000000	99.164748 
2190.000000	99.165393 
2189.000000	99.167049 
2188.000000	99.170291 
2187.000000	99.173388 
2186.000000	99.173107 
2185.000000	99.168154 
2184.000000	99.161440 
2183.000000	99.157656 
2182.000000	99.158227 
2181.000000	99.160156 
2180.000000	99.160217 
2179.000000	99.158995 
2178.000000	99.159350 
2177.000000	99.162360 
2176.000000	99.166554 
2175.000000	99.170331 
2174.000000	99.173197 
2173.000000	99.175083 
2172.000000	99.176632 
2171.000000	99.179937 
2170.000000	99.186700 
2169.000000	99.195228 
2168.000000	99.201321 
2167.000000	99.202748 
2166.000000	99.200866 
2165.000000	99.197935 
2164.000000	99.195324 
2163.000000	99.194882 
2162.000000	99.198458 
2161.000000	99.203627 
2160.000000	99.202985 
2159.000000	99.191406 
2158.000000	99.172235 
2157.000000	99.153946 
2156.000000	99.141445 
2155.000000	99.134439 
2154.000000	99.132043 
2153.000000	99.134335 
2152.000000	99.139933 
2151.000000	99.145337 
2150.000000	99.147909 
2149.000000	99.148399 
2148.000000	99.149863 
2147.000000	99.154373 
2146.000000	99.160670 
2145.000000	99.164734 
2144.000000	99.163236 
2143.000000	99.156672 
2142.000000	99.148813 
2141.000000	99.142789 
2140.000000	99.138553 
2139.000000	99.134767 
2138.000000	99.131729 
2137.000000	99.130912 
2136.000000	99.132253 
2135.000000	99.133790 
2134.000000	99.134235 
2133.000000	99.134481 
2132.000000	99.135778 
2131.000000	99.137245 
2130.000000	99.136200 
2129.000000	99.131002 
2128.000000	99.123186 
2127.000000	99.116525 
2126.000000	99.113869 
2125.000000	99.115307 
2124.000000	99.119123 
2123.000000	99.123877 
2122.000000	99.128960 
2121.000000	99.133499 
2120.000000	99.136184 
2119.000000	99.136570 
2118.000000	99.135780 
2117.000000	99.135397 
2116.000000	99.136034 
2115.000000	99.137255 
2114.000000	99.138489 
2113.000000	99.139494 
2112.000000	99.140254 
2111.000000	99.140925 
2110.000000	99.141797 
2109.000000	99.142916 
2108.000000	99.143700 
2107.000000	99.143252 
2106.000000	99.141198 
2105.000000	99.138184 
2104.000000	99.135596 
2103.000000	99.134674 
2102.000000	99.135576 
2101.000000	99.137275 
2100.000000	99.138540 
2099.000000	99.139030 
2098.000000	99.139290 
2097.000000	99.139898 
2096.000000	99.141003 
2095.000000	99.142554 
2094.000000	99.144430 
2093.000000	99.146250 
2092.000000	99.147474 
2091.000000	99.147947 
2090.000000	99.148178 
2089.000000	99.148876 
2088.000000	99.150188 
2087.000000	99.151504 
2086.000000	99.152051 
2085.000000	99.151679 
2084.000000	99.151141 
2083.000000	99.151595 
2082.000000	99.153624 
2081.000000	99.156735 
2080.000000	99.159720 
2079.000000	99.161838 
2078.000000	99.163443 
2077.000000	99.165340 
2076.000000	99.167709 
2075.000000	99.169807 
2074.000000	99.170641 
2073.000000	99.169858 
2072.000000	99.168272 
2071.000000	99.167311 
2070.000000	99.167808 
2069.000000	99.169205 
2068.000000	99.170177 
2067.000000	99.170085 
2066.000000	99.169498 
2065.000000	99.169517 
2064.000000	99.170906 
2063.000000	99.173747 
2062.000000	99.177283 
2061.000000	99.180050 
2060.000000	99.181065 
2059.000000	99.180867 
2058.000000	99.181095 
2057.000000	99.182698 
2056.000000	99.185044 
2055.000000	99.186961 
2054.000000	99.188233 
2053.000000	99.189510 
2052.000000	99.191137 
2051.000000	99.192688 
2050.000000	99.193609 
2049.000000	99.193811 
2048.000000	99.193600 
2047.000000	99.193396 
2046.000000	99.193569 
2045.000000	99.194211 
2044.000000	99.194955 
2043.000000	99.195266 
2042.000000	99.194992 
2041.000000	99.194457 
2040.000000	99.194023 
2039.000000	99.193748 
2038.000000	99.193488 
2037.000000	99.193142 
2036.000000	99.192694 
2035.000000	99.192111 
2034.000000	99.191301 
2033.000000	99.190271 
2032.000000	99.189309 
2031.000000	99.188838 
2030.000000	99.188976 
2029.000000	99.189404 
2028.000000	99.189516 
2027.000000	99.189034 
2026.000000	99.188100 
2025.000000	99.187092 
2024.000000	99.186348 
2023.000000	99.186029 
2022.000000	99.186201 
2021.000000	99.186729 
2020.000000	99.187167 
2019.000000	99.187073 
2018.000000	99.186394 
2017.000000	99.185386 
2016.000000	99.184168 
2015.000000	99.182758 
2014.000000	99.181565 
2013.000000	99.181141 
2012.000000	99.181379 
2011.000000	99.181516 
2010.000000	99.181182 
2009.000000	99.180926 
2008.000000	99.181416 
2007.000000	99.182630 
2006.000000	99.184043 
2005.000000	99.185164 
2004.000000	99.185659 
2003.000000	99.185417 
2002.000000	99.184759 
2001.000000	99.184076 
2000.000000	99.183028 
1999.000000	99.180693 
1998.000000	99.176803 
1997.000000	99.172345 
1996.000000	99.168696 
1995.000000	99.166640 
1994.000000	99.166470 
1993.000000	99.168281 
1992.000000	99.171511 
1991.000000	99.174582 
1990.000000	99.175768 
1989.000000	99.174535 
1988.000000	99.172368 
1987.000000	99.172460 
1986.000000	99.177628 
1985.000000	99.187770 
1984.000000	99.199034 
1983.000000	99.206761 
1982.000000	99.208871 
1981.000000	99.205908 
1980.000000	99.199799 
1979.000000	99.193238 
1978.000000	99.188893 
1977.000000	99.187152 
1976.000000	99.185189 
1975.000000	99.180336 
1974.000000	99.174005 
1973.000000	99.170445 
1972.000000	99.171686 
1971.000000	99.175582 
1970.000000	99.179054 
1969.000000	99.181653 
1968.000000	99.184856 
1967.000000	99.188808 
1966.000000	99.191538 
1965.000000	99.191665 
1964.000000	99.190408 
1963.000000	99.190067 
1962.000000	99.191199 
1961.000000	99.192122 
1960.000000	99.190930 
1959.000000	99.187030 
1958.000000	99.180798 
1957.000000	99.173138 
1956.000000	99.165772 
1955.000000	99.160544 
1954.000000	99.157440 
1953.000000	99.154254 
1952.000000	99.149343 
1951.000000	99.144178 
1950.000000	99.141846 
1949.000000	99.143364 
1948.000000	99.146662 
1947.000000	99.149050 
1946.000000	99.149421 
1945.000000	99.147837 
1944.000000	99.144615 
1943.000000	99.140645 
1942.000000	99.137376 
1941.000000	99.135388 
1940.000000	99.134029 
1939.000000	99.132854 
1938.000000	99.132381 
1937.000000	99.133245 
1936.000000	99.135187 
1935.000000	99.137076 
1934.000000	99.137694 
1933.000000	99.136591 
1932.000000	99.134500 
1931.000000	99.132965 
1930.000000	99.133111 
1929.000000	99.134593 
1928.000000	99.135910 
1927.000000	99.135858 
1926.000000	99.134400 
1925.000000	99.132192 
1924.000000	99.130011 
1923.000000	99.128525 
1922.000000	99.128074 
1921.000000	99.128443 
1920.000000	99.129038 
1919.000000	99.129343 
1918.000000	99.129203 
1917.000000	99.128738 
1916.000000	99.128151 
1915.000000	99.127657 
1914.000000	99.127406 
1913.000000	99.127373 
1912.000000	99.127358 
1911.000000	99.127185 
1910.000000	99.126849 
1909.000000	99.126454 
1908.000000	99.126086 
1907.000000	99.125774 
1906.000000	99.125520 
1905.000000	99.125270 
1904.000000	99.124898 
1903.000000	99.124326 
1902.000000	99.123604 
1901.000000	99.122883 
1900.000000	99.122270 
1899.000000	99.121783 
1898.000000	99.121399 
1897.000000	99.121064 
1896.000000	99.120713 
1895.000000	99.120303 
1894.000000	99.119865 
1893.000000	99.119482 
1892.000000	99.119185 
1891.000000	99.118912 
1890.000000	99.118593 
1889.000000	99.118261 
1888.000000	99.117989 
1887.000000	99.117799 
1886.000000	99.117651 
1885.000000	99.117443 
1884.000000	99.117064 
1883.000000	99.116523 
1882.000000	99.116018 
1881.000000	99.115746 
1880.000000	99.115675 
1879.000000	99.115589 
1878.000000	99.115304 
1877.000000	99.114766 
1876.000000	99.114090 
1875.000000	99.113668 
1874.000000	99.113993 
1873.000000	99.115150 
1872.000000	99.116474 
1871.000000	99.117007 
1870.000000	99.116380 
1869.000000	99.115119 
1868.000000	99.113949 
1867.000000	99.112946 
1866.000000	99.112008 
1865.000000	99.111358 
1864.000000	99.111329 
1863.000000	99.112131 
1862.000000	99.113826 
1861.000000	99.116099 
1860.000000	99.118054 
1859.000000	99.118980 
1858.000000	99.119295 
1857.000000	99.120063 
1856.000000	99.121646 
1855.000000	99.123472 
1854.000000	99.124939 
1853.000000	99.125846 
1852.000000	99.126069 
1851.000000	99.125475 
1850.000000	99.124469 
1849.000000	99.123934 
1848.000000	99.124279 
1847.000000	99.125053 
1846.000000	99.125742 
1845.000000	99.126241 
1844.000000	99.126408 
1843.000000	99.126070 
1842.000000	99.125682 
1841.000000	99.125972 
1840.000000	99.127169 
1839.000000	99.128945 
1838.000000	99.130860 
1837.000000	99.132557 
1836.000000	99.133684 
1835.000000	99.134108 
1834.000000	99.134264 
1833.000000	99.134897 
1832.000000	99.136375 
1831.000000	99.138091 
1830.000000	99.139000 
1829.000000	99.138838 
1828.000000	99.138465 
1827.000000	99.138732 
1826.000000	99.139714 
1825.000000	99.141120 
1824.000000	99.142503 
1823.000000	99.143269 
1822.000000	99.142942 
1821.000000	99.141281 
1820.000000	99.138488 
1819.000000	99.135421 
1818.000000	99.133380 
1817.000000	99.133205 
1816.000000	99.134363 
1815.000000	99.135500 
1814.000000	99.136200 
1813.000000	99.137432 
1812.000000	99.140185 
1811.000000	99.143999 
1810.000000	99.147484 
1809.000000	99.150111 
1808.000000	99.152039 
1807.000000	99.152794 
1806.000000	99.151665 
1805.000000	99.149068 
1804.000000	99.146612 
1803.000000	99.145696 
1802.000000	99.146628 
1801.000000	99.148995 
1800.000000	99.151522 
1799.000000	99.152704 
1798.000000	99.152386 
1797.000000	99.151813 
1796.000000	99.152118 
1795.000000	99.153516 
1794.000000	99.155521 
1793.000000	99.157207 
1792.000000	99.157900 
1791.000000	99.157795 
1790.000000	99.157641 
1789.000000	99.158155 
1788.000000	99.159247 
1787.000000	99.160052 
1786.000000	99.159980 
1785.000000	99.159348 
1784.000000	99.158338 
1783.000000	99.156679 
1782.000000	99.154650 
1781.000000	99.153281 
1780.000000	99.152572 
1779.000000	99.151216 
1778.000000	99.148867 
1777.000000	99.146939 
1776.000000	99.146775 
1775.000000	99.148871 
1774.000000	99.153310 
1773.000000	99.159001 
1772.000000	99.163060 
1771.000000	99.163560 
1770.000000	99.161368 
1769.000000	99.157994 
1768.000000	99.154578 
1767.000000	99.151444 
1766.000000	99.148430 
1765.000000	99.145945 
1764.000000	99.144491 
1763.000000	99.144082 
1762.000000	99.143856 
1761.000000	99.142700 
1760.000000	99.140394 
1759.000000	99.137707 
1758.000000	99.135284 
1757.000000	99.133189 
1756.000000	99.130662 
1755.000000	99.126825 
1754.000000	99.121136 
1753.000000	99.113166 
1752.000000	99.103985 
1751.000000	99.097483 
1750.000000	99.096641 
1749.000000	99.099185 
1748.000000	99.100342 
1747.000000	99.097261 
1746.000000	99.090677 
1745.000000	99.083768 
1744.000000	99.079780 
1743.000000	99.079750 
1742.000000	99.081556 
1741.000000	99.082744 
1740.000000	99.083287 
1739.000000	99.084532 
1738.000000	99.086164 
1737.000000	99.086295 
1736.000000	99.083798 
1735.000000	99.079579 
1734.000000	99.076404 
1733.000000	99.076498 
1732.000000	99.079805 
1731.000000	99.085499 
1730.000000	99.092274 
1729.000000	99.097941 
1728.000000	99.100665 
1727.000000	99.100644 
1726.000000	99.099463 
1725.000000	99.098288 
1724.000000	99.097487 
1723.000000	99.097803 
1722.000000	99.100120 
1721.000000	99.104296 
1720.000000	99.108496 
1719.000000	99.109831 
1718.000000	99.106390 
1717.000000	99.100584 
1716.000000	99.096681 
1715.000000	99.095035 
1714.000000	99.094027 
1713.000000	99.092925 
1712.000000	99.091698 
1711.000000	99.090573 
1710.000000	99.089842 
1709.000000	99.089517 
1708.000000	99.089011 
1707.000000	99.087734 
1706.000000	99.086832 
1705.000000	99.087916 
1704.000000	99.089334 
1703.000000	99.087128 
1702.000000	99.079965 
1701.000000	99.071837 
1700.000000	99.068919 
1699.000000	99.070175 
1698.000000	99.070477 
1697.000000	99.068472 
1696.000000	99.065564 
1695.000000	99.062727 
1694.000000	99.060093 
1693.000000	99.057309 
1692.000000	99.053253 
1691.000000	99.047774 
1690.000000	99.042396 
1689.000000	99.038631 
1688.000000	99.035668 
1687.000000	99.030966 
1686.000000	99.023389 
1685.000000	99.014648 
1684.000000	99.008455 
1683.000000	99.005734 
1682.000000	99.003732 
1681.000000	99.000573 
1680.000000	98.996923 
1679.000000	98.994036 
1678.000000	98.991663 
1677.000000	98.988245 
1676.000000	98.982489 
1675.000000	98.975400 
1674.000000	98.969257 
1673.000000	98.964819 
1672.000000	98.960821 
1671.000000	98.956544 
1670.000000	98.952477 
1669.000000	98.948857 
1668.000000	98.945401 
1667.000000	98.941903 
1666.000000	98.937110 
1665.000000	98.929561 
1664.000000	98.919877 
1663.000000	98.911453 
1662.000000	98.907129 
1661.000000	98.905727 
1660.000000	98.903642 
1659.000000	98.899735 
1658.000000	98.895941 
1657.000000	98.892871 
1656.000000	98.887219 
1655.000000	98.876147 
1654.000000	98.862688 
1653.000000	98.850255 
1652.000000	98.840653 
1651.000000	98.839406 
1650.000000	98.841716 
1649.000000	98.839774 
1648.000000	98.832549 
1647.000000	98.824497 
1646.000000	98.820036 
1645.000000	98.820934 
1644.000000	98.826744 
1643.000000	98.834492 
1642.000000	98.840526 
1641.000000	98.843883 
1640.000000	98.845771 
1639.000000	98.847259 
1638.000000	98.848482 
1637.000000	98.849557 
1636.000000	98.850904 
1635.000000	98.853005 
1634.000000	98.858188 
1633.000000	98.866076 
1632.000000	98.873591 
1631.000000	98.879186 
1630.000000	98.883400 
1629.000000	98.886928 
1628.000000	98.889982 
1627.000000	98.893286 
1626.000000	98.897983 
1625.000000	98.904674 
1624.000000	98.912692 
1623.000000	98.920841 
1622.000000	98.928527 
1621.000000	98.935520 
1620.000000	98.940548 
1619.000000	98.942851 
1618.000000	98.944349 
1617.000000	98.947591 
1616.000000	98.952308 
1615.000000	98.957355 
1614.000000	98.961809 
1613.000000	98.964833 
1612.000000	98.967140 
1611.000000	98.969818 
1610.000000	98.972761 
1609.000000	98.975513 
1608.000000	98.978464 
1607.000000	98.982339 
1606.000000	98.986482 
1605.000000	98.989656 
1604.000000	98.991821 
1603.000000	98.994647 
1602.000000	98.999316 
1601.000000	99.004506 
1600.000000	99.008376 
1599.000000	99.011363 
1598.000000	99.015251 
1597.000000	99.020442 
1596.000000	99.025712 
1595.000000	99.030261 
1594.000000	99.034419 
1593.000000	99.038235 
1592.000000	99.041149 
1591.000000	99.043320 
1590.000000	99.045679 
1589.000000	99.048177 
1588.000000	99.049659 
1587.000000	99.049919 
1586.000000	99.050082 
1585.000000	99.050724 
1584.000000	99.051111 
1583.000000	99.050386 
1582.000000	99.049421 
1581.000000	99.049557 
1580.000000	99.050541 
1579.000000	99.051025 
1578.000000	99.050691 
1577.000000	99.049977 
1576.000000	99.048804 
1575.000000	99.048991 
1574.000000	99.052545 
1573.000000	99.056633 
1572.000000	99.057605 
1571.000000	99.055992 
1570.000000	99.055958 
1569.000000	99.059601 
1568.000000	99.063856 
1567.000000	99.065380 
1566.000000	99.064176 
1565.000000	99.062276 
1564.000000	99.061527 
1563.000000	99.061662 
1562.000000	99.061525 
1561.000000	99.060311 
1560.000000	99.057031 
1559.000000	99.051543 
1558.000000	99.046046 
1557.000000	99.043896 
1556.000000	99.044652 
1555.000000	99.044872 
1554.000000	99.042973 
1553.000000	99.039608 
1552.000000	99.036320 
1551.000000	99.034639 
1550.000000	99.035855 
1549.000000	99.038859 
1548.000000	99.040534 
1547.000000	99.039067 
1546.000000	99.035318 
1545.000000	99.032130 
1544.000000	99.031427 
1543.000000	99.031888 
1542.000000	99.032054 
1541.000000	99.032955 
1540.000000	99.034115 
1539.000000	99.033584 
1538.000000	99.034283 
1537.000000	99.038021 
1536.000000	99.042387 
1535.000000	99.045483 
1534.000000	99.048474 
1533.000000	99.052939 
1532.000000	99.057312 
1531.000000	99.059285 
1530.000000	99.059514 
1529.000000	99.060236 
1528.000000	99.062574 
1527.000000	99.066092 
1526.000000	99.069799 
1525.000000	99.073078 
1524.000000	99.075497 
1523.000000	99.077168 
1522.000000	99.079885 
1521.000000	99.084796 
1520.000000	99.088614 
1519.000000	99.088091 
1518.000000	99.084275 
1517.000000	99.081461 
1516.000000	99.082686 
1515.000000	99.086299 
1514.000000	99.089553 
1513.000000	99.091747 
1512.000000	99.093381 
1511.000000	99.094769 
1510.000000	99.095276 
1509.000000	99.095263 
1508.000000	99.098787 
1507.000000	99.110040 
1506.000000	99.120117 
1505.000000	99.121794 
1504.000000	99.121488 
1503.000000	99.122862 
1502.000000	99.125725 
1501.000000	99.129919 
1500.000000	99.135045 
1499.000000	99.139908 
1498.000000	99.143145 
1497.000000	99.145422 
1496.000000	99.148427 
1495.000000	99.151012 
1494.000000	99.150142 
1493.000000	99.144563 
1492.000000	99.135609 
1491.000000	99.127258 
1490.000000	99.123738 
1489.000000	99.125144 
1488.000000	99.126949 
1487.000000	99.126246 
1486.000000	99.124781 
1485.000000	99.124528 
1484.000000	99.124846 
1483.000000	99.124113 
1482.000000	99.121692 
1481.000000	99.118165 
1480.000000	99.114172 
1479.000000	99.109591 
1478.000000	99.104432 
1477.000000	99.099376 
1476.000000	99.094851 
1475.000000	99.089108 
1474.000000	99.081044 
1473.000000	99.073924 
1472.000000	99.070628 
1471.000000	99.067743 
1470.000000	99.061880 
1469.000000	99.054652 
1468.000000	99.049233 
1467.000000	99.046818 
1466.000000	99.046524 
1465.000000	99.047230 
1464.000000	99.047699 
1463.000000	99.047201 
1462.000000	99.046394 
1461.000000	99.046353 
1460.000000	99.046913 
1459.000000	99.046391 
1458.000000	99.042879 
1457.000000	99.036904 
1456.000000	99.031294 
1455.000000	99.027790 
1454.000000	99.026485 
1453.000000	99.026558 
1452.000000	99.027206 
1451.000000	99.027823 
1450.000000	99.028381 
1449.000000	99.029788 
1448.000000	99.032383 
1447.000000	99.034344 
1446.000000	99.034083 
1445.000000	99.032825 
1444.000000	99.032009 
1443.000000	99.031351 
1442.000000	99.029981 
1441.000000	99.028017 
1440.000000	99.026400 
1439.000000	99.025769 
1438.000000	99.025460 
1437.000000	99.024502 
1436.000000	99.022488 
1435.000000	99.018784 
1434.000000	99.014055 
1433.000000	99.010654 
1432.000000	99.010173 
1431.000000	99.012524 
1430.000000	99.015736 
1429.000000	99.017764 
1428.000000	99.018046 
1427.000000	99.016453 
1426.000000	99.012642 
1425.000000	99.007125 
1424.000000	99.002532 
1423.000000	99.001006 
1422.000000	99.000404 
1421.000000	98.997339 
1420.000000	98.991641 
1419.000000	98.987038 
1418.000000	98.984661 
1417.000000	98.981497 
1416.000000	98.977113 
1415.000000	98.972735 
1414.000000	98.967962 
1413.000000	98.961558 
1412.000000	98.954549 
1411.000000	98.949889 
1410.000000	98.948148 
1409.000000	98.947453 
1408.000000	98.947187 
1407.000000	98.948027 
1406.000000	98.949894 
1405.000000	98.952726 
1404.000000	98.957771 
1403.000000	98.965063 
1402.000000	98.971631 
1401.000000	98.974967 
1400.000000	98.976022 
1399.000000	98.977789 
1398.000000	98.979775 
1397.000000	98.978041 
1396.000000	98.971768 
1395.000000	98.966048 
1394.000000	98.966783 
1393.000000	98.974557 
1392.000000	98.986810 
1391.000000	99.000469 
1390.000000	99.012140 
1389.000000	99.019250 
1388.000000	99.021855 
1387.000000	99.022511 
1386.000000	99.022910 
1385.000000	99.022926 
1384.000000	99.022565 
1383.000000	99.022471 
1382.000000	99.023043 
1381.000000	99.024624 
1380.000000	99.027689 
1379.000000	99.032268 
1378.000000	99.037277 
1377.000000	99.041144 
1376.000000	99.043805 
1375.000000	99.047543 
1374.000000	99.054609 
1373.000000	99.063610 
1372.000000	99.071063 
1371.000000	99.076202 
1370.000000	99.081414 
1369.000000	99.088228 
1368.000000	99.095781 
1367.000000	99.102405 
1366.000000	99.107343 
1365.000000	99.110902 
1364.000000	99.113749 
1363.000000	99.117153 
1362.000000	99.122395 
1361.000000	99.128786 
1360.000000	99.134339 
1359.000000	99.138445 
1358.000000	99.142457 
1357.000000	99.147754 
1356.000000	99.154054 
1355.000000	99.159964 
1354.000000	99.164513 
1353.000000	99.167402 
1352.000000	99.167993 
1351.000000	99.165837 
1350.000000	99.163098 
1349.000000	99.162444 
1348.000000	99.164407 
1347.000000	99.167828 
1346.000000	99.171990 
1345.000000	99.176457 
1344.000000	99.179943 
1343.000000	99.181158 
1342.000000	99.180547 
1341.000000	99.179734 
1340.000000	99.179622 
1339.000000	99.180076 
1338.000000	99.181044 
1337.000000	99.182991 
1336.000000	99.185880 
1335.000000	99.188623 
1334.000000	99.190423 
1333.000000	99.191855 
1332.000000	99.193907 
1331.000000	99.196702 
1330.000000	99.199500 
1329.000000	99.201127 
1328.000000	99.200711 
1327.000000	99.198568 
1326.000000	99.196390 
1325.000000	99.195295 
1324.000000	99.195141 
1323.000000	99.195412 
1322.000000	99.195930 
1321.000000	99.196487 
1320.000000	99.196660 
1319.000000	99.196342 
1318.000000	99.195836 
1317.000000	99.195272 
1316.000000	99.194306 
1315.000000	99.192757 
1314.000000	99.191188 
1313.000000	99.190629 
1312.000000	99.191663 
1311.000000	99.193957 
1310.000000	99.196651 
1309.000000	99.198897 
1308.000000	99.200113 
1307.000000	99.199915 
1306.000000	99.198394 
1305.000000	99.196107 
1304.000000	99.194270 
1303.000000	99.194177 
1302.000000	99.196240 
1301.000000	99.199478 
1300.000000	99.202159 
1299.000000	99.202942 
1298.000000	99.201531 
1297.000000	99.198726 
1296.000000	99.195921 
1295.000000	99.194533 
1294.000000	99.195286 
1293.000000	99.197737 
1292.000000	99.200372 
1291.000000	99.201409 
1290.000000	99.200223 
1289.000000	99.198232 
1288.000000	99.197730 
1287.000000	99.199198 
1286.000000	99.200418 
1285.000000	99.199219 
1284.000000	99.196433 
1283.000000	99.194925 
1282.000000	99.195853 
1281.000000	99.197560 
1280.000000	99.198346 
1279.000000	99.198562 
1278.000000	99.199093 
1277.000000	99.199428 
1276.000000	99.198509 
1275.000000	99.196754 
1274.000000	99.195796 
1273.000000	99.196496 
1272.000000	99.198242 
1271.000000	99.199864 
1270.000000	99.200334 
1269.000000	99.199032 
1268.000000	99.196420 
1267.000000	99.194069 
1266.000000	99.192832 
1265.000000	99.191674 
1264.000000	99.189311 
1263.000000	99.186083 
1262.000000	99.182994 
1261.000000	99.179943 
1260.000000	99.176632 
1259.000000	99.174470 
1258.000000	99.175120 
1257.000000	99.177675 
1256.000000	99.179328 
1255.000000	99.178896 
1254.000000	99.177804 
1253.000000	99.177528 
1252.000000	99.177880 
1251.000000	99.178337 
1250.000000	99.179222 
1249.000000	99.180866 
1248.000000	99.183064 
1247.000000	99.185752 
1246.000000	99.188508 
1245.000000	99.189186 
1244.000000	99.185154 
1243.000000	99.177125 
1242.000000	99.170298 
1241.000000	99.170041 
1240.000000	99.176740 
1239.000000	99.185561 
1238.000000	99.190777 
1237.000000	99.189991 
1236.000000	99.184870 
1235.000000	99.178818 
1234.000000	99.173872 
1233.000000	99.169544 
1232.000000	99.164530 
1231.000000	99.158637 
1230.000000	99.152246 
1229.000000	99.144880 
1228.000000	99.135985 
1227.000000	99.126970 
1226.000000	99.120605 
1225.000000	99.117633 
1224.000000	99.115273 
1223.000000	99.109888 
1222.000000	99.100346 
1221.000000	99.088345 
1220.000000	99.076394 
1219.000000	99.065982 
1218.000000	99.056677 
1217.000000	99.046372 
1216.000000	99.033002 
1215.000000	99.016459 
1214.000000	98.998477 
1213.000000	98.980535 
1212.000000	98.962434 
1211.000000	98.942883 
1210.000000	98.920887 
1209.000000	98.896608 
1208.000000	98.871488 
1207.000000	98.847478 
1206.000000	98.825573 
1205.000000	98.805204 
1204.000000	98.785271 
1203.000000	98.765048 
1202.000000	98.743613 
1201.000000	98.719565 
1200.000000	98.692590 
1199.000000	98.664698 
1198.000000	98.638556 
1197.000000	98.614926 
1196.000000	98.592708 
1195.000000	98.570666 
1194.000000	98.547869 
1193.000000	98.523186 
1192.000000	98.496115 
1191.000000	98.467970 
1190.000000	98.440822 
1189.000000	98.415386 
1188.000000	98.391160 
1187.000000	98.368076 
1186.000000	98.346229 
1185.000000	98.324094 
1184.000000	98.298830 
1183.000000	98.269050 
1182.000000	98.236364 
1181.000000	98.203738 
1180.000000	98.172945 
1179.000000	98.143728 
1178.000000	98.114499 
1177.000000	98.083530 
1176.000000	98.050099 
1175.000000	98.014836 
1174.000000	97.978854 
1173.000000	97.942703 
1172.000000	97.906457 
1171.000000	97.870304 
1170.000000	97.834437 
1169.000000	97.798802 
1168.000000	97.763441 
1167.000000	97.728698 
1166.000000	97.695144 
1165.000000	97.664626 
1164.000000	97.641748 
1163.000000	97.632338 
1162.000000	97.638641 
1161.000000	97.656407 
1160.000000	97.677404 
1159.000000	97.694497 
1158.000000	97.704076 
1157.000000	97.705085 
1156.000000	97.697349 
1155.000000	97.680853 
1154.000000	97.656018 
1153.000000	97.624719 
1152.000000	97.590844 
1151.000000	97.558608 
1150.000000	97.529545 
1149.000000	97.502025 
1148.000000	97.473966 
1147.000000	97.444614 
1146.000000	97.413489 
1145.000000	97.379932 
1144.000000	97.345004 
1143.000000	97.311917 
1142.000000	97.282604 
1141.000000	97.255007 
1140.000000	97.225371 
1139.000000	97.192041 
1138.000000	97.155707 
1137.000000	97.117462 
1136.000000	97.078429 
1135.000000	97.040124 
1134.000000	97.003220 
1133.000000	96.966504 
1132.000000	96.928440 
1131.000000	96.888946 
1130.000000	96.848492 
1129.000000	96.806420 
1128.000000	96.761465 
1127.000000	96.713193 
1126.000000	96.662177 
1125.000000	96.609896 
1124.000000	96.558897 
1123.000000	96.511160 
1122.000000	96.465289 
1121.000000	96.417411 
1120.000000	96.366136 
1119.000000	96.314407 
1118.000000	96.264971 
1117.000000	96.216695 
1116.000000	96.167539 
1115.000000	96.118702 
1114.000000	96.072946 
1113.000000	96.030379 
1112.000000	95.988682 
1111.000000	95.946636 
1110.000000	95.905071 
1109.000000	95.864721 
1108.000000	95.825016 
1107.000000	95.784758 
1106.000000	95.743227 
1105.000000	95.700780 
1104.000000	95.658543 
1103.000000	95.617098 
1102.000000	95.576032 
1101.000000	95.535601 
1100.000000	95.497987 
1099.000000	95.463553 
1098.000000	95.428971 
1097.000000	95.390982 
1096.000000	95.351256 
1095.000000	95.313631 
1094.000000	95.277542 
1093.000000	95.238852 
1092.000000	95.196950 
1091.000000	95.155689 
1090.000000	95.116395 
1089.000000	95.075337 
1088.000000	95.030275 
1087.000000	94.984847 
1086.000000	94.943808 
1085.000000	94.907526 
1084.000000	94.873469 
1083.000000	94.839608 
1082.000000	94.804199 
1081.000000	94.765631 
1080.000000	94.724802 
1079.000000	94.684920 
1078.000000	94.647411 
1077.000000	94.610988 
1076.000000	94.575680 
1075.000000	94.543643 
1074.000000	94.514328 
1073.000000	94.482757 
1072.000000	94.444035 
1071.000000	94.395559 
1070.000000	94.334155 
1069.000000	94.257098 
1068.000000	94.169267 
1067.000000	94.084469 
1066.000000	94.014747 
1065.000000	93.960474 
1064.000000	93.913495 
1063.000000	93.865707 
1062.000000	93.811610 
1061.000000	93.747524 
1060.000000	93.674139 
1059.000000	93.598534 
1058.000000	93.529492 
1057.000000	93.470377 
1056.000000	93.417275 
1055.000000	93.362154 
1054.000000	93.297441 
1053.000000	93.220999 
1052.000000	93.138006 
1051.000000	93.054965 
1050.000000	92.971693 
1049.000000	92.883964 
1048.000000	92.793398 
1047.000000	92.707285 
1046.000000	92.627654 
1045.000000	92.547877 
1044.000000	92.461996 
1043.000000	92.371458 
1042.000000	92.280627 
1041.000000	92.191142 
1040.000000	92.103447 
1039.000000	92.019280 
1038.000000	91.940004 
1037.000000	91.866345 
1036.000000	91.801172 
1035.000000	91.747892 
1034.000000	91.704766 
1033.000000	91.665469 
1032.000000	91.626093 
1031.000000	91.586947 
1030.000000	91.548044 
1029.000000	91.509669 
1028.000000	91.477720 
1027.000000	91.460584 
1026.000000	91.458446 
1025.000000	91.461904 
1024.000000	91.462637 
1023.000000	91.458865 
1022.000000	91.449486 
1021.000000	91.431376 
1020.000000	91.405628 
1019.000000	91.379357 
1018.000000	91.357570 
1017.000000	91.338644 
1016.000000	91.320286 
1015.000000	91.304011 
1014.000000	91.290872 
1013.000000	91.278296 
1012.000000	91.263986 
1011.000000	91.248497 
1010.000000	91.232635 
1009.000000	91.217353 
1008.000000	91.206842 
1007.000000	91.205622 
1006.000000	91.211510 
1005.000000	91.217686 
1004.000000	91.222762 
1003.000000	91.232102 
1002.000000	91.248180 
1001.000000	91.266963 
1000.000000	91.285490 
999.000000	 91.305559 
998.000000	 91.327500 
997.000000	 91.347601 
996.000000	 91.365087 
995.000000	 91.385411 
994.000000	 91.413060 
993.000000	 91.446016 
992.000000	 91.479718 
991.000000	 91.511832 
990.000000	 91.541660 
989.000000	 91.570074 
988.000000	 91.601396 
987.000000	 91.640062 
986.000000	 91.684465 
985.000000	 91.729729 
984.000000	 91.777084 
983.000000	 91.833580 
982.000000	 91.901309 
981.000000	 91.973888 
980.000000	 92.045483 
979.000000	 92.116932 
978.000000	 92.190952 
977.000000	 92.267917 
976.000000	 92.348870 
975.000000	 92.436405 
974.000000	 92.529756 
973.000000	 92.624243 
972.000000	 92.717617 
971.000000	 92.811664 
970.000000	 92.906278 
969.000000	 92.998269 
968.000000	 93.088108 
967.000000	 93.181351 
966.000000	 93.280171 
965.000000	 93.378947 
964.000000	 93.471554 
963.000000	 93.558182 
962.000000	 93.641956 
961.000000	 93.723573 
960.000000	 93.802785 
959.000000	 93.881160 
958.000000	 93.959710 
957.000000	 94.036647 
956.000000	 94.110330 
955.000000	 94.181783 
954.000000	 94.252150 
953.000000	 94.320302 
952.000000	 94.384706 
951.000000	 94.444889 
950.000000	 94.499731 
949.000000	 94.547522 
948.000000	 94.589305 
947.000000	 94.629184 
946.000000	 94.669673 
945.000000	 94.709571 
944.000000	 94.747382 
943.000000	 94.783109 
942.000000	 94.815407 
941.000000	 94.841249 
940.000000	 94.860705 
939.000000	 94.878601 
938.000000	 94.899061 
937.000000	 94.921524 
936.000000	 94.944271 
935.000000	 94.968158 
934.000000	 94.994076 
933.000000	 95.019898 
932.000000	 95.043226 
931.000000	 95.065133 
930.000000	 95.088759 
929.000000	 95.115843 
928.000000	 95.146163 
927.000000	 95.178158 
926.000000	 95.208611 
925.000000	 95.234185 
924.000000	 95.254746 
923.000000	 95.272936 
922.000000	 95.289580 
921.000000	 95.302495 
920.000000	 95.310999 
919.000000	 95.318125 
918.000000	 95.326522 
917.000000	 95.335457 
916.000000	 95.344084 
915.000000	 95.354564 
914.000000	 95.369482 
913.000000	 95.389015 
912.000000	 95.413236 
911.000000	 95.444393 
910.000000	 95.483889 
909.000000	 95.529234 
908.000000	 95.577019 
907.000000	 95.627514 
906.000000	 95.684125 
905.000000	 95.749579 
904.000000	 95.824350 
903.000000	 95.907282 
902.000000	 95.995884 
901.000000	 96.087002 
900.000000	 96.178454 
899.000000	 96.269274 
898.000000	 96.357943 
897.000000	 96.441791 
896.000000	 96.518908 
895.000000	 96.589936 
894.000000	 96.657793 
893.000000	 96.726263 
892.000000	 96.798341 
891.000000	 96.874369 
890.000000	 96.951582 
889.000000	 97.026670 
888.000000	 97.098473 
887.000000	 97.166820 
886.000000	 97.229416 
885.000000	 97.282444 
884.000000	 97.325084 
883.000000	 97.362020 
882.000000	 97.400390 
881.000000	 97.444643 
880.000000	 97.494607 
879.000000	 97.547455 
878.000000	 97.600639 
877.000000	 97.653341 
876.000000	 97.705555 
875.000000	 97.756253 
874.000000	 97.803750 
873.000000	 97.848636 
872.000000	 97.895110 
871.000000	 97.947421 
870.000000	 98.004852 
869.000000	 98.061661 
868.000000	 98.112678 
867.000000	 98.158583 
866.000000	 98.205328 
865.000000	 98.258019 
864.000000	 98.315623 
863.000000	 98.372455 
862.000000	 98.425000 
861.000000	 98.475528 
860.000000	 98.527726 
859.000000	 98.580826 
858.000000	 98.631031 
857.000000	 98.677582 
856.000000	 98.723243 
855.000000	 98.768379 
854.000000	 98.808634 
853.000000	 98.840342 
852.000000	 98.865215 
851.000000	 98.887620 
850.000000	 98.909536 
849.000000	 98.930397 
848.000000	 98.949913 
847.000000	 98.968463 
846.000000	 98.985846 
845.000000	 99.001887 
844.000000	 99.017481 
843.000000	 99.032770 
842.000000	 99.044390 
841.000000	 99.046485 
840.000000	 99.035436 
839.000000	 99.013584 
838.000000	 98.988027 
837.000000	 98.964823 
836.000000	 98.943924 
835.000000	 98.920959 
834.000000	 98.894712 
833.000000	 98.870484 
832.000000	 98.853126 
831.000000	 98.838979 
830.000000	 98.820877 
829.000000	 98.802013 
828.000000	 98.797265 
827.000000	 98.815375 
826.000000	 98.845263 
825.000000	 98.868009 
824.000000	 98.878983 
823.000000	 98.889021 
822.000000	 98.905945 
821.000000	 98.925216 
820.000000	 98.939196 
819.000000	 98.946534 
818.000000	 98.950165 
817.000000	 98.951631 
816.000000	 98.949513 
815.000000	 98.940396 
814.000000	 98.919998 
813.000000	 98.885414 
812.000000	 98.837025 
811.000000	 98.776724 
810.000000	 98.704135 
809.000000	 98.616075 
808.000000	 98.509380 
807.000000	 98.382294 
806.000000	 98.234060 
805.000000	 98.066739 
804.000000	 97.888812 
803.000000	 97.714775 
802.000000	 97.559414 
801.000000	 97.433113 
800.000000	 97.341052 
799.000000	 97.282593 
798.000000	 97.251575 
797.000000	 97.241976 
796.000000	 97.253606 
795.000000	 97.288361 
794.000000	 97.342212 
793.000000	 97.405697 
792.000000	 97.470496 
791.000000	 97.529650 
790.000000	 97.573526 
789.000000	 97.593797 
788.000000	 97.592273 
787.000000	 97.579324 
786.000000	 97.561876 
785.000000	 97.537611 
784.000000	 97.501815 
783.000000	 97.454622 
782.000000	 97.400446 
781.000000	 97.346064 
780.000000	 97.301196 
779.000000	 97.275452 
778.000000	 97.272004 
777.000000	 97.288481 
776.000000	 97.324471 
775.000000	 97.381669 
774.000000	 97.455162 
773.000000	 97.531952 
772.000000	 97.601704 
771.000000	 97.663300 
770.000000	 97.717832 
769.000000	 97.761525 
768.000000	 97.790772 
767.000000	 97.809772 
766.000000	 97.827066 
765.000000	 97.845826 
764.000000	 97.862062 
763.000000	 97.871571 
762.000000	 97.875180 
761.000000	 97.877447 
760.000000	 97.882939 
759.000000	 97.893860 
758.000000	 97.909403 
757.000000	 97.927142 
756.000000	 97.945533 
755.000000	 97.964921 
754.000000	 97.986559 
753.000000	 98.011692 
752.000000	 98.040918 
751.000000	 98.072383 
750.000000	 98.101107 
749.000000	 98.122308 
748.000000	 98.135844 
747.000000	 98.146674 
746.000000	 98.161843 
745.000000	 98.187460 
744.000000	 98.225327 
743.000000	 98.269484 
742.000000	 98.309414 
741.000000	 98.341365 
740.000000	 98.373711 
739.000000	 98.416428 
738.000000	 98.468100 
737.000000	 98.518943 
736.000000	 98.564228 
735.000000	 98.607367 
734.000000	 98.650715 
733.000000	 98.691285 
732.000000	 98.726227 
731.000000	 98.755080 
730.000000	 98.775516 
729.000000	 98.784585 
728.000000	 98.785133 
727.000000	 98.785072 
726.000000	 98.789594 
725.000000	 98.798654 
724.000000	 98.812634 
723.000000	 98.833987 
722.000000	 98.861442 
721.000000	 98.888760 
720.000000	 98.911822 
719.000000	 98.932225 
718.000000	 98.951899 
717.000000	 98.969318 
716.000000	 98.984045 
715.000000	 98.999691 
714.000000	 99.018793 
713.000000	 99.038750 
712.000000	 99.055276 
711.000000	 99.066447 
710.000000	 99.071605 
709.000000	 99.070828 
708.000000	 99.066515 
707.000000	 99.061476 
706.000000	 99.055157 
705.000000	 99.044332 
704.000000	 99.027287 
703.000000	 99.004496 
702.000000	 98.974018 
701.000000	 98.931247 
700.000000	 98.875193 
699.000000	 98.809178 
698.000000	 98.736189 
697.000000	 98.658889 
696.000000	 98.585700 
695.000000	 98.532396 
694.000000	 98.512460 
693.000000	 98.529650 
692.000000	 98.578749 
691.000000	 98.644812 
690.000000	 98.705944 
689.000000	 98.747178 
688.000000	 98.774097 
687.000000	 98.804197 
686.000000	 98.841285 
685.000000	 98.871563 
684.000000	 98.886761 
683.000000	 98.895033 
682.000000	 98.906234 
681.000000	 98.920668 
680.000000	 98.937438 
679.000000	 98.958994 
678.000000	 98.979923 
677.000000	 98.987835 
676.000000	 98.982031 
675.000000	 98.976785 
674.000000	 98.983557 
673.000000	 98.997997 
672.000000	 99.006778 
671.000000	 99.001151 
670.000000	 98.979091 
669.000000	 98.949430 
668.000000	 98.942122 
667.000000	 98.976334 
666.000000	 99.037917 
665.000000	 99.109881 
664.000000	 99.170547 
663.000000	 99.202446 
662.000000	 99.206898 
661.000000	 99.204638 
660.000000	 99.213356 
659.000000	 99.229325 
658.000000	 99.235775 
657.000000	 99.224919 
656.000000	 99.204600 
655.000000	 99.187572 
654.000000	 99.181795 
653.000000	 99.184354 
652.000000	 99.183955 
651.000000	 99.177420 
650.000000	 99.179812 

