4000.000000	99.555842 
3999.000000	99.555332 
3998.000000	99.555059 
3997.000000	99.555366 
3996.000000	99.556123 
3995.000000	99.556734 
3994.000000	99.556781 
3993.000000	99.556376 
3992.000000	99.555995 
3991.000000	99.555895 
3990.000000	99.555850 
3989.000000	99.555467 
3988.000000	99.554627 
3987.000000	99.553616 
3986.000000	99.552888 
3985.000000	99.552735 
3984.000000	99.553123 
3983.000000	99.553787 
3982.000000	99.554525 
3981.000000	99.555319 
3980.000000	99.556189 
3979.000000	99.557018 
3978.000000	99.557586 
3977.000000	99.557739 
3976.000000	99.557466 
3975.000000	99.556816 
3974.000000	99.555826 
3973.000000	99.554597 
3972.000000	99.553396 
3971.000000	99.552603 
3970.000000	99.552484 
3969.000000	99.553010 
3968.000000	99.553849 
3967.000000	99.554529 
3966.000000	99.554713 
3965.000000	99.554359 
3964.000000	99.553675 
3963.000000	99.552986 
3962.000000	99.552568 
3961.000000	99.552502 
3960.000000	99.552632 
3959.000000	99.552660 
3958.000000	99.552381 
3957.000000	99.551853 
3956.000000	99.551302 
3955.000000	99.550879 
3954.000000	99.550537 
3953.000000	99.550173 
3952.000000	99.549784 
3951.000000	99.549469 
3950.000000	99.549279 
3949.000000	99.549109 
3948.000000	99.548784 
3947.000000	99.548273 
3946.000000	99.547762 
3945.000000	99.547458 
3944.000000	99.547355 
3943.000000	99.547242 
3942.000000	99.546942 
3941.000000	99.546514 
3940.000000	99.546130 
3939.000000	99.545835 
3938.000000	99.545529 
3937.000000	99.545128 
3936.000000	99.544657 
3935.000000	99.544208 
3934.000000	99.543843 
3933.000000	99.543590 
3932.000000	99.543456 
3931.000000	99.543427 
3930.000000	99.543425 
3929.000000	99.543321 
3928.000000	99.543015 
3927.000000	99.542522 
3926.000000	99.541929 
3925.000000	99.541361 
3924.000000	99.540922 
3923.000000	99.540667 
3922.000000	99.540532 
3921.000000	99.540374 
3920.000000	99.540164 
3919.000000	99.540000 
3918.000000	99.539921 
3917.000000	99.539857 
3916.000000	99.539740 
3915.000000	99.539591 
3914.000000	99.539447 
3913.000000	99.539294 
3912.000000	99.539093 
3911.000000	99.538836 
3910.000000	99.538541 
3909.000000	99.538242 
3908.000000	99.537955 
3907.000000	99.537684 
3906.000000	99.537420 
3905.000000	99.537160 
3904.000000	99.536903 
3903.000000	99.536651 
3902.000000	99.536406 
3901.000000	99.536163 
3900.000000	99.535915 
3899.000000	99.535650 
3898.000000	99.535363 
3897.000000	99.535058 
3896.000000	99.534747 
3895.000000	99.534441 
3894.000000	99.534141 
3893.000000	99.533844 
3892.000000	99.533551 
3891.000000	99.533257 
3890.000000	99.532961 
3889.000000	99.532667 
3888.000000	99.532377 
3887.000000	99.532089 
3886.000000	99.531799 
3885.000000	99.531506 
3884.000000	99.531215 
3883.000000	99.530931 
3882.000000	99.530648 
3881.000000	99.530357 
3880.000000	99.530051 
3879.000000	99.529732 
3878.000000	99.529409 
3877.000000	99.529086 
3876.000000	99.528765 
3875.000000	99.528441 
3874.000000	99.528120 
3873.000000	99.527810 
3872.000000	99.527522 
3871.000000	99.527259 
3870.000000	99.527019 
3869.000000	99.526805 
3868.000000	99.526624 
3867.000000	99.526475 
3866.000000	99.526343 
3865.000000	99.526217 
3864.000000	99.526094 
3863.000000	99.525976 
3862.000000	99.525864 
3861.000000	99.525752 
3860.000000	99.525633 
3859.000000	99.525510 
3858.000000	99.525390 
3857.000000	99.525294 
3856.000000	99.525263 
3855.000000	99.525315 
3854.000000	99.525425 
3853.000000	99.525542 
3852.000000	99.525671 
3851.000000	99.525822 
3850.000000	99.525991 
3849.000000	99.526168 
3848.000000	99.526340 
3847.000000	99.526499 
3846.000000	99.526645 
3845.000000	99.526780 
3844.000000	99.526908 
3843.000000	99.527030 
3842.000000	99.527140 
3841.000000	99.527238 
3840.000000	99.527325 
3839.000000	99.527408 
3838.000000	99.527489 
3837.000000	99.527566 
3836.000000	99.527639 
3835.000000	99.527711 
3834.000000	99.527786 
3833.000000	99.527866 
3832.000000	99.527950 
3831.000000	99.528033 
3830.000000	99.528111 
3829.000000	99.528183 
3828.000000	99.528252 
3827.000000	99.528320 
3826.000000	99.528391 
3825.000000	99.528467 
3824.000000	99.528556 
3823.000000	99.528664 
3822.000000	99.528787 
3821.000000	99.528914 
3820.000000	99.529040 
3819.000000	99.529174 
3818.000000	99.529323 
3817.000000	99.529477 
3816.000000	99.529620 
3815.000000	99.529744 
3814.000000	99.529850 
3813.000000	99.529936 
3812.000000	99.529996 
3811.000000	99.530029 
3810.000000	99.530043 
3809.000000	99.530048 
3808.000000	99.530045 
3807.000000	99.530033 
3806.000000	99.530018 
3805.000000	99.530013 
3804.000000	99.530030 
3803.000000	99.530073 
3802.000000	99.530139 
3801.000000	99.530227 
3800.000000	99.530317 
3799.000000	99.530400 
3798.000000	99.530539 
3797.000000	99.530725 
3796.000000	99.530884 
3795.000000	99.531043 
3794.000000	99.531327 
3793.000000	99.531793 
3792.000000	99.532317 
3791.000000	99.532728 
3790.000000	99.532964 
3789.000000	99.533073 
3788.000000	99.533219 
3787.000000	99.533610 
3786.000000	99.534299 
3785.000000	99.535005 
3784.000000	99.535377 
3783.000000	99.535420 
3782.000000	99.535466 
3781.000000	99.535659 
3780.000000	99.535713 
3779.000000	99.535260 
3778.000000	99.534362 
3777.000000	99.533508 
3776.000000	99.532869 
3775.000000	99.532217 
3774.000000	99.531526 
3773.000000	99.531170 
3772.000000	99.531355 
3771.000000	99.531675 
3770.000000	99.531477 
3769.000000	99.530768 
3768.000000	99.530304 
3767.000000	99.530532 
3766.000000	99.530975 
3765.000000	99.530967 
3764.000000	99.530537 
3763.000000	99.530292 
3762.000000	99.530531 
3761.000000	99.530922 
3760.000000	99.531063 
3759.000000	99.530833 
3758.000000	99.530249 
3757.000000	99.529347 
3756.000000	99.528180 
3755.000000	99.526943 
3754.000000	99.525856 
3753.000000	99.525213 
3752.000000	99.525274 
3751.000000	99.525597 
3750.000000	99.525026 
3749.000000	99.523154 
3748.000000	99.520993 
3747.000000	99.519730 
3746.000000	99.519665 
3745.000000	99.520088 
3744.000000	99.519404 
3743.000000	99.517916 
3742.000000	99.518025 
3741.000000	99.519383 
3740.000000	99.519590 
3739.000000	99.518367 
3738.000000	99.517113 
3737.000000	99.516837 
3736.000000	99.517329 
3735.000000	99.518055 
3734.000000	99.518933 
3733.000000	99.519773 
3732.000000	99.519945 
3731.000000	99.519441 
3730.000000	99.519155 
3729.000000	99.519387 
3728.000000	99.519396 
3727.000000	99.518757 
3726.000000	99.518077 
3725.000000	99.518255 
3724.000000	99.519214 
3723.000000	99.519680 
3722.000000	99.518856 
3721.000000	99.517452 
3720.000000	99.516749 
3719.000000	99.516981 
3718.000000	99.516988 
3717.000000	99.515544 
3716.000000	99.512536 
3715.000000	99.508821 
3714.000000	99.505197 
3713.000000	99.502103 
3712.000000	99.499665 
3711.000000	99.497862 
3710.000000	99.497113 
3709.000000	99.497707 
3708.000000	99.498694 
3707.000000	99.498588 
3706.000000	99.496824 
3705.000000	99.494134 
3704.000000	99.491685 
3703.000000	99.490120 
3702.000000	99.489055 
3701.000000	99.487700 
3700.000000	99.486160 
3699.000000	99.485110 
3698.000000	99.484265 
3697.000000	99.482547 
3696.000000	99.479701 
3695.000000	99.476725 
3694.000000	99.474490 
3693.000000	99.472764 
3692.000000	99.471034 
3691.000000	99.469275 
3690.000000	99.467324 
3689.000000	99.464447 
3688.000000	99.460786 
3687.000000	99.458424 
3686.000000	99.458856 
3685.000000	99.460727 
3684.000000	99.461506 
3683.000000	99.460306 
3682.000000	99.457892 
3681.000000	99.455010 
3680.000000	99.451401 
3679.000000	99.446978 
3678.000000	99.443057 
3677.000000	99.441220 
3676.000000	99.440918 
3675.000000	99.439369 
3674.000000	99.437183 
3673.000000	99.437955 
3672.000000	99.441305 
3671.000000	99.444622 
3670.000000	99.446511 
3669.000000	99.446480 
3668.000000	99.445864 
3667.000000	99.445884 
3666.000000	99.445823 
3665.000000	99.445224 
3664.000000	99.444744 
3663.000000	99.444979 
3662.000000	99.445666 
3661.000000	99.446082 
3660.000000	99.445992 
3659.000000	99.445995 
3658.000000	99.446714 
3657.000000	99.447791 
3656.000000	99.448153 
3655.000000	99.447813 
3654.000000	99.448164 
3653.000000	99.449698 
3652.000000	99.451703 
3651.000000	99.453504 
3650.000000	99.454373 
3649.000000	99.453614 
3648.000000	99.452029 
3647.000000	99.451438 
3646.000000	99.452659 
3645.000000	99.455232 
3644.000000	99.458157 
3643.000000	99.460628 
3642.000000	99.462437 
3641.000000	99.463924 
3640.000000	99.465554 
3639.000000	99.467511 
3638.000000	99.469618 
3637.000000	99.471650 
3636.000000	99.473361 
3635.000000	99.474359 
3634.000000	99.474428 
3633.000000	99.473964 
3632.000000	99.473801 
3631.000000	99.474492 
3630.000000	99.475964 
3629.000000	99.477390 
3628.000000	99.478016 
3627.000000	99.478502 
3626.000000	99.479668 
3625.000000	99.481081 
3624.000000	99.482177 
3623.000000	99.482970 
3622.000000	99.483674 
3621.000000	99.484384 
3620.000000	99.485071 
3619.000000	99.485719 
3618.000000	99.486452 
3617.000000	99.487496 
3616.000000	99.488836 
3615.000000	99.490117 
3614.000000	99.490947 
3613.000000	99.491193 
3612.000000	99.491070 
3611.000000	99.491029 
3610.000000	99.491411 
3609.000000	99.492265 
3608.000000	99.493416 
3607.000000	99.494638 
3606.000000	99.495821 
3605.000000	99.496909 
3604.000000	99.497850 
3603.000000	99.498633 
3602.000000	99.499277 
3601.000000	99.499789 
3600.000000	99.500222 
3599.000000	99.500677 
3598.000000	99.501165 
3597.000000	99.501592 
3596.000000	99.501919 
3595.000000	99.502186 
3594.000000	99.502445 
3593.000000	99.502756 
3592.000000	99.503229 
3591.000000	99.503955 
3590.000000	99.504921 
3589.000000	99.505888 
3588.000000	99.506411 
3587.000000	99.506267 
3586.000000	99.505856 
3585.000000	99.505814 
3584.000000	99.506242 
3583.000000	99.506777 
3582.000000	99.507113 
3581.000000	99.507177 
3580.000000	99.507035 
3579.000000	99.506784 
3578.000000	99.506517 
3577.000000	99.506341 
3576.000000	99.506396 
3575.000000	99.506763 
3574.000000	99.507346 
3573.000000	99.507889 
3572.000000	99.508158 
3571.000000	99.508093 
3570.000000	99.507821 
3569.000000	99.507569 
3568.000000	99.507529 
3567.000000	99.507768 
3566.000000	99.508230 
3565.000000	99.508804 
3564.000000	99.509281 
3563.000000	99.509463 
3562.000000	99.509375 
3561.000000	99.509214 
3560.000000	99.509145 
3559.000000	99.509177 
3558.000000	99.509241 
3557.000000	99.509275 
3556.000000	99.509283 
3555.000000	99.509319 
3554.000000	99.509421 
3553.000000	99.509522 
3552.000000	99.509494 
3551.000000	99.509282 
3550.000000	99.508955 
3549.000000	99.508628 
3548.000000	99.508405 
3547.000000	99.508373 
3546.000000	99.508562 
3545.000000	99.508888 
3544.000000	99.509178 
3543.000000	99.509293 
3542.000000	99.509225 
3541.000000	99.509074 
3540.000000	99.508963 
3539.000000	99.508942 
3538.000000	99.508969 
3537.000000	99.508966 
3536.000000	99.508872 
3535.000000	99.508681 
3534.000000	99.508421 
3533.000000	99.508137 
3532.000000	99.507897 
3531.000000	99.507782 
3530.000000	99.507823 
3529.000000	99.507969 
3528.000000	99.508121 
3527.000000	99.508214 
3526.000000	99.508240 
3525.000000	99.508212 
3524.000000	99.508150 
3523.000000	99.508082 
3522.000000	99.508035 
3521.000000	99.508010 
3520.000000	99.507988 
3519.000000	99.507951 
3518.000000	99.507904 
3517.000000	99.507865 
3516.000000	99.507851 
3515.000000	99.507865 
3514.000000	99.507903 
3513.000000	99.507956 
3512.000000	99.508008 
3511.000000	99.508043 
3510.000000	99.508055 
3509.000000	99.508052 
3508.000000	99.508044 
3507.000000	99.508032 
3506.000000	99.508008 
3505.000000	99.507965 
3504.000000	99.507904 
3503.000000	99.507833 
3502.000000	99.507762 
3501.000000	99.507698 
3500.000000	99.507641 
3499.000000	99.507585 
3498.000000	99.507522 
3497.000000	99.507447 
3496.000000	99.507358 
3495.000000	99.507265 
3494.000000	99.507186 
3493.000000	99.507128 
3492.000000	99.507068 
3491.000000	99.506974 
3490.000000	99.506848 
3489.000000	99.506738 
3488.000000	99.506699 
3487.000000	99.506737 
3486.000000	99.506780 
3485.000000	99.506738 
3484.000000	99.506590 
3483.000000	99.506433 
3482.000000	99.506397 
3481.000000	99.506472 
3480.000000	99.506461 
3479.000000	99.506185 
3478.000000	99.505703 
3477.000000	99.505252 
3476.000000	99.504931 
3475.000000	99.504569 
3474.000000	99.503988 
3473.000000	99.503313 
3472.000000	99.502865 
3471.000000	99.502806 
3470.000000	99.503015 
3469.000000	99.503259 
3468.000000	99.503317 
3467.000000	99.502972 
3466.000000	99.502140 
3465.000000	99.501078 
3464.000000	99.500256 
3463.000000	99.499880 
3462.000000	99.499656 
3461.000000	99.499142 
3460.000000	99.498262 
3459.000000	99.497393 
3458.000000	99.496982 
3457.000000	99.497162 
3456.000000	99.497728 
3455.000000	99.498388 
3454.000000	99.499014 
3453.000000	99.499672 
3452.000000	99.500380 
3451.000000	99.500988 
3450.000000	99.501388 
3449.000000	99.501641 
3448.000000	99.501788 
3447.000000	99.501675 
3446.000000	99.501199 
3445.000000	99.500669 
3444.000000	99.500591 
3443.000000	99.501064 
3442.000000	99.501597 
3441.000000	99.501625 
3440.000000	99.501100 
3439.000000	99.500426 
3438.000000	99.499944 
3437.000000	99.499613 
3436.000000	99.499241 
3435.000000	99.498833 
3434.000000	99.498606 
3433.000000	99.498692 
3432.000000	99.498972 
3431.000000	99.499195 
3430.000000	99.499213 
3429.000000	99.499067 
3428.000000	99.498879 
3427.000000	99.498731 
3426.000000	99.498630 
3425.000000	99.498555 
3424.000000	99.498502 
3423.000000	99.498469 
3422.000000	99.498435 
3421.000000	99.498370 
3420.000000	99.498266 
3419.000000	99.498142 
3418.000000	99.498029 
3417.000000	99.497946 
3416.000000	99.497883 
3415.000000	99.497824 
3414.000000	99.497751 
3413.000000	99.497661 
3412.000000	99.497558 
3411.000000	99.497457 
3410.000000	99.497371 
3409.000000	99.497305 
3408.000000	99.497246 
3407.000000	99.497168 
3406.000000	99.497042 
3405.000000	99.496857 
3404.000000	99.496657 
3403.000000	99.496534 
3402.000000	99.496557 
3401.000000	99.496721 
3400.000000	99.496940 
3399.000000	99.497105 
3398.000000	99.497165 
3397.000000	99.497155 
3396.000000	99.497153 
3395.000000	99.497162 
3394.000000	99.497098 
3393.000000	99.496929 
3392.000000	99.496780 
3391.000000	99.496798 
3390.000000	99.496946 
3389.000000	99.497024 
3388.000000	99.496907 
3387.000000	99.496656 
3386.000000	99.496394 
3385.000000	99.496136 
3384.000000	99.495832 
3383.000000	99.495550 
3382.000000	99.495487 
3381.000000	99.495746 
3380.000000	99.496200 
3379.000000	99.496581 
3378.000000	99.496714 
3377.000000	99.496653 
3376.000000	99.496647 
3375.000000	99.496949 
3374.000000	99.497629 
3373.000000	99.498508 
3372.000000	99.499254 
3371.000000	99.499584 
3370.000000	99.499440 
3369.000000	99.499027 
3368.000000	99.498681 
3367.000000	99.498606 
3366.000000	99.498741 
3365.000000	99.498872 
3364.000000	99.498889 
3363.000000	99.498893 
3362.000000	99.499043 
3361.000000	99.499336 
3360.000000	99.499574 
3359.000000	99.499571 
3358.000000	99.499363 
3357.000000	99.499213 
3356.000000	99.499363 
3355.000000	99.499790 
3354.000000	99.500206 
3353.000000	99.500334 
3352.000000	99.500192 
3351.000000	99.500083 
3350.000000	99.500325 
3349.000000	99.501016 
3348.000000	99.501994 
3347.000000	99.502929 
3346.000000	99.503494 
3345.000000	99.503527 
3344.000000	99.503109 
3343.000000	99.502476 
3342.000000	99.501847 
3341.000000	99.501347 
3340.000000	99.501065 
3339.000000	99.501074 
3338.000000	99.501330 
3337.000000	99.501620 
3336.000000	99.501709 
3335.000000	99.501563 
3334.000000	99.501378 
3333.000000	99.501361 
3332.000000	99.501527 
3331.000000	99.501720 
3330.000000	99.501808 
3329.000000	99.501816 
3328.000000	99.501855 
3327.000000	99.501981 
3326.000000	99.502133 
3325.000000	99.502217 
3324.000000	99.502219 
3323.000000	99.502219 
3322.000000	99.502282 
3321.000000	99.502368 
3320.000000	99.502364 
3319.000000	99.502201 
3318.000000	99.501923 
3317.000000	99.501671 
3316.000000	99.501583 
3315.000000	99.501706 
3314.000000	99.501977 
3313.000000	99.502253 
3312.000000	99.502411 
3311.000000	99.502435 
3310.000000	99.502379 
3309.000000	99.502318 
3308.000000	99.502298 
3307.000000	99.502324 
3306.000000	99.502369 
3305.000000	99.502397 
3304.000000	99.502387 
3303.000000	99.502333 
3302.000000	99.502258 
3301.000000	99.502228 
3300.000000	99.502321 
3299.000000	99.502567 
3298.000000	99.502881 
3297.000000	99.503124 
3296.000000	99.503223 
3295.000000	99.503222 
3294.000000	99.503219 
3293.000000	99.503276 
3292.000000	99.503362 
3291.000000	99.503388 
3290.000000	99.503287 
3289.000000	99.503094 
3288.000000	99.502916 
3287.000000	99.502849 
3286.000000	99.502921 
3285.000000	99.503099 
3284.000000	99.503305 
3283.000000	99.503443 
3282.000000	99.503456 
3281.000000	99.503374 
3280.000000	99.503270 
3279.000000	99.503154 
3278.000000	99.502979 
3277.000000	99.502778 
3276.000000	99.502704 
3275.000000	99.502868 
3274.000000	99.503200 
3273.000000	99.503488 
3272.000000	99.503547 
3271.000000	99.503314 
3270.000000	99.502841 
3269.000000	99.502300 
3268.000000	99.501972 
3267.000000	99.502096 
3266.000000	99.502686 
3265.000000	99.503504 
3264.000000	99.504214 
3263.000000	99.504641 
3262.000000	99.504828 
3261.000000	99.504937 
3260.000000	99.505071 
3259.000000	99.505180 
3258.000000	99.505161 
3257.000000	99.505004 
3256.000000	99.504816 
3255.000000	99.504718 
3254.000000	99.504762 
3253.000000	99.504935 
3252.000000	99.505190 
3251.000000	99.505449 
3250.000000	99.505617 
3249.000000	99.505654 
3248.000000	99.505612 
3247.000000	99.505584 
3246.000000	99.505610 
3245.000000	99.505659 
3244.000000	99.505704 
3243.000000	99.505767 
3242.000000	99.505896 
3241.000000	99.506098 
3240.000000	99.506335 
3239.000000	99.506543 
3238.000000	99.506683 
3237.000000	99.506761 
3236.000000	99.506818 
3235.000000	99.506901 
3234.000000	99.507023 
3233.000000	99.507174 
3232.000000	99.507341 
3231.000000	99.507522 
3230.000000	99.507709 
3229.000000	99.507881 
3228.000000	99.508017 
3227.000000	99.508114 
3226.000000	99.508187 
3225.000000	99.508253 
3224.000000	99.508330 
3223.000000	99.508433 
3222.000000	99.508570 
3221.000000	99.508727 
3220.000000	99.508881 
3219.000000	99.509022 
3218.000000	99.509151 
3217.000000	99.509267 
3216.000000	99.509365 
3215.000000	99.509439 
3214.000000	99.509486 
3213.000000	99.509515 
3212.000000	99.509549 
3211.000000	99.509629 
3210.000000	99.509807 
3209.000000	99.510106 
3208.000000	99.510461 
3207.000000	99.510742 
3206.000000	99.510842 
3205.000000	99.510770 
3204.000000	99.510661 
3203.000000	99.510691 
3202.000000	99.510982 
3201.000000	99.511555 
3200.000000	99.512313 
3199.000000	99.513006 
3198.000000	99.513321 
3197.000000	99.513140 
3196.000000	99.512688 
3195.000000	99.512399 
3194.000000	99.512462 
3193.000000	99.512624 
3192.000000	99.512512 
3191.000000	99.512101 
3190.000000	99.511761 
3189.000000	99.511837 
3188.000000	99.512287 
3187.000000	99.512761 
3186.000000	99.512998 
3185.000000	99.513059 
3184.000000	99.513182 
3183.000000	99.513451 
3182.000000	99.513699 
3181.000000	99.513702 
3180.000000	99.513438 
3179.000000	99.513126 
3178.000000	99.512964 
3177.000000	99.512874 
3176.000000	99.512562 
3175.000000	99.511935 
3174.000000	99.511408 
3173.000000	99.511617 
3172.000000	99.512758 
3171.000000	99.514332 
3170.000000	99.515533 
3169.000000	99.516036 
3168.000000	99.516184 
3167.000000	99.516514 
3166.000000	99.517178 
3165.000000	99.517872 
3164.000000	99.518252 
3163.000000	99.518283 
3162.000000	99.518209 
3161.000000	99.518308 
3160.000000	99.518711 
3159.000000	99.519347 
3158.000000	99.519952 
3157.000000	99.520238 
3156.000000	99.520120 
3155.000000	99.519787 
3154.000000	99.519545 
3153.000000	99.519584 
3152.000000	99.519908 
3151.000000	99.520408 
3150.000000	99.520907 
3149.000000	99.521225 
3148.000000	99.521292 
3147.000000	99.521227 
3146.000000	99.521236 
3145.000000	99.521393 
3144.000000	99.521590 
3143.000000	99.521724 
3142.000000	99.521861 
3141.000000	99.522127 
3140.000000	99.522483 
3139.000000	99.522700 
3138.000000	99.522613 
3137.000000	99.522319 
3136.000000	99.522108 
3135.000000	99.522175 
3134.000000	99.522433 
3133.000000	99.522619 
3132.000000	99.522584 
3131.000000	99.522421 
3130.000000	99.522306 
3129.000000	99.522234 
3128.000000	99.522018 
3127.000000	99.521567 
3126.000000	99.521092 
3125.000000	99.520848 
3124.000000	99.520793 
3123.000000	99.520667 
3122.000000	99.520366 
3121.000000	99.520078 
3120.000000	99.520045 
3119.000000	99.520303 
3118.000000	99.520666 
3117.000000	99.520849 
3116.000000	99.520669 
3115.000000	99.520193 
3114.000000	99.519674 
3113.000000	99.519218 
3112.000000	99.518618 
3111.000000	99.517741 
3110.000000	99.516955 
3109.000000	99.516802 
3108.000000	99.517286 
3107.000000	99.517811 
3106.000000	99.517867 
3105.000000	99.517557 
3104.000000	99.517292 
3103.000000	99.517307 
3102.000000	99.517659 
3101.000000	99.518425 
3100.000000	99.519568 
3099.000000	99.520688 
3098.000000	99.521238 
3097.000000	99.521059 
3096.000000	99.520505 
3095.000000	99.520071 
3094.000000	99.519930 
3093.000000	99.519943 
3092.000000	99.519989 
3091.000000	99.520084 
3090.000000	99.520237 
3089.000000	99.520379 
3088.000000	99.520540 
3087.000000	99.520918 
3086.000000	99.521535 
3085.000000	99.521988 
3084.000000	99.521852 
3083.000000	99.521262 
3082.000000	99.520792 
3081.000000	99.520763 
3080.000000	99.520945 
3079.000000	99.521030 
3078.000000	99.521016 
3077.000000	99.520921 
3076.000000	99.520423 
3075.000000	99.519252 
3074.000000	99.517865 
3073.000000	99.517308 
3072.000000	99.518221 
3071.000000	99.520146 
3070.000000	99.521826 
3069.000000	99.522054 
3068.000000	99.520280 
3067.000000	99.516873 
3066.000000	99.513145 
3065.000000	99.510791 
3064.000000	99.510784 
3063.000000	99.512643 
3062.000000	99.514833 
3061.000000	99.516070 
3060.000000	99.516269 
3059.000000	99.516272 
3058.000000	99.516781 
3057.000000	99.517669 
3056.000000	99.518365 
3055.000000	99.518791 
3054.000000	99.519562 
3053.000000	99.521064 
3052.000000	99.522656 
3051.000000	99.523278 
3050.000000	99.522725 
3049.000000	99.521669 
3048.000000	99.520231 
3047.000000	99.517249 
3046.000000	99.511721 
3045.000000	99.504701 
3044.000000	99.498899 
3043.000000	99.496164 
3042.000000	99.495940 
3041.000000	99.496310 
3040.000000	99.496034 
3039.000000	99.495216 
3038.000000	99.494418 
3037.000000	99.493752 
3036.000000	99.492895 
3035.000000	99.491593 
3034.000000	99.489962 
3033.000000	99.488301 
3032.000000	99.486635 
3031.000000	99.484523 
3030.000000	99.481321 
3029.000000	99.476604 
3028.000000	99.470486 
3027.000000	99.463700 
3026.000000	99.457362 
3025.000000	99.452310 
3024.000000	99.448301 
3023.000000	99.443972 
3022.000000	99.437984 
3021.000000	99.430339 
3020.000000	99.422442 
3019.000000	99.415865 
3018.000000	99.411251 
3017.000000	99.408255 
3016.000000	99.405927 
3015.000000	99.402928 
3014.000000	99.397969 
3013.000000	99.390679 
3012.000000	99.381841 
3011.000000	99.372384 
3010.000000	99.362411 
3009.000000	99.351857 
3008.000000	99.341876 
3007.000000	99.334629 
3006.000000	99.331178 
3005.000000	99.329850 
3004.000000	99.327096 
3003.000000	99.320121 
3002.000000	99.308872 
3001.000000	99.295951 
3000.000000	99.284691 
2999.000000	99.276817 
2998.000000	99.271656 
2997.000000	99.267682 
2996.000000	99.264618 
2995.000000	99.263198 
2994.000000	99.262550 
2993.000000	99.258963 
2992.000000	99.248814 
2991.000000	99.232945 
2990.000000	99.217092 
2989.000000	99.207085 
2988.000000	99.204066 
2987.000000	99.204733 
2986.000000	99.205578 
2985.000000	99.206271 
2984.000000	99.208645 
2983.000000	99.213267 
2982.000000	99.218007 
2981.000000	99.220078 
2980.000000	99.218983 
2979.000000	99.216858 
2978.000000	99.216014 
2977.000000	99.216726 
2976.000000	99.217591 
2975.000000	99.217502 
2974.000000	99.216733 
2973.000000	99.216289 
2972.000000	99.216854 
2971.000000	99.218542 
2970.000000	99.221237 
2969.000000	99.224823 
2968.000000	99.229199 
2967.000000	99.234264 
2966.000000	99.239848 
2965.000000	99.245707 
2964.000000	99.251711 
2963.000000	99.257932 
2962.000000	99.264301 
2961.000000	99.270208 
2960.000000	99.274879 
2959.000000	99.278381 
2958.000000	99.281898 
2957.000000	99.286569 
2956.000000	99.292023 
2955.000000	99.296355 
2954.000000	99.297835 
2953.000000	99.296907 
2952.000000	99.296535 
2951.000000	99.300065 
2950.000000	99.308106 
2949.000000	99.317479 
2948.000000	99.323833 
2947.000000	99.325516 
2946.000000	99.324580 
2945.000000	99.324300 
2944.000000	99.326246 
2943.000000	99.329958 
2942.000000	99.334365 
2941.000000	99.338440 
2940.000000	99.340915 
2939.000000	99.340757 
2938.000000	99.338391 
2937.000000	99.335829 
2936.000000	99.335274 
2935.000000	99.337749 
2934.000000	99.342835 
2933.000000	99.348946 
2932.000000	99.353808 
2931.000000	99.355544 
2930.000000	99.353914 
2929.000000	99.350372 
2928.000000	99.346781 
2927.000000	99.344290 
2926.000000	99.343361 
2925.000000	99.343978 
2924.000000	99.345389 
2923.000000	99.346343 
2922.000000	99.346213 
2921.000000	99.345437 
2920.000000	99.344381 
2919.000000	99.342383 
2918.000000	99.338681 
2917.000000	99.333815 
2916.000000	99.329209 
2915.000000	99.325565 
2914.000000	99.322589 
2913.000000	99.320247 
2912.000000	99.319168 
2911.000000	99.319451 
2910.000000	99.319857 
2909.000000	99.318860 
2908.000000	99.316156 
2907.000000	99.312649 
2906.000000	99.309175 
2905.000000	99.305634 
2904.000000	99.301257 
2903.000000	99.295627 
2902.000000	99.289789 
2901.000000	99.286422 
2900.000000	99.288182 
2899.000000	99.295158 
2898.000000	99.303870 
2897.000000	99.309573 
2896.000000	99.310354 
2895.000000	99.308672 
2894.000000	99.308650 
2893.000000	99.312025 
2892.000000	99.317011 
2891.000000	99.320767 
2890.000000	99.322317 
2889.000000	99.322754 
2888.000000	99.323244 
2887.000000	99.323821 
2886.000000	99.324205 
2885.000000	99.324893 
2884.000000	99.326757 
2883.000000	99.329941 
2882.000000	99.333856 
2881.000000	99.338183 
2880.000000	99.343282 
2879.000000	99.349556 
2878.000000	99.356890 
2877.000000	99.364702 
2876.000000	99.372002 
2875.000000	99.377355 
2874.000000	99.379589 
2873.000000	99.379132 
2872.000000	99.378303 
2871.000000	99.379634 
2870.000000	99.383901 
2869.000000	99.390016 
2868.000000	99.396553 
2867.000000	99.402999 
2866.000000	99.409662 
2865.000000	99.416920 
2864.000000	99.424641 
2863.000000	99.431981 
2862.000000	99.437682 
2861.000000	99.441026 
2860.000000	99.442786 
2859.000000	99.444969 
2858.000000	99.449140 
2857.000000	99.454999 
2856.000000	99.460801 
2855.000000	99.465135 
2854.000000	99.468010 
2853.000000	99.470293 
2852.000000	99.472404 
2851.000000	99.473973 
2850.000000	99.474847 
2849.000000	99.475858 
2848.000000	99.478122 
2847.000000	99.481702 
2846.000000	99.485286 
2845.000000	99.487274 
2844.000000	99.487040 
2843.000000	99.485277 
2842.000000	99.483513 
2841.000000	99.483227 
2840.000000	99.484983 
2839.000000	99.488054 
2838.000000	99.490963 
2837.000000	99.492548 
2836.000000	99.492575 
2835.000000	99.491576 
2834.000000	99.490519 
2833.000000	99.490566 
2832.000000	99.492451 
2831.000000	99.495719 
2830.000000	99.498902 
2829.000000	99.500947 
2828.000000	99.502219 
2827.000000	99.503720 
2826.000000	99.505611 
2825.000000	99.507037 
2824.000000	99.507380 
2823.000000	99.507169 
2822.000000	99.507591 
2821.000000	99.509350 
2820.000000	99.512062 
2819.000000	99.514579 
2818.000000	99.515874 
2817.000000	99.515809 
2816.000000	99.515078 
2815.000000	99.514445 
2814.000000	99.514116 
2813.000000	99.513917 
2812.000000	99.513803 
2811.000000	99.513852 
2810.000000	99.513973 
2809.000000	99.514003 
2808.000000	99.514077 
2807.000000	99.514578 
2806.000000	99.515654 
2805.000000	99.516992 
2804.000000	99.518136 
2803.000000	99.518895 
2802.000000	99.519381 
2801.000000	99.519768 
2800.000000	99.520128 
2799.000000	99.520412 
2798.000000	99.520567 
2797.000000	99.520663 
2796.000000	99.520890 
2795.000000	99.521378 
2794.000000	99.522038 
2793.000000	99.522626 
2792.000000	99.522972 
2791.000000	99.523072 
2790.000000	99.523030 
2789.000000	99.523032 
2788.000000	99.523346 
2787.000000	99.524145 
2786.000000	99.525280 
2785.000000	99.526366 
2784.000000	99.527174 
2783.000000	99.527746 
2782.000000	99.528066 
2781.000000	99.527923 
2780.000000	99.527301 
2779.000000	99.526708 
2778.000000	99.526757 
2777.000000	99.527461 
2776.000000	99.528217 
2775.000000	99.528459 
2774.000000	99.528133 
2773.000000	99.527553 
2772.000000	99.527060 
2771.000000	99.526872 
2770.000000	99.527077 
2769.000000	99.527648 
2768.000000	99.528580 
2767.000000	99.529991 
2766.000000	99.531859 
2765.000000	99.533687 
2764.000000	99.534756 
2763.000000	99.534846 
2762.000000	99.534504 
2761.000000	99.534509 
2760.000000	99.535144 
2759.000000	99.536112 
2758.000000	99.536928 
2757.000000	99.537278 
2756.000000	99.537184 
2755.000000	99.537001 
2754.000000	99.537081 
2753.000000	99.537296 
2752.000000	99.537067 
2751.000000	99.536043 
2750.000000	99.534604 
2749.000000	99.533522 
2748.000000	99.533131 
2747.000000	99.533075 
2746.000000	99.532849 
2745.000000	99.532414 
2744.000000	99.532204 
2743.000000	99.532642 
2742.000000	99.533772 
2741.000000	99.535263 
2740.000000	99.536681 
2739.000000	99.537761 
2738.000000	99.538472 
2737.000000	99.538881 
2736.000000	99.539067 
2735.000000	99.539160 
2734.000000	99.539341 
2733.000000	99.539658 
2732.000000	99.539896 
2731.000000	99.539711 
2730.000000	99.538980 
2729.000000	99.538022 
2728.000000	99.537462 
2727.000000	99.537740 
2726.000000	99.538687 
2725.000000	99.539591 
2724.000000	99.539858 
2723.000000	99.539642 
2722.000000	99.539639 
2721.000000	99.540262 
2720.000000	99.541191 
2719.000000	99.541836 
2718.000000	99.542004 
2717.000000	99.541953 
2716.000000	99.541999 
2715.000000	99.542364 
2714.000000	99.543265 
2713.000000	99.544760 
2712.000000	99.546402 
2711.000000	99.547409 
2710.000000	99.547410 
2709.000000	99.546798 
2708.000000	99.546277 
2707.000000	99.546074 
2706.000000	99.545828 
2705.000000	99.545187 
2704.000000	99.544236 
2703.000000	99.543364 
2702.000000	99.542881 
2701.000000	99.542829 
2700.000000	99.543079 
2699.000000	99.543477 
2698.000000	99.543896 
2697.000000	99.544193 
2696.000000	99.544267 
2695.000000	99.544250 
2694.000000	99.544528 
2693.000000	99.545373 
2692.000000	99.546557 
2691.000000	99.547442 
2690.000000	99.547614 
2689.000000	99.547269 
2688.000000	99.546956 
2687.000000	99.546980 
2686.000000	99.547151 
2685.000000	99.547120 
2684.000000	99.546794 
2683.000000	99.546399 
2682.000000	99.546210 
2681.000000	99.546315 
2680.000000	99.546604 
2679.000000	99.546903 
2678.000000	99.547082 
2677.000000	99.547093 
2676.000000	99.546965 
2675.000000	99.546806 
2674.000000	99.546763 
2673.000000	99.546888 
2672.000000	99.547031 
2671.000000	99.546938 
2670.000000	99.546471 
2669.000000	99.545719 
2668.000000	99.544921 
2667.000000	99.544353 
2666.000000	99.544243 
2665.000000	99.544668 
2664.000000	99.545457 
2663.000000	99.546250 
2662.000000	99.546779 
2661.000000	99.547035 
2660.000000	99.547142 
2659.000000	99.547139 
2658.000000	99.547002 
2657.000000	99.546803 
2656.000000	99.546738 
2655.000000	99.546935 
2654.000000	99.547298 
2653.000000	99.547560 
2652.000000	99.547494 
2651.000000	99.547083 
2650.000000	99.546551 
2649.000000	99.546207 
2648.000000	99.546162 
2647.000000	99.546252 
2646.000000	99.546296 
2645.000000	99.546404 
2644.000000	99.546810 
2643.000000	99.547488 
2642.000000	99.548128 
2641.000000	99.548484 
2640.000000	99.548636 
2639.000000	99.548816 
2638.000000	99.549123 
2637.000000	99.549462 
2636.000000	99.549689 
2635.000000	99.549750 
2634.000000	99.549692 
2633.000000	99.549634 
2632.000000	99.549699 
2631.000000	99.549913 
2630.000000	99.550209 
2629.000000	99.550510 
2628.000000	99.550786 
2627.000000	99.551038 
2626.000000	99.551268 
2625.000000	99.551481 
2624.000000	99.551695 
2623.000000	99.551918 
2622.000000	99.552138 
2621.000000	99.552333 
2620.000000	99.552488 
2619.000000	99.552608 
2618.000000	99.552708 
2617.000000	99.552797 
2616.000000	99.552886 
2615.000000	99.552984 
2614.000000	99.553096 
2613.000000	99.553217 
2612.000000	99.553330 
2611.000000	99.553427 
2610.000000	99.553505 
2609.000000	99.553568 
2608.000000	99.553621 
2607.000000	99.553666 
2606.000000	99.553698 
2605.000000	99.553717 
2604.000000	99.553718 
2603.000000	99.553688 
2602.000000	99.553614 
2601.000000	99.553492 
2600.000000	99.553343 
2599.000000	99.553197 
2598.000000	99.553066 
2597.000000	99.552937 
2596.000000	99.552783 
2595.000000	99.552590 
2594.000000	99.552364 
2593.000000	99.552117 
2592.000000	99.551866 
2591.000000	99.551635 
2590.000000	99.551442 
2589.000000	99.551287 
2588.000000	99.551152 
2587.000000	99.551000 
2586.000000	99.550801 
2585.000000	99.550532 
2584.000000	99.550191 
2583.000000	99.549810 
2582.000000	99.549439 
2581.000000	99.549116 
2580.000000	99.548837 
2579.000000	99.548569 
2578.000000	99.548289 
2577.000000	99.547999 
2576.000000	99.547716 
2575.000000	99.547454 
2574.000000	99.547212 
2573.000000	99.546951 
2572.000000	99.546621 
2571.000000	99.546210 
2570.000000	99.545765 
2569.000000	99.545351 
2568.000000	99.545004 
2567.000000	99.544723 
2566.000000	99.544483 
2565.000000	99.544255 
2564.000000	99.544043 
2563.000000	99.543914 
2562.000000	99.543920 
2561.000000	99.544012 
2560.000000	99.544106 
2559.000000	99.544235 
2558.000000	99.544476 
2557.000000	99.544647 
2556.000000	99.544293 
2555.000000	99.543291 
2554.000000	99.542345 
2553.000000	99.542458 
2552.000000	99.543876 
2551.000000	99.545732 
2550.000000	99.546930 
2549.000000	99.547216 
2548.000000	99.546992 
2547.000000	99.546406 
2546.000000	99.545235 
2545.000000	99.543658 
2544.000000	99.542533 
2543.000000	99.542598 
2542.000000	99.543715 
2541.000000	99.545089 
2540.000000	99.546009 
2539.000000	99.546127 
2538.000000	99.545288 
2537.000000	99.543503 
2536.000000	99.541081 
2535.000000	99.538609 
2534.000000	99.536825 
2533.000000	99.536506 
2532.000000	99.538141 
2531.000000	99.541347 
2530.000000	99.544859 
2529.000000	99.547567 
2528.000000	99.549386 
2527.000000	99.550852 
2526.000000	99.552139 
2525.000000	99.552943 
2524.000000	99.553212 
2523.000000	99.553495 
2522.000000	99.554369 
2521.000000	99.555818 
2520.000000	99.557298 
2519.000000	99.558191 
2518.000000	99.558130 
2517.000000	99.557169 
2516.000000	99.555759 
2515.000000	99.554405 
2514.000000	99.553317 
2513.000000	99.552508 
2512.000000	99.552025 
2511.000000	99.551810 
2510.000000	99.551496 
2509.000000	99.550798 
2508.000000	99.550104 
2507.000000	99.550208 
2506.000000	99.551313 
2505.000000	99.552631 
2504.000000	99.553140 
2503.000000	99.552557 
2502.000000	99.551432 
2501.000000	99.550569 
2500.000000	99.550487 
2499.000000	99.551256 
2498.000000	99.552559 
2497.000000	99.553858 
2496.000000	99.554684 
2495.000000	99.554876 
2494.000000	99.554495 
2493.000000	99.553611 
2492.000000	99.552307 
2491.000000	99.550847 
2490.000000	99.549679 
2489.000000	99.549133 
2488.000000	99.549148 
2487.000000	99.549334 
2486.000000	99.549340 
2485.000000	99.549201 
2484.000000	99.549165 
2483.000000	99.549298 
2482.000000	99.549367 
2481.000000	99.549132 
2480.000000	99.548617 
2479.000000	99.548061 
2478.000000	99.547666 
2477.000000	99.547427 
2476.000000	99.547231 
2475.000000	99.546998 
2474.000000	99.546738 
2473.000000	99.546509 
2472.000000	99.546367 
2471.000000	99.546334 
2470.000000	99.546352 
2469.000000	99.546290 
2468.000000	99.546032 
2467.000000	99.545570 
2466.000000	99.545040 
2465.000000	99.544628 
2464.000000	99.544429 
2463.000000	99.544392 
2462.000000	99.544350 
2461.000000	99.544156 
2460.000000	99.543820 
2459.000000	99.543507 
2458.000000	99.543387 
2457.000000	99.543487 
2456.000000	99.543677 
2455.000000	99.543776 
2454.000000	99.543649 
2453.000000	99.543238 
2452.000000	99.542615 
2451.000000	99.542001 
2450.000000	99.541644 
2449.000000	99.541642 
2448.000000	99.541901 
2447.000000	99.542284 
2446.000000	99.542744 
2445.000000	99.543302 
2444.000000	99.543972 
2443.000000	99.544659 
2442.000000	99.545106 
2441.000000	99.545022 
2440.000000	99.544389 
2439.000000	99.543591 
2438.000000	99.543094 
2437.000000	99.542995 
2436.000000	99.542980 
2435.000000	99.542670 
2434.000000	99.541896 
2433.000000	99.540719 
2432.000000	99.539423 
2431.000000	99.538488 
2430.000000	99.538325 
2429.000000	99.538968 
2428.000000	99.540130 
2427.000000	99.541520 
2426.000000	99.542923 
2425.000000	99.543946 
2424.000000	99.544094 
2423.000000	99.543255 
2422.000000	99.541951 
2421.000000	99.541000 
2420.000000	99.540772 
2419.000000	99.541052 
2418.000000	99.541494 
2417.000000	99.541967 
2416.000000	99.542459 
2415.000000	99.542835 
2414.000000	99.542913 
2413.000000	99.542753 
2412.000000	99.542672 
2411.000000	99.542915 
2410.000000	99.543385 
2409.000000	99.543749 
2408.000000	99.543847 
2407.000000	99.543835 
2406.000000	99.543957 
2405.000000	99.544258 
2404.000000	99.544594 
2403.000000	99.544800 
2402.000000	99.544819 
2401.000000	99.544706 
2400.000000	99.544554 
2399.000000	99.544436 
2398.000000	99.544394 
2397.000000	99.544434 
2396.000000	99.544544 
2395.000000	99.544706 
2394.000000	99.544913 
2393.000000	99.545151 
2392.000000	99.545393 
2391.000000	99.545614 
2390.000000	99.545824 
2389.000000	99.546057 
2388.000000	99.546330 
2387.000000	99.546625 
2386.000000	99.546896 
2385.000000	99.547088 
2384.000000	99.547167 
2383.000000	99.547152 
2382.000000	99.547134 
2381.000000	99.547225 
2380.000000	99.547443 
2379.000000	99.547655 
2378.000000	99.547688 
2377.000000	99.547533 
2376.000000	99.547420 
2375.000000	99.547599 
2374.000000	99.548086 
2373.000000	99.548643 
2372.000000	99.549069 
2371.000000	99.549461 
2370.000000	99.550070 
2369.000000	99.550908 
2368.000000	99.551564 
2367.000000	99.551575 
2366.000000	99.550845 
2365.000000	99.549817 
2364.000000	99.549198 
2363.000000	99.549326 
2362.000000	99.550029 
2361.000000	99.550913 
2360.000000	99.551745 
2359.000000	99.552472 
2358.000000	99.553105 
2357.000000	99.553780 
2356.000000	99.554791 
2355.000000	99.556251 
2354.000000	99.557731 
2353.000000	99.558608 
2352.000000	99.558707 
2351.000000	99.558453 
2350.000000	99.558293 
2349.000000	99.558250 
2348.000000	99.558123 
2347.000000	99.557794 
2346.000000	99.557418 
2345.000000	99.557143 
2344.000000	99.557017 
2343.000000	99.557249 
2342.000000	99.558142 
2341.000000	99.559752 
2340.000000	99.561557 
2339.000000	99.563023 
2338.000000	99.564074 
2337.000000	99.564956 
2336.000000	99.565758 
2335.000000	99.566355 
2334.000000	99.566769 
2333.000000	99.567323 
2332.000000	99.568181 
2331.000000	99.568919 
2330.000000	99.568812 
2329.000000	99.567675 
2328.000000	99.566445 
2327.000000	99.566157 
2326.000000	99.566952 
2325.000000	99.567782 
2324.000000	99.567796 
2323.000000	99.567532 
2322.000000	99.568405 
2321.000000	99.571035 
2320.000000	99.574245 
2319.000000	99.576319 
2318.000000	99.576583 
2317.000000	99.575626 
2316.000000	99.574276 
2315.000000	99.572729 
2314.000000	99.570869 
2313.000000	99.569001 
2312.000000	99.568079 
2311.000000	99.568901 
2310.000000	99.571301 
2309.000000	99.573773 
2308.000000	99.574470 
2307.000000	99.572534 
2306.000000	99.568849 
2305.000000	99.565248 
2304.000000	99.562831 
2303.000000	99.561264 
2302.000000	99.559842 
2301.000000	99.558535 
2300.000000	99.557737 
2299.000000	99.557254 
2298.000000	99.556335 
2297.000000	99.554747 
2296.000000	99.553276 
2295.000000	99.552653 
2294.000000	99.552487 
2293.000000	99.551671 
2292.000000	99.549807 
2291.000000	99.547661 
2290.000000	99.546210 
2289.000000	99.545603 
2288.000000	99.545238 
2287.000000	99.544569 
2286.000000	99.543575 
2285.000000	99.542538 
2284.000000	99.541606 
2283.000000	99.540617 
2282.000000	99.539262 
2281.000000	99.537382 
2280.000000	99.535242 
2279.000000	99.533518 
2278.000000	99.532818 
2277.000000	99.533167 
2276.000000	99.534011 
2275.000000	99.534701 
2274.000000	99.534947 
2273.000000	99.534733 
2272.000000	99.533953 
2271.000000	99.532352 
2270.000000	99.529990 
2269.000000	99.527677 
2268.000000	99.526546 
2267.000000	99.527097 
2266.000000	99.528791 
2265.000000	99.530455 
2264.000000	99.531063 
2263.000000	99.530258 
2262.000000	99.528623 
2261.000000	99.527552 
2260.000000	99.528191 
2259.000000	99.530070 
2258.000000	99.531128 
2257.000000	99.529820 
2256.000000	99.526866 
2255.000000	99.524474 
2254.000000	99.523733 
2253.000000	99.523712 
2252.000000	99.523362 
2251.000000	99.523294 
2250.000000	99.524903 
2249.000000	99.528314 
2248.000000	99.531906 
2247.000000	99.533770 
2246.000000	99.533060 
2245.000000	99.530121 
2244.000000	99.526060 
2243.000000	99.522198 
2242.000000	99.519483 
2241.000000	99.518116 
2240.000000	99.517600 
2239.000000	99.517086 
2238.000000	99.515807 
2237.000000	99.513481 
2236.000000	99.510487 
2235.000000	99.507521 
2234.000000	99.505022 
2233.000000	99.503144 
2232.000000	99.502313 
2231.000000	99.503288 
2230.000000	99.506398 
2229.000000	99.511021 
2228.000000	99.516036 
2227.000000	99.520507 
2226.000000	99.523591 
2225.000000	99.524321 
2224.000000	99.522310 
2223.000000	99.518720 
2222.000000	99.515968 
2221.000000	99.515907 
2220.000000	99.518256 
2219.000000	99.521024 
2218.000000	99.522524 
2217.000000	99.522919 
2216.000000	99.523671 
2215.000000	99.525568 
2214.000000	99.527591 
2213.000000	99.527894 
2212.000000	99.525745 
2211.000000	99.522407 
2210.000000	99.520294 
2209.000000	99.520991 
2208.000000	99.523932 
2207.000000	99.526716 
2206.000000	99.527159 
2205.000000	99.525071 
2204.000000	99.521956 
2203.000000	99.519301 
2202.000000	99.517458 
2201.000000	99.516219 
2200.000000	99.515510 
2199.000000	99.515063 
2198.000000	99.514182 
2197.000000	99.512626 
2196.000000	99.511391 
2195.000000	99.511769 
2194.000000	99.513820 
2193.000000	99.516319 
2192.000000	99.518055 
2191.000000	99.518711 
2190.000000	99.518561 
2189.000000	99.518013 
2188.000000	99.517539 
2187.000000	99.517584 
2186.000000	99.518289 
2185.000000	99.519444 
2184.000000	99.520654 
2183.000000	99.521444 
2182.000000	99.521387 
2181.000000	99.520484 
2180.000000	99.519415 
2179.000000	99.519009 
2178.000000	99.519376 
2177.000000	99.519886 
2176.000000	99.519954 
2175.000000	99.519581 
2174.000000	99.519094 
2173.000000	99.518702 
2172.000000	99.518439 
2171.000000	99.518297 
2170.000000	99.518297 
2169.000000	99.518504 
2168.000000	99.519002 
2167.000000	99.519725 
2166.000000	99.520364 
2165.000000	99.520680 
2164.000000	99.520811 
2163.000000	99.521085 
2162.000000	99.521616 
2161.000000	99.522270 
2160.000000	99.522905 
2159.000000	99.523457 
2158.000000	99.523873 
2157.000000	99.524134 
2156.000000	99.524328 
2155.000000	99.524565 
2154.000000	99.524849 
2153.000000	99.525107 
2152.000000	99.525285 
2151.000000	99.525395 
2150.000000	99.525484 
2149.000000	99.525595 
2148.000000	99.525735 
2147.000000	99.525875 
2146.000000	99.525935 
2145.000000	99.525847 
2144.000000	99.525617 
2143.000000	99.525318 
2142.000000	99.525030 
2141.000000	99.524775 
2140.000000	99.524548 
2139.000000	99.524331 
2138.000000	99.524111 
2137.000000	99.523869 
2136.000000	99.523590 
2135.000000	99.523279 
2134.000000	99.522955 
2133.000000	99.522634 
2132.000000	99.522311 
2131.000000	99.521971 
2130.000000	99.521598 
2129.000000	99.521184 
2128.000000	99.520733 
2127.000000	99.520260 
2126.000000	99.519764 
2125.000000	99.519214 
2124.000000	99.518573 
2123.000000	99.517917 
2122.000000	99.517424 
2121.000000	99.517164 
2120.000000	99.516906 
2119.000000	99.516339 
2118.000000	99.515431 
2117.000000	99.514452 
2116.000000	99.513643 
2115.000000	99.513101 
2114.000000	99.512914 
2113.000000	99.513103 
2112.000000	99.513368 
2111.000000	99.513157 
2110.000000	99.512151 
2109.000000	99.510539 
2108.000000	99.508892 
2107.000000	99.507687 
2106.000000	99.506863 
2105.000000	99.505746 
2104.000000	99.503703 
2103.000000	99.501127 
2102.000000	99.499483 
2101.000000	99.499838 
2100.000000	99.501563 
2099.000000	99.502796 
2098.000000	99.502352 
2097.000000	99.501037 
2096.000000	99.500724 
2095.000000	99.501996 
2094.000000	99.502944 
2093.000000	99.500983 
2092.000000	99.496044 
2091.000000	99.491325 
2090.000000	99.490016 
2089.000000	99.491630 
2088.000000	99.492700 
2087.000000	99.491123 
2086.000000	99.488551 
2085.000000	99.487922 
2084.000000	99.489909 
2083.000000	99.492676 
2082.000000	99.494421 
2081.000000	99.495213 
2080.000000	99.496312 
2079.000000	99.498444 
2078.000000	99.501186 
2077.000000	99.503930 
2076.000000	99.506941 
2075.000000	99.510923 
2074.000000	99.515462 
2073.000000	99.518707 
2072.000000	99.519287 
2071.000000	99.517906 
2070.000000	99.516392 
2069.000000	99.515512 
2068.000000	99.514633 
2067.000000	99.513281 
2066.000000	99.511842 
2065.000000	99.510565 
2064.000000	99.509027 
2063.000000	99.507124 
2062.000000	99.505693 
2061.000000	99.505698 
2060.000000	99.507220 
2059.000000	99.509561 
2058.000000	99.511832 
2057.000000	99.513131 
2056.000000	99.512765 
2055.000000	99.510803 
2054.000000	99.508328 
2053.000000	99.506742 
2052.000000	99.506766 
2051.000000	99.508109 
2050.000000	99.509724 
2049.000000	99.510273 
2048.000000	99.508859 
2047.000000	99.505640 
2046.000000	99.501833 
2045.000000	99.498922 
2044.000000	99.497573 
2043.000000	99.497352 
2042.000000	99.497346 
2041.000000	99.497023 
2040.000000	99.496597 
2039.000000	99.496528 
2038.000000	99.496857 
2037.000000	99.497139 
2036.000000	99.496916 
2035.000000	99.496140 
2034.000000	99.495099 
2033.000000	99.494069 
2032.000000	99.493126 
2031.000000	99.492266 
2030.000000	99.491519 
2029.000000	99.490911 
2028.000000	99.490382 
2027.000000	99.489862 
2026.000000	99.489421 
2025.000000	99.489262 
2024.000000	99.489487 
2023.000000	99.489896 
2022.000000	99.490067 
2021.000000	99.489741 
2020.000000	99.489064 
2019.000000	99.488541 
2018.000000	99.488546 
2017.000000	99.488990 
2016.000000	99.489408 
2015.000000	99.489458 
2014.000000	99.489248 
2013.000000	99.489144 
2012.000000	99.489369 
2011.000000	99.489836 
2010.000000	99.490343 
2009.000000	99.490881 
2008.000000	99.491645 
2007.000000	99.492710 
2006.000000	99.493752 
2005.000000	99.494289 
2004.000000	99.494234 
2003.000000	99.494025 
2002.000000	99.494100 
2001.000000	99.494368 
2000.000000	99.494404 
1999.000000	99.493988 
1998.000000	99.493303 
1997.000000	99.492775 
1996.000000	99.492738 
1995.000000	99.493261 
1994.000000	99.494163 
1993.000000	99.495121 
1992.000000	99.495850 
1991.000000	99.496245 
1990.000000	99.496387 
1989.000000	99.496459 
1988.000000	99.496659 
1987.000000	99.497061 
1986.000000	99.497527 
1985.000000	99.497807 
1984.000000	99.497805 
1983.000000	99.497699 
1982.000000	99.497720 
1981.000000	99.497805 
1980.000000	99.497593 
1979.000000	99.496851 
1978.000000	99.495830 
1977.000000	99.495071 
1976.000000	99.494773 
1975.000000	99.494659 
1974.000000	99.494440 
1973.000000	99.494322 
1972.000000	99.494769 
1971.000000	99.495871 
1970.000000	99.497021 
1969.000000	99.497359 
1968.000000	99.496600 
1967.000000	99.495226 
1966.000000	99.494075 
1965.000000	99.493409 
1964.000000	99.492966 
1963.000000	99.492569 
1962.000000	99.492372 
1961.000000	99.492518 
1960.000000	99.492821 
1959.000000	99.492953 
1958.000000	99.492816 
1957.000000	99.492555 
1956.000000	99.492322 
1955.000000	99.492205 
1954.000000	99.492290 
1953.000000	99.492536 
1952.000000	99.492595 
1951.000000	99.492037 
1950.000000	99.490926 
1949.000000	99.489964 
1948.000000	99.489863 
1947.000000	99.490511 
1946.000000	99.490798 
1945.000000	99.489455 
1944.000000	99.486287 
1943.000000	99.482746 
1942.000000	99.480887 
1941.000000	99.481397 
1940.000000	99.483128 
1939.000000	99.484657 
1938.000000	99.485968 
1937.000000	99.488153 
1936.000000	99.491613 
1935.000000	99.495070 
1934.000000	99.496763 
1933.000000	99.496546 
1932.000000	99.496208 
1931.000000	99.497471 
1930.000000	99.500001 
1929.000000	99.501725 
1928.000000	99.501398 
1927.000000	99.499845 
1926.000000	99.498715 
1925.000000	99.498867 
1924.000000	99.500105 
1923.000000	99.502153 
1922.000000	99.504614 
1921.000000	99.506361 
1920.000000	99.505868 
1919.000000	99.502476 
1918.000000	99.497171 
1917.000000	99.492070 
1916.000000	99.488750 
1915.000000	99.487473 
1914.000000	99.487902 
1913.000000	99.489780 
1912.000000	99.492678 
1911.000000	99.495681 
1910.000000	99.497649 
1909.000000	99.498094 
1908.000000	99.497961 
1907.000000	99.498668 
1906.000000	99.500427 
1905.000000	99.501983 
1904.000000	99.502025 
1903.000000	99.500760 
1902.000000	99.499412 
1901.000000	99.498746 
1900.000000	99.498703 
1899.000000	99.499044 
1898.000000	99.499744 
1897.000000	99.500808 
1896.000000	99.501899 
1895.000000	99.502457 
1894.000000	99.502067 
1893.000000	99.500916 
1892.000000	99.499867 
1891.000000	99.499755 
1890.000000	99.500399 
1889.000000	99.500674 
1888.000000	99.500033 
1887.000000	99.499204 
1886.000000	99.499067 
1885.000000	99.499744 
1884.000000	99.500915 
1883.000000	99.502502 
1882.000000	99.504389 
1881.000000	99.505942 
1880.000000	99.506712 
1879.000000	99.507207 
1878.000000	99.508385 
1877.000000	99.510475 
1876.000000	99.512549 
1875.000000	99.513470 
1874.000000	99.512902 
1873.000000	99.511301 
1872.000000	99.509495 
1871.000000	99.508223 
1870.000000	99.507762 
1869.000000	99.507789 
1868.000000	99.507954 
1867.000000	99.508544 
1866.000000	99.509766 
1865.000000	99.510966 
1864.000000	99.511203 
1863.000000	99.510281 
1862.000000	99.508985 
1861.000000	99.508368 
1860.000000	99.508910 
1859.000000	99.510480 
1858.000000	99.512558 
1857.000000	99.514398 
1856.000000	99.515472 
1855.000000	99.515876 
1854.000000	99.516091 
1853.000000	99.516326 
1852.000000	99.516482 
1851.000000	99.516596 
1850.000000	99.516943 
1849.000000	99.517788 
1848.000000	99.518959 
1847.000000	99.519921 
1846.000000	99.520182 
1845.000000	99.519695 
1844.000000	99.518967 
1843.000000	99.518744 
1842.000000	99.519276 
1841.000000	99.520079 
1840.000000	99.520611 
1839.000000	99.520704 
1838.000000	99.520512 
1837.000000	99.520253 
1836.000000	99.520009 
1835.000000	99.519858 
1834.000000	99.519879 
1833.000000	99.520062 
1832.000000	99.520327 
1831.000000	99.520539 
1830.000000	99.520594 
1829.000000	99.520668 
1828.000000	99.520938 
1827.000000	99.521087 
1826.000000	99.520722 
1825.000000	99.520109 
1824.000000	99.519919 
1823.000000	99.520270 
1822.000000	99.520346 
1821.000000	99.519379 
1820.000000	99.517823 
1819.000000	99.517005 
1818.000000	99.517686 
1817.000000	99.519151 
1816.000000	99.519996 
1815.000000	99.520144 
1814.000000	99.520700 
1813.000000	99.522289 
1812.000000	99.524234 
1811.000000	99.525595 
1810.000000	99.526577 
1809.000000	99.527605 
1808.000000	99.528127 
1807.000000	99.527407 
1806.000000	99.525610 
1805.000000	99.523585 
1804.000000	99.522006 
1803.000000	99.521119 
1802.000000	99.520714 
1801.000000	99.520360 
1800.000000	99.519872 
1799.000000	99.519519 
1798.000000	99.519819 
1797.000000	99.520774 
1796.000000	99.521983 
1795.000000	99.523121 
1794.000000	99.523944 
1793.000000	99.524149 
1792.000000	99.523674 
1791.000000	99.523238 
1790.000000	99.523614 
1789.000000	99.524418 
1788.000000	99.524917 
1787.000000	99.525022 
1786.000000	99.525140 
1785.000000	99.525412 
1784.000000	99.525575 
1783.000000	99.525540 
1782.000000	99.525337 
1781.000000	99.525025 
1780.000000	99.524714 
1779.000000	99.524478 
1778.000000	99.524468 
1777.000000	99.524685 
1776.000000	99.525045 
1775.000000	99.525371 
1774.000000	99.525500 
1773.000000	99.525500 
1772.000000	99.525610 
1771.000000	99.525972 
1770.000000	99.526488 
1769.000000	99.526917 
1768.000000	99.527133 
1767.000000	99.527178 
1766.000000	99.527174 
1765.000000	99.527231 
1764.000000	99.527393 
1763.000000	99.527658 
1762.000000	99.527955 
1761.000000	99.528218 
1760.000000	99.528467 
1759.000000	99.528744 
1758.000000	99.529085 
1757.000000	99.529492 
1756.000000	99.529926 
1755.000000	99.530299 
1754.000000	99.530552 
1753.000000	99.530741 
1752.000000	99.531023 
1751.000000	99.531384 
1750.000000	99.531608 
1749.000000	99.531598 
1748.000000	99.531476 
1747.000000	99.531475 
1746.000000	99.531648 
1745.000000	99.531918 
1744.000000	99.532186 
1743.000000	99.532391 
1742.000000	99.532563 
1741.000000	99.532765 
1740.000000	99.533029 
1739.000000	99.533376 
1738.000000	99.533839 
1737.000000	99.534290 
1736.000000	99.534564 
1735.000000	99.534726 
1734.000000	99.534781 
1733.000000	99.534696 
1732.000000	99.534680 
1731.000000	99.534589 
1730.000000	99.534316 
1729.000000	99.533963 
1728.000000	99.533695 
1727.000000	99.533593 
1726.000000	99.533626 
1725.000000	99.533761 
1724.000000	99.533876 
1723.000000	99.533838 
1722.000000	99.533689 
1721.000000	99.533526 
1720.000000	99.533415 
1719.000000	99.533395 
1718.000000	99.533432 
1717.000000	99.533358 
1716.000000	99.533127 
1715.000000	99.532881 
1714.000000	99.532702 
1713.000000	99.532519 
1712.000000	99.532239 
1711.000000	99.531930 
1710.000000	99.531737 
1709.000000	99.531682 
1708.000000	99.531654 
1707.000000	99.531520 
1706.000000	99.531232 
1705.000000	99.530817 
1704.000000	99.530354 
1703.000000	99.529914 
1702.000000	99.529530 
1701.000000	99.529230 
1700.000000	99.528817 
1699.000000	99.528342 
1698.000000	99.528103 
1697.000000	99.527871 
1696.000000	99.527381 
1695.000000	99.526672 
1694.000000	99.526120 
1693.000000	99.525792 
1692.000000	99.525470 
1691.000000	99.525137 
1690.000000	99.524892 
1689.000000	99.524705 
1688.000000	99.524536 
1687.000000	99.524372 
1686.000000	99.524348 
1685.000000	99.524614 
1684.000000	99.524633 
1683.000000	99.524207 
1682.000000	99.523843 
1681.000000	99.523332 
1680.000000	99.522713 
1679.000000	99.522265 
1678.000000	99.521981 
1677.000000	99.521683 
1676.000000	99.521431 
1675.000000	99.521370 
1674.000000	99.521491 
1673.000000	99.521803 
1672.000000	99.522220 
1671.000000	99.522687 
1670.000000	99.523014 
1669.000000	99.522745 
1668.000000	99.522047 
1667.000000	99.521348 
1666.000000	99.520640 
1665.000000	99.519864 
1664.000000	99.519158 
1663.000000	99.518719 
1662.000000	99.518454 
1661.000000	99.518268 
1660.000000	99.518488 
1659.000000	99.519270 
1658.000000	99.520288 
1657.000000	99.520946 
1656.000000	99.520952 
1655.000000	99.520621 
1654.000000	99.521000 
1653.000000	99.521199 
1652.000000	99.520534 
1651.000000	99.521428 
1650.000000	99.522571 
1649.000000	99.523006 
1648.000000	99.523083 
1647.000000	99.522838 
1646.000000	99.522121 
1645.000000	99.521852 
1644.000000	99.522132 
1643.000000	99.522423 
1642.000000	99.522454 
1641.000000	99.522150 
1640.000000	99.521763 
1639.000000	99.521475 
1638.000000	99.521507 
1637.000000	99.522165 
1636.000000	99.523252 
1635.000000	99.523819 
1634.000000	99.523955 
1633.000000	99.523771 
1632.000000	99.522383 
1631.000000	99.520162 
1630.000000	99.518270 
1629.000000	99.517633 
1628.000000	99.518440 
1627.000000	99.520278 
1626.000000	99.522117 
1625.000000	99.523106 
1624.000000	99.523483 
1623.000000	99.523985 
1622.000000	99.524921 
1621.000000	99.526010 
1620.000000	99.526947 
1619.000000	99.527715 
1618.000000	99.528707 
1617.000000	99.529622 
1616.000000	99.530142 
1615.000000	99.531284 
1614.000000	99.532933 
1613.000000	99.534110 
1612.000000	99.535320 
1611.000000	99.537588 
1610.000000	99.540165 
1609.000000	99.541335 
1608.000000	99.541046 
1607.000000	99.540776 
1606.000000	99.541035 
1605.000000	99.541192 
1604.000000	99.541307 
1603.000000	99.541754 
1602.000000	99.542551 
1601.000000	99.543464 
1600.000000	99.544539 
1599.000000	99.545900 
1598.000000	99.547272 
1597.000000	99.548288 
1596.000000	99.548801 
1595.000000	99.548825 
1594.000000	99.548485 
1593.000000	99.548260 
1592.000000	99.548942 
1591.000000	99.550792 
1590.000000	99.552970 
1589.000000	99.554411 
1588.000000	99.555118 
1587.000000	99.555815 
1586.000000	99.556676 
1585.000000	99.557091 
1584.000000	99.557102 
1583.000000	99.557129 
1582.000000	99.556759 
1581.000000	99.555669 
1580.000000	99.554268 
1579.000000	99.553061 
1578.000000	99.552209 
1577.000000	99.551920 
1576.000000	99.552037 
1575.000000	99.552424 
1574.000000	99.552974 
1573.000000	99.553218 
1572.000000	99.553197 
1571.000000	99.553374 
1570.000000	99.553737 
1569.000000	99.553811 
1568.000000	99.553724 
1567.000000	99.553590 
1566.000000	99.553239 
1565.000000	99.552758 
1564.000000	99.552407 
1563.000000	99.552225 
1562.000000	99.552009 
1561.000000	99.551734 
1560.000000	99.551813 
1559.000000	99.551899 
1558.000000	99.551555 
1557.000000	99.551584 
1556.000000	99.551739 
1555.000000	99.551695 
1554.000000	99.551433 
1553.000000	99.551075 
1552.000000	99.550737 
1551.000000	99.550418 
1550.000000	99.550153 
1549.000000	99.549988 
1548.000000	99.549895 
1547.000000	99.549773 
1546.000000	99.549508 
1545.000000	99.549103 
1544.000000	99.548712 
1543.000000	99.548542 
1542.000000	99.548688 
1541.000000	99.549087 
1540.000000	99.549391 
1539.000000	99.549413 
1538.000000	99.549361 
1537.000000	99.549344 
1536.000000	99.549326 
1535.000000	99.549352 
1534.000000	99.549364 
1533.000000	99.549175 
1532.000000	99.548849 
1531.000000	99.548606 
1530.000000	99.548516 
1529.000000	99.548470 
1528.000000	99.548307 
1527.000000	99.548045 
1526.000000	99.547873 
1525.000000	99.547898 
1524.000000	99.548049 
1523.000000	99.548280 
1522.000000	99.548682 
1521.000000	99.549081 
1520.000000	99.549173 
1519.000000	99.548839 
1518.000000	99.548056 
1517.000000	99.547103 
1516.000000	99.546333 
1515.000000	99.545895 
1514.000000	99.545678 
1513.000000	99.545581 
1512.000000	99.545550 
1511.000000	99.545422 
1510.000000	99.545150 
1509.000000	99.544879 
1508.000000	99.544966 
1507.000000	99.545291 
1506.000000	99.545288 
1505.000000	99.545111 
1504.000000	99.544948 
1503.000000	99.544708 
1502.000000	99.544487 
1501.000000	99.544336 
1500.000000	99.543981 
1499.000000	99.543037 
1498.000000	99.541517 
1497.000000	99.540004 
1496.000000	99.539090 
1495.000000	99.539168 
1494.000000	99.540279 
1493.000000	99.541902 
1492.000000	99.543356 
1491.000000	99.544129 
1490.000000	99.544026 
1489.000000	99.543221 
1488.000000	99.541964 
1487.000000	99.540557 
1486.000000	99.539411 
1485.000000	99.538440 
1484.000000	99.537549 
1483.000000	99.536866 
1482.000000	99.536523 
1481.000000	99.536472 
1480.000000	99.536347 
1479.000000	99.535922 
1478.000000	99.535199 
1477.000000	99.534311 
1476.000000	99.533404 
1475.000000	99.533092 
1474.000000	99.533995 
1473.000000	99.535639 
1472.000000	99.536670 
1471.000000	99.536801 
1470.000000	99.536850 
1469.000000	99.536874 
1468.000000	99.536507 
1467.000000	99.535884 
1466.000000	99.535596 
1465.000000	99.535709 
1464.000000	99.535879 
1463.000000	99.535770 
1462.000000	99.535318 
1461.000000	99.534405 
1460.000000	99.532953 
1459.000000	99.531108 
1458.000000	99.529137 
1457.000000	99.526497 
1456.000000	99.523026 
1455.000000	99.520181 
1454.000000	99.517900 
1453.000000	99.516813 
1452.000000	99.518106 
1451.000000	99.521029 
1450.000000	99.523402 
1449.000000	99.523558 
1448.000000	99.521237 
1447.000000	99.518227 
1446.000000	99.516517 
1445.000000	99.516794 
1444.000000	99.518866 
1443.000000	99.521283 
1442.000000	99.523064 
1441.000000	99.524104 
1440.000000	99.524885 
1439.000000	99.525625 
1438.000000	99.527175 
1437.000000	99.529508 
1436.000000	99.530011 
1435.000000	99.527649 
1434.000000	99.523798 
1433.000000	99.519687 
1432.000000	99.516137 
1431.000000	99.513622 
1430.000000	99.512095 
1429.000000	99.511108 
1428.000000	99.509464 
1427.000000	99.506868 
1426.000000	99.503967 
1425.000000	99.501862 
1424.000000	99.500974 
1423.000000	99.499817 
1422.000000	99.497205 
1421.000000	99.493250 
1420.000000	99.488603 
1419.000000	99.483002 
1418.000000	99.477182 
1417.000000	99.472898 
1416.000000	99.469232 
1415.000000	99.464388 
1414.000000	99.458172 
1413.000000	99.451900 
1412.000000	99.446847 
1411.000000	99.442912 
1410.000000	99.439432 
1409.000000	99.436312 
1408.000000	99.433740 
1407.000000	99.432217 
1406.000000	99.432091 
1405.000000	99.433295 
1404.000000	99.435821 
1403.000000	99.439612 
1402.000000	99.444718 
1401.000000	99.450733 
1400.000000	99.456055 
1399.000000	99.458190 
1398.000000	99.455879 
1397.000000	99.449653 
1396.000000	99.440742 
1395.000000	99.432192 
1394.000000	99.428587 
1393.000000	99.432294 
1392.000000	99.441111 
1391.000000	99.450372 
1390.000000	99.456855 
1389.000000	99.459952 
1388.000000	99.460328 
1387.000000	99.458794 
1386.000000	99.456500 
1385.000000	99.454748 
1384.000000	99.454197 
1383.000000	99.454578 
1382.000000	99.455434 
1381.000000	99.456684 
1380.000000	99.458581 
1379.000000	99.461366 
1378.000000	99.464895 
1377.000000	99.468661 
1376.000000	99.472041 
1375.000000	99.474691 
1374.000000	99.476912 
1373.000000	99.479678 
1372.000000	99.483521 
1371.000000	99.487872 
1370.000000	99.491680 
1369.000000	99.494340 
1368.000000	99.496077 
1367.000000	99.497400 
1366.000000	99.498835 
1365.000000	99.500911 
1364.000000	99.503983 
1363.000000	99.507713 
1362.000000	99.511105 
1361.000000	99.513387 
1360.000000	99.514676 
1359.000000	99.515885 
1358.000000	99.518154 
1357.000000	99.522011 
1356.000000	99.526721 
1355.000000	99.530677 
1354.000000	99.533050 
1353.000000	99.534581 
1352.000000	99.536202 
1351.000000	99.537865 
1350.000000	99.538995 
1349.000000	99.539786 
1348.000000	99.541026 
1347.000000	99.542544 
1346.000000	99.543431 
1345.000000	99.543362 
1344.000000	99.542947 
1343.000000	99.542676 
1342.000000	99.542685 
1341.000000	99.543459 
1340.000000	99.545693 
1339.000000	99.548968 
1338.000000	99.551709 
1337.000000	99.553029 
1336.000000	99.553517 
1335.000000	99.553999 
1334.000000	99.554445 
1333.000000	99.554447 
1332.000000	99.554061 
1331.000000	99.553645 
1330.000000	99.553328 
1329.000000	99.553153 
1328.000000	99.553300 
1327.000000	99.553680 
1326.000000	99.553645 
1325.000000	99.552815 
1324.000000	99.551842 
1323.000000	99.551604 
1322.000000	99.552129 
1321.000000	99.552883 
1320.000000	99.553885 
1319.000000	99.555677 
1318.000000	99.558064 
1317.000000	99.559663 
1316.000000	99.559270 
1315.000000	99.557255 
1314.000000	99.555248 
1313.000000	99.554431 
1312.000000	99.554483 
1311.000000	99.554484 
1310.000000	99.554334 
1309.000000	99.554690 
1308.000000	99.555602 
1307.000000	99.555986 
1306.000000	99.554857 
1305.000000	99.552776 
1304.000000	99.551533 
1303.000000	99.552271 
1302.000000	99.554382 
1301.000000	99.556198 
1300.000000	99.556564 
1299.000000	99.555710 
1298.000000	99.554975 
1297.000000	99.555612 
1296.000000	99.557546 
1295.000000	99.559285 
1294.000000	99.559338 
1293.000000	99.557664 
1292.000000	99.555450 
1291.000000	99.553759 
1290.000000	99.552883 
1289.000000	99.552856 
1288.000000	99.553739 
1287.000000	99.555054 
1286.000000	99.555671 
1285.000000	99.554824 
1284.000000	99.552785 
1283.000000	99.550301 
1282.000000	99.547716 
1281.000000	99.544993 
1280.000000	99.542405 
1279.000000	99.540402 
1278.000000	99.538832 
1277.000000	99.537052 
1276.000000	99.534862 
1275.000000	99.532787 
1274.000000	99.531171 
1273.000000	99.529564 
1272.000000	99.527387 
1271.000000	99.524884 
1270.000000	99.522884 
1269.000000	99.521635 
1268.000000	99.520380 
1267.000000	99.518210 
1266.000000	99.515106 
1265.000000	99.511918 
1264.000000	99.509419 
1263.000000	99.507560 
1262.000000	99.505663 
1261.000000	99.503223 
1260.000000	99.500464 
1259.000000	99.498044 
1258.000000	99.496290 
1257.000000	99.494926 
1256.000000	99.493613 
1255.000000	99.492546 
1254.000000	99.492144 
1253.000000	99.492214 
1252.000000	99.491895 
1251.000000	99.490680 
1250.000000	99.489167 
1249.000000	99.488482 
1248.000000	99.489092 
1247.000000	99.490387 
1246.000000	99.491110 
1245.000000	99.489908 
1244.000000	99.485900 
1243.000000	99.479694 
1242.000000	99.473975 
1241.000000	99.471869 
1240.000000	99.474203 
1239.000000	99.478627 
1238.000000	99.481810 
1237.000000	99.482387 
1236.000000	99.481093 
1235.000000	99.478845 
1234.000000	99.475812 
1233.000000	99.472148 
1232.000000	99.468391 
1231.000000	99.464719 
1230.000000	99.460708 
1229.000000	99.456371 
1228.000000	99.452845 
1227.000000	99.451368 
1226.000000	99.451739 
1225.000000	99.452374 
1224.000000	99.451954 
1223.000000	99.450650 
1222.000000	99.449573 
1221.000000	99.449339 
1220.000000	99.449598 
1219.000000	99.449824 
1218.000000	99.449903 
1217.000000	99.449521 
1216.000000	99.447510 
1215.000000	99.442702 
1214.000000	99.435407 
1213.000000	99.427292 
1212.000000	99.419701 
1211.000000	99.412915 
1210.000000	99.407211 
1209.000000	99.403372 
1208.000000	99.401319 
1207.000000	99.399141 
1206.000000	99.394747 
1205.000000	99.388131 
1204.000000	99.380974 
1203.000000	99.374355 
1202.000000	99.367930 
1201.000000	99.361186 
1200.000000	99.354335 
1199.000000	99.347756 
1198.000000	99.341456 
1197.000000	99.335298 
1196.000000	99.328950 
1195.000000	99.321560 
1194.000000	99.312377 
1193.000000	99.301969 
1192.000000	99.292178 
1191.000000	99.284346 
1190.000000	99.277854 
1189.000000	99.270809 
1188.000000	99.261966 
1187.000000	99.251807 
1186.000000	99.241989 
1185.000000	99.233803 
1184.000000	99.226885 
1183.000000	99.219499 
1182.000000	99.210461 
1181.000000	99.200663 
1180.000000	99.192007 
1179.000000	99.184840 
1178.000000	99.177400 
1177.000000	99.168130 
1176.000000	99.157522 
1175.000000	99.146902 
1174.000000	99.136264 
1173.000000	99.124497 
1172.000000	99.111441 
1171.000000	99.098498 
1170.000000	99.087013 
1169.000000	99.076867 
1168.000000	99.066884 
1167.000000	99.056208 
1166.000000	99.045456 
1165.000000	99.037002 
1164.000000	99.033812 
1163.000000	99.037097 
1162.000000	99.044850 
1161.000000	99.053308 
1160.000000	99.059977 
1159.000000	99.064358 
1158.000000	99.065806 
1157.000000	99.062180 
1156.000000	99.051644 
1155.000000	99.035462 
1154.000000	99.018207 
1153.000000	99.004677 
1152.000000	98.996368 
1151.000000	98.990695 
1150.000000	98.983420 
1149.000000	98.972234 
1148.000000	98.958408 
1147.000000	98.945028 
1146.000000	98.933576 
1145.000000	98.922615 
1144.000000	98.909910 
1143.000000	98.895175 
1142.000000	98.880308 
1141.000000	98.867347 
1140.000000	98.856706 
1139.000000	98.847191 
1138.000000	98.837085 
1137.000000	98.825270 
1136.000000	98.811840 
1135.000000	98.797867 
1134.000000	98.784262 
1133.000000	98.770649 
1132.000000	98.755680 
1131.000000	98.738909 
1130.000000	98.722247 
1129.000000	98.708777 
1128.000000	98.699349 
1127.000000	98.690588 
1126.000000	98.677395 
1125.000000	98.658016 
1124.000000	98.636060 
1123.000000	98.616959 
1122.000000	98.602579 
1121.000000	98.590243 
1120.000000	98.576622 
1119.000000	98.561257 
1118.000000	98.545882 
1117.000000	98.531537 
1116.000000	98.517445 
1115.000000	98.502358 
1114.000000	98.486127 
1113.000000	98.469853 
1112.000000	98.454767 
1111.000000	98.440871 
1110.000000	98.426634 
1109.000000	98.410410 
1108.000000	98.392353 
1107.000000	98.374574 
1106.000000	98.359011 
1105.000000	98.345471 
1104.000000	98.332121 
1103.000000	98.317747 
1102.000000	98.303089 
1101.000000	98.289747 
1100.000000	98.278075 
1099.000000	98.266712 
1098.000000	98.254324 
1097.000000	98.241249 
1096.000000	98.228881 
1095.000000	98.217595 
1094.000000	98.205996 
1093.000000	98.192304 
1092.000000	98.175663 
1091.000000	98.155949 
1090.000000	98.133445 
1089.000000	98.109530 
1088.000000	98.086863 
1087.000000	98.067591 
1086.000000	98.051410 
1085.000000	98.036189 
1084.000000	98.020388 
1083.000000	98.003930 
1082.000000	97.986843 
1081.000000	97.968384 
1080.000000	97.948044 
1079.000000	97.926582 
1078.000000	97.905492 
1077.000000	97.886081 
1076.000000	97.869427 
1075.000000	97.856381 
1074.000000	97.846964 
1073.000000	97.840079 
1072.000000	97.833544 
1071.000000	97.823481 
1070.000000	97.804555 
1069.000000	97.773492 
1068.000000	97.733624 
1067.000000	97.694690 
1066.000000	97.666015 
1065.000000	97.649856 
1064.000000	97.641621 
1063.000000	97.634442 
1062.000000	97.622331 
1061.000000	97.601078 
1060.000000	97.569711 
1059.000000	97.532339 
1058.000000	97.496688 
1057.000000	97.468689 
1056.000000	97.448278 
1055.000000	97.430666 
1054.000000	97.411429 
1053.000000	97.390154 
1052.000000	97.369324 
1051.000000	97.350419 
1050.000000	97.331927 
1049.000000	97.311030 
1048.000000	97.286219 
1047.000000	97.258241 
1046.000000	97.229733 
1045.000000	97.203930 
1044.000000	97.182154 
1043.000000	97.162078 
1042.000000	97.140146 
1041.000000	97.116467 
1040.000000	97.095465 
1039.000000	97.080752 
1038.000000	97.071584 
1037.000000	97.065763 
1036.000000	97.063461 
1035.000000	97.065621 
1034.000000	97.070580 
1033.000000	97.075065 
1032.000000	97.077015 
1031.000000	97.075066 
1030.000000	97.067844 
1029.000000	97.057617 
1028.000000	97.052725 
1027.000000	97.061183 
1026.000000	97.081368 
1025.000000	97.102515 
1024.000000	97.115063 
1023.000000	97.117722 
1022.000000	97.114896 
1021.000000	97.111418 
1020.000000	97.110728 
1019.000000	97.114537 
1018.000000	97.121995 
1017.000000	97.130672 
1016.000000	97.139147 
1015.000000	97.147239 
1014.000000	97.154045 
1013.000000	97.158249 
1012.000000	97.160508 
1011.000000	97.163055 
1010.000000	97.166775 
1009.000000	97.171149 
1008.000000	97.177147 
1007.000000	97.187208 
1006.000000	97.201714 
1005.000000	97.218239 
1004.000000	97.235122 
1003.000000	97.253229 
1002.000000	97.273189 
1001.000000	97.293350 
1000.000000	97.311748 
999.000000	 97.328142 
998.000000	 97.343066 
997.000000	 97.356932 
996.000000	 97.371274 
995.000000	 97.388912 
994.000000	 97.411097 
993.000000	 97.435585 
992.000000	 97.458815 
991.000000	 97.479147 
990.000000	 97.497115 
989.000000	 97.513643 
988.000000	 97.529439 
987.000000	 97.545758 
986.000000	 97.564630 
985.000000	 97.587900 
984.000000	 97.615859 
983.000000	 97.646579 
982.000000	 97.677225 
981.000000	 97.706570 
980.000000	 97.735808 
979.000000	 97.766631 
978.000000	 97.799385 
977.000000	 97.833655 
976.000000	 97.869232 
975.000000	 97.905047 
974.000000	 97.938690 
973.000000	 97.969285 
972.000000	 98.000041 
971.000000	 98.035326 
970.000000	 98.075147 
969.000000	 98.114777 
968.000000	 98.150180 
967.000000	 98.181765 
966.000000	 98.212424 
965.000000	 98.243835 
964.000000	 98.275530 
963.000000	 98.306128 
962.000000	 98.334424 
961.000000	 98.360094 
960.000000	 98.384109 
959.000000	 98.407809 
958.000000	 98.431136 
957.000000	 98.452632 
956.000000	 98.471636 
955.000000	 98.489579 
954.000000	 98.508365 
953.000000	 98.528017 
952.000000	 98.546693 
951.000000	 98.562671 
950.000000	 98.575590 
949.000000	 98.585951 
948.000000	 98.594281 
947.000000	 98.600963 
946.000000	 98.606370 
945.000000	 98.610892 
944.000000	 98.615150 
943.000000	 98.620500 
942.000000	 98.628918 
941.000000	 98.641382 
940.000000	 98.655878 
939.000000	 98.667882 
938.000000	 98.674097 
937.000000	 98.675820 
936.000000	 98.677805 
935.000000	 98.683745 
934.000000	 98.693730 
933.000000	 98.706003 
932.000000	 98.719599 
931.000000	 98.734345 
930.000000	 98.749232 
929.000000	 98.761872 
928.000000	 98.769404 
927.000000	 98.770023 
926.000000	 98.764865 
925.000000	 98.758850 
924.000000	 98.758119 
923.000000	 98.765079 
922.000000	 98.776308 
921.000000	 98.786122 
920.000000	 98.791639 
919.000000	 98.793628 
918.000000	 98.793726 
917.000000	 98.792827 
916.000000	 98.791932 
915.000000	 98.792488 
914.000000	 98.794909 
913.000000	 98.797921 
912.000000	 98.800607 
911.000000	 98.804895 
910.000000	 98.815057 
909.000000	 98.834185 
908.000000	 98.860953 
907.000000	 98.889644 
906.000000	 98.913872 
905.000000	 98.931030 
904.000000	 98.943283 
903.000000	 98.955049 
902.000000	 98.970054 
901.000000	 98.989797 
900.000000	 99.013090 
899.000000	 99.036629 
898.000000	 99.057120 
897.000000	 99.073425 
896.000000	 99.086025 
895.000000	 99.094927 
894.000000	 99.100007 
893.000000	 99.103596 
892.000000	 99.110449 
891.000000	 99.123523 
890.000000	 99.140975 
889.000000	 99.158602 
888.000000	 99.174158 
887.000000	 99.188070 
886.000000	 99.201395 
885.000000	 99.214990 
884.000000	 99.229652 
883.000000	 99.244818 
882.000000	 99.257627 
881.000000	 99.265596 
880.000000	 99.270336 
879.000000	 99.276515 
878.000000	 99.286648 
877.000000	 99.298835 
876.000000	 99.310109 
875.000000	 99.319933 
874.000000	 99.329437 
873.000000	 99.338956 
872.000000	 99.347706 
871.000000	 99.355062 
870.000000	 99.361315 
869.000000	 99.368040 
868.000000	 99.378113 
867.000000	 99.393695 
866.000000	 99.412878 
865.000000	 99.429821 
864.000000	 99.440415 
863.000000	 99.447174 
862.000000	 99.456510 
861.000000	 99.470708 
860.000000	 99.484957 
859.000000	 99.493447 
858.000000	 99.496020 
857.000000	 99.497136 
856.000000	 99.500223 
855.000000	 99.505778 
854.000000	 99.513804 
853.000000	 99.524201 
852.000000	 99.534367 
851.000000	 99.540263 
850.000000	 99.541740 
849.000000	 99.543868 
848.000000	 99.550630 
847.000000	 99.559472 
846.000000	 99.564661 
845.000000	 99.564069 
844.000000	 99.560006 
843.000000	 99.555322 
842.000000	 99.552020 
841.000000	 99.552276 
840.000000	 99.556638 
839.000000	 99.561187 
838.000000	 99.560355 
837.000000	 99.553372 
836.000000	 99.544837 
835.000000	 99.538310 
834.000000	 99.532746 
833.000000	 99.526733 
832.000000	 99.522514 
831.000000	 99.522686 
830.000000	 99.525165 
829.000000	 99.525181 
828.000000	 99.521915 
827.000000	 99.520172 
826.000000	 99.524709 
825.000000	 99.534371 
824.000000	 99.542712 
823.000000	 99.544272 
822.000000	 99.540372 
821.000000	 99.538193 
820.000000	 99.543154 
819.000000	 99.552916 
818.000000	 99.560479 
817.000000	 99.562307 
816.000000	 99.560507 
815.000000	 99.556957 
814.000000	 99.549100 
813.000000	 99.533899 
812.000000	 99.513028 
811.000000	 99.490394 
810.000000	 99.465526 
809.000000	 99.433134 
808.000000	 99.389676 
807.000000	 99.337687 
806.000000	 99.282707 
805.000000	 99.228092 
804.000000	 99.174729 
803.000000	 99.124765 
802.000000	 99.083151 
801.000000	 99.054603 
800.000000	 99.039675 
799.000000	 99.034711 
798.000000	 99.036164 
797.000000	 99.044089 
796.000000	 99.059777 
795.000000	 99.080696 
794.000000	 99.100593 
793.000000	 99.115352 
792.000000	 99.126243 
791.000000	 99.136356 
790.000000	 99.146538 
789.000000	 99.155791 
788.000000	 99.162170 
787.000000	 99.161273 
786.000000	 99.147508 
785.000000	 99.120460 
784.000000	 99.088147 
783.000000	 99.060746 
782.000000	 99.042107 
781.000000	 99.029694 
780.000000	 99.020563 
779.000000	 99.013886 
778.000000	 99.009420 
777.000000	 99.008028 
776.000000	 99.013298 
775.000000	 99.028501 
774.000000	 99.051323 
773.000000	 99.074870 
772.000000	 99.094817 
771.000000	 99.112955 
770.000000	 99.133050 
769.000000	 99.155417 
768.000000	 99.176275 
767.000000	 99.191165 
766.000000	 99.198950 
765.000000	 99.203398 
764.000000	 99.210180 
763.000000	 99.220955 
762.000000	 99.231212 
761.000000	 99.235596 
760.000000	 99.234675 
759.000000	 99.234768 
758.000000	 99.241456 
757.000000	 99.254397 
756.000000	 99.267741 
755.000000	 99.274483 
754.000000	 99.271937 
753.000000	 99.265035 
752.000000	 99.263617 
751.000000	 99.274366 
750.000000	 99.295225 
749.000000	 99.317689 
748.000000	 99.334054 
747.000000	 99.342055 
746.000000	 99.344288 
745.000000	 99.345657 
744.000000	 99.350408 
743.000000	 99.359406 
742.000000	 99.370256 
741.000000	 99.381055 
740.000000	 99.392900 
739.000000	 99.407244 
738.000000	 99.422213 
737.000000	 99.433744 
736.000000	 99.439607 
735.000000	 99.440521 
734.000000	 99.438459 
733.000000	 99.436127 
732.000000	 99.437481 
731.000000	 99.445489 
730.000000	 99.458419 
729.000000	 99.470921 
728.000000	 99.480003 
727.000000	 99.487327 
726.000000	 99.494465 
725.000000	 99.498936 
724.000000	 99.497275 
723.000000	 99.490016 
722.000000	 99.481840 
721.000000	 99.478399 
720.000000	 99.483640 
719.000000	 99.497518 
718.000000	 99.514612 
717.000000	 99.527264 
716.000000	 99.531662 
715.000000	 99.529641 
714.000000	 99.525239 
713.000000	 99.521361 
712.000000	 99.520378 
711.000000	 99.524513 
710.000000	 99.532785 
709.000000	 99.540167 
708.000000	 99.542110 
707.000000	 99.537941 
706.000000	 99.529149 
705.000000	 99.517342 
704.000000	 99.505140 
703.000000	 99.496279 
702.000000	 99.492126 
701.000000	 99.489131 
700.000000	 99.481814 
699.000000	 99.468009 
698.000000	 99.450774 
697.000000	 99.436091 
696.000000	 99.428683 
695.000000	 99.428553 
694.000000	 99.431315 
693.000000	 99.433245 
692.000000	 99.435684 
691.000000	 99.442399 
690.000000	 99.453618 
689.000000	 99.465828 
688.000000	 99.476917 
687.000000	 99.487440 
686.000000	 99.496289 
685.000000	 99.499882 
684.000000	 99.497552 
683.000000	 99.494112 
682.000000	 99.494978 
681.000000	 99.500816 
680.000000	 99.508000 
679.000000	 99.512298 
678.000000	 99.511720 
677.000000	 99.508104 
676.000000	 99.507114 
675.000000	 99.513477 
674.000000	 99.525139 
673.000000	 99.534330 
672.000000	 99.536249 
671.000000	 99.534282 
670.000000	 99.535696 
669.000000	 99.544918 
668.000000	 99.557186 
667.000000	 99.561610 
666.000000	 99.556786 
665.000000	 99.549061 
664.000000	 99.544225 
663.000000	 99.545557 
662.000000	 99.551801 
661.000000	 99.557157 
660.000000	 99.557147 
659.000000	 99.553020 
658.000000	 99.548946 
657.000000	 99.546352 
656.000000	 99.544101 
655.000000	 99.542776 
654.000000	 99.544321 
653.000000	 99.548368 
652.000000	 99.552414 
651.000000	 99.555118 
650.000000	 99.556827 

