4000.000000	99.764955 
3999.000000	99.764094 
3998.000000	99.762827 
3997.000000	99.761908 
3996.000000	99.761580 
3995.000000	99.761596 
3994.000000	99.761648 
3993.000000	99.761735 
3992.000000	99.761911 
3991.000000	99.761952 
3990.000000	99.761520 
3989.000000	99.760605 
3988.000000	99.759633 
3987.000000	99.759088 
3986.000000	99.759101 
3985.000000	99.759455 
3984.000000	99.759839 
3983.000000	99.760104 
3982.000000	99.760315 
3981.000000	99.760612 
3980.000000	99.761046 
3979.000000	99.761521 
3978.000000	99.761877 
3977.000000	99.761991 
3976.000000	99.761779 
3975.000000	99.761147 
3974.000000	99.760069 
3973.000000	99.758739 
3972.000000	99.757594 
3971.000000	99.757086 
3970.000000	99.757417 
3969.000000	99.758397 
3968.000000	99.759480 
3967.000000	99.760053 
3966.000000	99.759804 
3965.000000	99.758869 
3964.000000	99.757706 
3963.000000	99.756806 
3962.000000	99.756429 
3961.000000	99.756482 
3960.000000	99.756529 
3959.000000	99.756058 
3958.000000	99.754953 
3957.000000	99.753682 
3956.000000	99.752922 
3955.000000	99.752904 
3954.000000	99.753284 
3953.000000	99.753537 
3952.000000	99.753418 
3951.000000	99.753021 
3950.000000	99.752519 
3949.000000	99.751971 
3948.000000	99.751403 
3947.000000	99.750976 
3946.000000	99.750889 
3945.000000	99.751088 
3944.000000	99.751196 
3943.000000	99.750841 
3942.000000	99.750061 
3941.000000	99.749252 
3940.000000	99.748631 
3939.000000	99.747957 
3938.000000	99.747023 
3937.000000	99.746136 
3936.000000	99.745878 
3935.000000	99.746410 
3934.000000	99.747300 
3933.000000	99.748078 
3932.000000	99.748727 
3931.000000	99.749526 
3930.000000	99.750529 
3929.000000	99.751408 
3928.000000	99.751765 
3927.000000	99.751324 
3926.000000	99.750118 
3925.000000	99.748686 
3924.000000	99.747912 
3923.000000	99.748214 
3922.000000	99.749033 
3921.000000	99.749583 
3920.000000	99.749770 
3919.000000	99.749846 
3918.000000	99.749576 
3917.000000	99.748531 
3916.000000	99.747143 
3915.000000	99.746617 
3914.000000	99.747620 
3913.000000	99.749627 
3912.000000	99.751499 
3911.000000	99.752358 
3910.000000	99.752257 
3909.000000	99.751976 
3908.000000	99.752384 
3907.000000	99.753655 
3906.000000	99.755049 
3905.000000	99.755516 
3904.000000	99.754684 
3903.000000	99.753204 
3902.000000	99.751918 
3901.000000	99.750904 
3900.000000	99.749788 
3899.000000	99.748565 
3898.000000	99.747590 
3897.000000	99.747010 
3896.000000	99.746722 
3895.000000	99.746782 
3894.000000	99.747490 
3893.000000	99.748743 
3892.000000	99.749912 
3891.000000	99.750498 
3890.000000	99.750824 
3889.000000	99.751268 
3888.000000	99.751645 
3887.000000	99.751660 
3886.000000	99.751385 
3885.000000	99.751157 
3884.000000	99.751201 
3883.000000	99.751357 
3882.000000	99.751364 
3881.000000	99.751199 
3880.000000	99.751001 
3879.000000	99.750887 
3878.000000	99.750853 
3877.000000	99.750840 
3876.000000	99.750822 
3875.000000	99.750803 
3874.000000	99.750787 
3873.000000	99.750774 
3872.000000	99.750764 
3871.000000	99.750756 
3870.000000	99.750753 
3869.000000	99.750768 
3868.000000	99.750804 
3867.000000	99.750855 
3866.000000	99.750907 
3865.000000	99.750960 
3864.000000	99.751025 
3863.000000	99.751111 
3862.000000	99.751220 
3861.000000	99.751350 
3860.000000	99.751501 
3859.000000	99.751673 
3858.000000	99.751862 
3857.000000	99.752065 
3856.000000	99.752281 
3855.000000	99.752507 
3854.000000	99.752731 
3853.000000	99.752943 
3852.000000	99.753145 
3851.000000	99.753342 
3850.000000	99.753534 
3849.000000	99.753719 
3848.000000	99.753902 
3847.000000	99.754097 
3846.000000	99.754316 
3845.000000	99.754568 
3844.000000	99.754852 
3843.000000	99.755162 
3842.000000	99.755491 
3841.000000	99.755835 
3840.000000	99.756197 
3839.000000	99.756572 
3838.000000	99.756952 
3837.000000	99.757323 
3836.000000	99.757674 
3835.000000	99.758003 
3834.000000	99.758318 
3833.000000	99.758628 
3832.000000	99.758936 
3831.000000	99.759243 
3830.000000	99.759544 
3829.000000	99.759836 
3828.000000	99.760119 
3827.000000	99.760393 
3826.000000	99.760663 
3825.000000	99.760935 
3824.000000	99.761217 
3823.000000	99.761516 
3822.000000	99.761820 
3821.000000	99.762096 
3820.000000	99.762338 
3819.000000	99.762608 
3818.000000	99.762894 
3817.000000	99.763089 
3816.000000	99.763131 
3815.000000	99.763104 
3814.000000	99.763158 
3813.000000	99.763256 
3812.000000	99.763216 
3811.000000	99.763042 
3810.000000	99.762965 
3809.000000	99.763125 
3808.000000	99.763367 
3807.000000	99.763447 
3806.000000	99.763510 
3805.000000	99.763980 
3804.000000	99.764787 
3803.000000	99.765294 
3802.000000	99.765003 
3801.000000	99.763935 
3800.000000	99.762900 
3799.000000	99.762409 
3798.000000	99.761885 
3797.000000	99.760845 
3796.000000	99.759662 
3795.000000	99.759066 
3794.000000	99.759291 
3793.000000	99.759977 
3792.000000	99.760711 
3791.000000	99.761337 
3790.000000	99.761706 
3789.000000	99.761737 
3788.000000	99.761700 
3787.000000	99.762047 
3786.000000	99.762834 
3785.000000	99.763657 
3784.000000	99.764284 
3783.000000	99.764890 
3782.000000	99.765476 
3781.000000	99.765556 
3780.000000	99.764730 
3779.000000	99.763180 
3778.000000	99.761618 
3777.000000	99.760456 
3776.000000	99.759487 
3775.000000	99.758565 
3774.000000	99.758124 
3773.000000	99.758537 
3772.000000	99.759386 
3771.000000	99.759754 
3770.000000	99.759299 
3769.000000	99.758686 
3768.000000	99.758687 
3767.000000	99.759212 
3766.000000	99.759693 
3765.000000	99.759940 
3764.000000	99.760226 
3763.000000	99.760679 
3762.000000	99.761055 
3761.000000	99.761188 
3760.000000	99.761206 
3759.000000	99.761211 
3758.000000	99.761158 
3757.000000	99.761010 
3756.000000	99.760830 
3755.000000	99.760681 
3754.000000	99.760572 
3753.000000	99.760476 
3752.000000	99.760361 
3751.000000	99.760221 
3750.000000	99.760050 
3749.000000	99.759850 
3748.000000	99.759632 
3747.000000	99.759406 
3746.000000	99.759171 
3745.000000	99.758921 
3744.000000	99.758658 
3743.000000	99.758398 
3742.000000	99.758154 
3741.000000	99.757923 
3740.000000	99.757704 
3739.000000	99.757496 
3738.000000	99.757298 
3737.000000	99.757101 
3736.000000	99.756889 
3735.000000	99.756657 
3734.000000	99.756403 
3733.000000	99.756135 
3732.000000	99.755856 
3731.000000	99.755574 
3730.000000	99.755290 
3729.000000	99.755007 
3728.000000	99.754727 
3727.000000	99.754453 
3726.000000	99.754183 
3725.000000	99.753911 
3724.000000	99.753622 
3723.000000	99.753306 
3722.000000	99.752961 
3721.000000	99.752596 
3720.000000	99.752222 
3719.000000	99.751850 
3718.000000	99.751482 
3717.000000	99.751116 
3716.000000	99.750753 
3715.000000	99.750403 
3714.000000	99.750077 
3713.000000	99.749781 
3712.000000	99.749510 
3711.000000	99.749251 
3710.000000	99.748994 
3709.000000	99.748734 
3708.000000	99.748475 
3707.000000	99.748220 
3706.000000	99.747969 
3705.000000	99.747719 
3704.000000	99.747468 
3703.000000	99.747216 
3702.000000	99.746965 
3701.000000	99.746713 
3700.000000	99.746450 
3699.000000	99.746171 
3698.000000	99.745871 
3697.000000	99.745551 
3696.000000	99.745217 
3695.000000	99.744882 
3694.000000	99.744558 
3693.000000	99.744249 
3692.000000	99.743947 
3691.000000	99.743638 
3690.000000	99.743305 
3689.000000	99.742934 
3688.000000	99.742520 
3687.000000	99.742064 
3686.000000	99.741568 
3685.000000	99.741032 
3684.000000	99.740454 
3683.000000	99.739845 
3682.000000	99.739220 
3681.000000	99.738596 
3680.000000	99.737988 
3679.000000	99.737402 
3678.000000	99.736834 
3677.000000	99.736274 
3676.000000	99.735708 
3675.000000	99.735130 
3674.000000	99.734544 
3673.000000	99.733947 
3672.000000	99.733328 
3671.000000	99.732673 
3670.000000	99.731963 
3669.000000	99.731199 
3668.000000	99.730410 
3667.000000	99.729617 
3666.000000	99.728816 
3665.000000	99.728002 
3664.000000	99.727184 
3663.000000	99.726354 
3662.000000	99.725489 
3661.000000	99.724586 
3660.000000	99.723699 
3659.000000	99.722890 
3658.000000	99.722101 
3657.000000	99.721153 
3656.000000	99.719953 
3655.000000	99.718766 
3654.000000	99.717933 
3653.000000	99.717397 
3652.000000	99.716877 
3651.000000	99.716258 
3650.000000	99.715376 
3649.000000	99.713801 
3648.000000	99.711388 
3647.000000	99.708808 
3646.000000	99.707008 
3645.000000	99.706364 
3644.000000	99.706549 
3643.000000	99.706926 
3642.000000	99.707129 
3641.000000	99.707166 
3640.000000	99.707198 
3639.000000	99.707374 
3638.000000	99.707912 
3637.000000	99.708981 
3636.000000	99.710079 
3635.000000	99.710055 
3634.000000	99.708294 
3633.000000	99.705652 
3632.000000	99.703570 
3631.000000	99.702488 
3630.000000	99.701563 
3629.000000	99.699339 
3628.000000	99.696146 
3627.000000	99.694688 
3626.000000	99.695526 
3625.000000	99.696640 
3624.000000	99.696822 
3623.000000	99.696224 
3622.000000	99.695182 
3621.000000	99.693930 
3620.000000	99.692953 
3619.000000	99.692813 
3618.000000	99.693869 
3617.000000	99.696070 
3616.000000	99.698400 
3615.000000	99.699327 
3614.000000	99.698050 
3613.000000	99.695234 
3612.000000	99.692613 
3611.000000	99.691543 
3610.000000	99.691965 
3609.000000	99.692917 
3608.000000	99.693606 
3607.000000	99.694113 
3606.000000	99.695094 
3605.000000	99.696878 
3604.000000	99.699241 
3603.000000	99.701652 
3602.000000	99.703457 
3601.000000	99.704475 
3600.000000	99.705300 
3599.000000	99.706568 
3598.000000	99.707994 
3597.000000	99.708989 
3596.000000	99.709359 
3595.000000	99.709341 
3594.000000	99.709258 
3593.000000	99.709619 
3592.000000	99.710813 
3591.000000	99.712725 
3590.000000	99.714708 
3589.000000	99.715825 
3588.000000	99.715154 
3587.000000	99.712596 
3586.000000	99.709477 
3585.000000	99.707318 
3584.000000	99.706467 
3583.000000	99.706592 
3582.000000	99.707189 
3581.000000	99.707666 
3580.000000	99.707521 
3579.000000	99.706663 
3578.000000	99.705324 
3577.000000	99.703982 
3576.000000	99.703199 
3575.000000	99.703281 
3574.000000	99.703989 
3573.000000	99.704695 
3572.000000	99.704918 
3571.000000	99.704565 
3570.000000	99.703717 
3569.000000	99.702400 
3568.000000	99.700806 
3567.000000	99.699588 
3566.000000	99.699530 
3565.000000	99.700715 
3564.000000	99.702268 
3563.000000	99.703148 
3562.000000	99.703079 
3561.000000	99.702508 
3560.000000	99.702027 
3559.000000	99.701851 
3558.000000	99.701772 
3557.000000	99.701516 
3556.000000	99.701058 
3555.000000	99.700572 
3554.000000	99.700182 
3553.000000	99.699862 
3552.000000	99.699531 
3551.000000	99.699119 
3550.000000	99.698522 
3549.000000	99.697649 
3548.000000	99.696601 
3547.000000	99.695736 
3546.000000	99.695394 
3545.000000	99.695602 
3544.000000	99.696019 
3543.000000	99.696195 
3542.000000	99.695977 
3541.000000	99.695584 
3540.000000	99.695403 
3539.000000	99.695624 
3538.000000	99.696055 
3537.000000	99.696257 
3536.000000	99.695933 
3535.000000	99.695151 
3534.000000	99.694244 
3533.000000	99.693567 
3532.000000	99.693309 
3531.000000	99.693457 
3530.000000	99.693786 
3529.000000	99.694011 
3528.000000	99.693999 
3527.000000	99.693818 
3526.000000	99.693528 
3525.000000	99.693074 
3524.000000	99.692489 
3523.000000	99.692081 
3522.000000	99.692169 
3521.000000	99.692670 
3520.000000	99.693110 
3519.000000	99.693090 
3518.000000	99.692691 
3517.000000	99.692403 
3516.000000	99.692684 
3515.000000	99.693647 
3514.000000	99.695078 
3513.000000	99.696567 
3512.000000	99.697669 
3511.000000	99.698082 
3510.000000	99.697821 
3509.000000	99.697259 
3508.000000	99.696898 
3507.000000	99.696955 
3506.000000	99.697190 
3505.000000	99.697172 
3504.000000	99.696758 
3503.000000	99.696291 
3502.000000	99.696252 
3501.000000	99.696729 
3500.000000	99.697288 
3499.000000	99.697380 
3498.000000	99.696874 
3497.000000	99.696095 
3496.000000	99.695505 
3495.000000	99.695256 
3494.000000	99.695155 
3493.000000	99.694958 
3492.000000	99.694609 
3491.000000	99.694243 
3490.000000	99.694025 
3489.000000	99.694009 
3488.000000	99.694119 
3487.000000	99.694211 
3486.000000	99.694163 
3485.000000	99.693960 
3484.000000	99.693688 
3483.000000	99.693467 
3482.000000	99.693339 
3481.000000	99.693249 
3480.000000	99.693126 
3479.000000	99.692954 
3478.000000	99.692764 
3477.000000	99.692572 
3476.000000	99.692347 
3475.000000	99.692046 
3474.000000	99.691665 
3473.000000	99.691242 
3472.000000	99.690835 
3471.000000	99.690481 
3470.000000	99.690178 
3469.000000	99.689894 
3468.000000	99.689601 
3467.000000	99.689295 
3466.000000	99.688997 
3465.000000	99.688730 
3464.000000	99.688482 
3463.000000	99.688208 
3462.000000	99.687870 
3461.000000	99.687458 
3460.000000	99.686972 
3459.000000	99.686428 
3458.000000	99.685929 
3457.000000	99.685645 
3456.000000	99.685681 
3455.000000	99.685944 
3454.000000	99.686191 
3453.000000	99.686272 
3452.000000	99.686227 
3451.000000	99.686200 
3450.000000	99.686240 
3449.000000	99.686218 
3448.000000	99.685963 
3447.000000	99.685441 
3446.000000	99.684806 
3445.000000	99.684308 
3444.000000	99.684123 
3443.000000	99.684249 
3442.000000	99.684484 
3441.000000	99.684566 
3440.000000	99.684369 
3439.000000	99.683950 
3438.000000	99.683436 
3437.000000	99.682854 
3436.000000	99.682165 
3435.000000	99.681424 
3434.000000	99.680851 
3433.000000	99.680693 
3432.000000	99.681026 
3431.000000	99.681680 
3430.000000	99.682345 
3429.000000	99.682777 
3428.000000	99.682917 
3427.000000	99.682860 
3426.000000	99.682727 
3425.000000	99.682581 
3424.000000	99.682447 
3423.000000	99.682342 
3422.000000	99.682255 
3421.000000	99.682152 
3420.000000	99.682040 
3419.000000	99.682016 
3418.000000	99.682171 
3417.000000	99.682458 
3416.000000	99.682689 
3415.000000	99.682707 
3414.000000	99.682523 
3413.000000	99.682294 
3412.000000	99.682170 
3411.000000	99.682189 
3410.000000	99.682326 
3409.000000	99.682574 
3408.000000	99.682910 
3407.000000	99.683203 
3406.000000	99.683288 
3405.000000	99.683139 
3404.000000	99.682964 
3403.000000	99.683028 
3402.000000	99.683377 
3401.000000	99.683793 
3400.000000	99.684024 
3399.000000	99.684077 
3398.000000	99.684193 
3397.000000	99.684590 
3396.000000	99.685258 
3395.000000	99.685956 
3394.000000	99.686405 
3393.000000	99.686522 
3392.000000	99.686456 
3391.000000	99.686432 
3390.000000	99.686528 
3389.000000	99.686655 
3388.000000	99.686724 
3387.000000	99.686776 
3386.000000	99.686951 
3385.000000	99.687344 
3384.000000	99.687902 
3383.000000	99.688418 
3382.000000	99.688650 
3381.000000	99.688488 
3380.000000	99.688022 
3379.000000	99.687462 
3378.000000	99.686984 
3377.000000	99.686672 
3376.000000	99.686548 
3375.000000	99.686573 
3374.000000	99.686634 
3373.000000	99.686624 
3372.000000	99.686542 
3371.000000	99.686463 
3370.000000	99.686395 
3369.000000	99.686250 
3368.000000	99.685987 
3367.000000	99.685700 
3366.000000	99.685501 
3365.000000	99.685376 
3364.000000	99.685240 
3363.000000	99.685099 
3362.000000	99.685057 
3361.000000	99.685137 
3360.000000	99.685201 
3359.000000	99.685089 
3358.000000	99.684789 
3357.000000	99.684426 
3356.000000	99.684143 
3355.000000	99.683980 
3354.000000	99.683889 
3353.000000	99.683806 
3352.000000	99.683702 
3351.000000	99.683577 
3350.000000	99.683450 
3349.000000	99.683352 
3348.000000	99.683319 
3347.000000	99.683352 
3346.000000	99.683400 
3345.000000	99.683393 
3344.000000	99.683305 
3343.000000	99.683164 
3342.000000	99.683047 
3341.000000	99.683009 
3340.000000	99.683053 
3339.000000	99.683144 
3338.000000	99.683247 
3337.000000	99.683342 
3336.000000	99.683404 
3335.000000	99.683431 
3334.000000	99.683506 
3333.000000	99.683752 
3332.000000	99.684196 
3331.000000	99.684688 
3330.000000	99.685004 
3329.000000	99.685073 
3328.000000	99.685081 
3327.000000	99.685290 
3326.000000	99.685742 
3325.000000	99.686231 
3324.000000	99.686593 
3323.000000	99.686910 
3322.000000	99.687364 
3321.000000	99.687930 
3320.000000	99.688316 
3319.000000	99.688255 
3318.000000	99.687799 
3317.000000	99.687310 
3316.000000	99.687175 
3315.000000	99.687570 
3314.000000	99.688425 
3313.000000	99.689541 
3312.000000	99.690712 
3311.000000	99.691802 
3310.000000	99.692719 
3309.000000	99.693324 
3308.000000	99.693458 
3307.000000	99.693092 
3306.000000	99.692401 
3305.000000	99.691624 
3304.000000	99.690877 
3303.000000	99.690149 
3302.000000	99.689501 
3301.000000	99.689203 
3300.000000	99.689555 
3299.000000	99.690580 
3298.000000	99.691899 
3297.000000	99.692989 
3296.000000	99.693613 
3295.000000	99.693946 
3294.000000	99.694312 
3293.000000	99.694922 
3292.000000	99.695880 
3291.000000	99.697274 
3290.000000	99.698956 
3289.000000	99.700269 
3288.000000	99.700377 
3287.000000	99.699084 
3286.000000	99.697263 
3285.000000	99.696182 
3284.000000	99.696312 
3283.000000	99.697103 
3282.000000	99.697852 
3281.000000	99.698432 
3280.000000	99.698945 
3279.000000	99.699102 
3278.000000	99.698452 
3277.000000	99.697152 
3276.000000	99.696060 
3275.000000	99.695880 
3274.000000	99.696472 
3273.000000	99.697131 
3272.000000	99.697295 
3271.000000	99.696820 
3270.000000	99.695777 
3269.000000	99.694316 
3268.000000	99.692773 
3267.000000	99.691756 
3266.000000	99.691957 
3265.000000	99.693736 
3264.000000	99.696746 
3263.000000	99.699954 
3262.000000	99.702323 
3261.000000	99.703603 
3260.000000	99.704289 
3259.000000	99.704771 
3258.000000	99.704761 
3257.000000	99.703724 
3256.000000	99.701644 
3255.000000	99.699118 
3254.000000	99.696859 
3253.000000	99.695332 
3252.000000	99.694694 
3251.000000	99.694710 
3250.000000	99.694731 
3249.000000	99.694167 
3248.000000	99.693134 
3247.000000	99.692335 
3246.000000	99.692152 
3245.000000	99.692199 
3244.000000	99.692018 
3243.000000	99.692000 
3242.000000	99.693133 
3241.000000	99.695839 
3240.000000	99.699316 
3239.000000	99.702051 
3238.000000	99.703023 
3237.000000	99.702276 
3236.000000	99.700603 
3235.000000	99.698852 
3234.000000	99.697501 
3233.000000	99.696806 
3232.000000	99.697050 
3231.000000	99.698377 
3230.000000	99.700395 
3229.000000	99.702156 
3228.000000	99.702724 
3227.000000	99.701770 
3226.000000	99.699689 
3225.000000	99.697367 
3224.000000	99.695814 
3223.000000	99.695678 
3222.000000	99.696800 
3221.000000	99.698269 
3220.000000	99.699181 
3219.000000	99.699345 
3218.000000	99.699084 
3217.000000	99.698508 
3216.000000	99.697358 
3215.000000	99.695556 
3214.000000	99.693528 
3213.000000	99.691903 
3212.000000	99.691219 
3211.000000	99.691950 
3210.000000	99.694295 
3209.000000	99.697623 
3208.000000	99.700569 
3207.000000	99.702216 
3206.000000	99.702977 
3205.000000	99.703947 
3204.000000	99.705568 
3203.000000	99.707346 
3202.000000	99.708843 
3201.000000	99.710325 
3200.000000	99.712165 
3199.000000	99.713953 
3198.000000	99.714605 
3197.000000	99.713407 
3196.000000	99.710756 
3195.000000	99.707952 
3194.000000	99.706162 
3193.000000	99.705485 
3192.000000	99.705129 
3191.000000	99.704442 
3190.000000	99.703643 
3189.000000	99.703412 
3188.000000	99.703980 
3187.000000	99.704937 
3186.000000	99.705832 
3185.000000	99.706521 
3184.000000	99.706883 
3183.000000	99.706656 
3182.000000	99.705829 
3181.000000	99.704986 
3180.000000	99.704905 
3179.000000	99.705783 
3178.000000	99.706955 
3177.000000	99.707417 
3176.000000	99.706686 
3175.000000	99.705286 
3174.000000	99.704451 
3173.000000	99.705151 
3172.000000	99.707348 
3171.000000	99.710072 
3170.000000	99.712227 
3169.000000	99.713439 
3168.000000	99.714068 
3167.000000	99.714641 
3166.000000	99.715327 
3165.000000	99.715874 
3164.000000	99.715977 
3163.000000	99.715691 
3162.000000	99.715440 
3161.000000	99.715638 
3160.000000	99.716276 
3159.000000	99.716936 
3158.000000	99.717212 
3157.000000	99.717089 
3156.000000	99.716876 
3155.000000	99.716887 
3154.000000	99.717189 
3153.000000	99.717642 
3152.000000	99.718073 
3151.000000	99.718401 
3150.000000	99.718616 
3149.000000	99.718729 
3148.000000	99.718795 
3147.000000	99.718954 
3146.000000	99.719344 
3145.000000	99.719953 
3144.000000	99.720540 
3143.000000	99.720810 
3142.000000	99.720690 
3141.000000	99.720443 
3140.000000	99.720427 
3139.000000	99.720717 
3138.000000	99.721103 
3137.000000	99.721385 
3136.000000	99.721592 
3135.000000	99.721864 
3134.000000	99.722200 
3133.000000	99.722395 
3132.000000	99.722240 
3131.000000	99.721751 
3130.000000	99.721207 
3129.000000	99.720924 
3128.000000	99.720928 
3127.000000	99.720890 
3126.000000	99.720491 
3125.000000	99.719821 
3124.000000	99.719300 
3123.000000	99.719165 
3122.000000	99.719188 
3121.000000	99.719024 
3120.000000	99.718731 
3119.000000	99.718674 
3118.000000	99.718900 
3117.000000	99.718897 
3116.000000	99.718194 
3115.000000	99.717031 
3114.000000	99.716204 
3113.000000	99.716177 
3112.000000	99.716646 
3111.000000	99.717016 
3110.000000	99.717130 
3109.000000	99.717234 
3108.000000	99.717333 
3107.000000	99.716953 
3106.000000	99.715699 
3105.000000	99.713852 
3104.000000	99.712283 
3103.000000	99.711763 
3102.000000	99.712482 
3101.000000	99.714116 
3100.000000	99.716046 
3099.000000	99.717540 
3098.000000	99.718143 
3097.000000	99.718075 
3096.000000	99.718144 
3095.000000	99.718933 
3094.000000	99.720071 
3093.000000	99.720587 
3092.000000	99.719985 
3091.000000	99.718729 
3090.000000	99.717690 
3089.000000	99.717269 
3088.000000	99.717272 
3087.000000	99.717449 
3086.000000	99.717883 
3085.000000	99.718755 
3084.000000	99.719924 
3083.000000	99.720874 
3082.000000	99.721112 
3081.000000	99.720545 
3080.000000	99.719499 
3079.000000	99.718395 
3078.000000	99.717419 
3077.000000	99.716563 
3076.000000	99.715913 
3075.000000	99.715775 
3074.000000	99.716395 
3073.000000	99.717608 
3072.000000	99.718926 
3071.000000	99.720007 
3070.000000	99.720850 
3069.000000	99.721424 
3068.000000	99.721247 
3067.000000	99.719687 
3066.000000	99.716759 
3065.000000	99.713552 
3064.000000	99.711562 
3063.000000	99.711461 
3062.000000	99.712712 
3061.000000	99.714211 
3060.000000	99.715287 
3059.000000	99.716043 
3058.000000	99.716906 
3057.000000	99.718067 
3056.000000	99.719320 
3055.000000	99.720295 
3054.000000	99.720817 
3053.000000	99.721040 
3052.000000	99.721271 
3051.000000	99.721668 
3050.000000	99.722146 
3049.000000	99.722520 
3048.000000	99.722599 
3047.000000	99.722147 
3046.000000	99.721080 
3045.000000	99.719824 
3044.000000	99.719116 
3043.000000	99.719227 
3042.000000	99.719604 
3041.000000	99.719488 
3040.000000	99.718829 
3039.000000	99.718268 
3038.000000	99.718303 
3037.000000	99.718795 
3036.000000	99.719283 
3035.000000	99.719506 
3034.000000	99.719498 
3033.000000	99.719387 
3032.000000	99.719274 
3031.000000	99.719232 
3030.000000	99.719250 
3029.000000	99.719185 
3028.000000	99.718900 
3027.000000	99.718433 
3026.000000	99.717966 
3025.000000	99.717636 
3024.000000	99.717424 
3023.000000	99.717211 
3022.000000	99.716914 
3021.000000	99.716522 
3020.000000	99.716069 
3019.000000	99.715603 
3018.000000	99.715167 
3017.000000	99.714787 
3016.000000	99.714449 
3015.000000	99.714101 
3014.000000	99.713690 
3013.000000	99.713190 
3012.000000	99.712590 
3011.000000	99.711885 
3010.000000	99.711091 
3009.000000	99.710269 
3008.000000	99.709511 
3007.000000	99.708868 
3006.000000	99.708329 
3005.000000	99.707822 
3004.000000	99.707244 
3003.000000	99.706528 
3002.000000	99.705660 
3001.000000	99.704707 
3000.000000	99.703808 
2999.000000	99.703087 
2998.000000	99.702577 
2997.000000	99.702185 
2996.000000	99.701762 
2995.000000	99.701212 
2994.000000	99.700500 
2993.000000	99.699588 
2992.000000	99.698448 
2991.000000	99.697149 
2990.000000	99.695893 
2989.000000	99.694881 
2988.000000	99.694126 
2987.000000	99.693399 
2986.000000	99.692432 
2985.000000	99.691240 
2984.000000	99.690173 
2983.000000	99.689551 
2982.000000	99.689320 
2981.000000	99.689140 
2980.000000	99.688805 
2979.000000	99.688400 
2978.000000	99.688000 
2977.000000	99.687457 
2976.000000	99.686619 
2975.000000	99.685615 
2974.000000	99.684676 
2973.000000	99.683718 
2972.000000	99.682406 
2971.000000	99.680679 
2970.000000	99.678926 
2969.000000	99.677501 
2968.000000	99.676245 
2967.000000	99.674743 
2966.000000	99.672962 
2965.000000	99.671406 
2964.000000	99.670693 
2963.000000	99.671142 
2962.000000	99.672527 
2961.000000	99.673957 
2960.000000	99.674264 
2959.000000	99.673018 
2958.000000	99.671052 
2957.000000	99.669653 
2956.000000	99.669150 
2955.000000	99.668447 
2954.000000	99.666077 
2953.000000	99.661879 
2952.000000	99.657759 
2951.000000	99.656430 
2950.000000	99.658860 
2949.000000	99.663097 
2948.000000	99.666177 
2947.000000	99.667129 
2946.000000	99.667141 
2945.000000	99.666925 
2944.000000	99.665441 
2943.000000	99.661928 
2942.000000	99.657703 
2941.000000	99.654481 
2940.000000	99.651814 
2939.000000	99.647866 
2938.000000	99.642280 
2937.000000	99.636636 
2936.000000	99.632217 
2935.000000	99.628989 
2934.000000	99.626897 
2933.000000	99.626271 
2932.000000	99.626316 
2931.000000	99.624897 
2930.000000	99.621025 
2929.000000	99.616475 
2928.000000	99.613793 
2927.000000	99.613536 
2926.000000	99.614470 
2925.000000	99.615574 
2924.000000	99.616717 
2923.000000	99.618014 
2922.000000	99.619831 
2921.000000	99.622990 
2920.000000	99.627669 
2919.000000	99.632325 
2918.000000	99.635015 
2917.000000	99.635849 
2916.000000	99.637045 
2915.000000	99.640427 
2914.000000	99.645791 
2913.000000	99.651803 
2912.000000	99.657401 
2911.000000	99.661849 
2910.000000	99.664310 
2909.000000	99.664326 
2908.000000	99.662447 
2907.000000	99.660010 
2906.000000	99.658419 
2905.000000	99.658618 
2904.000000	99.660664 
2903.000000	99.663404 
2902.000000	99.665249 
2901.000000	99.665759 
2900.000000	99.666127 
2899.000000	99.667609 
2898.000000	99.669893 
2897.000000	99.671736 
2896.000000	99.672816 
2895.000000	99.674122 
2894.000000	99.676442 
2893.000000	99.679182 
2892.000000	99.681019 
2891.000000	99.681284 
2890.000000	99.680387 
2889.000000	99.679223 
2888.000000	99.678537 
2887.000000	99.678722 
2886.000000	99.679861 
2885.000000	99.681707 
2884.000000	99.683697 
2883.000000	99.685164 
2882.000000	99.685721 
2881.000000	99.685533 
2880.000000	99.685231 
2879.000000	99.685505 
2878.000000	99.686686 
2877.000000	99.688599 
2876.000000	99.690587 
2875.000000	99.691724 
2874.000000	99.691347 
2873.000000	99.689759 
2872.000000	99.688404 
2871.000000	99.688868 
2870.000000	99.691453 
2869.000000	99.694818 
2868.000000	99.697150 
2867.000000	99.697715 
2866.000000	99.697229 
2865.000000	99.696945 
2864.000000	99.697431 
2863.000000	99.698037 
2862.000000	99.697449 
2861.000000	99.694904 
2860.000000	99.691149 
2859.000000	99.688096 
2858.000000	99.687125 
2857.000000	99.687776 
2856.000000	99.688286 
2855.000000	99.687565 
2854.000000	99.686404 
2853.000000	99.686477 
2852.000000	99.688445 
2851.000000	99.691399 
2850.000000	99.694083 
2849.000000	99.696312 
2848.000000	99.698862 
2847.000000	99.702252 
2846.000000	99.706050 
2845.000000	99.709372 
2844.000000	99.711693 
2843.000000	99.713088 
2842.000000	99.714054 
2841.000000	99.715300 
2840.000000	99.717313 
2839.000000	99.719671 
2838.000000	99.721007 
2837.000000	99.720226 
2836.000000	99.717799 
2835.000000	99.715635 
2834.000000	99.715452 
2833.000000	99.717487 
2832.000000	99.720673 
2831.000000	99.723562 
2830.000000	99.725157 
2829.000000	99.725315 
2828.000000	99.724814 
2827.000000	99.724832 
2826.000000	99.725951 
2825.000000	99.727738 
2824.000000	99.729428 
2823.000000	99.730867 
2822.000000	99.732503 
2821.000000	99.734593 
2820.000000	99.736664 
2819.000000	99.737833 
2818.000000	99.737591 
2817.000000	99.736307 
2816.000000	99.735017 
2815.000000	99.734616 
2814.000000	99.735141 
2813.000000	99.735897 
2812.000000	99.736257 
2811.000000	99.736176 
2810.000000	99.735954 
2809.000000	99.735777 
2808.000000	99.735653 
2807.000000	99.735631 
2806.000000	99.735852 
2805.000000	99.736403 
2804.000000	99.737270 
2803.000000	99.738361 
2802.000000	99.739464 
2801.000000	99.740255 
2800.000000	99.740524 
2799.000000	99.740394 
2798.000000	99.740229 
2797.000000	99.740287 
2796.000000	99.740550 
2795.000000	99.740854 
2794.000000	99.741093 
2793.000000	99.741297 
2792.000000	99.741614 
2791.000000	99.742200 
2790.000000	99.743036 
2789.000000	99.743890 
2788.000000	99.744500 
2787.000000	99.744775 
2786.000000	99.744819 
2785.000000	99.744850 
2784.000000	99.745071 
2783.000000	99.745530 
2782.000000	99.746008 
2781.000000	99.746200 
2780.000000	99.746088 
2779.000000	99.746015 
2778.000000	99.746284 
2777.000000	99.746765 
2776.000000	99.747056 
2775.000000	99.746950 
2774.000000	99.746610 
2773.000000	99.746308 
2772.000000	99.746139 
2771.000000	99.746074 
2770.000000	99.746141 
2769.000000	99.746433 
2768.000000	99.747015 
2767.000000	99.747885 
2766.000000	99.748894 
2765.000000	99.749699 
2764.000000	99.749997 
2763.000000	99.749825 
2762.000000	99.749593 
2761.000000	99.749719 
2760.000000	99.750312 
2759.000000	99.751191 
2758.000000	99.751991 
2757.000000	99.752295 
2756.000000	99.751927 
2755.000000	99.751234 
2754.000000	99.750869 
2753.000000	99.751076 
2752.000000	99.751455 
2751.000000	99.751531 
2750.000000	99.751318 
2749.000000	99.751098 
2748.000000	99.750867 
2747.000000	99.750376 
2746.000000	99.749628 
2745.000000	99.749003 
2744.000000	99.748827 
2743.000000	99.749097 
2742.000000	99.749643 
2741.000000	99.750302 
2740.000000	99.750885 
2739.000000	99.751230 
2738.000000	99.751356 
2737.000000	99.751440 
2736.000000	99.751595 
2735.000000	99.751783 
2734.000000	99.751958 
2733.000000	99.752129 
2732.000000	99.752257 
2731.000000	99.752237 
2730.000000	99.752057 
2729.000000	99.751888 
2728.000000	99.751933 
2727.000000	99.752233 
2726.000000	99.752658 
2725.000000	99.753007 
2724.000000	99.753135 
2723.000000	99.753045 
2722.000000	99.752868 
2721.000000	99.752760 
2720.000000	99.752755 
2719.000000	99.752772 
2718.000000	99.752732 
2717.000000	99.752640 
2716.000000	99.752553 
2715.000000	99.752516 
2714.000000	99.752538 
2713.000000	99.752602 
2712.000000	99.752672 
2711.000000	99.752708 
2710.000000	99.752705 
2709.000000	99.752680 
2708.000000	99.752654 
2707.000000	99.752631 
2706.000000	99.752603 
2705.000000	99.752566 
2704.000000	99.752524 
2703.000000	99.752480 
2702.000000	99.752437 
2701.000000	99.752390 
2700.000000	99.752336 
2699.000000	99.752272 
2698.000000	99.752202 
2697.000000	99.752130 
2696.000000	99.752052 
2695.000000	99.751963 
2694.000000	99.751875 
2693.000000	99.751814 
2692.000000	99.751785 
2691.000000	99.751753 
2690.000000	99.751674 
2689.000000	99.751549 
2688.000000	99.751443 
2687.000000	99.751421 
2686.000000	99.751470 
2685.000000	99.751495 
2684.000000	99.751412 
2683.000000	99.751238 
2682.000000	99.751087 
2681.000000	99.751063 
2680.000000	99.751159 
2679.000000	99.751249 
2678.000000	99.751203 
2677.000000	99.751030 
2676.000000	99.750900 
2675.000000	99.750976 
2674.000000	99.751256 
2673.000000	99.751544 
2672.000000	99.751563 
2671.000000	99.751127 
2670.000000	99.750266 
2669.000000	99.749278 
2668.000000	99.748580 
2667.000000	99.748442 
2666.000000	99.748878 
2665.000000	99.749698 
2664.000000	99.750605 
2663.000000	99.751329 
2662.000000	99.751772 
2661.000000	99.752025 
2660.000000	99.752142 
2659.000000	99.751985 
2658.000000	99.751460 
2657.000000	99.750860 
2656.000000	99.750668 
2655.000000	99.750962 
2654.000000	99.751265 
2653.000000	99.751101 
2652.000000	99.750481 
2651.000000	99.749719 
2650.000000	99.749023 
2649.000000	99.748486 
2648.000000	99.748249 
2647.000000	99.748347 
2646.000000	99.748566 
2645.000000	99.748768 
2644.000000	99.749156 
2643.000000	99.749897 
2642.000000	99.750693 
2641.000000	99.751042 
2640.000000	99.750923 
2639.000000	99.750826 
2638.000000	99.751181 
2637.000000	99.752008 
2636.000000	99.753019 
2635.000000	99.753810 
2634.000000	99.754074 
2633.000000	99.753830 
2632.000000	99.753496 
2631.000000	99.753499 
2630.000000	99.753814 
2629.000000	99.754140 
2628.000000	99.754316 
2627.000000	99.754442 
2626.000000	99.754639 
2625.000000	99.754879 
2624.000000	99.755078 
2623.000000	99.755232 
2622.000000	99.755379 
2621.000000	99.755535 
2620.000000	99.755704 
2619.000000	99.755904 
2618.000000	99.756121 
2617.000000	99.756297 
2616.000000	99.756405 
2615.000000	99.756503 
2614.000000	99.756648 
2613.000000	99.756803 
2612.000000	99.756884 
2611.000000	99.756900 
2610.000000	99.756955 
2609.000000	99.757109 
2608.000000	99.757323 
2607.000000	99.757546 
2606.000000	99.757785 
2605.000000	99.758068 
2604.000000	99.758356 
2603.000000	99.758542 
2602.000000	99.758553 
2601.000000	99.758413 
2600.000000	99.758267 
2599.000000	99.758265 
2598.000000	99.758450 
2597.000000	99.758751 
2596.000000	99.759061 
2595.000000	99.759292 
2594.000000	99.759356 
2593.000000	99.759183 
2592.000000	99.758829 
2591.000000	99.758519 
2590.000000	99.758473 
2589.000000	99.758714 
2588.000000	99.759037 
2587.000000	99.759200 
2586.000000	99.759086 
2585.000000	99.758679 
2584.000000	99.758045 
2583.000000	99.757328 
2582.000000	99.756715 
2581.000000	99.756317 
2580.000000	99.756099 
2579.000000	99.755935 
2578.000000	99.755714 
2577.000000	99.755412 
2576.000000	99.755095 
2575.000000	99.754850 
2574.000000	99.754705 
2573.000000	99.754589 
2572.000000	99.754402 
2571.000000	99.754115 
2570.000000	99.753794 
2569.000000	99.753524 
2568.000000	99.753355 
2567.000000	99.753284 
2566.000000	99.753249 
2565.000000	99.753150 
2564.000000	99.752934 
2563.000000	99.752655 
2562.000000	99.752410 
2561.000000	99.752208 
2560.000000	99.751963 
2559.000000	99.751647 
2558.000000	99.751380 
2557.000000	99.751274 
2556.000000	99.751254 
2555.000000	99.751127 
2554.000000	99.750841 
2553.000000	99.750556 
2552.000000	99.750432 
2551.000000	99.750458 
2550.000000	99.750538 
2549.000000	99.750643 
2548.000000	99.750784 
2547.000000	99.750887 
2546.000000	99.750827 
2545.000000	99.750601 
2544.000000	99.750391 
2543.000000	99.750429 
2542.000000	99.750789 
2541.000000	99.751337 
2540.000000	99.751824 
2539.000000	99.752099 
2538.000000	99.752158 
2537.000000	99.752054 
2536.000000	99.751828 
2535.000000	99.751582 
2534.000000	99.751552 
2533.000000	99.751974 
2532.000000	99.752865 
2531.000000	99.753979 
2530.000000	99.754985 
2529.000000	99.755678 
2528.000000	99.756023 
2527.000000	99.756140 
2526.000000	99.756245 
2525.000000	99.756504 
2524.000000	99.756931 
2523.000000	99.757443 
2522.000000	99.757987 
2521.000000	99.758537 
2520.000000	99.758992 
2519.000000	99.759226 
2518.000000	99.759239 
2517.000000	99.759133 
2516.000000	99.758916 
2515.000000	99.758520 
2514.000000	99.758072 
2513.000000	99.757934 
2512.000000	99.758286 
2511.000000	99.758796 
2510.000000	99.758937 
2509.000000	99.758654 
2508.000000	99.758505 
2507.000000	99.759022 
2506.000000	99.760110 
2505.000000	99.761082 
2504.000000	99.761311 
2503.000000	99.760709 
2502.000000	99.759683 
2501.000000	99.758781 
2500.000000	99.758384 
2499.000000	99.758652 
2498.000000	99.759530 
2497.000000	99.760754 
2496.000000	99.761916 
2495.000000	99.762665 
2494.000000	99.762809 
2493.000000	99.762236 
2492.000000	99.760951 
2491.000000	99.759236 
2490.000000	99.757621 
2489.000000	99.756496 
2488.000000	99.755838 
2487.000000	99.755435 
2486.000000	99.755293 
2485.000000	99.755571 
2484.000000	99.756189 
2483.000000	99.756820 
2482.000000	99.757276 
2481.000000	99.757643 
2480.000000	99.757943 
2479.000000	99.757965 
2478.000000	99.757560 
2477.000000	99.756928 
2476.000000	99.756437 
2475.000000	99.756227 
2474.000000	99.756177 
2473.000000	99.756191 
2472.000000	99.756342 
2471.000000	99.756719 
2470.000000	99.757267 
2469.000000	99.757765 
2468.000000	99.757876 
2467.000000	99.757288 
2466.000000	99.756037 
2465.000000	99.754709 
2464.000000	99.754052 
2463.000000	99.754278 
2462.000000	99.754909 
2461.000000	99.755287 
2460.000000	99.755221 
2459.000000	99.755020 
2458.000000	99.755091 
2457.000000	99.755615 
2456.000000	99.756471 
2455.000000	99.757283 
2454.000000	99.757635 
2453.000000	99.757362 
2452.000000	99.756645 
2451.000000	99.755888 
2450.000000	99.755448 
2449.000000	99.755450 
2448.000000	99.755764 
2447.000000	99.756117 
2446.000000	99.756333 
2445.000000	99.756490 
2444.000000	99.756779 
2443.000000	99.757209 
2442.000000	99.757582 
2441.000000	99.757779 
2440.000000	99.757958 
2439.000000	99.758331 
2438.000000	99.758842 
2437.000000	99.759212 
2436.000000	99.759222 
2435.000000	99.758807 
2434.000000	99.757940 
2433.000000	99.756668 
2432.000000	99.755287 
2431.000000	99.754281 
2430.000000	99.753958 
2429.000000	99.754279 
2428.000000	99.755025 
2427.000000	99.756010 
2426.000000	99.757013 
2425.000000	99.757622 
2424.000000	99.757381 
2423.000000	99.756206 
2422.000000	99.754663 
2421.000000	99.753734 
2420.000000	99.754005 
2419.000000	99.755248 
2418.000000	99.756656 
2417.000000	99.757564 
2416.000000	99.757925 
2415.000000	99.758029 
2414.000000	99.758089 
2413.000000	99.758199 
2412.000000	99.758477 
2411.000000	99.759008 
2410.000000	99.759681 
2409.000000	99.760318 
2408.000000	99.760938 
2407.000000	99.761677 
2406.000000	99.762492 
2405.000000	99.763154 
2404.000000	99.763545 
2403.000000	99.763792 
2402.000000	99.764091 
2401.000000	99.764455 
2400.000000	99.764669 
2399.000000	99.764469 
2398.000000	99.763900 
2397.000000	99.763535 
2396.000000	99.764124 
2395.000000	99.765881 
2394.000000	99.768261 
2393.000000	99.770539 
2392.000000	99.772446 
2391.000000	99.774084 
2390.000000	99.775519 
2389.000000	99.776737 
2388.000000	99.777852 
2387.000000	99.779052 
2386.000000	99.780357 
2385.000000	99.781655 
2384.000000	99.782921 
2383.000000	99.784220 
2382.000000	99.785531 
2381.000000	99.786778 
2380.000000	99.787985 
2379.000000	99.789194 
2378.000000	99.790295 
2377.000000	99.791188 
2376.000000	99.792084 
2375.000000	99.793358 
2374.000000	99.795053 
2373.000000	99.796777 
2372.000000	99.798242 
2371.000000	99.799613 
2370.000000	99.801107 
2369.000000	99.802515 
2368.000000	99.803475 
2367.000000	99.804005 
2366.000000	99.804498 
2365.000000	99.805319 
2364.000000	99.806519 
2363.000000	99.807936 
2362.000000	99.809297 
2361.000000	99.810351 
2360.000000	99.811019 
2359.000000	99.811421 
2358.000000	99.811761 
2357.000000	99.812194 
2356.000000	99.812806 
2355.000000	99.813608 
2354.000000	99.814493 
2353.000000	99.815257 
2352.000000	99.815826 
2351.000000	99.816330 
2350.000000	99.816916 
2349.000000	99.817541 
2348.000000	99.818021 
2347.000000	99.818287 
2346.000000	99.818481 
2345.000000	99.818773 
2344.000000	99.819134 
2343.000000	99.819409 
2342.000000	99.819584 
2341.000000	99.819746 
2340.000000	99.819910 
2339.000000	99.820007 
2338.000000	99.820020 
2337.000000	99.820001 
2336.000000	99.819965 
2335.000000	99.819906 
2334.000000	99.819920 
2333.000000	99.820115 
2332.000000	99.820362 
2331.000000	99.820251 
2330.000000	99.819488 
2329.000000	99.818273 
2328.000000	99.817127 
2327.000000	99.816446 
2326.000000	99.816212 
2325.000000	99.816158 
2324.000000	99.816036 
2323.000000	99.815802 
2322.000000	99.815674 
2321.000000	99.815867 
2320.000000	99.816325 
2319.000000	99.816616 
2318.000000	99.816228 
2317.000000	99.815004 
2316.000000	99.813301 
2315.000000	99.811657 
2314.000000	99.810298 
2313.000000	99.809054 
2312.000000	99.807692 
2311.000000	99.806295 
2310.000000	99.805219 
2309.000000	99.804649 
2308.000000	99.804229 
2307.000000	99.803300 
2306.000000	99.801600 
2305.000000	99.799537 
2304.000000	99.797755 
2303.000000	99.796478 
2302.000000	99.795405 
2301.000000	99.794167 
2300.000000	99.792695 
2299.000000	99.791134 
2298.000000	99.789603 
2297.000000	99.788176 
2296.000000	99.786968 
2295.000000	99.786064 
2294.000000	99.785311 
2293.000000	99.784350 
2292.000000	99.782978 
2291.000000	99.781353 
2290.000000	99.779873 
2289.000000	99.778781 
2288.000000	99.777976 
2287.000000	99.777145 
2286.000000	99.776098 
2285.000000	99.774906 
2284.000000	99.773734 
2283.000000	99.772618 
2282.000000	99.771441 
2281.000000	99.770058 
2280.000000	99.768442 
2279.000000	99.766776 
2278.000000	99.765371 
2277.000000	99.764387 
2276.000000	99.763650 
2275.000000	99.762827 
2274.000000	99.761771 
2273.000000	99.760618 
2272.000000	99.759501 
2271.000000	99.758309 
2270.000000	99.756951 
2269.000000	99.755790 
2268.000000	99.755407 
2267.000000	99.755921 
2266.000000	99.756812 
2265.000000	99.757342 
2264.000000	99.757010 
2263.000000	99.755742 
2262.000000	99.754060 
2261.000000	99.752976 
2260.000000	99.753200 
2259.000000	99.754369 
2258.000000	99.755226 
2257.000000	99.754878 
2256.000000	99.753475 
2255.000000	99.751629 
2254.000000	99.749770 
2253.000000	99.748386 
2252.000000	99.748295 
2251.000000	99.749891 
2250.000000	99.752292 
2249.000000	99.753920 
2248.000000	99.753923 
2247.000000	99.752517 
2246.000000	99.750215 
2245.000000	99.747488 
2244.000000	99.745144 
2243.000000	99.744077 
2242.000000	99.744320 
2241.000000	99.744861 
2240.000000	99.744643 
2239.000000	99.743527 
2238.000000	99.742092 
2237.000000	99.740717 
2236.000000	99.738951 
2235.000000	99.735923 
2234.000000	99.731749 
2233.000000	99.728357 
2232.000000	99.727918 
2231.000000	99.730519 
2230.000000	99.734354 
2229.000000	99.738271 
2228.000000	99.742851 
2227.000000	99.748060 
2226.000000	99.751497 
2225.000000	99.750790 
2224.000000	99.746721 
2223.000000	99.742514 
2222.000000	99.740454 
2221.000000	99.740499 
2220.000000	99.741691 
2219.000000	99.743224 
2218.000000	99.744304 
2217.000000	99.744662 
2216.000000	99.745298 
2215.000000	99.747335 
2214.000000	99.750055 
2213.000000	99.751308 
2212.000000	99.750019 
2211.000000	99.747259 
2210.000000	99.745038 
2209.000000	99.744819 
2208.000000	99.746801 
2207.000000	99.749427 
2206.000000	99.749903 
2205.000000	99.746672 
2204.000000	99.741196 
2203.000000	99.736517 
2202.000000	99.733907 
2201.000000	99.732232 
2200.000000	99.730349 
2199.000000	99.728564 
2198.000000	99.727501 
2197.000000	99.727100 
2196.000000	99.727441 
2195.000000	99.729218 
2194.000000	99.732488 
2193.000000	99.735964 
2192.000000	99.738078 
2191.000000	99.738230 
2190.000000	99.736831 
2189.000000	99.734842 
2188.000000	99.733477 
2187.000000	99.733462 
2186.000000	99.734521 
2185.000000	99.735698 
2184.000000	99.736269 
2183.000000	99.736258 
2182.000000	99.735989 
2181.000000	99.735715 
2180.000000	99.735651 
2179.000000	99.735957 
2178.000000	99.736534 
2177.000000	99.737055 
2176.000000	99.737300 
2175.000000	99.737350 
2174.000000	99.737397 
2173.000000	99.737550 
2172.000000	99.737810 
2171.000000	99.738143 
2170.000000	99.738505 
2169.000000	99.738864 
2168.000000	99.739205 
2167.000000	99.739523 
2166.000000	99.739809 
2165.000000	99.740060 
2164.000000	99.740288 
2163.000000	99.740513 
2162.000000	99.740746 
2161.000000	99.740981 
2160.000000	99.741204 
2159.000000	99.741404 
2158.000000	99.741584 
2157.000000	99.741751 
2156.000000	99.741912 
2155.000000	99.742071 
2154.000000	99.742219 
2153.000000	99.742334 
2152.000000	99.742399 
2151.000000	99.742426 
2150.000000	99.742456 
2149.000000	99.742526 
2148.000000	99.742646 
2147.000000	99.742789 
2146.000000	99.742910 
2145.000000	99.742970 
2144.000000	99.742957 
2143.000000	99.742883 
2142.000000	99.742767 
2141.000000	99.742613 
2140.000000	99.742418 
2139.000000	99.742181 
2138.000000	99.741901 
2137.000000	99.741569 
2136.000000	99.741171 
2135.000000	99.740713 
2134.000000	99.740218 
2133.000000	99.739714 
2132.000000	99.739209 
2131.000000	99.738694 
2130.000000	99.738155 
2129.000000	99.737581 
2128.000000	99.736971 
2127.000000	99.736348 
2126.000000	99.735747 
2125.000000	99.735178 
2124.000000	99.734628 
2123.000000	99.734109 
2122.000000	99.733673 
2121.000000	99.733339 
2120.000000	99.733037 
2119.000000	99.732661 
2118.000000	99.732168 
2117.000000	99.731600 
2116.000000	99.731022 
2115.000000	99.730524 
2114.000000	99.730259 
2113.000000	99.730318 
2112.000000	99.730503 
2111.000000	99.730425 
2110.000000	99.729869 
2109.000000	99.728974 
2108.000000	99.728061 
2107.000000	99.727317 
2106.000000	99.726684 
2105.000000	99.725858 
2104.000000	99.724573 
2103.000000	99.723086 
2102.000000	99.722101 
2101.000000	99.721893 
2100.000000	99.721861 
2099.000000	99.721215 
2098.000000	99.719964 
2097.000000	99.718920 
2096.000000	99.718790 
2095.000000	99.719496 
2094.000000	99.720239 
2093.000000	99.720170 
2092.000000	99.719257 
2091.000000	99.718547 
2090.000000	99.719130 
2089.000000	99.720566 
2088.000000	99.720952 
2087.000000	99.719119 
2086.000000	99.716204 
2085.000000	99.714454 
2084.000000	99.714689 
2083.000000	99.715906 
2082.000000	99.717068 
2081.000000	99.718415 
2080.000000	99.720470 
2079.000000	99.722701 
2078.000000	99.723913 
2077.000000	99.723736 
2076.000000	99.723211 
2075.000000	99.723881 
2074.000000	99.726354 
2073.000000	99.729781 
2072.000000	99.732562 
2071.000000	99.733541 
2070.000000	99.732454 
2069.000000	99.729624 
2068.000000	99.725831 
2067.000000	99.722367 
2066.000000	99.720370 
2065.000000	99.719891 
2064.000000	99.720145 
2063.000000	99.720681 
2062.000000	99.721866 
2061.000000	99.723944 
2060.000000	99.726219 
2059.000000	99.727734 
2058.000000	99.728195 
2057.000000	99.727922 
2056.000000	99.727330 
2055.000000	99.726747 
2054.000000	99.726389 
2053.000000	99.726205 
2052.000000	99.725997 
2051.000000	99.725812 
2050.000000	99.725917 
2049.000000	99.726245 
2048.000000	99.726183 
2047.000000	99.725252 
2046.000000	99.723695 
2045.000000	99.722158 
2044.000000	99.721046 
2043.000000	99.720359 
2042.000000	99.720030 
2041.000000	99.720049 
2040.000000	99.720287 
2039.000000	99.720486 
2038.000000	99.720420 
2037.000000	99.720062 
2036.000000	99.719546 
2035.000000	99.719035 
2034.000000	99.718643 
2033.000000	99.718388 
2032.000000	99.718225 
2031.000000	99.718093 
2030.000000	99.717961 
2029.000000	99.717840 
2028.000000	99.717751 
2027.000000	99.717713 
2026.000000	99.717736 
2025.000000	99.717814 
2024.000000	99.717927 
2023.000000	99.718037 
2022.000000	99.718100 
2021.000000	99.718090 
2020.000000	99.718009 
2019.000000	99.717890 
2018.000000	99.717772 
2017.000000	99.717675 
2016.000000	99.717606 
2015.000000	99.717572 
2014.000000	99.717589 
2013.000000	99.717675 
2012.000000	99.717824 
2011.000000	99.718009 
2010.000000	99.718191 
2009.000000	99.718346 
2008.000000	99.718470 
2007.000000	99.718572 
2006.000000	99.718662 
2005.000000	99.718747 
2004.000000	99.718827 
2003.000000	99.718893 
2002.000000	99.718933 
2001.000000	99.718933 
2000.000000	99.718887 
1999.000000	99.718799 
1998.000000	99.718673 
1997.000000	99.718523 
1996.000000	99.718363 
1995.000000	99.718205 
1994.000000	99.718046 
1993.000000	99.717863 
1992.000000	99.717640 
1991.000000	99.717376 
1990.000000	99.717087 
1989.000000	99.716793 
1988.000000	99.716505 
1987.000000	99.716219 
1986.000000	99.715937 
1985.000000	99.715657 
1984.000000	99.715331 
1983.000000	99.714889 
1982.000000	99.714334 
1981.000000	99.713730 
1980.000000	99.713047 
1979.000000	99.712172 
1978.000000	99.711148 
1977.000000	99.710222 
1976.000000	99.709646 
1975.000000	99.709567 
1974.000000	99.709930 
1973.000000	99.710504 
1972.000000	99.710993 
1971.000000	99.711185 
1970.000000	99.710844 
1969.000000	99.709705 
1968.000000	99.707855 
1967.000000	99.705992 
1966.000000	99.704847 
1965.000000	99.704310 
1964.000000	99.703782 
1963.000000	99.703202 
1962.000000	99.703000 
1961.000000	99.702956 
1960.000000	99.702109 
1959.000000	99.700308 
1958.000000	99.698867 
1957.000000	99.698918 
1956.000000	99.699956 
1955.000000	99.700706 
1954.000000	99.700822 
1953.000000	99.701000 
1952.000000	99.701901 
1951.000000	99.703688 
1950.000000	99.706168 
1949.000000	99.708648 
1948.000000	99.710091 
1947.000000	99.709829 
1946.000000	99.707785 
1945.000000	99.704052 
1944.000000	99.699055 
1943.000000	99.694520 
1942.000000	99.693040 
1941.000000	99.695565 
1940.000000	99.700111 
1939.000000	99.703736 
1938.000000	99.705290 
1937.000000	99.705560 
1936.000000	99.705474 
1935.000000	99.704949 
1934.000000	99.703661 
1933.000000	99.702398 
1932.000000	99.703048 
1931.000000	99.707186 
1930.000000	99.714487 
1929.000000	99.722258 
1928.000000	99.727376 
1927.000000	99.728827 
1926.000000	99.728102 
1925.000000	99.727379 
1924.000000	99.727602 
1923.000000	99.728519 
1922.000000	99.729662 
1921.000000	99.730570 
1920.000000	99.730438 
1919.000000	99.728353 
1918.000000	99.724110 
1917.000000	99.718803 
1916.000000	99.714279 
1915.000000	99.711919 
1914.000000	99.712127 
1913.000000	99.714385 
1912.000000	99.717465 
1911.000000	99.720184 
1910.000000	99.722026 
1909.000000	99.723084 
1908.000000	99.723801 
1907.000000	99.724548 
1906.000000	99.725311 
1905.000000	99.725644 
1904.000000	99.725162 
1903.000000	99.724212 
1902.000000	99.723666 
1901.000000	99.724171 
1900.000000	99.725798 
1899.000000	99.728089 
1898.000000	99.730272 
1897.000000	99.731567 
1896.000000	99.731549 
1895.000000	99.730365 
1894.000000	99.728575 
1893.000000	99.726859 
1892.000000	99.725854 
1891.000000	99.725935 
1890.000000	99.726843 
1889.000000	99.727715 
1888.000000	99.727983 
1887.000000	99.727945 
1886.000000	99.728154 
1885.000000	99.728766 
1884.000000	99.729585 
1883.000000	99.730424 
1882.000000	99.731151 
1881.000000	99.731615 
1880.000000	99.731876 
1879.000000	99.732329 
1878.000000	99.733334 
1877.000000	99.734753 
1876.000000	99.736004 
1875.000000	99.736652 
1874.000000	99.736702 
1873.000000	99.736312 
1872.000000	99.735581 
1871.000000	99.734725 
1870.000000	99.734237 
1869.000000	99.734618 
1868.000000	99.736019 
1867.000000	99.738217 
1866.000000	99.740597 
1865.000000	99.742127 
1864.000000	99.741932 
1863.000000	99.739962 
1862.000000	99.737216 
1861.000000	99.735081 
1860.000000	99.734159 
1859.000000	99.734214 
1858.000000	99.734748 
1857.000000	99.735431 
1856.000000	99.736077 
1855.000000	99.736561 
1854.000000	99.736899 
1853.000000	99.737209 
1852.000000	99.737623 
1851.000000	99.738225 
1850.000000	99.739047 
1849.000000	99.740042 
1848.000000	99.741009 
1847.000000	99.741746 
1846.000000	99.742237 
1845.000000	99.742595 
1844.000000	99.742817 
1843.000000	99.742928 
1842.000000	99.743160 
1841.000000	99.743581 
1840.000000	99.743974 
1839.000000	99.744068 
1838.000000	99.743879 
1837.000000	99.743734 
1836.000000	99.743810 
1835.000000	99.743853 
1834.000000	99.743467 
1833.000000	99.742608 
1832.000000	99.741631 
1831.000000	99.740875 
1830.000000	99.740454 
1829.000000	99.740526 
1828.000000	99.741231 
1827.000000	99.742181 
1826.000000	99.742746 
1825.000000	99.742876 
1824.000000	99.742971 
1823.000000	99.742871 
1822.000000	99.741579 
1821.000000	99.738778 
1820.000000	99.736089 
1819.000000	99.735505 
1818.000000	99.737333 
1817.000000	99.739791 
1816.000000	99.741211 
1815.000000	99.742090 
1814.000000	99.743688 
1813.000000	99.746108 
1812.000000	99.748226 
1811.000000	99.749259 
1810.000000	99.749655 
1809.000000	99.749934 
1808.000000	99.749895 
1807.000000	99.749265 
1806.000000	99.748050 
1805.000000	99.746175 
1804.000000	99.743666 
1803.000000	99.741392 
1802.000000	99.740619 
1801.000000	99.741604 
1800.000000	99.743010 
1799.000000	99.743398 
1798.000000	99.742868 
1797.000000	99.742416 
1796.000000	99.742579 
1795.000000	99.743015 
1794.000000	99.743065 
1793.000000	99.742583 
1792.000000	99.742081 
1791.000000	99.742185 
1790.000000	99.742794 
1789.000000	99.743017 
1788.000000	99.742395 
1787.000000	99.741570 
1786.000000	99.741451 
1785.000000	99.741900 
1784.000000	99.741948 
1783.000000	99.741250 
1782.000000	99.740120 
1781.000000	99.738866 
1780.000000	99.737418 
1779.000000	99.735732 
1778.000000	99.734262 
1777.000000	99.733489 
1776.000000	99.733616 
1775.000000	99.734394 
1774.000000	99.735374 
1773.000000	99.736271 
1772.000000	99.736781 
1771.000000	99.736808 
1770.000000	99.736649 
1769.000000	99.736500 
1768.000000	99.736349 
1767.000000	99.736254 
1766.000000	99.736268 
1765.000000	99.736281 
1764.000000	99.736079 
1763.000000	99.735668 
1762.000000	99.735237 
1761.000000	99.734964 
1760.000000	99.734736 
1759.000000	99.734298 
1758.000000	99.733755 
1757.000000	99.733577 
1756.000000	99.733989 
1755.000000	99.734489 
1754.000000	99.734385 
1753.000000	99.733550 
1752.000000	99.732461 
1751.000000	99.731519 
1750.000000	99.730656 
1749.000000	99.729753 
1748.000000	99.729102 
1747.000000	99.729097 
1746.000000	99.729626 
1745.000000	99.730147 
1744.000000	99.730163 
1743.000000	99.729632 
1742.000000	99.728958 
1741.000000	99.728619 
1740.000000	99.728775 
1739.000000	99.729287 
1738.000000	99.729900 
1737.000000	99.730358 
1736.000000	99.730531 
1735.000000	99.730525 
1734.000000	99.730408 
1733.000000	99.730225 
1732.000000	99.730078 
1731.000000	99.729865 
1730.000000	99.729550 
1729.000000	99.729297 
1728.000000	99.729214 
1727.000000	99.729265 
1726.000000	99.729344 
1725.000000	99.729416 
1724.000000	99.729446 
1723.000000	99.729384 
1722.000000	99.729245 
1721.000000	99.729081 
1720.000000	99.728986 
1719.000000	99.729106 
1718.000000	99.729485 
1717.000000	99.729899 
1716.000000	99.730146 
1715.000000	99.730310 
1714.000000	99.730495 
1713.000000	99.730665 
1712.000000	99.730747 
1711.000000	99.730762 
1710.000000	99.730789 
1709.000000	99.730874 
1708.000000	99.731004 
1707.000000	99.731147 
1706.000000	99.731274 
1705.000000	99.731360 
1704.000000	99.731403 
1703.000000	99.731414 
1702.000000	99.731406 
1701.000000	99.731395 
1700.000000	99.731384 
1699.000000	99.731375 
1698.000000	99.731365 
1697.000000	99.731343 
1696.000000	99.731302 
1695.000000	99.731242 
1694.000000	99.731170 
1693.000000	99.731090 
1692.000000	99.731005 
1691.000000	99.730918 
1690.000000	99.730831 
1689.000000	99.730747 
1688.000000	99.730668 
1687.000000	99.730594 
1686.000000	99.730521 
1685.000000	99.730448 
1684.000000	99.730372 
1683.000000	99.730295 
1682.000000	99.730221 
1681.000000	99.730150 
1680.000000	99.730079 
1679.000000	99.730004 
1678.000000	99.729920 
1677.000000	99.729825 
1676.000000	99.729723 
1675.000000	99.729625 
1674.000000	99.729540 
1673.000000	99.729472 
1672.000000	99.729412 
1671.000000	99.729349 
1670.000000	99.729276 
1669.000000	99.729195 
1668.000000	99.729111 
1667.000000	99.729029 
1666.000000	99.728952 
1665.000000	99.728876 
1664.000000	99.728804 
1663.000000	99.728740 
1662.000000	99.728691 
1661.000000	99.728658 
1660.000000	99.728641 
1659.000000	99.728633 
1658.000000	99.728622 
1657.000000	99.728603 
1656.000000	99.728574 
1655.000000	99.728539 
1654.000000	99.728513 
1653.000000	99.728514 
1652.000000	99.728533 
1651.000000	99.728594 
1650.000000	99.728680 
1649.000000	99.728756 
1648.000000	99.728855 
1647.000000	99.728973 
1646.000000	99.729063 
1645.000000	99.729159 
1644.000000	99.729305 
1643.000000	99.729428 
1642.000000	99.729455 
1641.000000	99.729377 
1640.000000	99.729242 
1639.000000	99.729095 
1638.000000	99.728976 
1637.000000	99.728975 
1636.000000	99.729169 
1635.000000	99.729475 
1634.000000	99.729792 
1633.000000	99.729997 
1632.000000	99.729889 
1631.000000	99.729480 
1630.000000	99.729025 
1629.000000	99.728799 
1628.000000	99.728872 
1627.000000	99.729113 
1626.000000	99.729331 
1625.000000	99.729432 
1624.000000	99.729429 
1623.000000	99.729368 
1622.000000	99.729356 
1621.000000	99.729524 
1620.000000	99.729845 
1619.000000	99.730126 
1618.000000	99.730230 
1617.000000	99.730180 
1616.000000	99.730296 
1615.000000	99.730901 
1614.000000	99.731824 
1613.000000	99.732664 
1612.000000	99.733311 
1611.000000	99.733815 
1610.000000	99.734038 
1609.000000	99.733799 
1608.000000	99.733252 
1607.000000	99.732895 
1606.000000	99.733019 
1605.000000	99.733507 
1604.000000	99.734070 
1603.000000	99.734502 
1602.000000	99.734798 
1601.000000	99.735042 
1600.000000	99.735294 
1599.000000	99.735608 
1598.000000	99.736061 
1597.000000	99.736691 
1596.000000	99.737382 
1595.000000	99.737943 
1594.000000	99.738314 
1593.000000	99.738604 
1592.000000	99.738893 
1591.000000	99.739094 
1590.000000	99.739107 
1589.000000	99.739015 
1588.000000	99.739023 
1587.000000	99.739215 
1586.000000	99.739512 
1585.000000	99.739813 
1584.000000	99.740118 
1583.000000	99.740442 
1582.000000	99.740707 
1581.000000	99.740864 
1580.000000	99.740955 
1579.000000	99.741006 
1578.000000	99.741022 
1577.000000	99.741039 
1576.000000	99.741086 
1575.000000	99.741170 
1574.000000	99.741267 
1573.000000	99.741334 
1572.000000	99.741364 
1571.000000	99.741381 
1570.000000	99.741392 
1569.000000	99.741385 
1568.000000	99.741374 
1567.000000	99.741369 
1566.000000	99.741370 
1565.000000	99.741383 
1564.000000	99.741418 
1563.000000	99.741478 
1562.000000	99.741559 
1561.000000	99.741653 
1560.000000	99.741765 
1559.000000	99.741861 
1558.000000	99.741902 
1557.000000	99.741935 
1556.000000	99.741992 
1555.000000	99.742033 
1554.000000	99.742042 
1553.000000	99.742043 
1552.000000	99.742070 
1551.000000	99.742094 
1550.000000	99.742090 
1549.000000	99.742083 
1548.000000	99.742113 
1547.000000	99.742151 
1546.000000	99.742105 
1545.000000	99.741929 
1544.000000	99.741730 
1543.000000	99.741756 
1542.000000	99.742220 
1541.000000	99.743167 
1540.000000	99.744119 
1539.000000	99.744560 
1538.000000	99.744692 
1537.000000	99.744846 
1536.000000	99.745027 
1535.000000	99.745317 
1534.000000	99.745700 
1533.000000	99.745871 
1532.000000	99.745741 
1531.000000	99.745646 
1530.000000	99.745795 
1529.000000	99.746067 
1528.000000	99.746266 
1527.000000	99.746491 
1526.000000	99.747101 
1525.000000	99.748218 
1524.000000	99.749514 
1523.000000	99.750697 
1522.000000	99.751724 
1521.000000	99.752128 
1520.000000	99.751544 
1519.000000	99.750273 
1518.000000	99.748773 
1517.000000	99.747562 
1516.000000	99.746808 
1515.000000	99.746376 
1514.000000	99.746268 
1513.000000	99.746661 
1512.000000	99.747442 
1511.000000	99.747928 
1510.000000	99.747737 
1509.000000	99.747387 
1508.000000	99.748121 
1507.000000	99.749941 
1506.000000	99.751094 
1505.000000	99.751520 
1504.000000	99.752191 
1503.000000	99.752967 
1502.000000	99.753486 
1501.000000	99.753341 
1500.000000	99.752253 
1499.000000	99.750583 
1498.000000	99.749270 
1497.000000	99.748876 
1496.000000	99.748913 
1495.000000	99.748812 
1494.000000	99.748552 
1493.000000	99.748235 
1492.000000	99.747911 
1491.000000	99.747671 
1490.000000	99.747561 
1489.000000	99.747479 
1488.000000	99.747247 
1487.000000	99.746824 
1486.000000	99.746304 
1485.000000	99.745770 
1484.000000	99.745284 
1483.000000	99.744875 
1482.000000	99.744542 
1481.000000	99.744247 
1480.000000	99.743944 
1479.000000	99.743624 
1478.000000	99.743307 
1477.000000	99.743006 
1476.000000	99.742719 
1475.000000	99.742450 
1474.000000	99.742193 
1473.000000	99.741936 
1472.000000	99.741666 
1471.000000	99.741375 
1470.000000	99.741064 
1469.000000	99.740738 
1468.000000	99.740401 
1467.000000	99.740060 
1466.000000	99.739722 
1465.000000	99.739393 
1464.000000	99.739079 
1463.000000	99.738780 
1462.000000	99.738489 
1461.000000	99.738199 
1460.000000	99.737908 
1459.000000	99.737618 
1458.000000	99.737333 
1457.000000	99.737055 
1456.000000	99.736792 
1455.000000	99.736550 
1454.000000	99.736329 
1453.000000	99.736123 
1452.000000	99.735924 
1451.000000	99.735722 
1450.000000	99.735508 
1449.000000	99.735281 
1448.000000	99.735046 
1447.000000	99.734815 
1446.000000	99.734594 
1445.000000	99.734388 
1444.000000	99.734192 
1443.000000	99.734006 
1442.000000	99.733826 
1441.000000	99.733648 
1440.000000	99.733470 
1439.000000	99.733288 
1438.000000	99.733105 
1437.000000	99.732920 
1436.000000	99.732732 
1435.000000	99.732542 
1434.000000	99.732353 
1433.000000	99.732170 
1432.000000	99.731996 
1431.000000	99.731837 
1430.000000	99.731695 
1429.000000	99.731574 
1428.000000	99.731472 
1427.000000	99.731390 
1426.000000	99.731327 
1425.000000	99.731281 
1424.000000	99.731243 
1423.000000	99.731201 
1422.000000	99.731145 
1421.000000	99.731077 
1420.000000	99.730973 
1419.000000	99.730835 
1418.000000	99.730735 
1417.000000	99.730760 
1416.000000	99.730859 
1415.000000	99.730855 
1414.000000	99.730671 
1413.000000	99.730422 
1412.000000	99.730275 
1411.000000	99.730248 
1410.000000	99.730278 
1409.000000	99.730352 
1408.000000	99.730447 
1407.000000	99.730616 
1406.000000	99.730945 
1405.000000	99.731364 
1404.000000	99.731653 
1403.000000	99.731766 
1402.000000	99.731985 
1401.000000	99.732519 
1400.000000	99.733212 
1399.000000	99.733715 
1398.000000	99.734003 
1397.000000	99.734204 
1396.000000	99.734054 
1395.000000	99.733403 
1394.000000	99.733028 
1393.000000	99.734058 
1392.000000	99.736493 
1391.000000	99.739177 
1390.000000	99.741208 
1389.000000	99.742538 
1388.000000	99.743231 
1387.000000	99.742987 
1386.000000	99.741889 
1385.000000	99.740687 
1384.000000	99.739813 
1383.000000	99.738955 
1382.000000	99.737789 
1381.000000	99.736521 
1380.000000	99.735764 
1379.000000	99.736087 
1378.000000	99.737549 
1377.000000	99.739576 
1376.000000	99.741322 
1375.000000	99.742382 
1374.000000	99.743132 
1373.000000	99.744260 
1372.000000	99.745703 
1371.000000	99.746642 
1370.000000	99.746552 
1369.000000	99.745869 
1368.000000	99.745453 
1367.000000	99.745620 
1366.000000	99.746110 
1365.000000	99.746629 
1364.000000	99.747045 
1363.000000	99.747216 
1362.000000	99.747016 
1361.000000	99.746508 
1360.000000	99.745864 
1359.000000	99.745375 
1358.000000	99.745549 
1357.000000	99.746721 
1356.000000	99.748533 
1355.000000	99.750244 
1354.000000	99.751674 
1353.000000	99.753209 
1352.000000	99.754707 
1351.000000	99.755383 
1350.000000	99.754879 
1349.000000	99.754074 
1348.000000	99.754034 
1347.000000	99.754629 
1346.000000	99.755016 
1345.000000	99.754915 
1344.000000	99.754693 
1343.000000	99.754468 
1342.000000	99.753936 
1341.000000	99.753101 
1340.000000	99.752507 
1339.000000	99.752524 
1338.000000	99.753012 
1337.000000	99.753851 
1336.000000	99.755162 
1335.000000	99.756839 
1334.000000	99.758302 
1333.000000	99.758955 
1332.000000	99.758706 
1331.000000	99.758015 
1330.000000	99.757598 
1329.000000	99.758028 
1328.000000	99.759234 
1327.000000	99.760379 
1326.000000	99.760619 
1325.000000	99.760176 
1324.000000	99.760204 
1323.000000	99.761373 
1322.000000	99.763116 
1321.000000	99.764466 
1320.000000	99.765150 
1319.000000	99.765531 
1318.000000	99.765864 
1317.000000	99.765984 
1316.000000	99.765589 
1315.000000	99.764549 
1314.000000	99.763038 
1313.000000	99.761482 
1312.000000	99.760223 
1311.000000	99.759269 
1310.000000	99.758476 
1309.000000	99.757937 
1308.000000	99.758004 
1307.000000	99.758964 
1306.000000	99.760679 
1305.000000	99.762615 
1304.000000	99.764108 
1303.000000	99.764754 
1302.000000	99.764692 
1301.000000	99.764426 
1300.000000	99.764277 
1299.000000	99.764141 
1298.000000	99.763876 
1297.000000	99.763669 
1296.000000	99.763814 
1295.000000	99.764275 
1294.000000	99.764731 
1293.000000	99.764943 
1292.000000	99.764843 
1291.000000	99.764398 
1290.000000	99.763663 
1289.000000	99.762963 
1288.000000	99.762740 
1287.000000	99.763111 
1286.000000	99.763720 
1285.000000	99.764117 
1284.000000	99.764185 
1283.000000	99.764149 
1282.000000	99.764273 
1281.000000	99.764539 
1280.000000	99.764604 
1279.000000	99.764145 
1278.000000	99.763264 
1277.000000	99.762410 
1276.000000	99.761784 
1275.000000	99.761018 
1274.000000	99.759708 
1273.000000	99.758207 
1272.000000	99.757557 
1271.000000	99.758543 
1270.000000	99.760952 
1269.000000	99.763654 
1268.000000	99.765395 
1267.000000	99.765494 
1266.000000	99.764206 
1265.000000	99.762611 
1264.000000	99.761730 
1263.000000	99.761538 
1262.000000	99.761048 
1261.000000	99.759453 
1260.000000	99.757044 
1259.000000	99.754863 
1258.000000	99.753647 
1257.000000	99.753342 
1256.000000	99.753574 
1255.000000	99.754370 
1254.000000	99.756296 
1253.000000	99.759722 
1252.000000	99.763950 
1251.000000	99.767331 
1250.000000	99.768653 
1249.000000	99.768135 
1248.000000	99.766808 
1247.000000	99.765171 
1246.000000	99.762934 
1245.000000	99.759892 
1244.000000	99.756373 
1243.000000	99.752819 
1242.000000	99.749614 
1241.000000	99.747474 
1240.000000	99.747250 
1239.000000	99.748842 
1238.000000	99.750785 
1237.000000	99.751550 
1236.000000	99.751080 
1235.000000	99.750577 
1234.000000	99.750930 
1233.000000	99.751676 
1232.000000	99.751301 
1231.000000	99.748339 
1230.000000	99.742645 
1229.000000	99.736209 
1228.000000	99.732297 
1227.000000	99.732748 
1226.000000	99.736015 
1225.000000	99.738405 
1224.000000	99.737643 
1223.000000	99.734539 
1222.000000	99.731139 
1221.000000	99.728247 
1220.000000	99.725419 
1219.000000	99.722559 
1218.000000	99.720210 
1217.000000	99.718396 
1216.000000	99.716306 
1215.000000	99.713373 
1214.000000	99.709773 
1213.000000	99.705435 
1212.000000	99.699480 
1211.000000	99.691479 
1210.000000	99.682867 
1209.000000	99.676162 
1208.000000	99.672542 
1207.000000	99.670709 
1206.000000	99.668245 
1205.000000	99.663856 
1204.000000	99.658069 
1203.000000	99.652130 
1202.000000	99.646645 
1201.000000	99.641390 
1200.000000	99.636177 
1199.000000	99.631600 
1198.000000	99.628661 
1197.000000	99.627448 
1196.000000	99.626200 
1195.000000	99.622127 
1194.000000	99.613675 
1193.000000	99.602078 
1192.000000	99.590521 
1191.000000	99.581392 
1190.000000	99.574471 
1189.000000	99.568010 
1188.000000	99.561170 
1187.000000	99.554895 
1186.000000	99.550456 
1185.000000	99.547697 
1184.000000	99.544909 
1183.000000	99.540206 
1182.000000	99.533058 
1181.000000	99.524841 
1180.000000	99.517793 
1179.000000	99.512843 
1178.000000	99.508521 
1177.000000	99.502676 
1176.000000	99.495058 
1175.000000	99.487116 
1174.000000	99.479185 
1173.000000	99.469610 
1172.000000	99.457651 
1171.000000	99.445728 
1170.000000	99.436893 
1169.000000	99.430862 
1168.000000	99.424434 
1167.000000	99.415748 
1166.000000	99.406605 
1165.000000	99.400267 
1164.000000	99.398544 
1163.000000	99.401264 
1162.000000	99.406773 
1161.000000	99.412399 
1160.000000	99.415751 
1159.000000	99.416252 
1158.000000	99.414724 
1157.000000	99.411318 
1156.000000	99.405157 
1155.000000	99.396578 
1154.000000	99.388258 
1153.000000	99.382834 
1152.000000	99.380165 
1151.000000	99.377975 
1150.000000	99.374433 
1149.000000	99.369017 
1148.000000	99.361640 
1147.000000	99.352423 
1146.000000	99.342221 
1145.000000	99.332315 
1144.000000	99.323424 
1143.000000	99.315642 
1142.000000	99.309112 
1141.000000	99.304085 
1140.000000	99.300474 
1139.000000	99.297881 
1138.000000	99.295850 
1137.000000	99.293541 
1136.000000	99.289506 
1135.000000	99.282572 
1134.000000	99.272900 
1133.000000	99.261735 
1132.000000	99.250325 
1131.000000	99.239644 
1130.000000	99.230801 
1129.000000	99.224652 
1128.000000	99.220750 
1127.000000	99.217213 
1126.000000	99.212130 
1125.000000	99.205104 
1124.000000	99.197289 
1123.000000	99.190114 
1122.000000	99.183921 
1121.000000	99.177742 
1120.000000	99.170421 
1119.000000	99.162056 
1118.000000	99.154063 
1117.000000	99.147596 
1116.000000	99.142373 
1115.000000	99.137378 
1114.000000	99.132228 
1113.000000	99.127252 
1112.000000	99.122553 
1111.000000	99.117694 
1110.000000	99.112254 
1109.000000	99.106155 
1108.000000	99.099601 
1107.000000	99.093272 
1106.000000	99.088091 
1105.000000	99.083708 
1104.000000	99.077687 
1103.000000	99.067780 
1102.000000	99.055110 
1101.000000	99.043531 
1100.000000	99.035316 
1099.000000	99.029326 
1098.000000	99.023816 
1097.000000	99.019141 
1096.000000	99.016322 
1095.000000	99.014470 
1094.000000	99.011459 
1093.000000	99.006314 
1092.000000	98.999390 
1091.000000	98.990993 
1090.000000	98.981453 
1089.000000	98.971968 
1088.000000	98.963746 
1087.000000	98.956751 
1086.000000	98.950862 
1085.000000	98.947725 
1084.000000	98.949248 
1083.000000	98.953871 
1082.000000	98.956287 
1081.000000	98.951962 
1080.000000	98.940651 
1079.000000	98.925406 
1078.000000	98.909737 
1077.000000	98.896164 
1076.000000	98.886047 
1075.000000	98.879164 
1074.000000	98.873871 
1073.000000	98.868753 
1072.000000	98.863635 
1071.000000	98.858200 
1070.000000	98.850508 
1069.000000	98.838325 
1068.000000	98.821682 
1067.000000	98.803101 
1066.000000	98.785404 
1065.000000	98.770237 
1064.000000	98.758560 
1063.000000	98.750706 
1062.000000	98.744805 
1061.000000	98.736291 
1060.000000	98.720870 
1059.000000	98.698496 
1058.000000	98.673858 
1057.000000	98.652402 
1056.000000	98.636179 
1055.000000	98.623901 
1054.000000	98.613823 
1053.000000	98.604989 
1052.000000	98.595746 
1051.000000	98.583275 
1050.000000	98.566418 
1049.000000	98.547778 
1048.000000	98.530837 
1047.000000	98.515536 
1046.000000	98.498686 
1045.000000	98.478257 
1044.000000	98.455181 
1043.000000	98.431136 
1042.000000	98.407047 
1041.000000	98.384627 
1040.000000	98.367005 
1039.000000	98.355578 
1038.000000	98.347172 
1037.000000	98.336546 
1036.000000	98.321880 
1035.000000	98.306236 
1034.000000	98.293737 
1033.000000	98.285761 
1032.000000	98.280783 
1031.000000	98.276540 
1030.000000	98.272067 
1029.000000	98.268371 
1028.000000	98.267189 
1027.000000	98.268603 
1026.000000	98.270134 
1025.000000	98.268699 
1024.000000	98.263008 
1023.000000	98.253717 
1022.000000	98.242585 
1021.000000	98.232556 
1020.000000	98.227386 
1019.000000	98.229062 
1018.000000	98.235532 
1017.000000	98.242213 
1016.000000	98.245725 
1015.000000	98.245254 
1014.000000	98.241160 
1013.000000	98.234233 
1012.000000	98.226273 
1011.000000	98.219496 
1010.000000	98.214839 
1009.000000	98.212076 
1008.000000	98.211703 
1007.000000	98.215001 
1006.000000	98.221569 
1005.000000	98.228189 
1004.000000	98.231281 
1003.000000	98.230081 
1002.000000	98.226933 
1001.000000	98.225007 
1000.000000	98.226042 
999.000000	 98.229523 
998.000000	 98.233355 
997.000000	 98.235721 
996.000000	 98.236808 
995.000000	 98.238768 
994.000000	 98.244021 
993.000000	 98.253550 
992.000000	 98.266279 
991.000000	 98.279463 
990.000000	 98.290138 
989.000000	 98.297363 
988.000000	 98.303193 
987.000000	 98.310777 
986.000000	 98.321246 
985.000000	 98.332846 
984.000000	 98.343158 
983.000000	 98.351736 
982.000000	 98.360230 
981.000000	 98.370166 
980.000000	 98.381241 
979.000000	 98.392403 
978.000000	 98.404410 
977.000000	 98.419993 
976.000000	 98.440389 
975.000000	 98.462434 
974.000000	 98.481026 
973.000000	 98.494919 
972.000000	 98.508249 
971.000000	 98.525529 
970.000000	 98.546756 
969.000000	 98.568607 
968.000000	 98.589051 
967.000000	 98.609050 
966.000000	 98.630273 
965.000000	 98.652607 
964.000000	 98.673819 
963.000000	 98.690917 
962.000000	 98.702551 
961.000000	 98.711028 
960.000000	 98.721186 
959.000000	 98.735913 
958.000000	 98.753087 
957.000000	 98.768137 
956.000000	 98.779218 
955.000000	 98.788714 
954.000000	 98.800067 
953.000000	 98.814434 
952.000000	 98.830465 
951.000000	 98.845821 
950.000000	 98.858269 
949.000000	 98.866430 
948.000000	 98.870435 
947.000000	 98.871711 
946.000000	 98.871751 
945.000000	 98.871372 
944.000000	 98.871547 
943.000000	 98.874387 
942.000000	 98.882044 
941.000000	 98.894132 
940.000000	 98.906775 
939.000000	 98.915153 
938.000000	 98.917635 
937.000000	 98.917355 
936.000000	 98.919538 
935.000000	 98.927016 
934.000000	 98.938227 
933.000000	 98.949220 
932.000000	 98.957298 
931.000000	 98.963074 
930.000000	 98.969515 
929.000000	 98.978813 
928.000000	 98.989675 
927.000000	 98.997981 
926.000000	 99.000957 
925.000000	 99.000681 
924.000000	 99.002594 
923.000000	 99.010179 
922.000000	 99.021761 
921.000000	 99.032583 
920.000000	 99.039131 
919.000000	 99.041092 
918.000000	 99.040447 
917.000000	 99.040050 
916.000000	 99.042438 
915.000000	 99.048445 
914.000000	 99.056453 
913.000000	 99.063691 
912.000000	 99.068829 
911.000000	 99.073154 
910.000000	 99.079214 
909.000000	 99.088881 
908.000000	 99.102752 
907.000000	 99.120253 
906.000000	 99.139356 
905.000000	 99.156640 
904.000000	 99.168984 
903.000000	 99.176241 
902.000000	 99.182264 
901.000000	 99.192313 
900.000000	 99.208582 
899.000000	 99.228089 
898.000000	 99.244967 
897.000000	 99.255309 
896.000000	 99.259972 
895.000000	 99.263583 
894.000000	 99.270909 
893.000000	 99.283373 
892.000000	 99.298498 
891.000000	 99.312919 
890.000000	 99.326323 
889.000000	 99.341538 
888.000000	 99.360089 
887.000000	 99.378889 
886.000000	 99.393234 
885.000000	 99.402660 
884.000000	 99.411666 
883.000000	 99.424150 
882.000000	 99.438899 
881.000000	 99.451826 
880.000000	 99.460879 
879.000000	 99.466875 
878.000000	 99.470764 
877.000000	 99.472653 
876.000000	 99.473799 
875.000000	 99.477523 
874.000000	 99.486725 
873.000000	 99.500875 
872.000000	 99.516089 
871.000000	 99.528394 
870.000000	 99.537165 
869.000000	 99.545544 
868.000000	 99.557297 
867.000000	 99.573074 
866.000000	 99.589687 
865.000000	 99.603147 
864.000000	 99.612124 
863.000000	 99.618505 
862.000000	 99.625028 
861.000000	 99.632783 
860.000000	 99.641060 
859.000000	 99.649001 
858.000000	 99.656597 
857.000000	 99.664098 
856.000000	 99.671475 
855.000000	 99.679457 
854.000000	 99.690189 
853.000000	 99.704585 
852.000000	 99.718937 
851.000000	 99.726989 
850.000000	 99.726863 
849.000000	 99.723930 
848.000000	 99.724933 
847.000000	 99.730832 
846.000000	 99.737795 
845.000000	 99.743255 
844.000000	 99.747659 
843.000000	 99.751467 
842.000000	 99.754238 
841.000000	 99.756499 
840.000000	 99.759009 
839.000000	 99.759886 
838.000000	 99.755951 
837.000000	 99.747831 
836.000000	 99.740410 
835.000000	 99.736860 
834.000000	 99.735088 
833.000000	 99.731444 
832.000000	 99.724833 
831.000000	 99.715567 
830.000000	 99.704105 
829.000000	 99.694374 
828.000000	 99.694748 
827.000000	 99.709819 
826.000000	 99.731699 
825.000000	 99.745240 
824.000000	 99.743432 
823.000000	 99.733352 
822.000000	 99.726629 
821.000000	 99.728572 
820.000000	 99.738081 
819.000000	 99.752779 
818.000000	 99.770111 
817.000000	 99.785619 
816.000000	 99.793933 
815.000000	 99.792744 
814.000000	 99.785179 
813.000000	 99.777055 
812.000000	 99.770595 
811.000000	 99.760933 
810.000000	 99.740306 
809.000000	 99.706519 
808.000000	 99.666281 
807.000000	 99.628759 
806.000000	 99.596025 
805.000000	 99.561849 
804.000000	 99.520577 
803.000000	 99.475869 
802.000000	 99.439452 
801.000000	 99.421253 
800.000000	 99.421230 
799.000000	 99.429867 
798.000000	 99.436362 
797.000000	 99.437097 
796.000000	 99.435696 
795.000000	 99.435780 
794.000000	 99.436335 
793.000000	 99.435032 
792.000000	 99.433295 
791.000000	 99.435142 
790.000000	 99.441895 
789.000000	 99.450572 
788.000000	 99.457062 
787.000000	 99.458531 
786.000000	 99.453221 
785.000000	 99.440684 
784.000000	 99.422883 
783.000000	 99.403309 
782.000000	 99.384668 
781.000000	 99.368863 
780.000000	 99.358671 
779.000000	 99.356540 
778.000000	 99.360799 
777.000000	 99.365972 
776.000000	 99.368991 
775.000000	 99.373090 
774.000000	 99.383185 
773.000000	 99.398786 
772.000000	 99.414179 
771.000000	 99.425314 
770.000000	 99.433766 
769.000000	 99.442504 
768.000000	 99.449935 
767.000000	 99.451351 
766.000000	 99.446641 
765.000000	 99.443538 
764.000000	 99.450474 
763.000000	 99.467125 
762.000000	 99.484350 
761.000000	 99.493773 
760.000000	 99.495125 
759.000000	 99.493435 
758.000000	 99.492370 
757.000000	 99.492299 
756.000000	 99.492530 
755.000000	 99.492265 
754.000000	 99.490112 
753.000000	 99.485771 
752.000000	 99.482695 
751.000000	 99.486449 
750.000000	 99.499024 
749.000000	 99.515875 
748.000000	 99.529597 
747.000000	 99.536736 
746.000000	 99.539942 
745.000000	 99.543878 
744.000000	 99.550205 
743.000000	 99.557158 
742.000000	 99.563198 
741.000000	 99.569490 
740.000000	 99.578119 
739.000000	 99.588977 
738.000000	 99.599661 
737.000000	 99.608074 
736.000000	 99.613789 
735.000000	 99.617027 
734.000000	 99.618163 
733.000000	 99.619046 
732.000000	 99.623180 
731.000000	 99.632685 
730.000000	 99.645473 
729.000000	 99.657007 
728.000000	 99.664648 
727.000000	 99.668922 
726.000000	 99.671126 
725.000000	 99.671679 
724.000000	 99.671123 
723.000000	 99.670393 
722.000000	 99.669576 
721.000000	 99.668434 
720.000000	 99.668660 
719.000000	 99.673622 
718.000000	 99.684816 
717.000000	 99.699370 
716.000000	 99.711634 
715.000000	 99.717023 
714.000000	 99.714890 
713.000000	 99.708989 
712.000000	 99.705101 
711.000000	 99.706725 
710.000000	 99.712689 
709.000000	 99.719244 
708.000000	 99.723688 
707.000000	 99.725081 
706.000000	 99.722736 
705.000000	 99.716406 
704.000000	 99.708145 
703.000000	 99.701770 
702.000000	 99.699289 
701.000000	 99.699188 
700.000000	 99.698964 
699.000000	 99.697990 
698.000000	 99.697275 
697.000000	 99.697453 
696.000000	 99.697873 
695.000000	 99.697218 
694.000000	 99.694426 
693.000000	 99.689600 
692.000000	 99.684386 
691.000000	 99.681054 
690.000000	 99.681498 
689.000000	 99.687163 
688.000000	 99.698496 
687.000000	 99.712859 
686.000000	 99.724101 
685.000000	 99.727283 
684.000000	 99.723664 
683.000000	 99.719794 
682.000000	 99.721463 
681.000000	 99.729251 
680.000000	 99.739497 
679.000000	 99.747577 
678.000000	 99.750693 
677.000000	 99.749227 
676.000000	 99.746669 
675.000000	 99.746393 
674.000000	 99.748230 
673.000000	 99.749472 
672.000000	 99.748771 
671.000000	 99.747616 
670.000000	 99.748347 
669.000000	 99.751814 
668.000000	 99.755333 
667.000000	 99.755773 
666.000000	 99.754699 
665.000000	 99.753925 
664.000000	 99.754296 
663.000000	 99.756679 
662.000000	 99.760229 
661.000000	 99.762207 
660.000000	 99.761192 
659.000000	 99.758849 
658.000000	 99.757821 
657.000000	 99.758298 
656.000000	 99.758408 
655.000000	 99.757220 
654.000000	 99.756236 
653.000000	 99.757371 
652.000000	 99.760510 
651.000000	 99.763655 
650.000000	 99.764849 

