4000.000000	98.988319 
3999.000000	98.991346 
3998.000000	98.993274 
3997.000000	98.993371 
3996.000000	98.991717 
3995.000000	98.989014 
3994.000000	98.986527 
3993.000000	98.985710 
3992.000000	98.987271 
3991.000000	98.990430 
3990.000000	98.993446 
3989.000000	98.995194 
3988.000000	98.996134 
3987.000000	98.997496 
3986.000000	98.999666 
3985.000000	99.001632 
3984.000000	99.001938 
3983.000000	98.999888 
3982.000000	98.995833 
3981.000000	98.990628 
3980.000000	98.984864 
3979.000000	98.978759 
3978.000000	98.972943 
3977.000000	98.968996 
3976.000000	98.968738 
3975.000000	98.972792 
3974.000000	98.980020 
3973.000000	98.988264 
3972.000000	98.995425 
3971.000000	99.000171 
3970.000000	99.002124 
3969.000000	99.001565 
3968.000000	98.999117 
3967.000000	98.995620 
3966.000000	98.992169 
3965.000000	98.990109 
3964.000000	98.990222 
3963.000000	98.991641 
3962.000000	98.992032 
3961.000000	98.989511 
3960.000000	98.984397 
3959.000000	98.979120 
3958.000000	98.976227 
3957.000000	98.976278 
3956.000000	98.977898 
3955.000000	98.979387 
3954.000000	98.979870 
3953.000000	98.979138 
3952.000000	98.977209 
3951.000000	98.974950 
3950.000000	98.974155 
3949.000000	98.976025 
3948.000000	98.979541 
3947.000000	98.981996 
3946.000000	98.981733 
3945.000000	98.979945 
3944.000000	98.979493 
3943.000000	98.981461 
3942.000000	98.983789 
3941.000000	98.983828 
3940.000000	98.980806 
3939.000000	98.975200 
3938.000000	98.967325 
3937.000000	98.957643 
3936.000000	98.948489 
3935.000000	98.944240 
3934.000000	98.948779 
3933.000000	98.961914 
3932.000000	98.977962 
3931.000000	98.988859 
3930.000000	98.989751 
3929.000000	98.982021 
3928.000000	98.971393 
3927.000000	98.963603 
3926.000000	98.961888 
3925.000000	98.965927 
3924.000000	98.971625 
3923.000000	98.974078 
3922.000000	98.971360 
3921.000000	98.965777 
3920.000000	98.961727 
3919.000000	98.962758 
3918.000000	98.969900 
3917.000000	98.981157 
3916.000000	98.992278 
3915.000000	98.999289 
3914.000000	99.001231 
3913.000000	99.000276 
3912.000000	98.998791 
3911.000000	98.997583 
3910.000000	98.996628 
3909.000000	98.996398 
3908.000000	98.997505 
3907.000000	98.998962 
3906.000000	98.997834 
3905.000000	98.991553 
3904.000000	98.980267 
3903.000000	98.967792 
3902.000000	98.959984 
3901.000000	98.960752 
3900.000000	98.969364 
3899.000000	98.980415 
3898.000000	98.987674 
3897.000000	98.988945 
3896.000000	98.986163 
3895.000000	98.982331 
3894.000000	98.979224 
3893.000000	98.977091 
3892.000000	98.975349 
3891.000000	98.973378 
3890.000000	98.971088 
3889.000000	98.968789 
3888.000000	98.966862 
3887.000000	98.966432 
3886.000000	98.968203 
3885.000000	98.970113 
3884.000000	98.968879 
3883.000000	98.964914 
3882.000000	98.962827 
3881.000000	98.966149 
3880.000000	98.972541 
3879.000000	98.976013 
3878.000000	98.974196 
3877.000000	98.970245 
3876.000000	98.969070 
3875.000000	98.972802 
3874.000000	98.978295 
3873.000000	98.979492 
3872.000000	98.974254 
3871.000000	98.967580 
3870.000000	98.965775 
3869.000000	98.968508 
3868.000000	98.970032 
3867.000000	98.967670 
3866.000000	98.965729 
3865.000000	98.969844 
3864.000000	98.978174 
3863.000000	98.983421 
3862.000000	98.982120 
3861.000000	98.977867 
3860.000000	98.976036 
3859.000000	98.979115 
3858.000000	98.985305 
3857.000000	98.990603 
3856.000000	98.991679 
3855.000000	98.990145 
3854.000000	98.992073 
3853.000000	98.998545 
3852.000000	99.003297 
3851.000000	99.002816 
3850.000000	98.998675 
3849.000000	98.994122 
3848.000000	98.990793 
3847.000000	98.988351 
3846.000000	98.986059 
3845.000000	98.983685 
3844.000000	98.981800 
3843.000000	98.982269 
3842.000000	98.985951 
3841.000000	98.991585 
3840.000000	98.997377 
3839.000000	99.002103 
3838.000000	99.004468 
3837.000000	99.003754 
3836.000000	99.000482 
3835.000000	98.996336 
3834.000000	98.993202 
3833.000000	98.992646 
3832.000000	98.995033 
3831.000000	98.998338 
3830.000000	98.999429 
3829.000000	98.996779 
3828.000000	98.991644 
3827.000000	98.987597 
3826.000000	98.987482 
3825.000000	98.990394 
3824.000000	98.992653 
3823.000000	98.992673 
3822.000000	98.993088 
3821.000000	98.996989 
3820.000000	99.002936 
3819.000000	99.007197 
3818.000000	99.008152 
3817.000000	99.007136 
3816.000000	99.005908 
3815.000000	99.002960 
3814.000000	98.995531 
3813.000000	98.985333 
3812.000000	98.978392 
3811.000000	98.978727 
3810.000000	98.984353 
3809.000000	98.990048 
3808.000000	98.993644 
3807.000000	98.997631 
3806.000000	99.003509 
3805.000000	99.008190 
3804.000000	99.007955 
3803.000000	99.003902 
3802.000000	99.001341 
3801.000000	99.002999 
3800.000000	99.005244 
3799.000000	99.003691 
3798.000000	98.998518 
3797.000000	98.993189 
3796.000000	98.990194 
3795.000000	98.988707 
3794.000000	98.986740 
3793.000000	98.983971 
3792.000000	98.981526 
3791.000000	98.979912 
3790.000000	98.978612 
3789.000000	98.977105 
3788.000000	98.975424 
3787.000000	98.973530 
3786.000000	98.971507 
3785.000000	98.970213 
3784.000000	98.970752 
3783.000000	98.972976 
3782.000000	98.975591 
3781.000000	98.977919 
3780.000000	98.980389 
3779.000000	98.983201 
3778.000000	98.985280 
3777.000000	98.985410 
3776.000000	98.983691 
3775.000000	98.981860 
3774.000000	98.981371 
3773.000000	98.981697 
3772.000000	98.981386 
3771.000000	98.980350 
3770.000000	98.979259 
3769.000000	98.977798 
3768.000000	98.975602 
3767.000000	98.973602 
3766.000000	98.973245 
3765.000000	98.974730 
3764.000000	98.976099 
3763.000000	98.975024 
3762.000000	98.971854 
3761.000000	98.970090 
3760.000000	98.972366 
3759.000000	98.977308 
3758.000000	98.981855 
3757.000000	98.984994 
3756.000000	98.986845 
3755.000000	98.987180 
3754.000000	98.986532 
3753.000000	98.987108 
3752.000000	98.990095 
3751.000000	98.992365 
3750.000000	98.991232 
3749.000000	98.990146 
3748.000000	98.992337 
3747.000000	98.995089 
3746.000000	98.994872 
3745.000000	98.992930 
3744.000000	98.991726 
3743.000000	98.989260 
3742.000000	98.982678 
3741.000000	98.973085 
3740.000000	98.963226 
3739.000000	98.954014 
3738.000000	98.946293 
3737.000000	98.944178 
3736.000000	98.951195 
3735.000000	98.962668 
3734.000000	98.968554 
3733.000000	98.965776 
3732.000000	98.960202 
3731.000000	98.957337 
3730.000000	98.957002 
3729.000000	98.956276 
3728.000000	98.954801 
3727.000000	98.954589 
3726.000000	98.955432 
3725.000000	98.954248 
3724.000000	98.950216 
3723.000000	98.947091 
3722.000000	98.948365 
3721.000000	98.953623 
3720.000000	98.958940 
3719.000000	98.959986 
3718.000000	98.955654 
3717.000000	98.948159 
3716.000000	98.939497 
3715.000000	98.929858 
3714.000000	98.919545 
3713.000000	98.911202 
3712.000000	98.907581 
3711.000000	98.907944 
3710.000000	98.908346 
3709.000000	98.904497 
3708.000000	98.894468 
3707.000000	98.879566 
3706.000000	98.863137 
3705.000000	98.848691 
3704.000000	98.838088 
3703.000000	98.830624 
3702.000000	98.823234 
3701.000000	98.813175 
3700.000000	98.800490 
3699.000000	98.787145 
3698.000000	98.775379 
3697.000000	98.767308 
3696.000000	98.763766 
3695.000000	98.763773 
3694.000000	98.766026 
3693.000000	98.769722 
3692.000000	98.773082 
3691.000000	98.772805 
3690.000000	98.766651 
3689.000000	98.756530 
3688.000000	98.747530 
3687.000000	98.742651 
3686.000000	98.740457 
3685.000000	98.739194 
3684.000000	98.738971 
3683.000000	98.739532 
3682.000000	98.738579 
3681.000000	98.733859 
3680.000000	98.725759 
3679.000000	98.714875 
3678.000000	98.699915 
3677.000000	98.682260 
3676.000000	98.669515 
3675.000000	98.666032 
3674.000000	98.666080 
3673.000000	98.661899 
3672.000000	98.651529 
3671.000000	98.640325 
3670.000000	98.633977 
3669.000000	98.630482 
3668.000000	98.624941 
3667.000000	98.617338 
3666.000000	98.610358 
3665.000000	98.604887 
3664.000000	98.598918 
3663.000000	98.589858 
3662.000000	98.577510 
3661.000000	98.563845 
3660.000000	98.550479 
3659.000000	98.537291 
3658.000000	98.524060 
3657.000000	98.512254 
3656.000000	98.503979 
3655.000000	98.499417 
3654.000000	98.496536 
3653.000000	98.492198 
3652.000000	98.482914 
3651.000000	98.466388 
3650.000000	98.444181 
3649.000000	98.422924 
3648.000000	98.409843 
3647.000000	98.406204 
3646.000000	98.407527 
3645.000000	98.409366 
3644.000000	98.410513 
3643.000000	98.411838 
3642.000000	98.414264 
3641.000000	98.416856 
3640.000000	98.417282 
3639.000000	98.413910 
3638.000000	98.406898 
3637.000000	98.397398 
3636.000000	98.386341 
3635.000000	98.374608 
3634.000000	98.363304 
3633.000000	98.352870 
3632.000000	98.342380 
3631.000000	98.330466 
3630.000000	98.317636 
3629.000000	98.305446 
3628.000000	98.293182 
3627.000000	98.281176 
3626.000000	98.272913 
3625.000000	98.270872 
3624.000000	98.274205 
3623.000000	98.279823 
3622.000000	98.284832 
3621.000000	98.289529 
3620.000000	98.296406 
3619.000000	98.305630 
3618.000000	98.314593 
3617.000000	98.322621 
3616.000000	98.331964 
3615.000000	98.345318 
3614.000000	98.362678 
3613.000000	98.380514 
3612.000000	98.395094 
3611.000000	98.406196 
3610.000000	98.416185 
3609.000000	98.426279 
3608.000000	98.434822 
3607.000000	98.440142 
3606.000000	98.444200 
3605.000000	98.450829 
3604.000000	98.461720 
3603.000000	98.475465 
3602.000000	98.489233 
3601.000000	98.501102 
3600.000000	98.509846 
3599.000000	98.514213 
3598.000000	98.514445 
3597.000000	98.513083 
3596.000000	98.513414 
3595.000000	98.517802 
3594.000000	98.525837 
3593.000000	98.534609 
3592.000000	98.541120 
3591.000000	98.543455 
3590.000000	98.542116 
3589.000000	98.540752 
3588.000000	98.543568 
3587.000000	98.549167 
3586.000000	98.551888 
3585.000000	98.549584 
3584.000000	98.545783 
3583.000000	98.544766 
3582.000000	98.547657 
3581.000000	98.552087 
3580.000000	98.554726 
3579.000000	98.554033 
3578.000000	98.550875 
3577.000000	98.547424 
3576.000000	98.545479 
3575.000000	98.545578 
3574.000000	98.547037 
3573.000000	98.548247 
3572.000000	98.547680 
3571.000000	98.544399 
3570.000000	98.537865 
3569.000000	98.529089 
3568.000000	98.521913 
3567.000000	98.519720 
3566.000000	98.521180 
3565.000000	98.522583 
3564.000000	98.522782 
3563.000000	98.523830 
3562.000000	98.528164 
3561.000000	98.535419 
3560.000000	98.542208 
3559.000000	98.545006 
3558.000000	98.543494 
3557.000000	98.540639 
3556.000000	98.539713 
3555.000000	98.541304 
3554.000000	98.543336 
3553.000000	98.543128 
3552.000000	98.539400 
3551.000000	98.532837 
3550.000000	98.524929 
3549.000000	98.516857 
3548.000000	98.510015 
3547.000000	98.506082 
3546.000000	98.505790 
3545.000000	98.507429 
3544.000000	98.508309 
3543.000000	98.507750 
3542.000000	98.507910 
3541.000000	98.511170 
3540.000000	98.517584 
3539.000000	98.524682 
3538.000000	98.529608 
3537.000000	98.531118 
3536.000000	98.529832 
3535.000000	98.527314 
3534.000000	98.524696 
3533.000000	98.522410 
3532.000000	98.520571 
3531.000000	98.519361 
3530.000000	98.518413 
3529.000000	98.516221 
3528.000000	98.511437 
3527.000000	98.505255 
3526.000000	98.501436 
3525.000000	98.502983 
3524.000000	98.508909 
3523.000000	98.514915 
3522.000000	98.517641 
3521.000000	98.517328 
3520.000000	98.516579 
3519.000000	98.517526 
3518.000000	98.520572 
3517.000000	98.524696 
3516.000000	98.528124 
3515.000000	98.529340 
3514.000000	98.527970 
3513.000000	98.524916 
3512.000000	98.521520 
3511.000000	98.518660 
3510.000000	98.516521 
3509.000000	98.515018 
3508.000000	98.513998 
3507.000000	98.513070 
3506.000000	98.511782 
3505.000000	98.510036 
3504.000000	98.508235 
3503.000000	98.507038 
3502.000000	98.507506 
3501.000000	98.511142 
3500.000000	98.518538 
3499.000000	98.527483 
3498.000000	98.533234 
3497.000000	98.531973 
3496.000000	98.524214 
3495.000000	98.514362 
3494.000000	98.507036 
3493.000000	98.504067 
3492.000000	98.504696 
3491.000000	98.507321 
3490.000000	98.510621 
3489.000000	98.513891 
3488.000000	98.517064 
3487.000000	98.520149 
3486.000000	98.522425 
3485.000000	98.522623 
3484.000000	98.520212 
3483.000000	98.516301 
3482.000000	98.512710 
3481.000000	98.510289 
3480.000000	98.508619 
3479.000000	98.506947 
3478.000000	98.504731 
3477.000000	98.501676 
3476.000000	98.498365 
3475.000000	98.496864 
3474.000000	98.499377 
3473.000000	98.505434 
3472.000000	98.511207 
3471.000000	98.512804 
3470.000000	98.510061 
3469.000000	98.506225 
3468.000000	98.504202 
3467.000000	98.504004 
3466.000000	98.504053 
3465.000000	98.503694 
3464.000000	98.503421 
3463.000000	98.503287 
3462.000000	98.502355 
3461.000000	98.500100 
3460.000000	98.497448 
3459.000000	98.495780 
3458.000000	98.495232 
3457.000000	98.494488 
3456.000000	98.492405 
3455.000000	98.489505 
3454.000000	98.487427 
3453.000000	98.487176 
3452.000000	98.487909 
3451.000000	98.487625 
3450.000000	98.484925 
3449.000000	98.480090 
3448.000000	98.474479 
3447.000000	98.469099 
3446.000000	98.464102 
3445.000000	98.459775 
3444.000000	98.457225 
3443.000000	98.457296 
3442.000000	98.458999 
3441.000000	98.459831 
3440.000000	98.458118 
3439.000000	98.454508 
3438.000000	98.450616 
3437.000000	98.446728 
3436.000000	98.441870 
3435.000000	98.436174 
3434.000000	98.431984 
3433.000000	98.432067 
3432.000000	98.436729 
3431.000000	98.443387 
3430.000000	98.448965 
3429.000000	98.452371 
3428.000000	98.454485 
3427.000000	98.455844 
3426.000000	98.455012 
3425.000000	98.449827 
3424.000000	98.440352 
3423.000000	98.429986 
3422.000000	98.422996 
3421.000000	98.421032 
3420.000000	98.422564 
3419.000000	98.425396 
3418.000000	98.428721 
3417.000000	98.432604 
3416.000000	98.436553 
3415.000000	98.439351 
3414.000000	98.439996 
3413.000000	98.438436 
3412.000000	98.435612 
3411.000000	98.432944 
3410.000000	98.431349 
3409.000000	98.430354 
3408.000000	98.428386 
3407.000000	98.424305 
3406.000000	98.418761 
3405.000000	98.413890 
3404.000000	98.411669 
3403.000000	98.412450 
3402.000000	98.414775 
3401.000000	98.416757 
3400.000000	98.417820 
3399.000000	98.419087 
3398.000000	98.421804 
3397.000000	98.425514 
3396.000000	98.428204 
3395.000000	98.428156 
3394.000000	98.425126 
3393.000000	98.419917 
3392.000000	98.413752 
3391.000000	98.408317 
3390.000000	98.405622 
3389.000000	98.406922 
3388.000000	98.411755 
3387.000000	98.418370 
3386.000000	98.425117 
3385.000000	98.431308 
3384.000000	98.436789 
3383.000000	98.440937 
3382.000000	98.442236 
3381.000000	98.439318 
3380.000000	98.432775 
3379.000000	98.425767 
3378.000000	98.421907 
3377.000000	98.422116 
3376.000000	98.424070 
3375.000000	98.425072 
3374.000000	98.424969 
3373.000000	98.425825 
3372.000000	98.429230 
3371.000000	98.434586 
3370.000000	98.439700 
3369.000000	98.442351 
3368.000000	98.441594 
3367.000000	98.438512 
3366.000000	98.435943 
3365.000000	98.436556 
3364.000000	98.440584 
3363.000000	98.445612 
3362.000000	98.448789 
3361.000000	98.448911 
3360.000000	98.446356 
3359.000000	98.441960 
3358.000000	98.436913 
3357.000000	98.433382 
3356.000000	98.433773 
3355.000000	98.438386 
3354.000000	98.444227 
3353.000000	98.447145 
3352.000000	98.445527 
3351.000000	98.441781 
3350.000000	98.440090 
3349.000000	98.442739 
3348.000000	98.448531 
3347.000000	98.454200 
3346.000000	98.457094 
3345.000000	98.456906 
3344.000000	98.455530 
3343.000000	98.455439 
3342.000000	98.457624 
3341.000000	98.460648 
3340.000000	98.461807 
3339.000000	98.459654 
3338.000000	98.455587 
3337.000000	98.452792 
3336.000000	98.453447 
3335.000000	98.456997 
3334.000000	98.461278 
3333.000000	98.465033 
3332.000000	98.468826 
3331.000000	98.473360 
3330.000000	98.477512 
3329.000000	98.478894 
3328.000000	98.476474 
3327.000000	98.471961 
3326.000000	98.468023 
3325.000000	98.465534 
3324.000000	98.463146 
3323.000000	98.459618 
3322.000000	98.455889 
3321.000000	98.454451 
3320.000000	98.456910 
3319.000000	98.462444 
3318.000000	98.468565 
3317.000000	98.473046 
3316.000000	98.475012 
3315.000000	98.474794 
3314.000000	98.473605 
3313.000000	98.473554 
3312.000000	98.477005 
3311.000000	98.484769 
3310.000000	98.494728 
3309.000000	98.503007 
3308.000000	98.506878 
3307.000000	98.506381 
3306.000000	98.503386 
3305.000000	98.499995 
3304.000000	98.497974 
3303.000000	98.498347 
3302.000000	98.500355 
3301.000000	98.501406 
3300.000000	98.499373 
3299.000000	98.495194 
3298.000000	98.492386 
3297.000000	98.493679 
3296.000000	98.498367 
3295.000000	98.503045 
3294.000000	98.504654 
3293.000000	98.502892 
3292.000000	98.500105 
3291.000000	98.498814 
3290.000000	98.499101 
3289.000000	98.498735 
3288.000000	98.496067 
3287.000000	98.492232 
3286.000000	98.489765 
3285.000000	98.489523 
3284.000000	98.490094 
3283.000000	98.490199 
3282.000000	98.490512 
3281.000000	98.492602 
3280.000000	98.496944 
3279.000000	98.502510 
3278.000000	98.507616 
3277.000000	98.510610 
3276.000000	98.510343 
3275.000000	98.506955 
3274.000000	98.502267 
3273.000000	98.498845 
3272.000000	98.498373 
3271.000000	98.500838 
3270.000000	98.504950 
3269.000000	98.509141 
3268.000000	98.512289 
3267.000000	98.513778 
3266.000000	98.513160 
3265.000000	98.510312 
3264.000000	98.506323 
3263.000000	98.503870 
3262.000000	98.505704 
3261.000000	98.512089 
3260.000000	98.520082 
3259.000000	98.525743 
3258.000000	98.527134 
3257.000000	98.525255 
3256.000000	98.522547 
3255.000000	98.520868 
3254.000000	98.520762 
3253.000000	98.522139 
3252.000000	98.525078 
3251.000000	98.529655 
3250.000000	98.535079 
3249.000000	98.539607 
3248.000000	98.541742 
3247.000000	98.541322 
3246.000000	98.539274 
3245.000000	98.536699 
3244.000000	98.534532 
3243.000000	98.533528 
3242.000000	98.533670 
3241.000000	98.533793 
3240.000000	98.532782 
3239.000000	98.531417 
3238.000000	98.532370 
3237.000000	98.537937 
3236.000000	98.547899 
3235.000000	98.559415 
3234.000000	98.568550 
3233.000000	98.572309 
3232.000000	98.570365 
3231.000000	98.565493 
3230.000000	98.561771 
3229.000000	98.561609 
3228.000000	98.564289 
3227.000000	98.567088 
3226.000000	98.567531 
3225.000000	98.564959 
3224.000000	98.560814 
3223.000000	98.557672 
3222.000000	98.557375 
3221.000000	98.559609 
3220.000000	98.562459 
3219.000000	98.564403 
3218.000000	98.565582 
3217.000000	98.567391 
3216.000000	98.571360 
3215.000000	98.578029 
3214.000000	98.585877 
3213.000000	98.591478 
3212.000000	98.591907 
3211.000000	98.587497 
3210.000000	98.581586 
3209.000000	98.577311 
3208.000000	98.575422 
3207.000000	98.575218 
3206.000000	98.576230 
3205.000000	98.578107 
3204.000000	98.579942 
3203.000000	98.580940 
3202.000000	98.581433 
3201.000000	98.582324 
3200.000000	98.583795 
3199.000000	98.585256 
3198.000000	98.586364 
3197.000000	98.587497 
3196.000000	98.589396 
3195.000000	98.592723 
3194.000000	98.597581 
3193.000000	98.602880 
3192.000000	98.606494 
3191.000000	98.606797 
3190.000000	98.604066 
3189.000000	98.600048 
3188.000000	98.596461 
3187.000000	98.594383 
3186.000000	98.594652 
3185.000000	98.597730 
3184.000000	98.602933 
3183.000000	98.608336 
3182.000000	98.612008 
3181.000000	98.613473 
3180.000000	98.614051 
3179.000000	98.615666 
3178.000000	98.618955 
3177.000000	98.622499 
3176.000000	98.624376 
3175.000000	98.624564 
3174.000000	98.625032 
3173.000000	98.627019 
3172.000000	98.629017 
3171.000000	98.628466 
3170.000000	98.625169 
3169.000000	98.621878 
3168.000000	98.621281 
3167.000000	98.623256 
3166.000000	98.625531 
3165.000000	98.626401 
3164.000000	98.626248 
3163.000000	98.626688 
3162.000000	98.628915 
3161.000000	98.632950 
3160.000000	98.637964 
3159.000000	98.642786 
3158.000000	98.646168 
3157.000000	98.647187 
3156.000000	98.645978 
3155.000000	98.643837 
3154.000000	98.641989 
3153.000000	98.640212 
3152.000000	98.637362 
3151.000000	98.633511 
3150.000000	98.630839 
3149.000000	98.631758 
3148.000000	98.636464 
3147.000000	98.642862 
3146.000000	98.648619 
3145.000000	98.652749 
3144.000000	98.655499 
3143.000000	98.657550 
3142.000000	98.659560 
3141.000000	98.661849 
3140.000000	98.664003 
3139.000000	98.664972 
3138.000000	98.663946 
3137.000000	98.661327 
3136.000000	98.658813 
3135.000000	98.658394 
3134.000000	98.660926 
3133.000000	98.665430 
3132.000000	98.669844 
3131.000000	98.672670 
3130.000000	98.673897 
3129.000000	98.674433 
3128.000000	98.675077 
3127.000000	98.676231 
3126.000000	98.678059 
3125.000000	98.680223 
3124.000000	98.681552 
3123.000000	98.680712 
3122.000000	98.677650 
3121.000000	98.674055 
3120.000000	98.671968 
3119.000000	98.672093 
3118.000000	98.673635 
3117.000000	98.675586 
3116.000000	98.677783 
3115.000000	98.680633 
3114.000000	98.684113 
3113.000000	98.687363 
3112.000000	98.689276 
3111.000000	98.689439 
3110.000000	98.688527 
3109.000000	98.687872 
3108.000000	98.688486 
3107.000000	98.690248 
3106.000000	98.692004 
3105.000000	98.692750 
3104.000000	98.692843 
3103.000000	98.693723 
3102.000000	98.696335 
3101.000000	98.700102 
3100.000000	98.703745 
3099.000000	98.706729 
3098.000000	98.709397 
3097.000000	98.711973 
3096.000000	98.714183 
3095.000000	98.715816 
3094.000000	98.716914 
3093.000000	98.717215 
3092.000000	98.716096 
3091.000000	98.713612 
3090.000000	98.711153 
3089.000000	98.710442 
3088.000000	98.711832 
3087.000000	98.713932 
3086.000000	98.714976 
3085.000000	98.714316 
3084.000000	98.712551 
3083.000000	98.710487 
3082.000000	98.708421 
3081.000000	98.706545 
3080.000000	98.705724 
3079.000000	98.707340 
3078.000000	98.712202 
3077.000000	98.719736 
3076.000000	98.728128 
3075.000000	98.734912 
3074.000000	98.737643 
3073.000000	98.735213 
3072.000000	98.729279 
3071.000000	98.723672 
3070.000000	98.721268 
3069.000000	98.721469 
3068.000000	98.721593 
3067.000000	98.720723 
3066.000000	98.721168 
3065.000000	98.725683 
3064.000000	98.733874 
3063.000000	98.741870 
3062.000000	98.745301 
3061.000000	98.742515 
3060.000000	98.735623 
3059.000000	98.728927 
3058.000000	98.726034 
3057.000000	98.727894 
3056.000000	98.733075 
3055.000000	98.739436 
3054.000000	98.745125 
3053.000000	98.748422 
3052.000000	98.747818 
3051.000000	98.743063 
3050.000000	98.736153 
3049.000000	98.730808 
3048.000000	98.730295 
3047.000000	98.734864 
3046.000000	98.740925 
3045.000000	98.743445 
3044.000000	98.740302 
3043.000000	98.734360 
3042.000000	98.730568 
3041.000000	98.730905 
3040.000000	98.732843 
3039.000000	98.732664 
3038.000000	98.729196 
3037.000000	98.723957 
3036.000000	98.718623 
3035.000000	98.713376 
3034.000000	98.707446 
3033.000000	98.700457 
3032.000000	98.693016 
3031.000000	98.686197 
3030.000000	98.680595 
3029.000000	98.676082 
3028.000000	98.672642 
3027.000000	98.670996 
3026.000000	98.671546 
3025.000000	98.672599 
3024.000000	98.670729 
3023.000000	98.663736 
3022.000000	98.652815 
3021.000000	98.640967 
3020.000000	98.629652 
3019.000000	98.617946 
3018.000000	98.605115 
3017.000000	98.592750 
3016.000000	98.583296 
3015.000000	98.576754 
3014.000000	98.570090 
3013.000000	98.560463 
3012.000000	98.548394 
3011.000000	98.536921 
3010.000000	98.527948 
3009.000000	98.520441 
3008.000000	98.512221 
3007.000000	98.502415 
3006.000000	98.491608 
3005.000000	98.480504 
3004.000000	98.469457 
3003.000000	98.458846 
3002.000000	98.448947 
3001.000000	98.439434 
3000.000000	98.429772 
2999.000000	98.420222 
2998.000000	98.412040 
2997.000000	98.406453 
2996.000000	98.403404 
2995.000000	98.400713 
2994.000000	98.394282 
2993.000000	98.380240 
2992.000000	98.358264 
2991.000000	98.332810 
2990.000000	98.310370 
2989.000000	98.295467 
2988.000000	98.289454 
2987.000000	98.291918 
2986.000000	98.301319 
2985.000000	98.314261 
2984.000000	98.326031 
2983.000000	98.333282 
2982.000000	98.335850 
2981.000000	98.335743 
2980.000000	98.334948 
2979.000000	98.334472 
2978.000000	98.334426 
2977.000000	98.334138 
2976.000000	98.332552 
2975.000000	98.329306 
2974.000000	98.325550 
2973.000000	98.323514 
2972.000000	98.325228 
2971.000000	98.331383 
2970.000000	98.340856 
2969.000000	98.351318 
2968.000000	98.360930 
2967.000000	98.369746 
2966.000000	98.379118 
2965.000000	98.389727 
2964.000000	98.400754 
2963.000000	98.411003 
2962.000000	98.420085 
2961.000000	98.428167 
2960.000000	98.435181 
2959.000000	98.440812 
2958.000000	98.445001 
2957.000000	98.448112 
2956.000000	98.450880 
2955.000000	98.454416 
2954.000000	98.459942 
2953.000000	98.468050 
2952.000000	98.478083 
2951.000000	98.488239 
2950.000000	98.496346 
2949.000000	98.500975 
2948.000000	98.502327 
2947.000000	98.502180 
2946.000000	98.502737 
2945.000000	98.505427 
2944.000000	98.510504 
2943.000000	98.517042 
2942.000000	98.522901 
2941.000000	98.525603 
2940.000000	98.524437 
2939.000000	98.521871 
2938.000000	98.522085 
2937.000000	98.527790 
2936.000000	98.538404 
2935.000000	98.550666 
2934.000000	98.560465 
2933.000000	98.564806 
2932.000000	98.563495 
2931.000000	98.559119 
2930.000000	98.554809 
2929.000000	98.552058 
2928.000000	98.550895 
2927.000000	98.551088 
2926.000000	98.551854 
2925.000000	98.551181 
2924.000000	98.547421 
2923.000000	98.541563 
2922.000000	98.536274 
2921.000000	98.532476 
2920.000000	98.528534 
2919.000000	98.523091 
2918.000000	98.516979 
2917.000000	98.511531 
2916.000000	98.506492 
2915.000000	98.500700 
2914.000000	98.493982 
2913.000000	98.487447 
2912.000000	98.482441 
2911.000000	98.479753 
2910.000000	98.479149 
2909.000000	98.479197 
2908.000000	98.478080 
2907.000000	98.475066 
2906.000000	98.470499 
2905.000000	98.464220 
2904.000000	98.455211 
2903.000000	98.443853 
2902.000000	98.433829 
2901.000000	98.431011 
2900.000000	98.438637 
2899.000000	98.454771 
2898.000000	98.472932 
2897.000000	98.486120 
2896.000000	98.491524 
2895.000000	98.492108 
2894.000000	98.493313 
2893.000000	98.497895 
2892.000000	98.504428 
2891.000000	98.510228 
2890.000000	98.514232 
2889.000000	98.516723 
2888.000000	98.517996 
2887.000000	98.518544 
2886.000000	98.519573 
2885.000000	98.522056 
2884.000000	98.525862 
2883.000000	98.530777 
2882.000000	98.537720 
2881.000000	98.547682 
2880.000000	98.559773 
2879.000000	98.571536 
2878.000000	98.581240 
2877.000000	98.589097 
2876.000000	98.596233 
2875.000000	98.603285 
2874.000000	98.610088 
2873.000000	98.616062 
2872.000000	98.620562 
2871.000000	98.623263 
2870.000000	98.624631 
2869.000000	98.626172 
2868.000000	98.630097 
2867.000000	98.638201 
2866.000000	98.650256 
2865.000000	98.663530 
2864.000000	98.674721 
2863.000000	98.682728 
2862.000000	98.688968 
2861.000000	98.695015 
2860.000000	98.701051 
2859.000000	98.707078 
2858.000000	98.714116 
2857.000000	98.722846 
2856.000000	98.731848 
2855.000000	98.738685 
2854.000000	98.742637 
2853.000000	98.745355 
2852.000000	98.748793 
2851.000000	98.753416 
2850.000000	98.758557 
2849.000000	98.763656 
2848.000000	98.768674 
2847.000000	98.773675 
2846.000000	98.778421 
2845.000000	98.782378 
2844.000000	98.785069 
2843.000000	98.786448 
2842.000000	98.786913 
2841.000000	98.787072 
2840.000000	98.787752 
2839.000000	98.790029 
2838.000000	98.794499 
2837.000000	98.800198 
2836.000000	98.804923 
2835.000000	98.807262 
2834.000000	98.808044 
2833.000000	98.809257 
2832.000000	98.811726 
2831.000000	98.814365 
2830.000000	98.815588 
2829.000000	98.814989 
2828.000000	98.813739 
2827.000000	98.813700 
2826.000000	98.816125 
2825.000000	98.820747 
2824.000000	98.825934 
2823.000000	98.829845 
2822.000000	98.831587 
2821.000000	98.831519 
2820.000000	98.830785 
2819.000000	98.830569 
2818.000000	98.831313 
2817.000000	98.832401 
2816.000000	98.832857 
2815.000000	98.832454 
2814.000000	98.831835 
2813.000000	98.831563 
2812.000000	98.831668 
2811.000000	98.832371 
2810.000000	98.834497 
2809.000000	98.838501 
2808.000000	98.843436 
2807.000000	98.847548 
2806.000000	98.849764 
2805.000000	98.850219 
2804.000000	98.849633 
2803.000000	98.848825 
2802.000000	98.848653 
2801.000000	98.849658 
2800.000000	98.851498 
2799.000000	98.853127 
2798.000000	98.853700 
2797.000000	98.853061 
2796.000000	98.851398 
2795.000000	98.849004 
2794.000000	98.846671 
2793.000000	98.845782 
2792.000000	98.847282 
2791.000000	98.850506 
2790.000000	98.853639 
2789.000000	98.855696 
2788.000000	98.857656 
2787.000000	98.861063 
2786.000000	98.865673 
2785.000000	98.869139 
2784.000000	98.869282 
2783.000000	98.866152 
2782.000000	98.861719 
2781.000000	98.858199 
2780.000000	98.857090 
2779.000000	98.859021 
2778.000000	98.863408 
2777.000000	98.868367 
2776.000000	98.871881 
2775.000000	98.873422 
2774.000000	98.874024 
2773.000000	98.874888 
2772.000000	98.876434 
2771.000000	98.878488 
2770.000000	98.880484 
2769.000000	98.881394 
2768.000000	98.880451 
2767.000000	98.878450 
2766.000000	98.877551 
2765.000000	98.879021 
2764.000000	98.881502 
2763.000000	98.882138 
2762.000000	98.879470 
2761.000000	98.874856 
2760.000000	98.871154 
2759.000000	98.870315 
2758.000000	98.872282 
2757.000000	98.875855 
2756.000000	98.880047 
2755.000000	98.884203 
2754.000000	98.887135 
2753.000000	98.887310 
2752.000000	98.884680 
2751.000000	98.881766 
2750.000000	98.881735 
2749.000000	98.885222 
2748.000000	98.889680 
2747.000000	98.891968 
2746.000000	98.891031 
2745.000000	98.888103 
2744.000000	98.885163 
2743.000000	98.883571 
2742.000000	98.883638 
2741.000000	98.884931 
2740.000000	98.886948 
2739.000000	98.889414 
2738.000000	98.891907 
2737.000000	98.893767 
2736.000000	98.894942 
2735.000000	98.896342 
2734.000000	98.898398 
2733.000000	98.899684 
2732.000000	98.898314 
2731.000000	98.894676 
2730.000000	98.891352 
2729.000000	98.890009 
2728.000000	98.889755 
2727.000000	98.889181 
2726.000000	98.888614 
2725.000000	98.889263 
2724.000000	98.891186 
2723.000000	98.893457 
2722.000000	98.895730 
2721.000000	98.898298 
2720.000000	98.900831 
2719.000000	98.902269 
2718.000000	98.902108 
2717.000000	98.900933 
2716.000000	98.899613 
2715.000000	98.898656 
2714.000000	98.898421 
2713.000000	98.899174 
2712.000000	98.900611 
2711.000000	98.901901 
2710.000000	98.902622 
2709.000000	98.903318 
2708.000000	98.904702 
2707.000000	98.906394 
2706.000000	98.906934 
2705.000000	98.905366 
2704.000000	98.902681 
2703.000000	98.901240 
2702.000000	98.902478 
2701.000000	98.905435 
2700.000000	98.908005 
2699.000000	98.909418 
2698.000000	98.910843 
2697.000000	98.913421 
2696.000000	98.916443 
2695.000000	98.917994 
2694.000000	98.917121 
2693.000000	98.914891 
2692.000000	98.913361 
2691.000000	98.913716 
2690.000000	98.915355 
2689.000000	98.916646 
2688.000000	98.916678 
2687.000000	98.916298 
2686.000000	98.917273 
2685.000000	98.920348 
2684.000000	98.924239 
2683.000000	98.926508 
2682.000000	98.925394 
2681.000000	98.921018 
2680.000000	98.915272 
2679.000000	98.910642 
2678.000000	98.908861 
2677.000000	98.910418 
2676.000000	98.914989 
2675.000000	98.921734 
2674.000000	98.928925 
2673.000000	98.934051 
2672.000000	98.935282 
2671.000000	98.932841 
2670.000000	98.928416 
2669.000000	98.923473 
2668.000000	98.918812 
2667.000000	98.915399 
2666.000000	98.914255 
2665.000000	98.915037 
2664.000000	98.915696 
2663.000000	98.914444 
2662.000000	98.911835 
2661.000000	98.910364 
2660.000000	98.911980 
2659.000000	98.916231 
2658.000000	98.920820 
2657.000000	98.923978 
2656.000000	98.926162 
2655.000000	98.929026 
2654.000000	98.932658 
2653.000000	98.934829 
2652.000000	98.933860 
2651.000000	98.931371 
2650.000000	98.930550 
2649.000000	98.931853 
2648.000000	98.932407 
2647.000000	98.930298 
2646.000000	98.927750 
2645.000000	98.928556 
2644.000000	98.933206 
2643.000000	98.938052 
2642.000000	98.939189 
2641.000000	98.936252 
2640.000000	98.932331 
2639.000000	98.930774 
2638.000000	98.932244 
2637.000000	98.934646 
2636.000000	98.935738 
2635.000000	98.935379 
2634.000000	98.934809 
2633.000000	98.934385 
2632.000000	98.933456 
2631.000000	98.932488 
2630.000000	98.933437 
2629.000000	98.936907 
2628.000000	98.940215 
2627.000000	98.939885 
2626.000000	98.935627 
2625.000000	98.930631 
2624.000000	98.928209 
2623.000000	98.929188 
2622.000000	98.932281 
2621.000000	98.935624 
2620.000000	98.937681 
2619.000000	98.937789 
2618.000000	98.936614 
2617.000000	98.935755 
2616.000000	98.936489 
2615.000000	98.938909 
2614.000000	98.942237 
2613.000000	98.945643 
2612.000000	98.948610 
2611.000000	98.950747 
2610.000000	98.951590 
2609.000000	98.950748 
2608.000000	98.948298 
2607.000000	98.945041 
2606.000000	98.942405 
2605.000000	98.942033 
2604.000000	98.944931 
2603.000000	98.950291 
2602.000000	98.955277 
2601.000000	98.957186 
2600.000000	98.956436 
2599.000000	98.956323 
2598.000000	98.958707 
2597.000000	98.960852 
2596.000000	98.958126 
2595.000000	98.949461 
2594.000000	98.938550 
2593.000000	98.929833 
2592.000000	98.925143 
2591.000000	98.924431 
2590.000000	98.927479 
2589.000000	98.933354 
2588.000000	98.939405 
2587.000000	98.942547 
2586.000000	98.941707 
2585.000000	98.938589 
2584.000000	98.936301 
2583.000000	98.937237 
2582.000000	98.941429 
2581.000000	98.946403 
2580.000000	98.949113 
2579.000000	98.948416 
2578.000000	98.945463 
2577.000000	98.941983 
2576.000000	98.939034 
2575.000000	98.937207 
2574.000000	98.936842 
2573.000000	98.937692 
2572.000000	98.939231 
2571.000000	98.941422 
2570.000000	98.944240 
2569.000000	98.946487 
2568.000000	98.946390 
2567.000000	98.943636 
2566.000000	98.939706 
2565.000000	98.936022 
2564.000000	98.933126 
2563.000000	98.931894 
2562.000000	98.933735 
2561.000000	98.938445 
2560.000000	98.942951 
2559.000000	98.943476 
2558.000000	98.938848 
2557.000000	98.931579 
2556.000000	98.926395 
2555.000000	98.927516 
2554.000000	98.935760 
2553.000000	98.947404 
2552.000000	98.956714 
2551.000000	98.960216 
2550.000000	98.958013 
2549.000000	98.951324 
2548.000000	98.940631 
2547.000000	98.927086 
2546.000000	98.914354 
2545.000000	98.907464 
2544.000000	98.909503 
2543.000000	98.919079 
2542.000000	98.930347 
2541.000000	98.936339 
2540.000000	98.934332 
2539.000000	98.928355 
2538.000000	98.924899 
2537.000000	98.925995 
2536.000000	98.928233 
2535.000000	98.928445 
2534.000000	98.927341 
2533.000000	98.926415 
2532.000000	98.924473 
2531.000000	98.920030 
2530.000000	98.915323 
2529.000000	98.914529 
2528.000000	98.918068 
2527.000000	98.921298 
2526.000000	98.919712 
2525.000000	98.914105 
2524.000000	98.909930 
2523.000000	98.912117 
2522.000000	98.920650 
2521.000000	98.930642 
2520.000000	98.936405 
2519.000000	98.935603 
2518.000000	98.929792 
2517.000000	98.921964 
2516.000000	98.914633 
2515.000000	98.909812 
2514.000000	98.908857 
2513.000000	98.911375 
2512.000000	98.915220 
2511.000000	98.918268 
2510.000000	98.919709 
2509.000000	98.919812 
2508.000000	98.919895 
2507.000000	98.922664 
2506.000000	98.930410 
2505.000000	98.941414 
2504.000000	98.949350 
2503.000000	98.948060 
2502.000000	98.937139 
2501.000000	98.922713 
2500.000000	98.913233 
2499.000000	98.913978 
2498.000000	98.923647 
2497.000000	98.935217 
2496.000000	98.941452 
2495.000000	98.940724 
2494.000000	98.937065 
2493.000000	98.934603 
2492.000000	98.933611 
2491.000000	98.932460 
2490.000000	98.931421 
2489.000000	98.933011 
2488.000000	98.939518 
2487.000000	98.950923 
2486.000000	98.963872 
2485.000000	98.972154 
2484.000000	98.970482 
2483.000000	98.959592 
2482.000000	98.946180 
2481.000000	98.936160 
2480.000000	98.929342 
2479.000000	98.922341 
2478.000000	98.914842 
2477.000000	98.910217 
2476.000000	98.910751 
2475.000000	98.915079 
2474.000000	98.920390 
2473.000000	98.924833 
2472.000000	98.927449 
2471.000000	98.927823 
2470.000000	98.926716 
2469.000000	98.925803 
2468.000000	98.926139 
2467.000000	98.927577 
2466.000000	98.929682 
2465.000000	98.932008 
2464.000000	98.933315 
2463.000000	98.931873 
2462.000000	98.927348 
2461.000000	98.921731 
2460.000000	98.917758 
2459.000000	98.916743 
2458.000000	98.918144 
2457.000000	98.920671 
2456.000000	98.923263 
2455.000000	98.925244 
2454.000000	98.926141 
2453.000000	98.925663 
2452.000000	98.923811 
2451.000000	98.920761 
2450.000000	98.916601 
2449.000000	98.911663 
2448.000000	98.907428 
2447.000000	98.906346 
2446.000000	98.909535 
2445.000000	98.914589 
2444.000000	98.916895 
2443.000000	98.913749 
2442.000000	98.906755 
2441.000000	98.900150 
2440.000000	98.897545 
2439.000000	98.900128 
2438.000000	98.906415 
2437.000000	98.912886 
2436.000000	98.915989 
2435.000000	98.914884 
2434.000000	98.912156 
2433.000000	98.911502 
2432.000000	98.914972 
2431.000000	98.922154 
2430.000000	98.930609 
2429.000000	98.936575 
2428.000000	98.936785 
2427.000000	98.931087 
2426.000000	98.922875 
2425.000000	98.916130 
2424.000000	98.912559 
2423.000000	98.912135 
2422.000000	98.915105 
2421.000000	98.921597 
2420.000000	98.929474 
2419.000000	98.934430 
2418.000000	98.933288 
2417.000000	98.926771 
2416.000000	98.918569 
2415.000000	98.911932 
2414.000000	98.907586 
2413.000000	98.904660 
2412.000000	98.902853 
2411.000000	98.903008 
2410.000000	98.905643 
2409.000000	98.909583 
2408.000000	98.912420 
2407.000000	98.912176 
2406.000000	98.908657 
2405.000000	98.903948 
2404.000000	98.901632 
2403.000000	98.904147 
2402.000000	98.909938 
2401.000000	98.914081 
2400.000000	98.912814 
2399.000000	98.907009 
2398.000000	98.900564 
2397.000000	98.896425 
2396.000000	98.895140 
2395.000000	98.895840 
2394.000000	98.896778 
2393.000000	98.895840 
2392.000000	98.892589 
2391.000000	98.889396 
2390.000000	98.888851 
2389.000000	98.890797 
2388.000000	98.893817 
2387.000000	98.898435 
2386.000000	98.905873 
2385.000000	98.914233 
2384.000000	98.919543 
2383.000000	98.921135 
2382.000000	98.922405 
2381.000000	98.924826 
2380.000000	98.924630 
2379.000000	98.918122 
2378.000000	98.908026 
2377.000000	98.901457 
2376.000000	98.902604 
2375.000000	98.909622 
2374.000000	98.917439 
2373.000000	98.921243 
2372.000000	98.918703 
2371.000000	98.912004 
2370.000000	98.906990 
2369.000000	98.907664 
2368.000000	98.912015 
2367.000000	98.915289 
2366.000000	98.916356 
2365.000000	98.918388 
2364.000000	98.923425 
2363.000000	98.929085 
2362.000000	98.931511 
2361.000000	98.929486 
2360.000000	98.925355 
2359.000000	98.921866 
2358.000000	98.918989 
2357.000000	98.915706 
2356.000000	98.913904 
2355.000000	98.916996 
2354.000000	98.923057 
2353.000000	98.926341 
2352.000000	98.924686 
2351.000000	98.921856 
2350.000000	98.921790 
2349.000000	98.923640 
2348.000000	98.924371 
2347.000000	98.922833 
2346.000000	98.921608 
2345.000000	98.923667 
2344.000000	98.928099 
2343.000000	98.931742 
2342.000000	98.932340 
2341.000000	98.930814 
2340.000000	98.929734 
2339.000000	98.931648 
2338.000000	98.935953 
2337.000000	98.938338 
2336.000000	98.934926 
2335.000000	98.926359 
2334.000000	98.917980 
2333.000000	98.915323 
2332.000000	98.920038 
2331.000000	98.927447 
2330.000000	98.931592 
2329.000000	98.930337 
2328.000000	98.928567 
2327.000000	98.931667 
2326.000000	98.940328 
2325.000000	98.949041 
2324.000000	98.952415 
2323.000000	98.951351 
2322.000000	98.951972 
2321.000000	98.957214 
2320.000000	98.961700 
2319.000000	98.958150 
2318.000000	98.947210 
2317.000000	98.936589 
2316.000000	98.932332 
2315.000000	98.932992 
2314.000000	98.934566 
2313.000000	98.935476 
2312.000000	98.937271 
2311.000000	98.940013 
2310.000000	98.941895 
2309.000000	98.940886 
2308.000000	98.937460 
2307.000000	98.933671 
2306.000000	98.931860 
2305.000000	98.932722 
2304.000000	98.935772 
2303.000000	98.940153 
2302.000000	98.945417 
2301.000000	98.950204 
2300.000000	98.952564 
2299.000000	98.951696 
2298.000000	98.949412 
2297.000000	98.947295 
2296.000000	98.944433 
2295.000000	98.939007 
2294.000000	98.932600 
2293.000000	98.929686 
2292.000000	98.932844 
2291.000000	98.939619 
2290.000000	98.945242 
2289.000000	98.947064 
2288.000000	98.945933 
2287.000000	98.944260 
2286.000000	98.943460 
2285.000000	98.942785 
2284.000000	98.940403 
2283.000000	98.936217 
2282.000000	98.933002 
2281.000000	98.933514 
2280.000000	98.936677 
2279.000000	98.938530 
2278.000000	98.937012 
2277.000000	98.934262 
2276.000000	98.933721 
2275.000000	98.936295 
2274.000000	98.939786 
2273.000000	98.940828 
2272.000000	98.937338 
2271.000000	98.930537 
2270.000000	98.925030 
2269.000000	98.925297 
2268.000000	98.931351 
2267.000000	98.938843 
2266.000000	98.943627 
2265.000000	98.944623 
2264.000000	98.942086 
2263.000000	98.935681 
2262.000000	98.926210 
2261.000000	98.917536 
2260.000000	98.913965 
2259.000000	98.915827 
2258.000000	98.919563 
2257.000000	98.922594 
2256.000000	98.926177 
2255.000000	98.932425 
2254.000000	98.939999 
2253.000000	98.945089 
2252.000000	98.946643 
2251.000000	98.948091 
2250.000000	98.952669 
2249.000000	98.958766 
2248.000000	98.961614 
2247.000000	98.959446 
2246.000000	98.954669 
2245.000000	98.949983 
2244.000000	98.945712 
2243.000000	98.941485 
2242.000000	98.937921 
2241.000000	98.935600 
2240.000000	98.934753 
2239.000000	98.937002 
2238.000000	98.944248 
2237.000000	98.953551 
2236.000000	98.956287 
2235.000000	98.946626 
2234.000000	98.929910 
2233.000000	98.918793 
2232.000000	98.920492 
2231.000000	98.930248 
2230.000000	98.937401 
2229.000000	98.935478 
2228.000000	98.926088 
2227.000000	98.915366 
2226.000000	98.908120 
2225.000000	98.904935 
2224.000000	98.904296 
2223.000000	98.906671 
2222.000000	98.913977 
2221.000000	98.923894 
2220.000000	98.928532 
2219.000000	98.923298 
2218.000000	98.915415 
2217.000000	98.917886 
2216.000000	98.933692 
2215.000000	98.950912 
2214.000000	98.956014 
2213.000000	98.948192 
2212.000000	98.937309 
2211.000000	98.931099 
2210.000000	98.929716 
2209.000000	98.931416 
2208.000000	98.936902 
2207.000000	98.945256 
2206.000000	98.949912 
2205.000000	98.944000 
2204.000000	98.929841 
2203.000000	98.919433 
2202.000000	98.923432 
2201.000000	98.940248 
2200.000000	98.956844 
2199.000000	98.960172 
2198.000000	98.947776 
2197.000000	98.928637 
2196.000000	98.914923 
2195.000000	98.912478 
2194.000000	98.917981 
2193.000000	98.923798 
2192.000000	98.925016 
2191.000000	98.922501 
2190.000000	98.921135 
2189.000000	98.926256 
2188.000000	98.939598 
2187.000000	98.955495 
2186.000000	98.962063 
2185.000000	98.951018 
2184.000000	98.928223 
2183.000000	98.910334 
2182.000000	98.908417 
2181.000000	98.917972 
2180.000000	98.927575 
2179.000000	98.933044 
2178.000000	98.938331 
2177.000000	98.946346 
2176.000000	98.955227 
2175.000000	98.962430 
2174.000000	98.967261 
2173.000000	98.970075 
2172.000000	98.973455 
2171.000000	98.982588 
2170.000000	98.998951 
2169.000000	99.014459 
2168.000000	99.018205 
2167.000000	99.009527 
2166.000000	98.998635 
2165.000000	98.993984 
2164.000000	98.995637 
2163.000000	99.002194 
2162.000000	99.015190 
2161.000000	99.031158 
2160.000000	99.036638 
2159.000000	99.019840 
2158.000000	98.984552 
2157.000000	98.945429 
2156.000000	98.912879 
2155.000000	98.889830 
2154.000000	98.878686 
2153.000000	98.882407 
2152.000000	98.898706 
2151.000000	98.918283 
2150.000000	98.930724 
2149.000000	98.932308 
2148.000000	98.929155 
2147.000000	98.932078 
2146.000000	98.945553 
2145.000000	98.961166 
2144.000000	98.964974 
2143.000000	98.952162 
2142.000000	98.931291 
2141.000000	98.913642 
2140.000000	98.902441 
2139.000000	98.894704 
2138.000000	98.889624 
2137.000000	98.890220 
2136.000000	98.897582 
2135.000000	98.907559 
2134.000000	98.914574 
2133.000000	98.917272 
2132.000000	98.919232 
2131.000000	98.923858 
2130.000000	98.929237 
2129.000000	98.929436 
2128.000000	98.921537 
2127.000000	98.909631 
2126.000000	98.900128 
2125.000000	98.895086 
2124.000000	98.893094 
2123.000000	98.895003 
2122.000000	98.903799 
2121.000000	98.918252 
2120.000000	98.931573 
2119.000000	98.938544 
2118.000000	98.940405 
2117.000000	98.940800 
2116.000000	98.940471 
2115.000000	98.938576 
2114.000000	98.936095 
2113.000000	98.934356 
2112.000000	98.932191 
2111.000000	98.928092 
2110.000000	98.923863 
2109.000000	98.922627 
2108.000000	98.923579 
2107.000000	98.921767 
2106.000000	98.913574 
2105.000000	98.900897 
2104.000000	98.889922 
2103.000000	98.886504 
2102.000000	98.891575 
2101.000000	98.899526 
2100.000000	98.902349 
2099.000000	98.897210 
2098.000000	98.889333 
2097.000000	98.886403 
2096.000000	98.891266 
2095.000000	98.901261 
2094.000000	98.912448 
2093.000000	98.921865 
2092.000000	98.927394 
2091.000000	98.928881 
2090.000000	98.929282 
2089.000000	98.931858 
2088.000000	98.935347 
2087.000000	98.933959 
2086.000000	98.923499 
2085.000000	98.907027 
2084.000000	98.893719 
2083.000000	98.891683 
2082.000000	98.901445 
2081.000000	98.915933 
2080.000000	98.927152 
2079.000000	98.933059 
2078.000000	98.937582 
2077.000000	98.944590 
2076.000000	98.953177 
2075.000000	98.958704 
2074.000000	98.956962 
2073.000000	98.947435 
2072.000000	98.934228 
2071.000000	98.923636 
2070.000000	98.919131 
2069.000000	98.918407 
2068.000000	98.916284 
2067.000000	98.910173 
2066.000000	98.901762 
2065.000000	98.895288 
2064.000000	98.896310 
2063.000000	98.909422 
2062.000000	98.932077 
2061.000000	98.951679 
2060.000000	98.955818 
2059.000000	98.946936 
2058.000000	98.940658 
2057.000000	98.947113 
2056.000000	98.959796 
2055.000000	98.966729 
2054.000000	98.966968 
2053.000000	98.969829 
2052.000000	98.980643 
2051.000000	98.993713 
2050.000000	98.999314 
2049.000000	98.993942 
2048.000000	98.983133 
2047.000000	98.975508 
2046.000000	98.974864 
2045.000000	98.977674 
2044.000000	98.978064 
2043.000000	98.975070 
2042.000000	98.973528 
2041.000000	98.977492 
2040.000000	98.985093 
2039.000000	98.991600 
2038.000000	98.995101 
2037.000000	98.996848 
2036.000000	98.997281 
2035.000000	98.993374 
2034.000000	98.980406 
2033.000000	98.957981 
2032.000000	98.935722 
2031.000000	98.929636 
2030.000000	98.947581 
2029.000000	98.978323 
2028.000000	98.999934 
2027.000000	99.000003 
2026.000000	98.983383 
2025.000000	98.962618 
2024.000000	98.947853 
2023.000000	98.944875 
2022.000000	98.953214 
2021.000000	98.962997 
2020.000000	98.961913 
2019.000000	98.949629 
2018.000000	98.938495 
2017.000000	98.936363 
2016.000000	98.936720 
2015.000000	98.932343 
2014.000000	98.929218 
2013.000000	98.937312 
2012.000000	98.954071 
2011.000000	98.966902 
2010.000000	98.969314 
2009.000000	98.966310 
2008.000000	98.964848 
2007.000000	98.966089 
2006.000000	98.967236 
2005.000000	98.965522 
2004.000000	98.960020 
2003.000000	98.952925 
2002.000000	98.947965 
2001.000000	98.944713 
2000.000000	98.937195 
1999.000000	98.922026 
1998.000000	98.904911 
1997.000000	98.894975 
1996.000000	98.895297 
1995.000000	98.902898 
1994.000000	98.914901 
1993.000000	98.929353 
1992.000000	98.941349 
1991.000000	98.944201 
1990.000000	98.935982 
1989.000000	98.921987 
1988.000000	98.911360 
1987.000000	98.912340 
1986.000000	98.927287 
1985.000000	98.949335 
1984.000000	98.966464 
1983.000000	98.972048 
1982.000000	98.969660 
1981.000000	98.965944 
1980.000000	98.962695 
1979.000000	98.958953 
1978.000000	98.955916 
1977.000000	98.953993 
1976.000000	98.948617 
1975.000000	98.935702 
1974.000000	98.919438 
1973.000000	98.908857 
1972.000000	98.907659 
1971.000000	98.912186 
1970.000000	98.918483 
1969.000000	98.926430 
1968.000000	98.936388 
1967.000000	98.945747 
1966.000000	98.951240 
1965.000000	98.952882 
1964.000000	98.953797 
1963.000000	98.956631 
1962.000000	98.960503 
1961.000000	98.961416 
1960.000000	98.956317 
1959.000000	98.946682 
1958.000000	98.937192 
1957.000000	98.931168 
1956.000000	98.928227 
1955.000000	98.925620 
1954.000000	98.920074 
1953.000000	98.909364 
1952.000000	98.894836 
1951.000000	98.882344 
1950.000000	98.877889 
1949.000000	98.881263 
1948.000000	98.886190 
1947.000000	98.887796 
1946.000000	98.886839 
1945.000000	98.885553 
1944.000000	98.883269 
1943.000000	98.878611 
1942.000000	98.872813 
1941.000000	98.867213 
1940.000000	98.860608 
1939.000000	98.852570 
1938.000000	98.846546 
1937.000000	98.846906 
1936.000000	98.853786 
1935.000000	98.862555 
1934.000000	98.867606 
1933.000000	98.866097 
1932.000000	98.859874 
1931.000000	98.855511 
1930.000000	98.860571 
1929.000000	98.875870 
1928.000000	98.892204 
1927.000000	98.898327 
1926.000000	98.891251 
1925.000000	98.876507 
1924.000000	98.861099 
1923.000000	98.849410 
1922.000000	98.844501 
1921.000000	98.847658 
1920.000000	98.855747 
1919.000000	98.861960 
1918.000000	98.860704 
1917.000000	98.852524 
1916.000000	98.843811 
1915.000000	98.842437 
1914.000000	98.852830 
1913.000000	98.871759 
1912.000000	98.888998 
1911.000000	98.895168 
1910.000000	98.889191 
1909.000000	98.877134 
1908.000000	98.866053 
1907.000000	98.861396 
1906.000000	98.866585 
1905.000000	98.878836 
1904.000000	98.886859 
1903.000000	98.879004 
1902.000000	98.855254 
1901.000000	98.827879 
1900.000000	98.810278 
1899.000000	98.807264 
1898.000000	98.814730 
1897.000000	98.824545 
1896.000000	98.829868 
1895.000000	98.829721 
1894.000000	98.829303 
1893.000000	98.833072 
1892.000000	98.838759 
1891.000000	98.840801 
1890.000000	98.838077 
1889.000000	98.835405 
1888.000000	98.836590 
1887.000000	98.840367 
1886.000000	98.843518 
1885.000000	98.843919 
1884.000000	98.840861 
1883.000000	98.835048 
1882.000000	98.828654 
1881.000000	98.823884 
1880.000000	98.821595 
1879.000000	98.821288 
1878.000000	98.820967 
1877.000000	98.817479 
1876.000000	98.810073 
1875.000000	98.804057 
1874.000000	98.807185 
1873.000000	98.820176 
1872.000000	98.833937 
1871.000000	98.838746 
1870.000000	98.833795 
1869.000000	98.825567 
1868.000000	98.817430 
1867.000000	98.807599 
1866.000000	98.796787 
1865.000000	98.788413 
1864.000000	98.784226 
1863.000000	98.784981 
1862.000000	98.792885 
1861.000000	98.808292 
1860.000000	98.824862 
1859.000000	98.834177 
1858.000000	98.835525 
1857.000000	98.835659 
1856.000000	98.839452 
1855.000000	98.845958 
1854.000000	98.852371 
1853.000000	98.856765 
1852.000000	98.857040 
1851.000000	98.851421 
1850.000000	98.841740 
1849.000000	98.833364 
1848.000000	98.830323 
1847.000000	98.831951 
1846.000000	98.834940 
1845.000000	98.835393 
1844.000000	98.830196 
1843.000000	98.821146 
1842.000000	98.814869 
1841.000000	98.815685 
1840.000000	98.822815 
1839.000000	98.832774 
1838.000000	98.842317 
1837.000000	98.849409 
1836.000000	98.852496 
1835.000000	98.851143 
1834.000000	98.847411 
1833.000000	98.845046 
1832.000000	98.846890 
1831.000000	98.851890 
1830.000000	98.855558 
1829.000000	98.855314 
1828.000000	98.853786 
1827.000000	98.853988 
1826.000000	98.855770 
1825.000000	98.857849 
1824.000000	98.859366 
1823.000000	98.859264 
1822.000000	98.856217 
1821.000000	98.849516 
1820.000000	98.840237 
1819.000000	98.830982 
1818.000000	98.824688 
1817.000000	98.822972 
1816.000000	98.824388 
1815.000000	98.826106 
1814.000000	98.827733 
1813.000000	98.831809 
1812.000000	98.840363 
1811.000000	98.851317 
1810.000000	98.861335 
1809.000000	98.869981 
1808.000000	98.876329 
1807.000000	98.876576 
1806.000000	98.869365 
1805.000000	98.859654 
1804.000000	98.854029 
1803.000000	98.853900 
1802.000000	98.855813 
1801.000000	98.857040 
1800.000000	98.856443 
1799.000000	98.853309 
1798.000000	98.849305 
1797.000000	98.847527 
1796.000000	98.848619 
1795.000000	98.850730 
1794.000000	98.852270 
1793.000000	98.852940 
1792.000000	98.853134 
1791.000000	98.852611 
1790.000000	98.851598 
1789.000000	98.851994 
1788.000000	98.855548 
1787.000000	98.861914 
1786.000000	98.868694 
1785.000000	98.872907 
1784.000000	98.872636 
1783.000000	98.869523 
1782.000000	98.867871 
1781.000000	98.869714 
1780.000000	98.871400 
1779.000000	98.868243 
1778.000000	98.861482 
1777.000000	98.856069 
1776.000000	98.854575 
1775.000000	98.857466 
1774.000000	98.865694 
1773.000000	98.878236 
1772.000000	98.888637 
1771.000000	98.890874 
1770.000000	98.886062 
1769.000000	98.878352 
1768.000000	98.871691 
1767.000000	98.868020 
1766.000000	98.867090 
1765.000000	98.868362 
1764.000000	98.871211 
1763.000000	98.874391 
1762.000000	98.876278 
1761.000000	98.876983 
1760.000000	98.878166 
1759.000000	98.880001 
1758.000000	98.880818 
1757.000000	98.879108 
1756.000000	98.875361 
1755.000000	98.871552 
1754.000000	98.868093 
1753.000000	98.863905 
1752.000000	98.860379 
1751.000000	98.862925 
1750.000000	98.873455 
1749.000000	98.885511 
1748.000000	98.892543 
1747.000000	98.893846 
1746.000000	98.891982 
1745.000000	98.889037 
1744.000000	98.886848 
1743.000000	98.887011 
1742.000000	98.888732 
1741.000000	98.889588 
1740.000000	98.887905 
1739.000000	98.884204 
1738.000000	98.880045 
1737.000000	98.875499 
1736.000000	98.869278 
1735.000000	98.860406 
1734.000000	98.850971 
1733.000000	98.847192 
1732.000000	98.852108 
1731.000000	98.862075 
1730.000000	98.871873 
1729.000000	98.877364 
1728.000000	98.877612 
1727.000000	98.874649 
1726.000000	98.870008 
1725.000000	98.863389 
1724.000000	98.855601 
1723.000000	98.850785 
1722.000000	98.852709 
1721.000000	98.860930 
1720.000000	98.871333 
1719.000000	98.878387 
1718.000000	98.876796 
1717.000000	98.868385 
1716.000000	98.859605 
1715.000000	98.852313 
1714.000000	98.847583 
1713.000000	98.846866 
1712.000000	98.848146 
1711.000000	98.848542 
1710.000000	98.848043 
1709.000000	98.848547 
1708.000000	98.850007 
1707.000000	98.849870 
1706.000000	98.848116 
1705.000000	98.847695 
1704.000000	98.846744 
1703.000000	98.837274 
1702.000000	98.816967 
1701.000000	98.797936 
1700.000000	98.795945 
1699.000000	98.804264 
1698.000000	98.809412 
1697.000000	98.809892 
1696.000000	98.808897 
1695.000000	98.806447 
1694.000000	98.803602 
1693.000000	98.801460 
1692.000000	98.797595 
1691.000000	98.790352 
1690.000000	98.781419 
1689.000000	98.774039 
1688.000000	98.768424 
1687.000000	98.761473 
1686.000000	98.753243 
1685.000000	98.748201 
1684.000000	98.747515 
1683.000000	98.746872 
1682.000000	98.744958 
1681.000000	98.740026 
1680.000000	98.733737 
1679.000000	98.729523 
1678.000000	98.728170 
1677.000000	98.727003 
1676.000000	98.723075 
1675.000000	98.717473 
1674.000000	98.713810 
1673.000000	98.713104 
1672.000000	98.712908 
1671.000000	98.711750 
1670.000000	98.709588 
1669.000000	98.706059 
1668.000000	98.702288 
1667.000000	98.699895 
1666.000000	98.696690 
1665.000000	98.689881 
1664.000000	98.680590 
1663.000000	98.673848 
1662.000000	98.673315 
1661.000000	98.676391 
1660.000000	98.677322 
1659.000000	98.675211 
1658.000000	98.673777 
1657.000000	98.674171 
1656.000000	98.671537 
1655.000000	98.663509 
1654.000000	98.655156 
1653.000000	98.647519 
1652.000000	98.639690 
1651.000000	98.641465 
1650.000000	98.644439 
1649.000000	98.640554 
1648.000000	98.629461 
1647.000000	98.616048 
1646.000000	98.606582 
1645.000000	98.606291 
1644.000000	98.613466 
1643.000000	98.621458 
1642.000000	98.625461 
1641.000000	98.625192 
1640.000000	98.622542 
1639.000000	98.618988 
1638.000000	98.615534 
1637.000000	98.613725 
1636.000000	98.613476 
1635.000000	98.613877 
1634.000000	98.618067 
1633.000000	98.625379 
1632.000000	98.631145 
1631.000000	98.633997 
1630.000000	98.635896 
1629.000000	98.638468 
1628.000000	98.641410 
1627.000000	98.644922 
1626.000000	98.650534 
1625.000000	98.659019 
1624.000000	98.668868 
1623.000000	98.677732 
1622.000000	98.685275 
1621.000000	98.692050 
1620.000000	98.696583 
1619.000000	98.698085 
1618.000000	98.699083 
1617.000000	98.701684 
1616.000000	98.704276 
1615.000000	98.706756 
1614.000000	98.709314 
1613.000000	98.710428 
1612.000000	98.710663 
1611.000000	98.712155 
1610.000000	98.715672 
1609.000000	98.719513 
1608.000000	98.722200 
1607.000000	98.724767 
1606.000000	98.728279 
1605.000000	98.731827 
1604.000000	98.734615 
1603.000000	98.738499 
1602.000000	98.745477 
1601.000000	98.753913 
1600.000000	98.760777 
1599.000000	98.766062 
1598.000000	98.771798 
1597.000000	98.778383 
1596.000000	98.784463 
1595.000000	98.789704 
1594.000000	98.795109 
1593.000000	98.800282 
1592.000000	98.803670 
1591.000000	98.805731 
1590.000000	98.808863 
1589.000000	98.813651 
1588.000000	98.818469 
1587.000000	98.822774 
1586.000000	98.826945 
1585.000000	98.829368 
1584.000000	98.827606 
1583.000000	98.822618 
1582.000000	98.819457 
1581.000000	98.821018 
1580.000000	98.824749 
1579.000000	98.827221 
1578.000000	98.829069 
1577.000000	98.832153 
1576.000000	98.834662 
1575.000000	98.837042 
1574.000000	98.842586 
1573.000000	98.847787 
1572.000000	98.848520 
1571.000000	98.847098 
1570.000000	98.849022 
1569.000000	98.853841 
1568.000000	98.856536 
1567.000000	98.855646 
1566.000000	98.853155 
1565.000000	98.851594 
1564.000000	98.851857 
1563.000000	98.852747 
1562.000000	98.852948 
1561.000000	98.851996 
1560.000000	98.850879 
1559.000000	98.848626 
1558.000000	98.844082 
1557.000000	98.846224 
1556.000000	98.852734 
1555.000000	98.856227 
1554.000000	98.854904 
1553.000000	98.851421 
1552.000000	98.848894 
1551.000000	98.848845 
1550.000000	98.852225 
1549.000000	98.857669 
1548.000000	98.861535 
1547.000000	98.861085 
1546.000000	98.856386 
1545.000000	98.850789 
1544.000000	98.847661 
1543.000000	98.846728 
1542.000000	98.848172 
1541.000000	98.854610 
1540.000000	98.859711 
1539.000000	98.855993 
1538.000000	98.852871 
1537.000000	98.854389 
1536.000000	98.854918 
1535.000000	98.851824 
1534.000000	98.848964 
1533.000000	98.849956 
1532.000000	98.851649 
1531.000000	98.849219 
1530.000000	98.843787 
1529.000000	98.840003 
1528.000000	98.839278 
1527.000000	98.839614 
1526.000000	98.840094 
1525.000000	98.842315 
1524.000000	98.846300 
1523.000000	98.850923 
1522.000000	98.857700 
1521.000000	98.867456 
1520.000000	98.874391 
1519.000000	98.873340 
1518.000000	98.865886 
1517.000000	98.858443 
1516.000000	98.855136 
1515.000000	98.854512 
1514.000000	98.854270 
1513.000000	98.854276 
1512.000000	98.855003 
1511.000000	98.854963 
1510.000000	98.851364 
1509.000000	98.845213 
1508.000000	98.845518 
1507.000000	98.858749 
1506.000000	98.869306 
1505.000000	98.869061 
1504.000000	98.866818 
1503.000000	98.865745 
1502.000000	98.866873 
1501.000000	98.871594 
1500.000000	98.879435 
1499.000000	98.887575 
1498.000000	98.893506 
1497.000000	98.899191 
1496.000000	98.906387 
1495.000000	98.909647 
1494.000000	98.903522 
1493.000000	98.889691 
1492.000000	98.873970 
1491.000000	98.862159 
1490.000000	98.856587 
1489.000000	98.855554 
1488.000000	98.854368 
1487.000000	98.850017 
1486.000000	98.845899 
1485.000000	98.845756 
1484.000000	98.848614 
1483.000000	98.851333 
1482.000000	98.851509 
1481.000000	98.849309 
1480.000000	98.846378 
1479.000000	98.843539 
1478.000000	98.840738 
1477.000000	98.837819 
1476.000000	98.834198 
1475.000000	98.827614 
1474.000000	98.819224 
1473.000000	98.815874 
1472.000000	98.820487 
1471.000000	98.825597 
1470.000000	98.826023 
1469.000000	98.824430 
1468.000000	98.824840 
1467.000000	98.827304 
1466.000000	98.829266 
1465.000000	98.829315 
1464.000000	98.827699 
1463.000000	98.825459 
1462.000000	98.823366 
1461.000000	98.821922 
1460.000000	98.820077 
1459.000000	98.814846 
1458.000000	98.802228 
1457.000000	98.784335 
1456.000000	98.771824 
1455.000000	98.768398 
1454.000000	98.768486 
1453.000000	98.768847 
1452.000000	98.769680 
1451.000000	98.771237 
1450.000000	98.773100 
1449.000000	98.775709 
1448.000000	98.778952 
1447.000000	98.780000 
1446.000000	98.777120 
1445.000000	98.772716 
1444.000000	98.769315 
1443.000000	98.766716 
1442.000000	98.763767 
1441.000000	98.760850 
1440.000000	98.759798 
1439.000000	98.761718 
1438.000000	98.764567 
1437.000000	98.764767 
1436.000000	98.761020 
1435.000000	98.754095 
1434.000000	98.745989 
1433.000000	98.740284 
1432.000000	98.739616 
1431.000000	98.743541 
1430.000000	98.747633 
1429.000000	98.748179 
1428.000000	98.746225 
1427.000000	98.743980 
1426.000000	98.741297 
1425.000000	98.736788 
1424.000000	98.732050 
1423.000000	98.729916 
1422.000000	98.728209 
1421.000000	98.722817 
1420.000000	98.713868 
1419.000000	98.706032 
1418.000000	98.699438 
1417.000000	98.690769 
1416.000000	98.681777 
1415.000000	98.675211 
1414.000000	98.669485 
1413.000000	98.660564 
1412.000000	98.648457 
1411.000000	98.637663 
1410.000000	98.630197 
1409.000000	98.625100 
1408.000000	98.623238 
1407.000000	98.625911 
1406.000000	98.631358 
1405.000000	98.637200 
1404.000000	98.645308 
1403.000000	98.657735 
1402.000000	98.670927 
1401.000000	98.680445 
1400.000000	98.686397 
1399.000000	98.691928 
1398.000000	98.694822 
1397.000000	98.687702 
1396.000000	98.668758 
1395.000000	98.648315 
1394.000000	98.641345 
1393.000000	98.652902 
1392.000000	98.678236 
1391.000000	98.708870 
1390.000000	98.736076 
1389.000000	98.753529 
1388.000000	98.759551 
1387.000000	98.757072 
1386.000000	98.749867 
1385.000000	98.740997 
1384.000000	98.733728 
1383.000000	98.730794 
1382.000000	98.732367 
1381.000000	98.736992 
1380.000000	98.743332 
1379.000000	98.750803 
1378.000000	98.758620 
1377.000000	98.765265 
1376.000000	98.770372 
1375.000000	98.776215 
1374.000000	98.785177 
1373.000000	98.795327 
1372.000000	98.802876 
1371.000000	98.808464 
1370.000000	98.816969 
1369.000000	98.830008 
1368.000000	98.844242 
1367.000000	98.855744 
1366.000000	98.863442 
1365.000000	98.868391 
1364.000000	98.871409 
1363.000000	98.873672 
1362.000000	98.877305 
1361.000000	98.882347 
1360.000000	98.886316 
1359.000000	98.888366 
1358.000000	98.890932 
1357.000000	98.896171 
1356.000000	98.903017 
1355.000000	98.908878 
1354.000000	98.912889 
1353.000000	98.915659 
1352.000000	98.916386 
1351.000000	98.913885 
1350.000000	98.911035 
1349.000000	98.911147 
1348.000000	98.914150 
1347.000000	98.917919 
1346.000000	98.922022 
1345.000000	98.926670 
1344.000000	98.930147 
1343.000000	98.930390 
1342.000000	98.928332 
1341.000000	98.926526 
1340.000000	98.925382 
1339.000000	98.923515 
1338.000000	98.921109 
1337.000000	98.920385 
1336.000000	98.922466 
1335.000000	98.925835 
1334.000000	98.928777 
1333.000000	98.931370 
1332.000000	98.934092 
1331.000000	98.936433 
1330.000000	98.937634 
1329.000000	98.937223 
1328.000000	98.935105 
1327.000000	98.931973 
1326.000000	98.929408 
1325.000000	98.927537 
1324.000000	98.925521 
1323.000000	98.923432 
1322.000000	98.922171 
1321.000000	98.921457 
1320.000000	98.919790 
1319.000000	98.916810 
1318.000000	98.914103 
1317.000000	98.913057 
1316.000000	98.912956 
1315.000000	98.912136 
1314.000000	98.910058 
1313.000000	98.907723 
1312.000000	98.906369 
1311.000000	98.906517 
1310.000000	98.908092 
1309.000000	98.910526 
1308.000000	98.912605 
1307.000000	98.912641 
1306.000000	98.909886 
1305.000000	98.905152 
1304.000000	98.901182 
1303.000000	98.900764 
1302.000000	98.904065 
1301.000000	98.907866 
1300.000000	98.908307 
1299.000000	98.904243 
1298.000000	98.897634 
1297.000000	98.891248 
1296.000000	98.886622 
1295.000000	98.884333 
1294.000000	98.884451 
1293.000000	98.886017 
1292.000000	98.886673 
1291.000000	98.883736 
1290.000000	98.876265 
1289.000000	98.866095 
1288.000000	98.856431 
1287.000000	98.849072 
1286.000000	98.842996 
1285.000000	98.836313 
1284.000000	98.829396 
1283.000000	98.824672 
1282.000000	98.823069 
1281.000000	98.822080 
1280.000000	98.818249 
1279.000000	98.810746 
1278.000000	98.801187 
1277.000000	98.791034 
1276.000000	98.780652 
1275.000000	98.770882 
1274.000000	98.763424 
1273.000000	98.759002 
1272.000000	98.756192 
1271.000000	98.752514 
1270.000000	98.746220 
1269.000000	98.737300 
1268.000000	98.727624 
1267.000000	98.719689 
1266.000000	98.713890 
1265.000000	98.707642 
1264.000000	98.698231 
1263.000000	98.685840 
1262.000000	98.672819 
1261.000000	98.660918 
1260.000000	98.650626 
1259.000000	98.642396 
1258.000000	98.636124 
1257.000000	98.630113 
1256.000000	98.622293 
1255.000000	98.612386 
1254.000000	98.601481 
1253.000000	98.590127 
1252.000000	98.578599 
1251.000000	98.568660 
1250.000000	98.562546 
1249.000000	98.560031 
1248.000000	98.558712 
1247.000000	98.557055 
1246.000000	98.554375 
1245.000000	98.547989 
1244.000000	98.534146 
1243.000000	98.513831 
1242.000000	98.495003 
1241.000000	98.485966 
1240.000000	98.487072 
1239.000000	98.490628 
1238.000000	98.488467 
1237.000000	98.478280 
1236.000000	98.463077 
1235.000000	98.446547 
1234.000000	98.429928 
1233.000000	98.412648 
1232.000000	98.394828 
1231.000000	98.377870 
1230.000000	98.362177 
1229.000000	98.345637 
1228.000000	98.326092 
1227.000000	98.304941 
1226.000000	98.286264 
1225.000000	98.271602 
1224.000000	98.257222 
1223.000000	98.237685 
1222.000000	98.211190 
1221.000000	98.180476 
1220.000000	98.149513 
1219.000000	98.120507 
1218.000000	98.093014 
1217.000000	98.064508 
1216.000000	98.032004 
1215.000000	97.994425 
1214.000000	97.953806 
1213.000000	97.913611 
1212.000000	97.875502 
1211.000000	97.837721 
1210.000000	97.796933 
1209.000000	97.751724 
1208.000000	97.704014 
1207.000000	97.656897 
1206.000000	97.611612 
1205.000000	97.567256 
1204.000000	97.522874 
1203.000000	97.478379 
1202.000000	97.433340 
1201.000000	97.386553 
1200.000000	97.337785 
1199.000000	97.288744 
1198.000000	97.241202 
1197.000000	97.195251 
1196.000000	97.150276 
1195.000000	97.106304 
1194.000000	97.063215 
1193.000000	97.019552 
1192.000000	96.973529 
1191.000000	96.924759 
1190.000000	96.874326 
1189.000000	96.823970 
1188.000000	96.775678 
1187.000000	96.730571 
1186.000000	96.687044 
1185.000000	96.641225 
1184.000000	96.590280 
1183.000000	96.534438 
1182.000000	96.475642 
1181.000000	96.415930 
1180.000000	96.357678 
1179.000000	96.303026 
1178.000000	96.251087 
1177.000000	96.197246 
1176.000000	96.137143 
1175.000000	96.070551 
1174.000000	96.000480 
1173.000000	95.929743 
1172.000000	95.859692 
1171.000000	95.790620 
1170.000000	95.721506 
1169.000000	95.650473 
1168.000000	95.577213 
1167.000000	95.504519 
1166.000000	95.437209 
1165.000000	95.381229 
1164.000000	95.343987 
1163.000000	95.332088 
1162.000000	95.346096 
1161.000000	95.378499 
1160.000000	95.417498 
1159.000000	95.451541 
1158.000000	95.471122 
1157.000000	95.470177 
1156.000000	95.447899 
1155.000000	95.407941 
1154.000000	95.354919 
1153.000000	95.292778 
1152.000000	95.226358 
1151.000000	95.161346 
1150.000000	95.100668 
1149.000000	95.042603 
1148.000000	94.983755 
1147.000000	94.922216 
1146.000000	94.857377 
1145.000000	94.789490 
1144.000000	94.720906 
1143.000000	94.655427 
1142.000000	94.594618 
1141.000000	94.536207 
1140.000000	94.476731 
1139.000000	94.413638 
1138.000000	94.344826 
1137.000000	94.269600 
1136.000000	94.191146 
1135.000000	94.114817 
1134.000000	94.042498 
1133.000000	93.971292 
1132.000000	93.898434 
1131.000000	93.824021 
1130.000000	93.748054 
1129.000000	93.668721 
1128.000000	93.585182 
1127.000000	93.498674 
1126.000000	93.409749 
1125.000000	93.318055 
1124.000000	93.225596 
1123.000000	93.135692 
1122.000000	93.047356 
1121.000000	92.955644 
1120.000000	92.859488 
1119.000000	92.764239 
1118.000000	92.674142 
1117.000000	92.587279 
1116.000000	92.500625 
1115.000000	92.415074 
1114.000000	92.332179 
1113.000000	92.250362 
1112.000000	92.167967 
1111.000000	92.086621 
1110.000000	92.008468 
1109.000000	91.932932 
1108.000000	91.858461 
1107.000000	91.784041 
1106.000000	91.707920 
1105.000000	91.628403 
1104.000000	91.546761 
1103.000000	91.465756 
1102.000000	91.385465 
1101.000000	91.304765 
1100.000000	91.226822 
1099.000000	91.155066 
1098.000000	91.086609 
1097.000000	91.015063 
1096.000000	90.940430 
1095.000000	90.868093 
1094.000000	90.797684 
1093.000000	90.722038 
1092.000000	90.638992 
1091.000000	90.555057 
1090.000000	90.474386 
1089.000000	90.392822 
1088.000000	90.306907 
1087.000000	90.220834 
1086.000000	90.140109 
1085.000000	90.065168 
1084.000000	89.994984 
1083.000000	89.930059 
1082.000000	89.868247 
1081.000000	89.804262 
1080.000000	89.736687 
1079.000000	89.669417 
1078.000000	89.604187 
1077.000000	89.538759 
1076.000000	89.474178 
1075.000000	89.415307 
1074.000000	89.361388 
1073.000000	89.304050 
1072.000000	89.236503 
1071.000000	89.155844 
1070.000000	89.055252 
1069.000000	88.926271 
1068.000000	88.774609 
1067.000000	88.623518 
1066.000000	88.493611 
1065.000000	88.385592 
1064.000000	88.287610 
1063.000000	88.190420 
1062.000000	88.088777 
1061.000000	87.977079 
1060.000000	87.853467 
1059.000000	87.724741 
1058.000000	87.600697 
1057.000000	87.485487 
1056.000000	87.376562 
1055.000000	87.266992 
1054.000000	87.146958 
1053.000000	87.009856 
1052.000000	86.860076 
1051.000000	86.708226 
1050.000000	86.556682 
1049.000000	86.398748 
1048.000000	86.233492 
1047.000000	86.069306 
1046.000000	85.909797 
1045.000000	85.747844 
1044.000000	85.577326 
1043.000000	85.400983 
1042.000000	85.223433 
1041.000000	85.045577 
1040.000000	84.869739 
1039.000000	84.701797 
1038.000000	84.544357 
1037.000000	84.395547 
1036.000000	84.256983 
1035.000000	84.134106 
1034.000000	84.026299 
1033.000000	83.925558 
1032.000000	83.826688 
1031.000000	83.730107 
1030.000000	83.635003 
1029.000000	83.541171 
1028.000000	83.458157 
1027.000000	83.399477 
1026.000000	83.364489 
1025.000000	83.337087 
1024.000000	83.304354 
1023.000000	83.265280 
1022.000000	83.220691 
1021.000000	83.168345 
1020.000000	83.111036 
1019.000000	83.056611 
1018.000000	83.005748 
1017.000000	82.950885 
1016.000000	82.890341 
1015.000000	82.832052 
1014.000000	82.780312 
1013.000000	82.730083 
1012.000000	82.677418 
1011.000000	82.624527 
1010.000000	82.572368 
1009.000000	82.519656 
1008.000000	82.471148 
1007.000000	82.434887 
1006.000000	82.409237 
1005.000000	82.384900 
1004.000000	82.361374 
1003.000000	82.348057 
1002.000000	82.346954 
1001.000000	82.348527 
1000.000000	82.348034 
999.000000	 82.351802 
998.000000	 82.362996 
997.000000	 82.375002 
996.000000	 82.384551 
995.000000	 82.398839 
994.000000	 82.423454 
993.000000	 82.453942 
992.000000	 82.484655 
991.000000	 82.516149 
990.000000	 82.549774 
989.000000	 82.584727 
988.000000	 82.623958 
987.000000	 82.673195 
986.000000	 82.731354 
985.000000	 82.791992 
984.000000	 82.856312 
983.000000	 82.933814 
982.000000	 83.027870 
981.000000	 83.131969 
980.000000	 83.242600 
979.000000	 83.364125 
978.000000	 83.498042 
977.000000	 83.639011 
976.000000	 83.784908 
975.000000	 83.940033 
974.000000	 84.105191 
973.000000	 84.274823 
972.000000	 84.446649 
971.000000	 84.624075 
970.000000	 84.806767 
969.000000	 84.989114 
968.000000	 85.170366 
967.000000	 85.355861 
966.000000	 85.545407 
965.000000	 85.730513 
964.000000	 85.906332 
963.000000	 86.077069 
962.000000	 86.246550 
961.000000	 86.412374 
960.000000	 86.572536 
959.000000	 86.729262 
958.000000	 86.882866 
957.000000	 87.029530 
956.000000	 87.168365 
955.000000	 87.303637 
954.000000	 87.437168 
953.000000	 87.565011 
952.000000	 87.683745 
951.000000	 87.793610 
950.000000	 87.893925 
949.000000	 87.982297 
948.000000	 88.060267 
947.000000	 88.133288 
946.000000	 88.203517 
945.000000	 88.268870 
944.000000	 88.329907 
943.000000	 88.390169 
942.000000	 88.448306 
941.000000	 88.497673 
940.000000	 88.536231 
939.000000	 88.570068 
938.000000	 88.604916 
937.000000	 88.640667 
936.000000	 88.676299 
935.000000	 88.713463 
934.000000	 88.752719 
933.000000	 88.792387 
932.000000	 88.833257 
931.000000	 88.878565 
930.000000	 88.927658 
929.000000	 88.975672 
928.000000	 89.020780 
927.000000	 89.065687 
926.000000	 89.110893 
925.000000	 89.152733 
924.000000	 89.189082 
923.000000	 89.220644 
922.000000	 89.245867 
921.000000	 89.261515 
920.000000	 89.269678 
919.000000	 89.277697 
918.000000	 89.289524 
917.000000	 89.302916 
916.000000	 89.315786 
915.000000	 89.329159 
914.000000	 89.344118 
913.000000	 89.363400 
912.000000	 89.396172 
911.000000	 89.452513 
910.000000	 89.531409 
909.000000	 89.622099 
908.000000	 89.718631 
907.000000	 89.825119 
906.000000	 89.945907 
905.000000	 90.079454 
904.000000	 90.223764 
903.000000	 90.379452 
902.000000	 90.545038 
901.000000	 90.716195 
900.000000	 90.891126 
899.000000	 91.070057 
898.000000	 91.248711 
897.000000	 91.419082 
896.000000	 91.577279 
895.000000	 91.724709 
894.000000	 91.862385 
893.000000	 91.991207 
892.000000	 92.117139 
891.000000	 92.247500 
890.000000	 92.380801 
889.000000	 92.507807 
888.000000	 92.623864 
887.000000	 92.732465 
886.000000	 92.835285 
885.000000	 92.927538 
884.000000	 93.007302 
883.000000	 93.082189 
882.000000	 93.161276 
881.000000	 93.245204 
880.000000	 93.329225 
879.000000	 93.412075 
878.000000	 93.496782 
877.000000	 93.584819 
876.000000	 93.673505 
875.000000	 93.758446 
874.000000	 93.837043 
873.000000	 93.911252 
872.000000	 93.987634 
871.000000	 94.072252 
870.000000	 94.164151 
869.000000	 94.255507 
868.000000	 94.338946 
867.000000	 94.413825 
866.000000	 94.486037 
865.000000	 94.562954 
864.000000	 94.647450 
863.000000	 94.734854 
862.000000	 94.816478 
861.000000	 94.887705 
860.000000	 94.951709 
859.000000	 95.014720 
858.000000	 95.080141 
857.000000	 95.148353 
856.000000	 95.218099 
855.000000	 95.284620 
854.000000	 95.339840 
853.000000	 95.379128 
852.000000	 95.406353 
851.000000	 95.428938 
850.000000	 95.449838 
849.000000	 95.467781 
848.000000	 95.482824 
847.000000	 95.496735 
846.000000	 95.509076 
845.000000	 95.517534 
844.000000	 95.521290 
843.000000	 95.519487 
842.000000	 95.506991 
841.000000	 95.476905 
840.000000	 95.428624 
839.000000	 95.369995 
838.000000	 95.310304 
837.000000	 95.253290 
836.000000	 95.197423 
835.000000	 95.140752 
834.000000	 95.085184 
833.000000	 95.037279 
832.000000	 95.003280 
831.000000	 94.981624 
830.000000	 94.964035 
829.000000	 94.948140 
828.000000	 94.944054 
827.000000	 94.960772 
826.000000	 94.989842 
825.000000	 95.013652 
824.000000	 95.028434 
823.000000	 95.046323 
822.000000	 95.074208 
821.000000	 95.103765 
820.000000	 95.124477 
819.000000	 95.134994 
818.000000	 95.139198 
817.000000	 95.139509 
816.000000	 95.135750 
815.000000	 95.123340 
814.000000	 95.090867 
813.000000	 95.026575 
812.000000	 94.929672 
811.000000	 94.808947 
810.000000	 94.667686 
809.000000	 94.496520 
808.000000	 94.284741 
807.000000	 94.032351 
806.000000	 93.747178 
805.000000	 93.437467 
804.000000	 93.114545 
803.000000	 92.797893 
802.000000	 92.509336 
801.000000	 92.264051 
800.000000	 92.071096 
799.000000	 91.937246 
798.000000	 91.864785 
797.000000	 91.849552 
796.000000	 91.884234 
795.000000	 91.959347 
794.000000	 92.061208 
793.000000	 92.175786 
792.000000	 92.294079 
791.000000	 92.406679 
790.000000	 92.495795 
789.000000	 92.543814 
788.000000	 92.550537 
787.000000	 92.531630 
786.000000	 92.497616 
785.000000	 92.443445 
784.000000	 92.361781 
783.000000	 92.257055 
782.000000	 92.141991 
781.000000	 92.029513 
780.000000	 91.933839 
779.000000	 91.870965 
778.000000	 91.850598 
777.000000	 91.872890 
776.000000	 91.936361 
775.000000	 92.040512 
774.000000	 92.176066 
773.000000	 92.321726 
772.000000	 92.457173 
771.000000	 92.573873 
770.000000	 92.669848 
769.000000	 92.741564 
768.000000	 92.787214 
767.000000	 92.812871 
766.000000	 92.828509 
765.000000	 92.839524 
764.000000	 92.845797 
763.000000	 92.846227 
762.000000	 92.841116 
761.000000	 92.833075 
760.000000	 92.828204 
759.000000	 92.833222 
758.000000	 92.849138 
757.000000	 92.871044 
756.000000	 92.895201 
755.000000	 92.922088 
754.000000	 92.951740 
753.000000	 92.981723 
752.000000	 93.011747 
751.000000	 93.044568 
750.000000	 93.079784 
749.000000	 93.111846 
748.000000	 93.137685 
747.000000	 93.162930 
746.000000	 93.197836 
745.000000	 93.248758 
744.000000	 93.313833 
743.000000	 93.384335 
742.000000	 93.451435 
741.000000	 93.515314 
740.000000	 93.585692 
739.000000	 93.669104 
738.000000	 93.758276 
737.000000	 93.839701 
736.000000	 93.908855 
735.000000	 93.971189 
734.000000	 94.031023 
733.000000	 94.087821 
732.000000	 94.141485 
731.000000	 94.190973 
730.000000	 94.227878 
729.000000	 94.242370 
728.000000	 94.237243 
727.000000	 94.227647 
726.000000	 94.225697 
725.000000	 94.233318 
724.000000	 94.250791 
723.000000	 94.281334 
722.000000	 94.323051 
721.000000	 94.365608 
720.000000	 94.400407 
719.000000	 94.427977 
718.000000	 94.451780 
717.000000	 94.472106 
716.000000	 94.490376 
715.000000	 94.511432 
714.000000	 94.535622 
713.000000	 94.554741 
712.000000	 94.561301 
711.000000	 94.557332 
710.000000	 94.549698 
709.000000	 94.541248 
708.000000	 94.530077 
707.000000	 94.512771 
706.000000	 94.485624 
705.000000	 94.446462 
704.000000	 94.396957 
703.000000	 94.339315 
702.000000	 94.268550 
701.000000	 94.173644 
700.000000	 94.048204 
699.000000	 93.894619 
698.000000	 93.720416 
697.000000	 93.539600 
696.000000	 93.378143 
695.000000	 93.267107 
694.000000	 93.223293 
693.000000	 93.242917 
692.000000	 93.313147 
691.000000	 93.416781 
690.000000	 93.528256 
689.000000	 93.622001 
688.000000	 93.692510 
687.000000	 93.754967 
686.000000	 93.818244 
685.000000	 93.872092 
684.000000	 93.906907 
683.000000	 93.928970 
682.000000	 93.949411 
681.000000	 93.972766 
680.000000	 94.003561 
679.000000	 94.048300 
678.000000	 94.100068 
677.000000	 94.137708 
676.000000	 94.152246 
675.000000	 94.158899 
674.000000	 94.178156 
673.000000	 94.213269 
672.000000	 94.249295 
671.000000	 94.267248 
670.000000	 94.253515 
669.000000	 94.210062 
668.000000	 94.172617 
667.000000	 94.188653 
666.000000	 94.260710 
665.000000	 94.354467 
664.000000	 94.432931 
663.000000	 94.475710 
662.000000	 94.483793 
661.000000	 94.476573 
660.000000	 94.474341 
659.000000	 94.479835 
658.000000	 94.475823 
657.000000	 94.444809 
656.000000	 94.391368 
655.000000	 94.338539 
654.000000	 94.304437 
653.000000	 94.282947 
652.000000	 94.253089 
651.000000	 94.209314 
650.000000	 94.173796 

