4000.000000	99.527803 
3999.000000	99.527436 
3998.000000	99.526109 
3997.000000	99.523876 
3996.000000	99.520847 
3995.000000	99.517366 
3994.000000	99.514256 
3993.000000	99.512648 
3992.000000	99.513206 
3991.000000	99.515410 
3990.000000	99.517849 
3989.000000	99.519558 
3988.000000	99.520953 
3987.000000	99.523170 
3986.000000	99.526539 
3985.000000	99.529994 
3984.000000	99.531958 
3983.000000	99.531493 
3982.000000	99.528670 
3981.000000	99.524276 
3980.000000	99.519285 
3979.000000	99.514607 
3978.000000	99.511384 
3977.000000	99.511076 
3976.000000	99.514589 
3975.000000	99.521034 
3974.000000	99.527715 
3973.000000	99.531830 
3972.000000	99.532337 
3971.000000	99.530388 
3970.000000	99.528118 
3969.000000	99.526888 
3968.000000	99.526686 
3967.000000	99.526765 
3966.000000	99.526574 
3965.000000	99.526263 
3964.000000	99.526119 
3963.000000	99.525554 
3962.000000	99.523122 
3961.000000	99.518000 
3960.000000	99.511315 
3959.000000	99.505872 
3958.000000	99.504171 
3957.000000	99.506365 
3956.000000	99.510463 
3955.000000	99.514087 
3954.000000	99.515794 
3953.000000	99.515097 
3952.000000	99.512036 
3951.000000	99.507643 
3950.000000	99.503946 
3949.000000	99.502831 
3948.000000	99.504718 
3947.000000	99.508274 
3946.000000	99.511682 
3945.000000	99.513980 
3944.000000	99.515313 
3943.000000	99.515743 
3942.000000	99.514807 
3941.000000	99.512547 
3940.000000	99.509794 
3939.000000	99.506986 
3938.000000	99.503575 
3937.000000	99.498929 
3936.000000	99.494037 
3935.000000	99.491734 
3934.000000	99.494915 
3933.000000	99.503945 
3932.000000	99.515230 
3931.000000	99.522785 
3930.000000	99.522262 
3929.000000	99.514328 
3928.000000	99.504357 
3927.000000	99.498386 
3926.000000	99.499327 
3925.000000	99.505378 
3924.000000	99.511329 
3923.000000	99.513151 
3922.000000	99.510919 
3921.000000	99.507735 
3920.000000	99.506691 
3919.000000	99.509003 
3918.000000	99.514147 
3917.000000	99.520308 
3916.000000	99.524964 
3915.000000	99.526525 
3914.000000	99.525850 
3913.000000	99.525296 
3912.000000	99.525823 
3911.000000	99.526208 
3910.000000	99.525228 
3909.000000	99.523580 
3908.000000	99.523126 
3907.000000	99.524393 
3906.000000	99.525050 
3905.000000	99.521323 
3904.000000	99.511002 
3903.000000	99.496715 
3902.000000	99.485566 
3901.000000	99.483664 
3900.000000	99.491556 
3899.000000	99.503969 
3898.000000	99.514228 
3897.000000	99.519344 
3896.000000	99.520172 
3895.000000	99.518599 
3894.000000	99.515976 
3893.000000	99.512871 
3892.000000	99.509424 
3891.000000	99.505790 
3890.000000	99.502459 
3889.000000	99.500000 
3888.000000	99.498668 
3887.000000	99.498818 
3886.000000	99.499660 
3885.000000	99.498952 
3884.000000	99.495864 
3883.000000	99.493321 
3882.000000	99.495355 
3881.000000	99.501942 
3880.000000	99.508138 
3879.000000	99.509702 
3878.000000	99.507944 
3877.000000	99.507141 
3876.000000	99.509650 
3875.000000	99.513410 
3874.000000	99.513246 
3873.000000	99.505647 
3872.000000	99.493266 
3871.000000	99.483637 
3870.000000	99.482239 
3869.000000	99.487773 
3868.000000	99.495499 
3867.000000	99.502807 
3866.000000	99.510072 
3865.000000	99.516861 
3864.000000	99.519035 
3863.000000	99.514120 
3862.000000	99.505776 
3861.000000	99.499806 
3860.000000	99.498790 
3859.000000	99.501706 
3858.000000	99.505294 
3857.000000	99.506707 
3856.000000	99.505361 
3855.000000	99.504659 
3854.000000	99.507873 
3853.000000	99.513037 
3852.000000	99.517630 
3851.000000	99.521829 
3850.000000	99.525135 
3849.000000	99.526627 
3848.000000	99.525751 
3847.000000	99.522607 
3846.000000	99.518339 
3845.000000	99.514114 
3844.000000	99.510214 
3843.000000	99.507415 
3842.000000	99.506603 
3841.000000	99.507420 
3840.000000	99.508940 
3839.000000	99.510411 
3838.000000	99.510948 
3837.000000	99.510585 
3836.000000	99.510356 
3835.000000	99.511868 
3834.000000	99.516277 
3833.000000	99.523321 
3832.000000	99.530823 
3831.000000	99.535314 
3830.000000	99.534780 
3829.000000	99.530404 
3828.000000	99.524955 
3827.000000	99.520646 
3826.000000	99.518041 
3825.000000	99.516084 
3824.000000	99.513819 
3823.000000	99.512912 
3822.000000	99.515682 
3821.000000	99.520894 
3820.000000	99.524702 
3819.000000	99.525589 
3818.000000	99.524549 
3817.000000	99.523176 
3816.000000	99.521924 
3815.000000	99.519632 
3814.000000	99.515792 
3813.000000	99.512273 
3812.000000	99.512104 
3811.000000	99.516024 
3810.000000	99.521330 
3809.000000	99.524495 
3808.000000	99.524192 
3807.000000	99.521513 
3806.000000	99.517987 
3805.000000	99.514216 
3804.000000	99.511106 
3803.000000	99.511027 
3802.000000	99.515217 
3801.000000	99.521080 
3800.000000	99.524765 
3799.000000	99.524904 
3798.000000	99.522232 
3797.000000	99.518281 
3796.000000	99.514642 
3795.000000	99.512449 
3794.000000	99.511987 
3793.000000	99.512441 
3792.000000	99.512423 
3791.000000	99.510885 
3790.000000	99.508231 
3789.000000	99.506154 
3788.000000	99.505969 
3787.000000	99.507254 
3786.000000	99.508691 
3785.000000	99.509562 
3784.000000	99.510191 
3783.000000	99.511099 
3782.000000	99.512592 
3781.000000	99.514806 
3780.000000	99.517083 
3779.000000	99.517916 
3778.000000	99.516472 
3777.000000	99.513346 
3776.000000	99.509547 
3775.000000	99.506135 
3774.000000	99.503861 
3773.000000	99.502813 
3772.000000	99.502598 
3771.000000	99.502829 
3770.000000	99.502838 
3769.000000	99.502178 
3768.000000	99.501955 
3767.000000	99.503470 
3766.000000	99.505845 
3765.000000	99.506617 
3764.000000	99.504040 
3763.000000	99.498832 
3762.000000	99.494271 
3761.000000	99.493940 
3760.000000	99.498156 
3759.000000	99.503405 
3758.000000	99.506708 
3757.000000	99.508431 
3756.000000	99.509412 
3755.000000	99.509634 
3754.000000	99.509691 
3753.000000	99.510974 
3752.000000	99.512599 
3751.000000	99.510139 
3750.000000	99.503143 
3749.000000	99.498343 
3748.000000	99.500122 
3747.000000	99.505955 
3746.000000	99.511557 
3745.000000	99.514417 
3744.000000	99.513398 
3743.000000	99.509712 
3742.000000	99.505437 
3741.000000	99.500587 
3740.000000	99.493646 
3739.000000	99.483593 
3738.000000	99.473585 
3737.000000	99.471573 
3736.000000	99.481248 
3735.000000	99.494837 
3734.000000	99.500678 
3733.000000	99.496876 
3732.000000	99.490932 
3731.000000	99.488910 
3730.000000	99.490709 
3729.000000	99.493218 
3728.000000	99.494875 
3727.000000	99.495912 
3726.000000	99.495886 
3725.000000	99.493950 
3724.000000	99.491084 
3723.000000	99.489619 
3722.000000	99.490125 
3721.000000	99.491348 
3720.000000	99.491914 
3719.000000	99.490689 
3718.000000	99.487512 
3717.000000	99.483387 
3716.000000	99.478772 
3715.000000	99.473661 
3714.000000	99.469415 
3713.000000	99.469256 
3712.000000	99.474432 
3711.000000	99.481614 
3710.000000	99.485967 
3709.000000	99.484541 
3708.000000	99.477267 
3707.000000	99.466483 
3706.000000	99.455568 
3705.000000	99.447760 
3704.000000	99.444783 
3703.000000	99.445396 
3702.000000	99.445309 
3701.000000	99.440807 
3700.000000	99.432376 
3699.000000	99.423109 
3698.000000	99.415132 
3697.000000	99.408835 
3696.000000	99.403474 
3695.000000	99.398537 
3694.000000	99.395115 
3693.000000	99.394726 
3692.000000	99.396360 
3691.000000	99.396090 
3690.000000	99.390420 
3689.000000	99.379965 
3688.000000	99.369306 
3687.000000	99.362012 
3686.000000	99.357477 
3685.000000	99.354444 
3684.000000	99.353437 
3683.000000	99.354974 
3682.000000	99.357389 
3681.000000	99.357567 
3680.000000	99.352963 
3679.000000	99.342317 
3678.000000	99.327042 
3677.000000	99.314055 
3676.000000	99.311925 
3675.000000	99.318703 
3674.000000	99.324012 
3673.000000	99.322164 
3672.000000	99.315816 
3671.000000	99.313039 
3670.000000	99.318674 
3669.000000	99.328982 
3668.000000	99.338265 
3667.000000	99.344643 
3666.000000	99.347861 
3665.000000	99.347525 
3664.000000	99.343921 
3663.000000	99.338798 
3662.000000	99.334555 
3661.000000	99.332111 
3660.000000	99.330253 
3659.000000	99.327914 
3658.000000	99.326383 
3657.000000	99.328019 
3656.000000	99.332796 
3655.000000	99.337964 
3654.000000	99.341380 
3653.000000	99.342894 
3652.000000	99.342946 
3651.000000	99.341101 
3650.000000	99.336526 
3649.000000	99.331421 
3648.000000	99.330568 
3647.000000	99.335309 
3646.000000	99.342624 
3645.000000	99.350052 
3644.000000	99.357824 
3643.000000	99.366775 
3642.000000	99.376929 
3641.000000	99.387048 
3640.000000	99.395427 
3639.000000	99.400810 
3638.000000	99.402713 
3637.000000	99.401820 
3636.000000	99.399642 
3635.000000	99.397481 
3634.000000	99.395211 
3633.000000	99.391615 
3632.000000	99.386780 
3631.000000	99.383381 
3630.000000	99.384410 
3629.000000	99.387559 
3628.000000	99.386802 
3627.000000	99.382105 
3626.000000	99.378446 
3625.000000	99.378016 
3624.000000	99.379132 
3623.000000	99.379858 
3622.000000	99.380823 
3621.000000	99.385197 
3620.000000	99.393606 
3619.000000	99.400280 
3618.000000	99.399130 
3617.000000	99.391961 
3616.000000	99.385817 
3615.000000	99.386169 
3614.000000	99.392510 
3613.000000	99.399142 
3612.000000	99.401405 
3611.000000	99.400512 
3610.000000	99.400973 
3609.000000	99.404719 
3608.000000	99.408933 
3607.000000	99.410285 
3606.000000	99.409832 
3605.000000	99.411183 
3604.000000	99.416131 
3603.000000	99.423715 
3602.000000	99.431744 
3601.000000	99.438799 
3600.000000	99.443747 
3599.000000	99.445152 
3598.000000	99.442775 
3597.000000	99.438326 
3596.000000	99.433996 
3595.000000	99.431687 
3594.000000	99.431934 
3593.000000	99.433546 
3592.000000	99.434632 
3591.000000	99.433336 
3590.000000	99.429570 
3589.000000	99.425939 
3588.000000	99.425590 
3587.000000	99.427607 
3586.000000	99.428553 
3585.000000	99.427787 
3584.000000	99.428161 
3583.000000	99.431952 
3582.000000	99.438479 
3581.000000	99.444804 
3580.000000	99.448241 
3579.000000	99.448054 
3578.000000	99.445073 
3577.000000	99.440863 
3576.000000	99.437174 
3575.000000	99.435356 
3574.000000	99.435433 
3573.000000	99.435456 
3572.000000	99.433233 
3571.000000	99.428411 
3570.000000	99.422449 
3569.000000	99.417832 
3568.000000	99.417178 
3567.000000	99.420941 
3566.000000	99.426659 
3565.000000	99.431911 
3564.000000	99.436706 
3563.000000	99.442732 
3562.000000	99.451171 
3561.000000	99.460662 
3560.000000	99.467740 
3559.000000	99.469318 
3558.000000	99.465280 
3557.000000	99.458549 
3556.000000	99.453031 
3555.000000	99.451094 
3554.000000	99.452422 
3553.000000	99.454209 
3552.000000	99.453166 
3551.000000	99.448405 
3550.000000	99.441838 
3549.000000	99.435921 
3548.000000	99.432202 
3547.000000	99.431245 
3546.000000	99.433042 
3545.000000	99.436429 
3544.000000	99.439472 
3543.000000	99.441313 
3542.000000	99.443227 
3541.000000	99.446726 
3540.000000	99.451439 
3539.000000	99.455194 
3538.000000	99.456398 
3537.000000	99.455656 
3536.000000	99.454764 
3535.000000	99.454889 
3534.000000	99.455670 
3533.000000	99.456362 
3532.000000	99.457092 
3531.000000	99.458859 
3530.000000	99.461810 
3529.000000	99.463885 
3528.000000	99.462356 
3527.000000	99.457061 
3526.000000	99.451122 
3525.000000	99.447855 
3524.000000	99.447626 
3523.000000	99.448192 
3522.000000	99.447820 
3521.000000	99.446875 
3520.000000	99.446959 
3519.000000	99.449523 
3518.000000	99.455185 
3517.000000	99.463089 
3516.000000	99.470420 
3515.000000	99.473781 
3514.000000	99.471588 
3513.000000	99.465304 
3512.000000	99.458296 
3511.000000	99.453555 
3510.000000	99.451921 
3509.000000	99.452150 
3508.000000	99.452543 
3507.000000	99.452583 
3506.000000	99.453149 
3505.000000	99.455065 
3504.000000	99.457832 
3503.000000	99.460148 
3502.000000	99.461712 
3501.000000	99.463640 
3500.000000	99.466753 
3499.000000	99.470138 
3498.000000	99.471739 
3497.000000	99.470292 
3496.000000	99.466367 
3495.000000	99.461857 
3494.000000	99.458694 
3493.000000	99.457729 
3492.000000	99.458503 
3491.000000	99.459993 
3490.000000	99.461722 
3489.000000	99.464134 
3488.000000	99.467653 
3487.000000	99.471399 
3486.000000	99.473451 
3485.000000	99.472789 
3484.000000	99.470532 
3483.000000	99.468859 
3482.000000	99.468521 
3481.000000	99.468091 
3480.000000	99.466166 
3479.000000	99.463517 
3478.000000	99.462129 
3477.000000	99.462629 
3476.000000	99.463933 
3475.000000	99.465460 
3474.000000	99.468244 
3473.000000	99.472831 
3472.000000	99.477320 
3471.000000	99.479113 
3470.000000	99.478110 
3469.000000	99.476531 
3468.000000	99.475676 
3467.000000	99.474423 
3466.000000	99.471633 
3465.000000	99.468607 
3464.000000	99.467947 
3463.000000	99.470530 
3462.000000	99.474642 
3461.000000	99.478123 
3460.000000	99.480502 
3459.000000	99.482749 
3458.000000	99.485391 
3457.000000	99.487208 
3456.000000	99.486133 
3455.000000	99.481730 
3454.000000	99.476367 
3453.000000	99.473420 
3452.000000	99.473825 
3451.000000	99.475143 
3450.000000	99.474415 
3449.000000	99.471561 
3448.000000	99.469224 
3447.000000	99.469464 
3446.000000	99.471484 
3445.000000	99.473136 
3444.000000	99.473800 
3443.000000	99.474737 
3442.000000	99.476828 
3441.000000	99.478768 
3440.000000	99.478209 
3439.000000	99.474433 
3438.000000	99.469130 
3437.000000	99.464433 
3436.000000	99.461071 
3435.000000	99.459019 
3434.000000	99.458969 
3433.000000	99.462004 
3432.000000	99.467510 
3431.000000	99.472747 
3430.000000	99.475228 
3429.000000	99.475005 
3428.000000	99.473958 
3427.000000	99.473090 
3426.000000	99.471508 
3425.000000	99.468150 
3424.000000	99.463755 
3423.000000	99.460423 
3422.000000	99.459395 
3421.000000	99.459958 
3420.000000	99.460852 
3419.000000	99.462078 
3418.000000	99.464484 
3417.000000	99.467890 
3416.000000	99.470654 
3415.000000	99.471376 
3414.000000	99.470434 
3413.000000	99.469399 
3412.000000	99.469300 
3411.000000	99.469855 
3410.000000	99.470013 
3409.000000	99.468773 
3408.000000	99.465763 
3407.000000	99.461631 
3406.000000	99.457961 
3405.000000	99.456321 
3404.000000	99.457148 
3403.000000	99.459647 
3402.000000	99.462653 
3401.000000	99.465584 
3400.000000	99.468558 
3399.000000	99.471821 
3398.000000	99.475016 
3397.000000	99.476996 
3396.000000	99.476501 
3395.000000	99.473095 
3394.000000	99.467325 
3393.000000	99.460129 
3392.000000	99.452630 
3391.000000	99.446622 
3390.000000	99.444619 
3389.000000	99.448401 
3388.000000	99.457161 
3387.000000	99.467502 
3386.000000	99.475856 
3385.000000	99.481128 
3384.000000	99.484688 
3383.000000	99.487691 
3382.000000	99.488810 
3381.000000	99.485475 
3380.000000	99.477455 
3379.000000	99.468594 
3378.000000	99.463970 
3377.000000	99.465209 
3376.000000	99.469206 
3375.000000	99.471615 
3374.000000	99.471004 
3373.000000	99.469360 
3372.000000	99.469306 
3371.000000	99.471476 
3370.000000	99.474294 
3369.000000	99.475470 
3368.000000	99.473887 
3367.000000	99.470699 
3366.000000	99.468658 
3365.000000	99.469607 
3364.000000	99.472402 
3363.000000	99.473859 
3362.000000	99.472009 
3361.000000	99.467949 
3360.000000	99.464228 
3359.000000	99.462190 
3358.000000	99.461597 
3357.000000	99.462366 
3356.000000	99.465265 
3355.000000	99.470240 
3354.000000	99.474864 
3353.000000	99.475653 
3352.000000	99.471208 
3351.000000	99.463823 
3350.000000	99.457802 
3349.000000	99.456278 
3348.000000	99.459477 
3347.000000	99.465209 
3346.000000	99.470490 
3345.000000	99.473180 
3344.000000	99.473061 
3343.000000	99.471816 
3342.000000	99.471314 
3341.000000	99.471503 
3340.000000	99.470380 
3339.000000	99.466648 
3338.000000	99.462093 
3337.000000	99.460392 
3336.000000	99.463274 
3335.000000	99.468540 
3334.000000	99.472474 
3333.000000	99.473644 
3332.000000	99.473585 
3331.000000	99.473981 
3330.000000	99.474346 
3329.000000	99.473114 
3328.000000	99.470304 
3327.000000	99.467924 
3326.000000	99.467463 
3325.000000	99.467890 
3324.000000	99.466751 
3323.000000	99.463119 
3322.000000	99.458780 
3321.000000	99.456411 
3320.000000	99.457030 
3319.000000	99.459482 
3318.000000	99.462064 
3317.000000	99.464079 
3316.000000	99.465691 
3315.000000	99.466981 
3314.000000	99.467909 
3313.000000	99.469090 
3312.000000	99.471622 
3311.000000	99.475520 
3310.000000	99.478789 
3309.000000	99.479000 
3308.000000	99.475878 
3307.000000	99.471751 
3306.000000	99.469288 
3305.000000	99.469306 
3304.000000	99.470839 
3303.000000	99.472517 
3302.000000	99.473310 
3301.000000	99.472497 
3300.000000	99.469836 
3299.000000	99.466129 
3298.000000	99.463259 
3297.000000	99.463306 
3296.000000	99.467026 
3295.000000	99.472775 
3294.000000	99.477139 
3293.000000	99.477480 
3292.000000	99.474295 
3291.000000	99.470532 
3290.000000	99.468217 
3289.000000	99.466501 
3288.000000	99.463473 
3287.000000	99.458997 
3286.000000	99.454746 
3285.000000	99.451900 
3284.000000	99.450050 
3283.000000	99.448411 
3282.000000	99.447173 
3281.000000	99.447346 
3280.000000	99.449947 
3279.000000	99.455430 
3278.000000	99.462996 
3277.000000	99.470108 
3276.000000	99.473394 
3275.000000	99.470958 
3274.000000	99.464032 
3273.000000	99.456287 
3272.000000	99.451506 
3271.000000	99.451429 
3270.000000	99.454959 
3269.000000	99.459075 
3268.000000	99.460907 
3267.000000	99.459500 
3266.000000	99.455907 
3265.000000	99.451971 
3264.000000	99.449263 
3263.000000	99.448770 
3262.000000	99.450844 
3261.000000	99.455037 
3260.000000	99.460260 
3259.000000	99.465191 
3258.000000	99.468528 
3257.000000	99.469210 
3256.000000	99.466818 
3255.000000	99.461809 
3254.000000	99.455332 
3253.000000	99.449169 
3252.000000	99.445734 
3251.000000	99.447063 
3250.000000	99.452747 
3249.000000	99.459367 
3248.000000	99.463123 
3247.000000	99.463100 
3246.000000	99.461318 
3245.000000	99.459859 
3244.000000	99.458916 
3243.000000	99.457550 
3242.000000	99.455126 
3241.000000	99.451696 
3240.000000	99.448113 
3239.000000	99.446314 
3238.000000	99.448673 
3237.000000	99.456164 
3236.000000	99.467095 
3235.000000	99.477697 
3234.000000	99.483916 
3233.000000	99.483437 
3232.000000	99.477231 
3231.000000	99.469391 
3230.000000	99.464351 
3229.000000	99.463496 
3228.000000	99.464667 
3227.000000	99.464834 
3226.000000	99.462596 
3225.000000	99.458389 
3224.000000	99.453605 
3223.000000	99.450122 
3222.000000	99.449589 
3221.000000	99.452106 
3220.000000	99.455936 
3219.000000	99.459100 
3218.000000	99.461135 
3217.000000	99.463069 
3216.000000	99.466173 
3215.000000	99.470812 
3214.000000	99.475742 
3213.000000	99.478215 
3212.000000	99.475605 
3211.000000	99.467806 
3210.000000	99.457932 
3209.000000	99.450259 
3208.000000	99.447431 
3207.000000	99.449245 
3206.000000	99.453244 
3205.000000	99.456295 
3204.000000	99.456644 
3203.000000	99.455148 
3202.000000	99.454121 
3201.000000	99.454706 
3200.000000	99.456068 
3199.000000	99.457210 
3198.000000	99.458470 
3197.000000	99.460558 
3196.000000	99.463123 
3195.000000	99.465157 
3194.000000	99.466093 
3193.000000	99.465642 
3192.000000	99.463236 
3191.000000	99.458732 
3190.000000	99.453370 
3189.000000	99.449201 
3188.000000	99.447658 
3187.000000	99.449112 
3186.000000	99.453111 
3185.000000	99.458054 
3184.000000	99.461259 
3183.000000	99.460698 
3182.000000	99.457016 
3181.000000	99.453142 
3180.000000	99.451734 
3179.000000	99.453253 
3178.000000	99.456160 
3177.000000	99.458330 
3176.000000	99.458598 
3175.000000	99.457724 
3174.000000	99.457725 
3173.000000	99.459495 
3172.000000	99.461196 
3171.000000	99.460038 
3170.000000	99.455792 
3169.000000	99.451552 
3168.000000	99.450464 
3167.000000	99.452417 
3166.000000	99.454620 
3165.000000	99.454891 
3164.000000	99.453589 
3163.000000	99.452486 
3162.000000	99.452716 
3161.000000	99.454311 
3160.000000	99.457040 
3159.000000	99.460656 
3158.000000	99.464076 
3157.000000	99.465275 
3156.000000	99.462986 
3155.000000	99.458293 
3154.000000	99.453631 
3153.000000	99.450110 
3152.000000	99.446698 
3151.000000	99.442370 
3150.000000	99.438129 
3149.000000	99.436134 
3148.000000	99.437374 
3147.000000	99.440966 
3146.000000	99.445338 
3145.000000	99.449323 
3144.000000	99.452247 
3143.000000	99.453814 
3142.000000	99.454190 
3141.000000	99.453882 
3140.000000	99.453319 
3139.000000	99.452677 
3138.000000	99.452009 
3137.000000	99.451495 
3136.000000	99.451655 
3135.000000	99.453223 
3134.000000	99.456264 
3133.000000	99.459292 
3132.000000	99.460001 
3131.000000	99.457504 
3130.000000	99.453475 
3129.000000	99.450625 
3128.000000	99.450402 
3127.000000	99.452503 
3126.000000	99.455867 
3125.000000	99.459198 
3124.000000	99.460953 
3123.000000	99.460101 
3122.000000	99.457370 
3121.000000	99.454974 
3120.000000	99.454643 
3119.000000	99.456212 
3118.000000	99.458164 
3117.000000	99.459148 
3116.000000	99.458916 
3115.000000	99.458179 
3114.000000	99.457777 
3113.000000	99.457881 
3112.000000	99.457999 
3111.000000	99.457842 
3110.000000	99.457812 
3109.000000	99.458273 
3108.000000	99.458645 
3107.000000	99.457800 
3106.000000	99.455276 
3105.000000	99.451726 
3104.000000	99.448450 
3103.000000	99.446924 
3102.000000	99.448425 
3101.000000	99.453044 
3100.000000	99.458954 
3099.000000	99.463426 
3098.000000	99.464978 
3097.000000	99.464198 
3096.000000	99.462544 
3095.000000	99.460877 
3094.000000	99.459253 
3093.000000	99.457527 
3092.000000	99.455731 
3091.000000	99.454262 
3090.000000	99.453967 
3089.000000	99.455713 
3088.000000	99.459427 
3087.000000	99.463729 
3086.000000	99.466836 
3085.000000	99.467801 
3084.000000	99.466769 
3083.000000	99.464299 
3082.000000	99.460911 
3081.000000	99.457375 
3080.000000	99.455031 
3079.000000	99.455333 
3078.000000	99.458747 
3077.000000	99.464047 
3076.000000	99.468856 
3075.000000	99.471146 
3074.000000	99.470391 
3073.000000	99.467572 
3072.000000	99.464186 
3071.000000	99.461161 
3070.000000	99.458383 
3069.000000	99.455096 
3068.000000	99.451036 
3067.000000	99.447425 
3066.000000	99.446640 
3065.000000	99.450353 
3064.000000	99.457641 
3063.000000	99.464970 
3062.000000	99.468379 
3061.000000	99.466181 
3060.000000	99.460042 
3059.000000	99.453589 
3058.000000	99.449770 
3057.000000	99.449298 
3056.000000	99.451207 
3055.000000	99.454381 
3054.000000	99.458108 
3053.000000	99.461423 
3052.000000	99.462729 
3051.000000	99.460757 
3050.000000	99.456093 
3049.000000	99.451487 
3048.000000	99.449993 
3047.000000	99.452067 
3046.000000	99.454497 
3045.000000	99.452978 
3044.000000	99.446479 
3043.000000	99.438659 
3042.000000	99.434325 
3041.000000	99.434664 
3040.000000	99.436625 
3039.000000	99.436623 
3038.000000	99.433656 
3037.000000	99.428753 
3036.000000	99.422757 
3035.000000	99.415773 
3034.000000	99.408166 
3033.000000	99.400874 
3032.000000	99.394396 
3031.000000	99.388011 
3030.000000	99.380445 
3029.000000	99.371416 
3028.000000	99.362468 
3027.000000	99.355982 
3026.000000	99.352857 
3025.000000	99.351009 
3024.000000	99.346719 
3023.000000	99.337851 
3022.000000	99.325473 
3021.000000	99.312035 
3020.000000	99.298521 
3019.000000	99.284030 
3018.000000	99.267986 
3017.000000	99.251791 
3016.000000	99.237704 
3015.000000	99.226370 
3014.000000	99.216116 
3013.000000	99.204873 
3012.000000	99.192341 
3011.000000	99.179786 
3010.000000	99.168006 
3009.000000	99.156384 
3008.000000	99.144158 
3007.000000	99.131770 
3006.000000	99.120189 
3005.000000	99.109265 
3004.000000	99.097588 
3003.000000	99.083968 
3002.000000	99.068462 
3001.000000	99.052063 
3000.000000	99.036111 
2999.000000	99.022159 
2998.000000	99.011783 
2997.000000	99.005852 
2996.000000	99.003608 
2995.000000	99.001854 
2994.000000	98.995076 
2993.000000	98.977920 
2992.000000	98.949658 
2991.000000	98.916571 
2990.000000	98.888677 
2989.000000	98.873069 
2988.000000	98.870307 
2987.000000	98.876620 
2986.000000	98.887929 
2985.000000	98.901158 
2984.000000	98.913250 
2983.000000	98.921151 
2982.000000	98.923397 
2981.000000	98.921262 
2980.000000	98.918011 
2979.000000	98.916796 
2978.000000	98.918596 
2977.000000	98.921591 
2976.000000	98.922677 
2975.000000	98.920108 
2974.000000	98.914926 
2973.000000	98.910016 
2972.000000	98.908122 
2971.000000	98.910625 
2970.000000	98.917395 
2969.000000	98.927191 
2968.000000	98.938472 
2967.000000	98.950351 
2966.000000	98.962771 
2965.000000	98.975580 
2964.000000	98.987786 
2963.000000	98.998110 
2962.000000	99.006200 
2961.000000	99.013031 
2960.000000	99.020014 
2959.000000	99.027714 
2958.000000	99.035383 
2957.000000	99.041830 
2956.000000	99.046989 
2955.000000	99.052518 
2954.000000	99.060521 
2953.000000	99.071544 
2952.000000	99.084015 
2951.000000	99.095526 
2950.000000	99.104335 
2949.000000	99.109827 
2948.000000	99.112227 
2947.000000	99.112418 
2946.000000	99.111903 
2945.000000	99.112631 
2944.000000	99.116351 
2943.000000	99.123362 
2942.000000	99.131441 
2941.000000	99.136709 
2940.000000	99.136642 
2939.000000	99.132645 
2938.000000	99.129153 
2937.000000	99.130067 
2936.000000	99.136207 
2935.000000	99.145643 
2934.000000	99.155493 
2933.000000	99.163287 
2932.000000	99.167722 
2931.000000	99.168841 
2930.000000	99.167482 
2929.000000	99.164599 
2928.000000	99.161258 
2927.000000	99.158625 
2926.000000	99.156988 
2925.000000	99.155007 
2924.000000	99.151083 
2923.000000	99.145491 
2922.000000	99.140103 
2921.000000	99.135812 
2920.000000	99.131390 
2919.000000	99.125247 
2918.000000	99.117343 
2917.000000	99.108838 
2916.000000	99.100682 
2915.000000	99.093095 
2914.000000	99.085900 
2913.000000	99.078947 
2912.000000	99.072618 
2911.000000	99.067923 
2910.000000	99.065399 
2909.000000	99.063963 
2908.000000	99.061684 
2907.000000	99.057813 
2906.000000	99.052731 
2905.000000	99.045804 
2904.000000	99.035099 
2903.000000	99.020749 
2902.000000	99.007609 
2901.000000	99.003231 
2900.000000	99.011295 
2899.000000	99.028759 
2898.000000	99.047851 
2897.000000	99.061219 
2896.000000	99.066249 
2895.000000	99.065935 
2894.000000	99.065919 
2893.000000	99.069933 
2892.000000	99.077636 
2891.000000	99.086173 
2890.000000	99.092959 
2889.000000	99.096784 
2888.000000	99.097575 
2887.000000	99.096412 
2886.000000	99.095510 
2885.000000	99.097052 
2884.000000	99.101776 
2883.000000	99.109048 
2882.000000	99.118117 
2881.000000	99.128736 
2880.000000	99.140631 
2879.000000	99.152966 
2878.000000	99.164564 
2877.000000	99.174576 
2876.000000	99.183085 
2875.000000	99.191117 
2874.000000	99.199690 
2873.000000	99.208548 
2872.000000	99.216141 
2871.000000	99.221110 
2870.000000	99.223607 
2869.000000	99.225253 
2868.000000	99.228360 
2867.000000	99.235200 
2866.000000	99.246836 
2865.000000	99.261800 
2864.000000	99.276450 
2863.000000	99.287583 
2862.000000	99.294690 
2861.000000	99.299463 
2860.000000	99.303822 
2859.000000	99.309085 
2858.000000	99.316129 
2857.000000	99.325006 
2856.000000	99.334392 
2855.000000	99.342484 
2854.000000	99.348719 
2853.000000	99.354110 
2852.000000	99.359890 
2851.000000	99.366331 
2850.000000	99.372862 
2849.000000	99.378769 
2848.000000	99.383704 
2847.000000	99.387908 
2846.000000	99.391925 
2845.000000	99.395706 
2844.000000	99.398176 
2843.000000	99.398384 
2842.000000	99.397281 
2841.000000	99.397688 
2840.000000	99.401960 
2839.000000	99.409705 
2838.000000	99.418043 
2837.000000	99.424094 
2836.000000	99.427145 
2835.000000	99.428601 
2834.000000	99.430172 
2833.000000	99.432308 
2832.000000	99.434180 
2831.000000	99.434743 
2830.000000	99.433571 
2829.000000	99.431019 
2828.000000	99.428195 
2827.000000	99.426732 
2826.000000	99.427934 
2825.000000	99.431656 
2824.000000	99.436201 
2823.000000	99.439584 
2822.000000	99.440944 
2821.000000	99.440855 
2820.000000	99.440650 
2819.000000	99.441538 
2818.000000	99.443893 
2817.000000	99.446994 
2816.000000	99.449566 
2815.000000	99.450735 
2814.000000	99.450443 
2813.000000	99.449147 
2812.000000	99.447567 
2811.000000	99.446811 
2810.000000	99.448062 
2809.000000	99.451598 
2808.000000	99.456181 
2807.000000	99.459714 
2806.000000	99.460626 
2805.000000	99.458876 
2804.000000	99.456048 
2803.000000	99.454444 
2802.000000	99.455480 
2801.000000	99.458613 
2800.000000	99.461994 
2799.000000	99.464153 
2798.000000	99.464661 
2797.000000	99.463389 
2796.000000	99.460236 
2795.000000	99.456116 
2794.000000	99.453337 
2793.000000	99.453846 
2792.000000	99.457175 
2791.000000	99.460871 
2790.000000	99.463076 
2789.000000	99.464159 
2788.000000	99.465728 
2787.000000	99.468497 
2786.000000	99.471381 
2785.000000	99.472447 
2784.000000	99.470650 
2783.000000	99.466819 
2782.000000	99.463195 
2781.000000	99.461864 
2780.000000	99.463322 
2779.000000	99.466299 
2778.000000	99.468968 
2777.000000	99.470511 
2776.000000	99.471631 
2775.000000	99.473381 
2774.000000	99.475579 
2773.000000	99.476853 
2772.000000	99.476509 
2771.000000	99.475741 
2770.000000	99.476268 
2769.000000	99.478097 
2768.000000	99.479643 
2767.000000	99.480086 
2766.000000	99.480529 
2765.000000	99.482224 
2764.000000	99.484434 
2763.000000	99.484906 
2762.000000	99.482305 
2761.000000	99.477548 
2760.000000	99.472816 
2759.000000	99.469778 
2758.000000	99.468817 
2757.000000	99.469472 
2756.000000	99.471041 
2755.000000	99.472677 
2754.000000	99.473352 
2753.000000	99.472456 
2752.000000	99.470775 
2751.000000	99.470375 
2750.000000	99.472798 
2749.000000	99.477354 
2748.000000	99.481622 
2747.000000	99.483609 
2746.000000	99.483040 
2745.000000	99.480764 
2744.000000	99.477748 
2743.000000	99.474903 
2742.000000	99.473214 
2741.000000	99.473465 
2740.000000	99.475857 
2739.000000	99.479929 
2738.000000	99.484620 
2737.000000	99.488521 
2736.000000	99.490658 
2735.000000	99.491161 
2734.000000	99.490825 
2733.000000	99.490027 
2732.000000	99.488568 
2731.000000	99.486516 
2730.000000	99.484495 
2729.000000	99.482979 
2728.000000	99.481994 
2727.000000	99.481738 
2726.000000	99.482709 
2725.000000	99.484752 
2724.000000	99.486698 
2723.000000	99.487713 
2722.000000	99.488561 
2721.000000	99.490741 
2720.000000	99.494373 
2719.000000	99.497586 
2718.000000	99.498166 
2717.000000	99.495610 
2716.000000	99.491639 
2715.000000	99.488923 
2714.000000	99.489165 
2713.000000	99.491968 
2712.000000	99.495262 
2711.000000	99.496954 
2710.000000	99.496494 
2709.000000	99.495151 
2708.000000	99.494751 
2707.000000	99.495836 
2706.000000	99.496980 
2705.000000	99.496304 
2704.000000	99.493869 
2703.000000	99.491946 
2702.000000	99.492428 
2701.000000	99.494510 
2700.000000	99.495856 
2699.000000	99.495755 
2698.000000	99.495969 
2697.000000	99.498261 
2696.000000	99.502073 
2695.000000	99.505194 
2694.000000	99.506106 
2693.000000	99.505138 
2692.000000	99.503671 
2691.000000	99.502725 
2690.000000	99.502278 
2689.000000	99.501775 
2688.000000	99.501242 
2687.000000	99.501539 
2686.000000	99.503195 
2685.000000	99.505364 
2684.000000	99.506593 
2683.000000	99.506398 
2682.000000	99.505224 
2681.000000	99.503001 
2680.000000	99.498921 
2679.000000	99.493068 
2678.000000	99.487468 
2677.000000	99.484964 
2676.000000	99.487318 
2675.000000	99.494247 
2674.000000	99.503314 
2673.000000	99.510513 
2672.000000	99.512332 
2671.000000	99.508465 
2670.000000	99.502223 
2669.000000	99.497554 
2668.000000	99.495786 
2667.000000	99.495633 
2666.000000	99.495679 
2665.000000	99.495904 
2664.000000	99.496896 
2663.000000	99.498565 
2662.000000	99.500219 
2661.000000	99.501609 
2660.000000	99.503327 
2659.000000	99.505894 
2658.000000	99.508814 
2657.000000	99.511133 
2656.000000	99.512914 
2655.000000	99.515187 
2654.000000	99.517995 
2653.000000	99.519643 
2652.000000	99.519209 
2651.000000	99.518917 
2650.000000	99.521914 
2649.000000	99.527606 
2648.000000	99.531419 
2647.000000	99.530227 
2646.000000	99.526482 
2645.000000	99.525465 
2644.000000	99.529228 
2643.000000	99.534522 
2642.000000	99.536284 
2641.000000	99.532313 
2640.000000	99.524979 
2639.000000	99.519207 
2638.000000	99.518510 
2637.000000	99.522167 
2636.000000	99.526312 
2635.000000	99.527904 
2634.000000	99.527076 
2633.000000	99.525663 
2632.000000	99.524792 
2631.000000	99.524662 
2630.000000	99.525309 
2629.000000	99.526164 
2628.000000	99.525686 
2627.000000	99.523029 
2626.000000	99.519765 
2625.000000	99.518559 
2624.000000	99.520170 
2623.000000	99.522839 
2622.000000	99.524522 
2621.000000	99.524681 
2620.000000	99.523948 
2619.000000	99.523268 
2618.000000	99.523629 
2617.000000	99.525649 
2616.000000	99.528921 
2615.000000	99.532229 
2614.000000	99.534591 
2613.000000	99.535756 
2612.000000	99.535776 
2611.000000	99.534717 
2610.000000	99.532848 
2609.000000	99.530636 
2608.000000	99.528554 
2607.000000	99.527335 
2606.000000	99.528260 
2605.000000	99.532331 
2604.000000	99.538770 
2603.000000	99.544801 
2602.000000	99.547610 
2601.000000	99.546794 
2600.000000	99.544789 
2599.000000	99.544456 
2598.000000	99.545934 
2597.000000	99.546168 
2596.000000	99.542216 
2595.000000	99.534972 
2594.000000	99.528801 
2593.000000	99.527216 
2592.000000	99.529759 
2591.000000	99.533584 
2590.000000	99.537013 
2589.000000	99.540236 
2588.000000	99.542957 
2587.000000	99.543089 
2586.000000	99.538808 
2585.000000	99.531397 
2584.000000	99.524967 
2583.000000	99.522880 
2582.000000	99.524747 
2581.000000	99.527374 
2580.000000	99.528317 
2579.000000	99.527650 
2578.000000	99.526274 
2577.000000	99.523971 
2576.000000	99.520282 
2575.000000	99.516360 
2574.000000	99.514346 
2573.000000	99.515058 
2572.000000	99.517562 
2571.000000	99.520879 
2570.000000	99.524703 
2569.000000	99.528399 
2568.000000	99.530870 
2567.000000	99.531834 
2566.000000	99.531938 
2565.000000	99.531242 
2564.000000	99.529028 
2563.000000	99.525824 
2562.000000	99.524152 
2561.000000	99.525966 
2560.000000	99.529853 
2559.000000	99.531798 
2558.000000	99.528824 
2557.000000	99.521978 
2556.000000	99.516237 
2555.000000	99.517056 
2554.000000	99.525556 
2553.000000	99.536689 
2552.000000	99.543205 
2551.000000	99.541916 
2550.000000	99.535340 
2549.000000	99.527568 
2548.000000	99.520355 
2547.000000	99.513762 
2546.000000	99.508644 
2545.000000	99.506813 
2544.000000	99.509198 
2543.000000	99.514467 
2542.000000	99.519034 
2541.000000	99.518732 
2540.000000	99.512323 
2539.000000	99.503768 
2538.000000	99.499047 
2537.000000	99.499737 
2536.000000	99.501609 
2535.000000	99.500763 
2534.000000	99.498786 
2533.000000	99.499460 
2532.000000	99.502196 
2531.000000	99.502274 
2530.000000	99.497547 
2529.000000	99.491736 
2528.000000	99.489756 
2527.000000	99.491797 
2526.000000	99.493844 
2525.000000	99.493210 
2524.000000	99.491796 
2523.000000	99.493669 
2522.000000	99.500418 
2521.000000	99.509499 
2520.000000	99.516565 
2519.000000	99.518577 
2518.000000	99.514866 
2517.000000	99.506675 
2516.000000	99.496707 
2515.000000	99.488380 
2514.000000	99.484164 
2513.000000	99.484486 
2512.000000	99.488644 
2511.000000	99.496014 
2510.000000	99.505316 
2509.000000	99.513691 
2508.000000	99.518551 
2507.000000	99.520259 
2506.000000	99.521156 
2505.000000	99.521922 
2504.000000	99.520844 
2503.000000	99.516997 
2502.000000	99.512099 
2501.000000	99.508471 
2500.000000	99.506955 
2499.000000	99.507577 
2498.000000	99.510284 
2497.000000	99.513736 
2496.000000	99.515117 
2495.000000	99.512834 
2494.000000	99.508479 
2493.000000	99.504898 
2492.000000	99.503274 
2491.000000	99.503122 
2490.000000	99.504161 
2489.000000	99.507004 
2488.000000	99.512505 
2487.000000	99.520735 
2486.000000	99.529431 
2485.000000	99.533346 
2484.000000	99.527687 
2483.000000	99.513864 
2482.000000	99.500069 
2481.000000	99.494019 
2480.000000	99.495840 
2479.000000	99.499505 
2478.000000	99.499933 
2477.000000	99.496940 
2476.000000	99.493576 
2475.000000	99.493152 
2474.000000	99.497454 
2473.000000	99.505380 
2472.000000	99.512996 
2471.000000	99.516683 
2470.000000	99.516567 
2469.000000	99.515645 
2468.000000	99.515664 
2467.000000	99.515432 
2466.000000	99.513300 
2465.000000	99.509665 
2464.000000	99.506388 
2463.000000	99.504924 
2462.000000	99.505630 
2461.000000	99.507927 
2460.000000	99.510338 
2459.000000	99.510979 
2458.000000	99.508854 
2457.000000	99.504752 
2456.000000	99.500675 
2455.000000	99.498400 
2454.000000	99.498421 
2453.000000	99.499846 
2452.000000	99.501090 
2451.000000	99.500791 
2450.000000	99.498386 
2449.000000	99.494403 
2448.000000	99.490694 
2447.000000	99.489919 
2446.000000	99.493515 
2445.000000	99.499556 
2444.000000	99.503454 
2443.000000	99.501764 
2442.000000	99.495373 
2441.000000	99.488833 
2440.000000	99.486745 
2439.000000	99.490534 
2438.000000	99.497672 
2437.000000	99.503479 
2436.000000	99.504340 
2435.000000	99.500080 
2434.000000	99.493517 
2433.000000	99.488106 
2432.000000	99.486253 
2431.000000	99.488923 
2430.000000	99.494990 
2429.000000	99.500746 
2428.000000	99.501956 
2427.000000	99.497726 
2426.000000	99.491563 
2425.000000	99.487836 
2424.000000	99.488050 
2423.000000	99.491201 
2422.000000	99.496299 
2421.000000	99.502725 
2420.000000	99.508618 
2419.000000	99.510910 
2418.000000	99.507777 
2417.000000	99.500411 
2416.000000	99.491866 
2415.000000	99.484452 
2414.000000	99.478543 
2413.000000	99.473629 
2412.000000	99.469876 
2411.000000	99.468111 
2410.000000	99.468308 
2409.000000	99.468842 
2408.000000	99.467880 
2407.000000	99.465299 
2406.000000	99.462717 
2405.000000	99.461987 
2404.000000	99.464085 
2403.000000	99.468754 
2402.000000	99.474139 
2401.000000	99.477101 
2400.000000	99.475283 
2399.000000	99.469259 
2398.000000	99.462237 
2397.000000	99.457714 
2396.000000	99.457592 
2395.000000	99.461434 
2394.000000	99.466325 
2393.000000	99.468248 
2392.000000	99.465331 
2391.000000	99.459668 
2390.000000	99.454847 
2389.000000	99.452402 
2388.000000	99.452143 
2387.000000	99.454777 
2386.000000	99.461334 
2385.000000	99.470003 
2384.000000	99.476527 
2383.000000	99.478799 
2382.000000	99.478767 
2381.000000	99.478625 
2380.000000	99.477453 
2379.000000	99.473686 
2378.000000	99.469292 
2377.000000	99.468760 
2376.000000	99.473987 
2375.000000	99.481712 
2374.000000	99.485970 
2373.000000	99.482431 
2372.000000	99.471440 
2371.000000	99.458417 
2370.000000	99.450503 
2369.000000	99.451275 
2368.000000	99.458732 
2367.000000	99.468700 
2366.000000	99.478933 
2365.000000	99.489001 
2364.000000	99.497468 
2363.000000	99.501172 
2362.000000	99.497173 
2361.000000	99.485720 
2360.000000	99.472105 
2359.000000	99.463329 
2358.000000	99.461891 
2357.000000	99.464003 
2356.000000	99.466142 
2355.000000	99.469999 
2354.000000	99.477134 
2353.000000	99.484111 
2352.000000	99.485922 
2351.000000	99.483226 
2350.000000	99.480919 
2349.000000	99.481230 
2348.000000	99.482883 
2347.000000	99.483916 
2346.000000	99.484637 
2345.000000	99.486064 
2344.000000	99.488086 
2343.000000	99.490208 
2342.000000	99.491219 
2341.000000	99.490232 
2340.000000	99.487659 
2339.000000	99.487161 
2338.000000	99.492068 
2337.000000	99.499923 
2336.000000	99.503045 
2335.000000	99.496823 
2334.000000	99.485676 
2333.000000	99.478675 
2332.000000	99.479655 
2331.000000	99.483530 
2330.000000	99.483735 
2329.000000	99.479633 
2328.000000	99.478030 
2327.000000	99.484926 
2326.000000	99.500049 
2325.000000	99.515392 
2324.000000	99.522211 
2323.000000	99.519334 
2322.000000	99.513813 
2321.000000	99.511984 
2320.000000	99.511164 
2319.000000	99.505085 
2318.000000	99.494227 
2317.000000	99.486219 
2316.000000	99.485939 
2315.000000	99.489806 
2314.000000	99.492039 
2313.000000	99.491837 
2312.000000	99.493020 
2311.000000	99.497072 
2310.000000	99.501418 
2309.000000	99.502685 
2308.000000	99.500939 
2307.000000	99.498631 
2306.000000	99.497943 
2305.000000	99.498919 
2304.000000	99.500782 
2303.000000	99.503069 
2302.000000	99.505559 
2301.000000	99.507177 
2300.000000	99.507121 
2299.000000	99.506358 
2298.000000	99.507054 
2297.000000	99.509215 
2296.000000	99.510368 
2295.000000	99.508985 
2294.000000	99.507298 
2293.000000	99.508509 
2292.000000	99.512872 
2291.000000	99.517748 
2290.000000	99.520881 
2289.000000	99.521759 
2288.000000	99.520840 
2287.000000	99.519307 
2286.000000	99.518933 
2285.000000	99.520191 
2284.000000	99.520891 
2283.000000	99.518582 
2282.000000	99.513757 
2281.000000	99.508885 
2280.000000	99.504949 
2279.000000	99.501407 
2278.000000	99.498951 
2277.000000	99.499497 
2276.000000	99.503018 
2275.000000	99.506882 
2274.000000	99.508911 
2273.000000	99.509254 
2272.000000	99.509015 
2271.000000	99.508821 
2270.000000	99.509050 
2269.000000	99.509676 
2268.000000	99.509673 
2267.000000	99.508290 
2266.000000	99.506918 
2265.000000	99.507563 
2264.000000	99.509201 
2263.000000	99.507908 
2262.000000	99.501739 
2261.000000	99.493968 
2260.000000	99.490259 
2259.000000	99.493287 
2258.000000	99.500586 
2257.000000	99.507066 
2256.000000	99.509240 
2255.000000	99.507516 
2254.000000	99.504778 
2253.000000	99.503334 
2252.000000	99.503852 
2251.000000	99.506407 
2250.000000	99.510400 
2249.000000	99.513345 
2248.000000	99.512121 
2247.000000	99.507485 
2246.000000	99.503751 
2245.000000	99.503147 
2244.000000	99.502833 
2243.000000	99.499746 
2242.000000	99.495537 
2241.000000	99.493784 
2240.000000	99.495036 
2239.000000	99.498261 
2238.000000	99.504492 
2237.000000	99.513936 
2236.000000	99.520952 
2235.000000	99.517819 
2234.000000	99.504356 
2233.000000	99.489442 
2232.000000	99.481672 
2231.000000	99.481704 
2230.000000	99.484433 
2229.000000	99.485093 
2228.000000	99.482062 
2227.000000	99.476705 
2226.000000	99.472137 
2225.000000	99.470666 
2224.000000	99.472117 
2223.000000	99.475920 
2222.000000	99.483071 
2221.000000	99.492638 
2220.000000	99.498276 
2219.000000	99.494102 
2218.000000	99.484602 
2217.000000	99.482679 
2216.000000	99.494830 
2215.000000	99.512758 
2214.000000	99.523160 
2213.000000	99.522201 
2212.000000	99.516295 
2211.000000	99.511659 
2210.000000	99.508919 
2209.000000	99.507438 
2208.000000	99.508656 
2207.000000	99.512104 
2206.000000	99.511757 
2205.000000	99.501376 
2204.000000	99.484012 
2203.000000	99.472424 
2202.000000	99.477151 
2201.000000	99.494756 
2200.000000	99.510380 
2199.000000	99.512408 
2198.000000	99.502404 
2197.000000	99.490378 
2196.000000	99.483661 
2195.000000	99.482776 
2194.000000	99.485425 
2193.000000	99.489876 
2192.000000	99.494585 
2191.000000	99.498411 
2190.000000	99.502552 
2189.000000	99.509605 
2188.000000	99.518873 
2187.000000	99.524429 
2186.000000	99.520324 
2185.000000	99.507765 
2184.000000	99.495137 
2183.000000	99.489629 
2182.000000	99.489713 
2181.000000	99.487450 
2180.000000	99.478343 
2179.000000	99.466992 
2178.000000	99.462018 
2177.000000	99.467175 
2176.000000	99.478851 
2175.000000	99.490709 
2174.000000	99.498372 
2173.000000	99.501006 
2172.000000	99.501942 
2171.000000	99.507406 
2170.000000	99.521126 
2169.000000	99.539586 
2168.000000	99.555231 
2167.000000	99.564290 
2166.000000	99.568598 
2165.000000	99.571190 
2164.000000	99.574960 
2163.000000	99.584272 
2162.000000	99.599894 
2161.000000	99.610309 
2160.000000	99.596971 
2159.000000	99.554928 
2158.000000	99.501691 
2157.000000	99.458364 
2156.000000	99.429634 
2155.000000	99.410209 
2154.000000	99.400803 
2153.000000	99.406954 
2152.000000	99.426441 
2151.000000	99.447155 
2150.000000	99.458346 
2149.000000	99.460041 
2148.000000	99.461254 
2147.000000	99.470577 
2146.000000	99.487290 
2145.000000	99.500108 
2144.000000	99.497166 
2143.000000	99.479027 
2142.000000	99.459016 
2141.000000	99.449061 
2140.000000	99.448536 
2139.000000	99.449530 
2138.000000	99.448497 
2137.000000	99.447490 
2136.000000	99.446899 
2135.000000	99.443678 
2134.000000	99.437270 
2133.000000	99.432320 
2132.000000	99.433447 
2131.000000	99.439462 
2130.000000	99.443856 
2129.000000	99.440294 
2128.000000	99.428334 
2127.000000	99.414613 
2126.000000	99.407542 
2125.000000	99.410086 
2124.000000	99.418736 
2123.000000	99.429539 
2122.000000	99.442001 
2121.000000	99.455749 
2120.000000	99.467307 
2119.000000	99.473785 
2118.000000	99.477491 
2117.000000	99.483121 
2116.000000	99.491373 
2115.000000	99.498456 
2114.000000	99.501050 
2113.000000	99.498666 
2112.000000	99.492055 
2111.000000	99.482953 
2110.000000	99.475301 
2109.000000	99.472793 
2108.000000	99.473981 
2107.000000	99.472883 
2106.000000	99.466150 
2105.000000	99.457760 
2104.000000	99.455062 
2103.000000	99.461144 
2102.000000	99.471912 
2101.000000	99.479734 
2100.000000	99.479498 
2099.000000	99.471986 
2098.000000	99.462335 
2097.000000	99.455663 
2096.000000	99.454166 
2095.000000	99.457527 
2094.000000	99.464000 
2093.000000	99.470244 
2092.000000	99.472547 
2091.000000	99.470580 
2090.000000	99.468976 
2089.000000	99.472860 
2088.000000	99.481451 
2087.000000	99.487510 
2086.000000	99.483668 
2085.000000	99.469631 
2084.000000	99.454059 
2083.000000	99.448794 
2082.000000	99.458932 
2081.000000	99.477402 
2080.000000	99.491300 
2079.000000	99.495007 
2078.000000	99.495020 
2077.000000	99.500585 
2076.000000	99.511968 
2075.000000	99.520324 
2074.000000	99.517229 
2073.000000	99.502032 
2072.000000	99.481665 
2071.000000	99.465493 
2070.000000	99.459172 
2069.000000	99.460875 
2068.000000	99.463445 
2067.000000	99.461562 
2066.000000	99.456160 
2065.000000	99.451945 
2064.000000	99.452933 
2063.000000	99.460948 
2062.000000	99.474503 
2061.000000	99.487040 
2060.000000	99.490951 
2059.000000	99.486891 
2058.000000	99.485002 
2057.000000	99.492655 
2056.000000	99.504733 
2055.000000	99.511506 
2054.000000	99.512969 
2053.000000	99.518228 
2052.000000	99.531286 
2051.000000	99.544214 
2050.000000	99.546199 
2049.000000	99.535665 
2048.000000	99.521584 
2047.000000	99.514438 
2046.000000	99.517928 
2045.000000	99.527616 
2044.000000	99.535297 
2043.000000	99.536018 
2042.000000	99.532150 
2041.000000	99.530006 
2040.000000	99.532445 
2039.000000	99.536477 
2038.000000	99.537627 
2037.000000	99.533990 
2036.000000	99.525700 
2035.000000	99.512606 
2034.000000	99.494520 
2033.000000	99.474557 
2032.000000	99.461569 
2031.000000	99.466061 
2030.000000	99.489354 
2029.000000	99.516543 
2028.000000	99.525822 
2027.000000	99.508316 
2026.000000	99.475822 
2025.000000	99.448799 
2024.000000	99.440439 
2023.000000	99.452187 
2022.000000	99.476660 
2021.000000	99.500128 
2020.000000	99.509124 
2019.000000	99.501777 
2018.000000	99.489461 
2017.000000	99.482749 
2016.000000	99.479654 
2015.000000	99.473439 
2014.000000	99.465708 
2013.000000	99.463085 
2012.000000	99.465748 
2011.000000	99.468172 
2010.000000	99.468908 
2009.000000	99.471220 
2008.000000	99.475392 
2007.000000	99.478987 
2006.000000	99.483841 
2005.000000	99.493628 
2004.000000	99.504252 
2003.000000	99.505500 
2002.000000	99.493798 
2001.000000	99.476617 
2000.000000	99.462608 
1999.000000	99.452996 
1998.000000	99.444740 
1997.000000	99.437272 
1996.000000	99.433352 
1995.000000	99.435564 
1994.000000	99.443876 
1993.000000	99.455440 
1992.000000	99.465981 
1991.000000	99.472610 
1990.000000	99.475229 
1989.000000	99.474483 
1988.000000	99.471107 
1987.000000	99.468983 
1986.000000	99.475260 
1985.000000	99.493413 
1984.000000	99.517527 
1983.000000	99.536732 
1982.000000	99.543973 
1981.000000	99.538392 
1980.000000	99.522869 
1979.000000	99.503812 
1978.000000	99.490073 
1977.000000	99.485016 
1976.000000	99.480864 
1975.000000	99.467762 
1974.000000	99.447772 
1973.000000	99.433631 
1972.000000	99.433697 
1971.000000	99.443908 
1970.000000	99.455540 
1969.000000	99.465191 
1968.000000	99.473994 
1967.000000	99.480646 
1966.000000	99.480506 
1965.000000	99.471987 
1964.000000	99.460517 
1963.000000	99.454617 
1962.000000	99.458459 
1961.000000	99.468104 
1960.000000	99.475166 
1959.000000	99.474335 
1958.000000	99.466939 
1957.000000	99.457941 
1956.000000	99.450583 
1955.000000	99.443762 
1954.000000	99.433459 
1953.000000	99.416969 
1952.000000	99.396876 
1951.000000	99.380672 
1950.000000	99.375420 
1949.000000	99.382182 
1948.000000	99.395855 
1947.000000	99.409940 
1946.000000	99.419397 
1945.000000	99.420178 
1944.000000	99.410775 
1943.000000	99.396057 
1942.000000	99.385491 
1941.000000	99.383475 
1940.000000	99.385433 
1939.000000	99.385792 
1938.000000	99.384756 
1937.000000	99.385888 
1936.000000	99.390549 
1935.000000	99.396539 
1934.000000	99.399975 
1933.000000	99.397068 
1932.000000	99.386632 
1931.000000	99.373668 
1930.000000	99.368690 
1929.000000	99.378609 
1928.000000	99.398295 
1927.000000	99.414789 
1926.000000	99.418578 
1925.000000	99.408499 
1924.000000	99.389464 
1923.000000	99.370060 
1922.000000	99.360331 
1921.000000	99.364838 
1920.000000	99.377949 
1919.000000	99.388894 
1918.000000	99.391055 
1917.000000	99.386125 
1916.000000	99.379578 
1915.000000	99.376300 
1914.000000	99.380118 
1913.000000	99.391475 
1912.000000	99.404807 
1911.000000	99.412390 
1910.000000	99.412033 
1909.000000	99.408006 
1908.000000	99.404869 
1907.000000	99.404495 
1906.000000	99.407965 
1905.000000	99.414861 
1904.000000	99.420230 
1903.000000	99.417075 
1902.000000	99.403938 
1901.000000	99.386853 
1900.000000	99.373716 
1899.000000	99.368662 
1898.000000	99.370785 
1897.000000	99.375661 
1896.000000	99.378469 
1895.000000	99.378477 
1894.000000	99.379910 
1893.000000	99.385243 
1892.000000	99.390205 
1891.000000	99.389074 
1890.000000	99.382843 
1889.000000	99.378410 
1888.000000	99.379260 
1887.000000	99.382903 
1886.000000	99.386645 
1885.000000	99.389763 
1884.000000	99.391204 
1883.000000	99.389661 
1882.000000	99.385915 
1881.000000	99.381689 
1880.000000	99.377400 
1879.000000	99.373518 
1878.000000	99.371753 
1877.000000	99.372151 
1876.000000	99.371801 
1875.000000	99.369841 
1874.000000	99.370957 
1873.000000	99.379156 
1872.000000	99.390036 
1871.000000	99.394482 
1870.000000	99.389193 
1869.000000	99.379483 
1868.000000	99.370003 
1867.000000	99.360140 
1866.000000	99.351059 
1865.000000	99.346700 
1864.000000	99.348166 
1863.000000	99.353309 
1862.000000	99.361372 
1861.000000	99.373017 
1860.000000	99.385304 
1859.000000	99.392913 
1858.000000	99.395841 
1857.000000	99.399516 
1856.000000	99.406418 
1855.000000	99.413382 
1854.000000	99.417155 
1853.000000	99.417409 
1852.000000	99.413868 
1851.000000	99.405689 
1850.000000	99.395289 
1849.000000	99.388159 
1848.000000	99.386778 
1847.000000	99.388136 
1846.000000	99.389123 
1845.000000	99.389658 
1844.000000	99.389343 
1843.000000	99.386345 
1842.000000	99.381689 
1841.000000	99.379196 
1840.000000	99.381468 
1839.000000	99.387448 
1838.000000	99.393762 
1837.000000	99.398013 
1836.000000	99.399689 
1835.000000	99.399209 
1834.000000	99.397543 
1833.000000	99.396126 
1832.000000	99.396212 
1831.000000	99.397050 
1830.000000	99.396345 
1829.000000	99.394517 
1828.000000	99.395480 
1827.000000	99.400800 
1826.000000	99.407452 
1825.000000	99.411607 
1824.000000	99.412224 
1823.000000	99.410594 
1822.000000	99.407888 
1821.000000	99.403742 
1820.000000	99.396969 
1819.000000	99.387462 
1818.000000	99.378381 
1817.000000	99.374952 
1816.000000	99.378161 
1815.000000	99.382733 
1814.000000	99.383910 
1813.000000	99.383339 
1812.000000	99.386750 
1811.000000	99.395867 
1810.000000	99.407389 
1809.000000	99.418716 
1808.000000	99.427539 
1807.000000	99.429872 
1806.000000	99.424428 
1805.000000	99.415854 
1804.000000	99.409889 
1803.000000	99.407395 
1802.000000	99.406370 
1801.000000	99.407232 
1800.000000	99.410118 
1799.000000	99.411355 
1798.000000	99.409042 
1797.000000	99.406410 
1796.000000	99.406898 
1795.000000	99.410417 
1794.000000	99.414920 
1793.000000	99.418770 
1792.000000	99.421342 
1791.000000	99.421380 
1790.000000	99.418541 
1789.000000	99.415671 
1788.000000	99.416128 
1787.000000	99.420162 
1786.000000	99.424892 
1785.000000	99.427150 
1784.000000	99.425365 
1783.000000	99.421176 
1782.000000	99.418840 
1781.000000	99.420590 
1780.000000	99.422858 
1779.000000	99.420154 
1778.000000	99.412761 
1777.000000	99.406038 
1776.000000	99.403993 
1775.000000	99.407732 
1774.000000	99.416668 
1773.000000	99.427111 
1772.000000	99.432776 
1771.000000	99.431803 
1770.000000	99.428061 
1769.000000	99.424737 
1768.000000	99.423023 
1767.000000	99.422363 
1766.000000	99.422043 
1765.000000	99.423013 
1764.000000	99.426253 
1763.000000	99.430568 
1762.000000	99.433079 
1761.000000	99.433435 
1760.000000	99.434560 
1759.000000	99.437687 
1758.000000	99.441124 
1757.000000	99.442555 
1756.000000	99.441487 
1755.000000	99.439215 
1754.000000	99.435657 
1753.000000	99.429809 
1752.000000	99.424421 
1751.000000	99.426956 
1750.000000	99.438766 
1749.000000	99.450162 
1748.000000	99.453489 
1747.000000	99.450785 
1746.000000	99.447698 
1745.000000	99.446498 
1744.000000	99.447215 
1743.000000	99.449578 
1742.000000	99.451726 
1741.000000	99.451425 
1740.000000	99.448793 
1739.000000	99.446566 
1738.000000	99.446763 
1737.000000	99.448398 
1736.000000	99.448779 
1735.000000	99.444206 
1734.000000	99.433735 
1733.000000	99.424842 
1732.000000	99.423762 
1731.000000	99.428930 
1730.000000	99.436230 
1729.000000	99.441041 
1728.000000	99.441096 
1727.000000	99.438444 
1726.000000	99.436304 
1725.000000	99.435429 
1724.000000	99.435102 
1723.000000	99.435935 
1722.000000	99.439763 
1721.000000	99.447885 
1720.000000	99.459017 
1719.000000	99.467672 
1718.000000	99.465685 
1717.000000	99.455270 
1716.000000	99.446810 
1715.000000	99.442011 
1714.000000	99.439181 
1713.000000	99.439021 
1712.000000	99.440457 
1711.000000	99.440875 
1710.000000	99.439612 
1709.000000	99.438557 
1708.000000	99.438960 
1707.000000	99.439713 
1706.000000	99.441265 
1705.000000	99.446592 
1704.000000	99.453494 
1703.000000	99.452851 
1702.000000	99.440398 
1701.000000	99.425435 
1700.000000	99.423359 
1699.000000	99.431144 
1698.000000	99.437246 
1697.000000	99.441335 
1696.000000	99.446626 
1695.000000	99.451349 
1694.000000	99.454045 
1693.000000	99.454988 
1692.000000	99.452826 
1691.000000	99.446665 
1690.000000	99.438878 
1689.000000	99.433503 
1688.000000	99.430670 
1687.000000	99.426984 
1686.000000	99.422964 
1685.000000	99.424426 
1684.000000	99.431533 
1683.000000	99.436869 
1682.000000	99.438921 
1681.000000	99.437758 
1680.000000	99.435330 
1679.000000	99.434011 
1678.000000	99.434634 
1677.000000	99.435958 
1676.000000	99.435936 
1675.000000	99.435241 
1674.000000	99.436606 
1673.000000	99.440241 
1672.000000	99.443787 
1671.000000	99.446023 
1670.000000	99.447125 
1669.000000	99.447323 
1668.000000	99.447682 
1667.000000	99.449026 
1666.000000	99.449168 
1665.000000	99.446312 
1664.000000	99.441977 
1663.000000	99.439699 
1662.000000	99.441863 
1661.000000	99.446827 
1660.000000	99.450250 
1659.000000	99.451392 
1658.000000	99.452881 
1657.000000	99.454754 
1656.000000	99.452638 
1655.000000	99.446209 
1654.000000	99.442868 
1653.000000	99.443360 
1652.000000	99.443550 
1651.000000	99.448195 
1650.000000	99.450152 
1649.000000	99.446492 
1648.000000	99.438618 
1647.000000	99.429108 
1646.000000	99.421532 
1645.000000	99.420920 
1644.000000	99.426402 
1643.000000	99.432718 
1642.000000	99.436467 
1641.000000	99.437287 
1640.000000	99.435914 
1639.000000	99.433625 
1638.000000	99.432327 
1637.000000	99.433313 
1636.000000	99.433243 
1635.000000	99.429853 
1634.000000	99.429974 
1633.000000	99.435319 
1632.000000	99.440766 
1631.000000	99.443358 
1630.000000	99.444180 
1629.000000	99.445744 
1628.000000	99.448672 
1627.000000	99.452100 
1626.000000	99.455721 
1625.000000	99.459699 
1624.000000	99.463510 
1623.000000	99.466526 
1622.000000	99.469642 
1621.000000	99.472785 
1620.000000	99.473324 
1619.000000	99.470691 
1618.000000	99.468532 
1617.000000	99.469691 
1616.000000	99.471378 
1615.000000	99.471472 
1614.000000	99.469885 
1613.000000	99.466237 
1612.000000	99.461608 
1611.000000	99.458139 
1610.000000	99.457312 
1609.000000	99.457909 
1608.000000	99.457496 
1607.000000	99.456134 
1606.000000	99.455598 
1605.000000	99.455970 
1604.000000	99.456053 
1603.000000	99.456600 
1602.000000	99.459114 
1601.000000	99.462238 
1600.000000	99.463437 
1599.000000	99.463351 
1598.000000	99.464735 
1597.000000	99.468258 
1596.000000	99.472185 
1595.000000	99.475697 
1594.000000	99.479694 
1593.000000	99.483534 
1592.000000	99.484859 
1591.000000	99.483649 
1590.000000	99.483179 
1589.000000	99.485490 
1588.000000	99.489257 
1587.000000	99.492905 
1586.000000	99.496001 
1585.000000	99.497206 
1584.000000	99.494417 
1583.000000	99.488495 
1582.000000	99.484193 
1581.000000	99.484196 
1580.000000	99.486358 
1579.000000	99.488555 
1578.000000	99.491992 
1577.000000	99.496302 
1576.000000	99.496169 
1575.000000	99.492674 
1574.000000	99.492690 
1573.000000	99.494383 
1572.000000	99.493293 
1571.000000	99.490452 
1570.000000	99.490847 
1569.000000	99.494965 
1568.000000	99.498249 
1567.000000	99.498619 
1566.000000	99.497287 
1565.000000	99.496145 
1564.000000	99.495750 
1563.000000	99.495630 
1562.000000	99.495655 
1561.000000	99.495307 
1560.000000	99.494526 
1559.000000	99.490531 
1558.000000	99.484166 
1557.000000	99.486405 
1556.000000	99.493130 
1555.000000	99.496991 
1554.000000	99.496498 
1553.000000	99.493795 
1552.000000	99.491677 
1551.000000	99.491396 
1550.000000	99.492939 
1549.000000	99.495019 
1548.000000	99.495912 
1547.000000	99.494730 
1546.000000	99.491735 
1545.000000	99.488760 
1544.000000	99.487307 
1543.000000	99.486726 
1542.000000	99.487677 
1541.000000	99.492399 
1540.000000	99.493369 
1539.000000	99.485229 
1538.000000	99.480155 
1537.000000	99.481477 
1536.000000	99.483394 
1535.000000	99.482719 
1534.000000	99.481237 
1533.000000	99.481348 
1532.000000	99.481826 
1531.000000	99.479518 
1530.000000	99.475510 
1529.000000	99.474407 
1528.000000	99.477534 
1527.000000	99.481377 
1526.000000	99.482725 
1525.000000	99.482759 
1524.000000	99.483570 
1523.000000	99.485864 
1522.000000	99.490816 
1521.000000	99.498655 
1520.000000	99.504441 
1519.000000	99.502779 
1518.000000	99.493704 
1517.000000	99.482314 
1516.000000	99.474335 
1515.000000	99.471697 
1514.000000	99.472239 
1513.000000	99.472869 
1512.000000	99.472336 
1511.000000	99.470878 
1510.000000	99.468900 
1509.000000	99.468450 
1508.000000	99.475004 
1507.000000	99.487283 
1506.000000	99.489690 
1505.000000	99.483693 
1504.000000	99.478924 
1503.000000	99.475715 
1502.000000	99.474073 
1501.000000	99.475738 
1500.000000	99.481942 
1499.000000	99.491220 
1498.000000	99.499029 
1497.000000	99.503883 
1496.000000	99.508184 
1495.000000	99.509876 
1494.000000	99.504402 
1493.000000	99.492242 
1492.000000	99.478162 
1491.000000	99.467441 
1490.000000	99.462185 
1489.000000	99.461087 
1488.000000	99.460037 
1487.000000	99.455453 
1486.000000	99.450291 
1485.000000	99.449088 
1484.000000	99.451478 
1483.000000	99.454056 
1482.000000	99.453302 
1481.000000	99.448658 
1480.000000	99.442539 
1479.000000	99.437392 
1478.000000	99.434643 
1477.000000	99.434963 
1476.000000	99.437227 
1475.000000	99.436777 
1474.000000	99.432427 
1473.000000	99.430464 
1472.000000	99.435487 
1471.000000	99.441670 
1470.000000	99.443589 
1469.000000	99.443646 
1468.000000	99.446409 
1467.000000	99.452127 
1466.000000	99.457558 
1465.000000	99.460063 
1464.000000	99.459451 
1463.000000	99.457597 
1462.000000	99.455916 
1461.000000	99.455603 
1460.000000	99.456955 
1459.000000	99.458166 
1458.000000	99.453272 
1457.000000	99.438625 
1456.000000	99.423361 
1455.000000	99.415539 
1454.000000	99.412782 
1453.000000	99.412327 
1452.000000	99.412864 
1451.000000	99.413515 
1450.000000	99.414629 
1449.000000	99.418249 
1448.000000	99.424807 
1447.000000	99.430310 
1446.000000	99.431883 
1445.000000	99.431516 
1444.000000	99.431648 
1443.000000	99.431803 
1442.000000	99.430274 
1441.000000	99.427608 
1440.000000	99.427074 
1439.000000	99.431097 
1438.000000	99.436258 
1437.000000	99.435815 
1436.000000	99.428807 
1435.000000	99.420262 
1434.000000	99.413439 
1433.000000	99.409823 
1432.000000	99.409974 
1431.000000	99.413673 
1430.000000	99.418186 
1429.000000	99.420366 
1428.000000	99.420522 
1427.000000	99.420251 
1426.000000	99.419179 
1425.000000	99.414675 
1424.000000	99.407302 
1423.000000	99.401865 
1422.000000	99.399037 
1421.000000	99.394638 
1420.000000	99.386033 
1419.000000	99.375943 
1418.000000	99.365133 
1417.000000	99.351186 
1416.000000	99.335885 
1415.000000	99.322329 
1414.000000	99.309995 
1413.000000	99.295592 
1412.000000	99.279216 
1411.000000	99.265527 
1410.000000	99.256628 
1409.000000	99.251072 
1408.000000	99.248976 
1407.000000	99.251040 
1406.000000	99.255446 
1405.000000	99.259933 
1404.000000	99.266376 
1403.000000	99.276645 
1402.000000	99.286582 
1401.000000	99.291648 
1400.000000	99.293414 
1399.000000	99.297421 
1398.000000	99.301335 
1397.000000	99.293886 
1396.000000	99.269511 
1395.000000	99.239404 
1394.000000	99.224099 
1393.000000	99.232514 
1392.000000	99.258658 
1391.000000	99.291178 
1390.000000	99.319779 
1389.000000	99.337619 
1388.000000	99.342607 
1387.000000	99.337658 
1386.000000	99.327638 
1385.000000	99.316826 
1384.000000	99.308539 
1383.000000	99.304747 
1382.000000	99.305071 
1381.000000	99.308278 
1380.000000	99.313412 
1379.000000	99.320011 
1378.000000	99.327606 
1377.000000	99.335214 
1376.000000	99.342215 
1375.000000	99.349318 
1374.000000	99.357597 
1373.000000	99.366070 
1372.000000	99.373184 
1371.000000	99.380263 
1370.000000	99.390846 
1369.000000	99.404652 
1368.000000	99.418065 
1367.000000	99.429051 
1366.000000	99.438447 
1365.000000	99.447143 
1364.000000	99.453589 
1363.000000	99.456229 
1362.000000	99.457033 
1361.000000	99.459000 
1360.000000	99.462392 
1359.000000	99.466378 
1358.000000	99.471491 
1357.000000	99.477995 
1356.000000	99.484093 
1355.000000	99.487583 
1354.000000	99.488612 
1353.000000	99.489015 
1352.000000	99.488753 
1351.000000	99.486090 
1350.000000	99.482705 
1349.000000	99.481405 
1348.000000	99.483024 
1347.000000	99.486685 
1346.000000	99.491990 
1345.000000	99.498107 
1344.000000	99.502722 
1343.000000	99.504239 
1342.000000	99.504130 
1341.000000	99.504667 
1340.000000	99.505581 
1339.000000	99.505248 
1338.000000	99.503772 
1337.000000	99.502821 
1336.000000	99.503124 
1335.000000	99.503860 
1334.000000	99.504718 
1333.000000	99.506628 
1332.000000	99.509816 
1331.000000	99.512904 
1330.000000	99.514371 
1329.000000	99.513470 
1328.000000	99.510555 
1327.000000	99.507314 
1326.000000	99.506102 
1325.000000	99.506811 
1324.000000	99.507826 
1323.000000	99.508734 
1322.000000	99.510060 
1321.000000	99.510656 
1320.000000	99.508193 
1319.000000	99.502825 
1318.000000	99.498103 
1317.000000	99.497240 
1316.000000	99.499783 
1315.000000	99.502898 
1314.000000	99.504393 
1313.000000	99.504040 
1312.000000	99.502851 
1311.000000	99.501995 
1310.000000	99.502109 
1309.000000	99.502829 
1308.000000	99.503072 
1307.000000	99.501876 
1306.000000	99.499542 
1305.000000	99.496995 
1304.000000	99.495743 
1303.000000	99.497113 
1302.000000	99.501104 
1301.000000	99.505845 
1300.000000	99.508923 
1299.000000	99.509035 
1298.000000	99.506277 
1297.000000	99.501701 
1296.000000	99.497104 
1295.000000	99.494893 
1294.000000	99.496367 
1293.000000	99.500091 
1292.000000	99.502804 
1291.000000	99.502075 
1290.000000	99.498062 
1289.000000	99.493042 
1288.000000	99.489427 
1287.000000	99.487693 
1286.000000	99.485672 
1285.000000	99.480766 
1284.000000	99.473437 
1283.000000	99.467306 
1282.000000	99.465027 
1281.000000	99.465190 
1280.000000	99.464349 
1279.000000	99.461144 
1278.000000	99.456564 
1277.000000	99.451246 
1276.000000	99.444579 
1275.000000	99.436905 
1274.000000	99.430406 
1273.000000	99.426989 
1272.000000	99.426285 
1271.000000	99.425967 
1270.000000	99.423240 
1269.000000	99.416468 
1268.000000	99.406659 
1267.000000	99.397003 
1266.000000	99.389418 
1265.000000	99.382432 
1264.000000	99.373790 
1263.000000	99.363939 
1262.000000	99.355077 
1261.000000	99.347798 
1260.000000	99.341005 
1259.000000	99.334706 
1258.000000	99.329893 
1257.000000	99.326165 
1256.000000	99.321822 
1255.000000	99.316464 
1254.000000	99.311281 
1253.000000	99.306860 
1252.000000	99.302813 
1251.000000	99.299812 
1250.000000	99.299447 
1249.000000	99.301720 
1248.000000	99.305119 
1247.000000	99.309230 
1246.000000	99.314046 
1245.000000	99.316485 
1244.000000	99.311596 
1243.000000	99.299543 
1242.000000	99.288567 
1241.000000	99.287704 
1240.000000	99.297572 
1239.000000	99.310302 
1238.000000	99.317510 
1237.000000	99.316407 
1236.000000	99.309053 
1235.000000	99.298569 
1234.000000	99.286927 
1233.000000	99.274983 
1232.000000	99.263564 
1231.000000	99.253975 
1230.000000	99.246933 
1229.000000	99.241286 
1228.000000	99.235090 
1227.000000	99.228373 
1226.000000	99.223580 
1225.000000	99.222283 
1224.000000	99.222540 
1223.000000	99.220795 
1222.000000	99.215757 
1221.000000	99.209212 
1220.000000	99.203496 
1219.000000	99.199372 
1218.000000	99.195965 
1217.000000	99.191710 
1216.000000	99.185406 
1215.000000	99.177066 
1214.000000	99.167786 
1213.000000	99.158365 
1212.000000	99.148302 
1211.000000	99.136389 
1210.000000	99.122070 
1209.000000	99.105864 
1208.000000	99.088804 
1207.000000	99.071963 
1206.000000	99.056318 
1205.000000	99.042504 
1204.000000	99.030427 
1203.000000	99.019117 
1202.000000	99.006922 
1201.000000	98.992232 
1200.000000	98.974666 
1199.000000	98.955673 
1198.000000	98.937313 
1197.000000	98.920487 
1196.000000	98.904773 
1195.000000	98.889511 
1194.000000	98.874182 
1193.000000	98.857788 
1192.000000	98.839141 
1191.000000	98.818256 
1190.000000	98.796819 
1189.000000	98.777016 
1188.000000	98.760339 
1187.000000	98.747051 
1186.000000	98.735621 
1185.000000	98.722748 
1184.000000	98.705245 
1183.000000	98.682569 
1182.000000	98.657096 
1181.000000	98.631855 
1180.000000	98.608575 
1179.000000	98.587615 
1178.000000	98.568129 
1177.000000	98.547901 
1176.000000	98.524594 
1175.000000	98.498220 
1174.000000	98.471580 
1173.000000	98.447371 
1172.000000	98.425760 
1171.000000	98.405413 
1170.000000	98.385677 
1169.000000	98.366663 
1168.000000	98.347956 
1167.000000	98.328741 
1166.000000	98.309401 
1165.000000	98.292445 
1164.000000	98.281691 
1163.000000	98.280306 
1162.000000	98.288754 
1161.000000	98.303843 
1160.000000	98.319950 
1159.000000	98.331925 
1158.000000	98.337196 
1157.000000	98.335200 
1156.000000	98.325666 
1155.000000	98.308535 
1154.000000	98.285343 
1153.000000	98.259224 
1152.000000	98.232922 
1151.000000	98.207358 
1150.000000	98.182422 
1149.000000	98.158353 
1148.000000	98.135460 
1147.000000	98.112745 
1146.000000	98.088048 
1145.000000	98.060369 
1144.000000	98.031621 
1143.000000	98.005327 
1142.000000	97.983377 
1141.000000	97.964484 
1140.000000	97.945662 
1139.000000	97.924485 
1138.000000	97.899984 
1137.000000	97.872604 
1136.000000	97.844086 
1135.000000	97.816730 
1134.000000	97.791766 
1133.000000	97.768355 
1132.000000	97.744596 
1131.000000	97.719414 
1130.000000	97.693264 
1129.000000	97.667135 
1128.000000	97.641040 
1127.000000	97.613446 
1126.000000	97.582569 
1125.000000	97.548716 
1124.000000	97.514897 
1123.000000	97.484150 
1122.000000	97.456229 
1121.000000	97.427992 
1120.000000	97.397210 
1119.000000	97.364793 
1118.000000	97.332900 
1117.000000	97.302167 
1116.000000	97.271607 
1115.000000	97.240207 
1114.000000	97.207673 
1113.000000	97.174269 
1112.000000	97.141058 
1111.000000	97.110140 
1110.000000	97.083564 
1109.000000	97.061278 
1108.000000	97.040357 
1107.000000	97.016436 
1106.000000	96.987207 
1105.000000	96.954750 
1104.000000	96.923244 
1103.000000	96.894234 
1102.000000	96.866036 
1101.000000	96.838254 
1100.000000	96.814957 
1099.000000	96.798658 
1098.000000	96.786119 
1097.000000	96.771682 
1096.000000	96.753994 
1095.000000	96.735316 
1094.000000	96.715196 
1093.000000	96.689500 
1092.000000	96.656323 
1091.000000	96.618786 
1090.000000	96.580533 
1089.000000	96.541563 
1088.000000	96.500159 
1087.000000	96.456596 
1086.000000	96.413466 
1085.000000	96.373931 
1084.000000	96.339975 
1083.000000	96.310285 
1082.000000	96.279945 
1081.000000	96.245061 
1080.000000	96.207727 
1079.000000	96.173546 
1078.000000	96.144575 
1077.000000	96.118392 
1076.000000	96.093969 
1075.000000	96.073725 
1074.000000	96.058721 
1073.000000	96.045841 
1072.000000	96.030139 
1071.000000	96.005198 
1070.000000	95.961344 
1069.000000	95.891450 
1068.000000	95.803142 
1067.000000	95.720038 
1066.000000	95.664088 
1065.000000	95.637304 
1064.000000	95.623693 
1063.000000	95.605457 
1062.000000	95.573149 
1061.000000	95.524294 
1060.000000	95.460643 
1059.000000	95.389448 
1058.000000	95.322797 
1057.000000	95.270731 
1056.000000	95.233565 
1055.000000	95.201079 
1054.000000	95.160351 
1053.000000	95.106461 
1052.000000	95.045934 
1051.000000	94.988407 
1050.000000	94.936002 
1049.000000	94.884194 
1048.000000	94.831505 
1047.000000	94.782154 
1046.000000	94.738551 
1045.000000	94.697124 
1044.000000	94.653821 
1043.000000	94.609685 
1042.000000	94.568450 
1041.000000	94.531118 
1040.000000	94.495533 
1039.000000	94.460309 
1038.000000	94.427639 
1037.000000	94.402688 
1036.000000	94.390219 
1035.000000	94.390611 
1034.000000	94.399146 
1033.000000	94.409587 
1032.000000	94.416605 
1031.000000	94.414328 
1030.000000	94.397949 
1029.000000	94.371940 
1028.000000	94.353256 
1027.000000	94.358872 
1026.000000	94.389038 
1025.000000	94.427334 
1024.000000	94.456886 
1023.000000	94.471823 
1022.000000	94.474652 
1021.000000	94.470066 
1020.000000	94.463460 
1019.000000	94.459794 
1018.000000	94.460182 
1017.000000	94.461997 
1016.000000	94.463518 
1015.000000	94.465617 
1014.000000	94.468565 
1013.000000	94.470867 
1012.000000	94.472010 
1011.000000	94.473069 
1010.000000	94.474373 
1009.000000	94.476068 
1008.000000	94.480870 
1007.000000	94.492115 
1006.000000	94.508864 
1005.000000	94.527099 
1004.000000	94.545880 
1003.000000	94.567711 
1002.000000	94.592601 
1001.000000	94.616901 
1000.000000	94.639024 
999.000000	 94.661275 
998.000000	 94.684587 
997.000000	 94.706422 
996.000000	 94.726174 
995.000000	 94.748288 
994.000000	 94.777041 
993.000000	 94.811191 
992.000000	 94.846021 
991.000000	 94.878142 
990.000000	 94.906838 
989.000000	 94.933415 
988.000000	 94.960746 
987.000000	 94.991169 
986.000000	 95.023938 
985.000000	 95.057225 
984.000000	 95.092832 
983.000000	 95.135435 
982.000000	 95.186350 
981.000000	 95.241486 
980.000000	 95.296392 
979.000000	 95.349916 
978.000000	 95.402320 
977.000000	 95.453997 
976.000000	 95.507612 
975.000000	 95.567396 
974.000000	 95.633775 
973.000000	 95.701694 
972.000000	 95.766476 
971.000000	 95.828553 
970.000000	 95.890423 
969.000000	 95.952040 
968.000000	 96.012009 
967.000000	 96.070763 
966.000000	 96.129102 
965.000000	 96.185063 
964.000000	 96.235660 
963.000000	 96.281354 
962.000000	 96.326059 
961.000000	 96.372553 
960.000000	 96.420029 
959.000000	 96.466277 
958.000000	 96.510193 
957.000000	 96.551587 
956.000000	 96.590330 
955.000000	 96.626906 
954.000000	 96.662751 
953.000000	 96.698616 
952.000000	 96.732796 
951.000000	 96.762086 
950.000000	 96.784985 
949.000000	 96.803591 
948.000000	 96.822063 
947.000000	 96.843494 
946.000000	 96.868267 
945.000000	 96.894628 
944.000000	 96.919831 
943.000000	 96.940925 
942.000000	 96.955973 
941.000000	 96.965551 
940.000000	 96.972640 
939.000000	 96.980399 
938.000000	 96.990126 
937.000000	 97.001320 
936.000000	 97.012778 
935.000000	 97.023062 
934.000000	 97.031008 
933.000000	 97.037055 
932.000000	 97.043665 
931.000000	 97.053330 
930.000000	 97.066348 
929.000000	 97.081352 
928.000000	 97.097398 
927.000000	 97.114253 
926.000000	 97.131011 
925.000000	 97.145877 
924.000000	 97.157401 
923.000000	 97.164879 
922.000000	 97.167658 
921.000000	 97.165280 
920.000000	 97.158715 
919.000000	 97.150693 
918.000000	 97.144311 
917.000000	 97.141429 
916.000000	 97.142078 
915.000000	 97.144833 
914.000000	 97.148295 
913.000000	 97.153256 
912.000000	 97.162934 
911.000000	 97.179685 
910.000000	 97.201590 
909.000000	 97.223797 
908.000000	 97.243362 
907.000000	 97.261586 
906.000000	 97.281773 
905.000000	 97.306346 
904.000000	 97.336562 
903.000000	 97.373274 
902.000000	 97.416351 
901.000000	 97.463589 
900.000000	 97.511137 
899.000000	 97.555381 
898.000000	 97.594534 
897.000000	 97.628522 
896.000000	 97.657732 
895.000000	 97.682863 
894.000000	 97.706413 
893.000000	 97.732883 
892.000000	 97.765580 
891.000000	 97.803175 
890.000000	 97.840973 
889.000000	 97.875937 
888.000000	 97.908720 
887.000000	 97.940043 
886.000000	 97.967200 
885.000000	 97.986479 
884.000000	 97.998575 
883.000000	 98.009495 
882.000000	 98.024936 
881.000000	 98.044618 
880.000000	 98.063769 
879.000000	 98.080468 
878.000000	 98.099525 
877.000000	 98.126473 
876.000000	 98.158112 
875.000000	 98.182637 
874.000000	 98.191579 
873.000000	 98.189680 
872.000000	 98.190370 
871.000000	 98.202807 
870.000000	 98.225375 
869.000000	 98.250117 
868.000000	 98.270324 
867.000000	 98.284491 
866.000000	 98.296390 
865.000000	 98.311870 
864.000000	 98.333582 
863.000000	 98.358705 
862.000000	 98.383085 
861.000000	 98.406087 
860.000000	 98.428814 
859.000000	 98.449766 
858.000000	 98.467143 
857.000000	 98.484584 
856.000000	 98.508328 
855.000000	 98.537022 
854.000000	 98.559983 
853.000000	 98.569038 
852.000000	 98.568079 
851.000000	 98.567415 
850.000000	 98.572166 
849.000000	 98.580156 
848.000000	 98.588231 
847.000000	 98.595430 
846.000000	 98.600997 
845.000000	 98.604241 
844.000000	 98.606986 
843.000000	 98.612304 
842.000000	 98.619351 
841.000000	 98.622234 
840.000000	 98.616253 
839.000000	 98.604049 
838.000000	 98.593346 
837.000000	 98.588018 
836.000000	 98.583158 
835.000000	 98.571305 
834.000000	 98.553511 
833.000000	 98.540209 
832.000000	 98.537569 
831.000000	 98.536213 
830.000000	 98.521102 
829.000000	 98.493987 
828.000000	 98.477190 
827.000000	 98.488341 
826.000000	 98.517323 
825.000000	 98.538139 
824.000000	 98.540461 
823.000000	 98.537532 
822.000000	 98.543521 
821.000000	 98.556170 
820.000000	 98.564684 
819.000000	 98.563601 
818.000000	 98.554365 
817.000000	 98.540527 
816.000000	 98.525830 
815.000000	 98.512389 
814.000000	 98.496634 
813.000000	 98.470389 
812.000000	 98.429635 
811.000000	 98.379370 
810.000000	 98.326094 
809.000000	 98.267997 
808.000000	 98.196930 
807.000000	 98.108218 
806.000000	 98.004191 
805.000000	 97.889356 
804.000000	 97.767955 
803.000000	 97.647515 
802.000000	 97.539770 
801.000000	 97.455035 
800.000000	 97.396808 
799.000000	 97.362340 
798.000000	 97.346964 
797.000000	 97.347704 
796.000000	 97.363517 
795.000000	 97.392502 
794.000000	 97.430122 
793.000000	 97.471224 
792.000000	 97.511969 
791.000000	 97.547289 
790.000000	 97.568716 
789.000000	 97.569824 
788.000000	 97.554271 
787.000000	 97.533701 
786.000000	 97.515443 
785.000000	 97.495517 
784.000000	 97.466313 
783.000000	 97.427860 
782.000000	 97.388178 
781.000000	 97.355101 
780.000000	 97.331526 
779.000000	 97.317174 
778.000000	 97.311707 
777.000000	 97.316924 
776.000000	 97.337337 
775.000000	 97.375962 
774.000000	 97.427319 
773.000000	 97.477938 
772.000000	 97.517272 
771.000000	 97.545684 
770.000000	 97.568405 
769.000000	 97.585158 
768.000000	 97.592194 
767.000000	 97.593292 
766.000000	 97.600467 
765.000000	 97.620252 
764.000000	 97.644571 
763.000000	 97.659438 
762.000000	 97.660069 
761.000000	 97.654015 
760.000000	 97.651679 
759.000000	 97.657680 
758.000000	 97.670052 
757.000000	 97.683968 
756.000000	 97.695941 
755.000000	 97.706856 
754.000000	 97.721076 
753.000000	 97.740843 
752.000000	 97.762553 
751.000000	 97.780367 
750.000000	 97.792364 
749.000000	 97.800370 
748.000000	 97.805177 
747.000000	 97.806643 
746.000000	 97.808688 
745.000000	 97.818517 
744.000000	 97.837824 
743.000000	 97.858937 
742.000000	 97.873890 
741.000000	 97.884391 
740.000000	 97.898273 
739.000000	 97.918545 
738.000000	 97.941137 
737.000000	 97.962105 
736.000000	 97.981314 
735.000000	 97.999017 
734.000000	 98.014679 
733.000000	 98.030413 
732.000000	 98.049983 
731.000000	 98.071567 
730.000000	 98.086641 
729.000000	 98.089972 
728.000000	 98.086477 
727.000000	 98.084375 
726.000000	 98.085445 
725.000000	 98.086712 
724.000000	 98.088739 
723.000000	 98.096272 
722.000000	 98.111172 
721.000000	 98.129243 
720.000000	 98.144157 
719.000000	 98.151508 
718.000000	 98.149818 
717.000000	 98.141217 
716.000000	 98.131265 
715.000000	 98.124673 
714.000000	 98.120695 
713.000000	 98.116062 
712.000000	 98.112343 
711.000000	 98.115794 
710.000000	 98.128150 
709.000000	 98.141185 
708.000000	 98.143054 
707.000000	 98.128786 
706.000000	 98.103952 
705.000000	 98.079754 
704.000000	 98.064387 
703.000000	 98.056709 
702.000000	 98.046310 
701.000000	 98.021409 
700.000000	 97.977554 
699.000000	 97.918198 
698.000000	 97.849141 
697.000000	 97.775466 
696.000000	 97.703929 
695.000000	 97.644655 
694.000000	 97.607992 
693.000000	 97.600958 
692.000000	 97.624962 
691.000000	 97.672279 
690.000000	 97.726992 
689.000000	 97.774701 
688.000000	 97.812225 
687.000000	 97.844241 
686.000000	 97.870893 
685.000000	 97.886580 
684.000000	 97.890819 
683.000000	 97.891293 
682.000000	 97.894674 
681.000000	 97.901636 
680.000000	 97.912251 
679.000000	 97.927503 
678.000000	 97.941334 
677.000000	 97.942223 
676.000000	 97.930258 
675.000000	 97.920929 
674.000000	 97.928573 
673.000000	 97.950532 
672.000000	 97.969585 
671.000000	 97.968874 
670.000000	 97.940448 
669.000000	 97.886407 
668.000000	 97.823789 
667.000000	 97.791508 
666.000000	 97.820125 
665.000000	 97.892149 
664.000000	 97.966650 
663.000000	 98.011400 
662.000000	 98.018637 
661.000000	 98.009986 
660.000000	 98.012058 
659.000000	 98.027136 
658.000000	 98.034103 
657.000000	 98.015617 
656.000000	 97.977094 
655.000000	 97.936547 
654.000000	 97.904984 
653.000000	 97.876554 
652.000000	 97.837067 
651.000000	 97.785969 
650.000000	 97.747077 

