4000.000000	99.534629 
3999.000000	99.534318 
3998.000000	99.533718 
3997.000000	99.532835 
3996.000000	99.531712 
3995.000000	99.530465 
3994.000000	99.529357 
3993.000000	99.528736 
3992.000000	99.528788 
3991.000000	99.529327 
3990.000000	99.529908 
3989.000000	99.530248 
3988.000000	99.530476 
3987.000000	99.530896 
3986.000000	99.531578 
3985.000000	99.532234 
3984.000000	99.532479 
3983.000000	99.532118 
3982.000000	99.531196 
3981.000000	99.529919 
3980.000000	99.528523 
3979.000000	99.527211 
3978.000000	99.526240 
3977.000000	99.525945 
3976.000000	99.526536 
3975.000000	99.527810 
3974.000000	99.529143 
3973.000000	99.529854 
3972.000000	99.529692 
3971.000000	99.528956 
3970.000000	99.528149 
3969.000000	99.527562 
3968.000000	99.527181 
3967.000000	99.526844 
3966.000000	99.526444 
3965.000000	99.526013 
3964.000000	99.525606 
3963.000000	99.525126 
3962.000000	99.524378 
3961.000000	99.523312 
3960.000000	99.522151 
3959.000000	99.521262 
3958.000000	99.520874 
3957.000000	99.520910 
3956.000000	99.521106 
3955.000000	99.521219 
3954.000000	99.521142 
3953.000000	99.520867 
3952.000000	99.520424 
3951.000000	99.519901 
3950.000000	99.519452 
3949.000000	99.519207 
3948.000000	99.519191 
3947.000000	99.519307 
3946.000000	99.519415 
3945.000000	99.519438 
3944.000000	99.519382 
3943.000000	99.519250 
3942.000000	99.519022 
3941.000000	99.518713 
3940.000000	99.518388 
3939.000000	99.518083 
3938.000000	99.517766 
3937.000000	99.517404 
3936.000000	99.517065 
3935.000000	99.516912 
3934.000000	99.517074 
3933.000000	99.517524 
3932.000000	99.518047 
3931.000000	99.518357 
3930.000000	99.518290 
3929.000000	99.517890 
3928.000000	99.517387 
3927.000000	99.517063 
3926.000000	99.517068 
3925.000000	99.517347 
3924.000000	99.517653 
3923.000000	99.517757 
3922.000000	99.517635 
3921.000000	99.517448 
3920.000000	99.517390 
3919.000000	99.517564 
3918.000000	99.517962 
3917.000000	99.518468 
3916.000000	99.518880 
3915.000000	99.519040 
3914.000000	99.518991 
3913.000000	99.518913 
3912.000000	99.518890 
3911.000000	99.518825 
3910.000000	99.518619 
3909.000000	99.518335 
3908.000000	99.518131 
3907.000000	99.518046 
3906.000000	99.517887 
3905.000000	99.517377 
3904.000000	99.516388 
3903.000000	99.515135 
3902.000000	99.514158 
3901.000000	99.513863 
3900.000000	99.514262 
3899.000000	99.514983 
3898.000000	99.515544 
3897.000000	99.515743 
3896.000000	99.515642 
3895.000000	99.515368 
3894.000000	99.515015 
3893.000000	99.514627 
3892.000000	99.514216 
3891.000000	99.513792 
3890.000000	99.513392 
3889.000000	99.513061 
3888.000000	99.512825 
3887.000000	99.512713 
3886.000000	99.512667 
3885.000000	99.512533 
3884.000000	99.512260 
3883.000000	99.512043 
3882.000000	99.512112 
3881.000000	99.512441 
3880.000000	99.512733 
3879.000000	99.512763 
3878.000000	99.512622 
3877.000000	99.512534 
3876.000000	99.512608 
3875.000000	99.512736 
3874.000000	99.512692 
3873.000000	99.512350 
3872.000000	99.511821 
3871.000000	99.511435 
3870.000000	99.511442 
3869.000000	99.511817 
3868.000000	99.512349 
3867.000000	99.512896 
3866.000000	99.513466 
3865.000000	99.514034 
3864.000000	99.514389 
3863.000000	99.514389 
3862.000000	99.514180 
3861.000000	99.514081 
3860.000000	99.514264 
3859.000000	99.514701 
3858.000000	99.515208 
3857.000000	99.515577 
3856.000000	99.515742 
3855.000000	99.515951 
3854.000000	99.516491 
3853.000000	99.517232 
3852.000000	99.517965 
3851.000000	99.518698 
3850.000000	99.519367 
3849.000000	99.519859 
3848.000000	99.520088 
3847.000000	99.520045 
3846.000000	99.519843 
3845.000000	99.519612 
3844.000000	99.519393 
3843.000000	99.519283 
3842.000000	99.519399 
3841.000000	99.519712 
3840.000000	99.520115 
3839.000000	99.520518 
3838.000000	99.520802 
3837.000000	99.520969 
3836.000000	99.521154 
3835.000000	99.521571 
3834.000000	99.522378 
3833.000000	99.523555 
3832.000000	99.524806 
3831.000000	99.525618 
3830.000000	99.525680 
3829.000000	99.525174 
3828.000000	99.524507 
3827.000000	99.523995 
3826.000000	99.523708 
3825.000000	99.523501 
3824.000000	99.523260 
3823.000000	99.523184 
3822.000000	99.523526 
3821.000000	99.524126 
3820.000000	99.524535 
3819.000000	99.524606 
3818.000000	99.524458 
3817.000000	99.524262 
3816.000000	99.524068 
3815.000000	99.523783 
3814.000000	99.523388 
3813.000000	99.523046 
3812.000000	99.522949 
3811.000000	99.523093 
3810.000000	99.523272 
3809.000000	99.523279 
3808.000000	99.523078 
3807.000000	99.522759 
3806.000000	99.522415 
3805.000000	99.522077 
3804.000000	99.521779 
3803.000000	99.521595 
3802.000000	99.521551 
3801.000000	99.521546 
3800.000000	99.521444 
3799.000000	99.521205 
3798.000000	99.520858 
3797.000000	99.520462 
3796.000000	99.520072 
3795.000000	99.519723 
3794.000000	99.519424 
3793.000000	99.519152 
3792.000000	99.518861 
3791.000000	99.518519 
3790.000000	99.518148 
3789.000000	99.517806 
3788.000000	99.517529 
3787.000000	99.517304 
3786.000000	99.517098 
3785.000000	99.516891 
3784.000000	99.516688 
3783.000000	99.516501 
3782.000000	99.516341 
3781.000000	99.516212 
3780.000000	99.516079 
3779.000000	99.515843 
3778.000000	99.515470 
3777.000000	99.515005 
3776.000000	99.514519 
3775.000000	99.514076 
3774.000000	99.513696 
3773.000000	99.513368 
3772.000000	99.513070 
3771.000000	99.512783 
3770.000000	99.512489 
3769.000000	99.512180 
3768.000000	99.511881 
3767.000000	99.511614 
3766.000000	99.511361 
3765.000000	99.511081 
3764.000000	99.510746 
3763.000000	99.510365 
3762.000000	99.509989 
3761.000000	99.509687 
3760.000000	99.509489 
3759.000000	99.509340 
3758.000000	99.509163 
3757.000000	99.508951 
3756.000000	99.508713 
3755.000000	99.508439 
3754.000000	99.508149 
3753.000000	99.507911 
3752.000000	99.507703 
3751.000000	99.507287 
3750.000000	99.506545 
3749.000000	99.505845 
3748.000000	99.505595 
3747.000000	99.505746 
3746.000000	99.505962 
3745.000000	99.505941 
3744.000000	99.505470 
3743.000000	99.504604 
3742.000000	99.503570 
3741.000000	99.502364 
3740.000000	99.500758 
3739.000000	99.498562 
3738.000000	99.496243 
3737.000000	99.495114 
3736.000000	99.495957 
3735.000000	99.497676 
3734.000000	99.498127 
3733.000000	99.496721 
3732.000000	99.494748 
3731.000000	99.493515 
3730.000000	99.493125 
3729.000000	99.492932 
3728.000000	99.492551 
3727.000000	99.492016 
3726.000000	99.491180 
3725.000000	99.489756 
3724.000000	99.487980 
3723.000000	99.486568 
3722.000000	99.485747 
3721.000000	99.485151 
3720.000000	99.484326 
3719.000000	99.482840 
3718.000000	99.480587 
3717.000000	99.477908 
3716.000000	99.474958 
3715.000000	99.471732 
3714.000000	99.468765 
3713.000000	99.467362 
3712.000000	99.468136 
3711.000000	99.469820 
3710.000000	99.470388 
3709.000000	99.468509 
3708.000000	99.464042 
3707.000000	99.457930 
3706.000000	99.451650 
3705.000000	99.446668 
3704.000000	99.443803 
3703.000000	99.442545 
3702.000000	99.440976 
3701.000000	99.437394 
3700.000000	99.431977 
3699.000000	99.426119 
3698.000000	99.420814 
3697.000000	99.416267 
3696.000000	99.412145 
3695.000000	99.408216 
3694.000000	99.405020 
3693.000000	99.403309 
3692.000000	99.402605 
3691.000000	99.400994 
3690.000000	99.396756 
3689.000000	99.390175 
3688.000000	99.383494 
3687.000000	99.378483 
3686.000000	99.374863 
3685.000000	99.372029 
3684.000000	99.370249 
3683.000000	99.369782 
3682.000000	99.369806 
3681.000000	99.368768 
3680.000000	99.365393 
3679.000000	99.359026 
3678.000000	99.350343 
3677.000000	99.342836 
3676.000000	99.340807 
3675.000000	99.343381 
3674.000000	99.345341 
3673.000000	99.343693 
3672.000000	99.339774 
3671.000000	99.337775 
3670.000000	99.340220 
3669.000000	99.345203 
3668.000000	99.349739 
3667.000000	99.352821 
3666.000000	99.354298 
3665.000000	99.353944 
3664.000000	99.351882 
3663.000000	99.349023 
3662.000000	99.346654 
3661.000000	99.345294 
3660.000000	99.344301 
3659.000000	99.343091 
3658.000000	99.342375 
3657.000000	99.343443 
3656.000000	99.346272 
3655.000000	99.349356 
3654.000000	99.351517 
3653.000000	99.352671 
3652.000000	99.353058 
3651.000000	99.352446 
3650.000000	99.350389 
3649.000000	99.348096 
3648.000000	99.348156 
3647.000000	99.351273 
3646.000000	99.355802 
3645.000000	99.360398 
3644.000000	99.365170 
3643.000000	99.370553 
3642.000000	99.376547 
3641.000000	99.382490 
3640.000000	99.387488 
3639.000000	99.390893 
3638.000000	99.392462 
3637.000000	99.392555 
3636.000000	99.391977 
3635.000000	99.391424 
3634.000000	99.390843 
3633.000000	99.389653 
3632.000000	99.387962 
3631.000000	99.387045 
3630.000000	99.388203 
3629.000000	99.390292 
3628.000000	99.390659 
3627.000000	99.389388 
3626.000000	99.388645 
3625.000000	99.389294 
3624.000000	99.390595 
3623.000000	99.391767 
3622.000000	99.393061 
3621.000000	99.395623 
3620.000000	99.399560 
3619.000000	99.402749 
3618.000000	99.403202 
3617.000000	99.401696 
3616.000000	99.400626 
3615.000000	99.401688 
3614.000000	99.404620 
3613.000000	99.407589 
3612.000000	99.409159 
3611.000000	99.409745 
3610.000000	99.410732 
3609.000000	99.412688 
3608.000000	99.414756 
3607.000000	99.415947 
3606.000000	99.416585 
3605.000000	99.417736 
3604.000000	99.419935 
3603.000000	99.422915 
3602.000000	99.426042 
3601.000000	99.428881 
3600.000000	99.431067 
3599.000000	99.432147 
3598.000000	99.432039 
3597.000000	99.431277 
3596.000000	99.430552 
3595.000000	99.430447 
3594.000000	99.431115 
3593.000000	99.432198 
3592.000000	99.433119 
3591.000000	99.433303 
3590.000000	99.432693 
3589.000000	99.432079 
3588.000000	99.432464 
3587.000000	99.433592 
3586.000000	99.434369 
3585.000000	99.434569 
3584.000000	99.435130 
3583.000000	99.436842 
3582.000000	99.439519 
3581.000000	99.442166 
3580.000000	99.443823 
3579.000000	99.444183 
3578.000000	99.443489 
3577.000000	99.442284 
3576.000000	99.441218 
3575.000000	99.440822 
3574.000000	99.441130 
3573.000000	99.441409 
3572.000000	99.440813 
3571.000000	99.439196 
3570.000000	99.437128 
3569.000000	99.435593 
3568.000000	99.435613 
3567.000000	99.437359 
3566.000000	99.439871 
3565.000000	99.442196 
3564.000000	99.444329 
3563.000000	99.446907 
3562.000000	99.450369 
3561.000000	99.454171 
3560.000000	99.456989 
3559.000000	99.457721 
3558.000000	99.456377 
3557.000000	99.454054 
3556.000000	99.452214 
3555.000000	99.451703 
3554.000000	99.452368 
3553.000000	99.453184 
3552.000000	99.452996 
3551.000000	99.451516 
3550.000000	99.449423 
3549.000000	99.447574 
3548.000000	99.446505 
3547.000000	99.446403 
3546.000000	99.447257 
3545.000000	99.448658 
3544.000000	99.449939 
3543.000000	99.450811 
3542.000000	99.451702 
3541.000000	99.453094 
3540.000000	99.454846 
3539.000000	99.456254 
3538.000000	99.456845 
3537.000000	99.456841 
3536.000000	99.456801 
3535.000000	99.457067 
3534.000000	99.457518 
3533.000000	99.457934 
3532.000000	99.458347 
3531.000000	99.459019 
3530.000000	99.459961 
3529.000000	99.460632 
3528.000000	99.460408 
3527.000000	99.459344 
3526.000000	99.458214 
3525.000000	99.457738 
3524.000000	99.457933 
3523.000000	99.458291 
3522.000000	99.458459 
3521.000000	99.458527 
3520.000000	99.458811 
3519.000000	99.459550 
3518.000000	99.460804 
3517.000000	99.462388 
3516.000000	99.463815 
3515.000000	99.464561 
3514.000000	99.464427 
3513.000000	99.463648 
3512.000000	99.462768 
3511.000000	99.462267 
3510.000000	99.462268 
3509.000000	99.462573 
3508.000000	99.462918 
3507.000000	99.463219 
3506.000000	99.463607 
3505.000000	99.464194 
3504.000000	99.464890 
3503.000000	99.465505 
3502.000000	99.466003 
3501.000000	99.466549 
3500.000000	99.467263 
3499.000000	99.468021 
3498.000000	99.468529 
3497.000000	99.468596 
3496.000000	99.468285 
3495.000000	99.467866 
3494.000000	99.467638 
3493.000000	99.467739 
3492.000000	99.468113 
3491.000000	99.468607 
3490.000000	99.469148 
3489.000000	99.469801 
3488.000000	99.470638 
3487.000000	99.471518 
3486.000000	99.472130 
3485.000000	99.472296 
3484.000000	99.472187 
3483.000000	99.472164 
3482.000000	99.472358 
3481.000000	99.472529 
3480.000000	99.472434 
3479.000000	99.472199 
3478.000000	99.472165 
3477.000000	99.472447 
3476.000000	99.472867 
3475.000000	99.473329 
3474.000000	99.474019 
3473.000000	99.475043 
3472.000000	99.476052 
3471.000000	99.476565 
3470.000000	99.476565 
3469.000000	99.476448 
3468.000000	99.476449 
3467.000000	99.476364 
3466.000000	99.475994 
3465.000000	99.475575 
3464.000000	99.475565 
3463.000000	99.476123 
3462.000000	99.476958 
3461.000000	99.477682 
3460.000000	99.478199 
3459.000000	99.478680 
3458.000000	99.479214 
3457.000000	99.479555 
3456.000000	99.479320 
3455.000000	99.478455 
3454.000000	99.477422 
3453.000000	99.476849 
3452.000000	99.476878 
3451.000000	99.477056 
3450.000000	99.476864 
3449.000000	99.476298 
3448.000000	99.475814 
3447.000000	99.475761 
3446.000000	99.476001 
3445.000000	99.476172 
3444.000000	99.476168 
3443.000000	99.476207 
3442.000000	99.476443 
3441.000000	99.476650 
3440.000000	99.476419 
3439.000000	99.475621 
3438.000000	99.474539 
3437.000000	99.473553 
3436.000000	99.472802 
3435.000000	99.472287 
3434.000000	99.472129 
3433.000000	99.472521 
3432.000000	99.473376 
3431.000000	99.474203 
3430.000000	99.474530 
3429.000000	99.474341 
3428.000000	99.473983 
3427.000000	99.473660 
3426.000000	99.473192 
3425.000000	99.472341 
3424.000000	99.471233 
3423.000000	99.470328 
3422.000000	99.469936 
3421.000000	99.469935 
3420.000000	99.470044 
3419.000000	99.470252 
3418.000000	99.470755 
3417.000000	99.471511 
3416.000000	99.472122 
3415.000000	99.472246 
3414.000000	99.471972 
3413.000000	99.471680 
3412.000000	99.471624 
3411.000000	99.471738 
3410.000000	99.471756 
3409.000000	99.471427 
3408.000000	99.470657 
3407.000000	99.469609 
3406.000000	99.468687 
3405.000000	99.468289 
3404.000000	99.468525 
3403.000000	99.469186 
3402.000000	99.469974 
3401.000000	99.470740 
3400.000000	99.471510 
3399.000000	99.472340 
3398.000000	99.473144 
3397.000000	99.473644 
3396.000000	99.473548 
3395.000000	99.472770 
3394.000000	99.471461 
3393.000000	99.469852 
3392.000000	99.468213 
3391.000000	99.466972 
3390.000000	99.466681 
3389.000000	99.467659 
3388.000000	99.469665 
3387.000000	99.471928 
3386.000000	99.473696 
3385.000000	99.474788 
3384.000000	99.475494 
3383.000000	99.476033 
3382.000000	99.476163 
3381.000000	99.475499 
3380.000000	99.474122 
3379.000000	99.472735 
3378.000000	99.472095 
3377.000000	99.472307 
3376.000000	99.472859 
3375.000000	99.473165 
3374.000000	99.473088 
3373.000000	99.472906 
3372.000000	99.472912 
3371.000000	99.473140 
3370.000000	99.473401 
3369.000000	99.473481 
3368.000000	99.473320 
3367.000000	99.473056 
3366.000000	99.472906 
3365.000000	99.472961 
3364.000000	99.473099 
3363.000000	99.473125 
3362.000000	99.472974 
3361.000000	99.472737 
3360.000000	99.472539 
3359.000000	99.472421 
3358.000000	99.472361 
3357.000000	99.472343 
3356.000000	99.472366 
3355.000000	99.472405 
3354.000000	99.472406 
3353.000000	99.472346 
3352.000000	99.472249 
3351.000000	99.472158 
3350.000000	99.472103 
3349.000000	99.472083 
3348.000000	99.472076 
3347.000000	99.472063 
3346.000000	99.472036 
3345.000000	99.471995 
3344.000000	99.471945 
3343.000000	99.471891 
3342.000000	99.471840 
3341.000000	99.471795 
3340.000000	99.471752 
3339.000000	99.471705 
3338.000000	99.471655 
3337.000000	99.471621 
3336.000000	99.471633 
3335.000000	99.471704 
3334.000000	99.471792 
3333.000000	99.471850 
3332.000000	99.471884 
3331.000000	99.471927 
3330.000000	99.471965 
3329.000000	99.471932 
3328.000000	99.471806 
3327.000000	99.471665 
3326.000000	99.471601 
3325.000000	99.471583 
3324.000000	99.471448 
3323.000000	99.471074 
3322.000000	99.470557 
3321.000000	99.470167 
3320.000000	99.470084 
3319.000000	99.470260 
3318.000000	99.470514 
3317.000000	99.470737 
3316.000000	99.470930 
3315.000000	99.471089 
3314.000000	99.471198 
3313.000000	99.471345 
3312.000000	99.471708 
3311.000000	99.472303 
3310.000000	99.472796 
3309.000000	99.472768 
3308.000000	99.472174 
3307.000000	99.471394 
3306.000000	99.470873 
3305.000000	99.470744 
3304.000000	99.470849 
3303.000000	99.470965 
3302.000000	99.470927 
3301.000000	99.470625 
3300.000000	99.470028 
3299.000000	99.469271 
3298.000000	99.468656 
3297.000000	99.468504 
3296.000000	99.468925 
3295.000000	99.469663 
3294.000000	99.470161 
3293.000000	99.469999 
3292.000000	99.469266 
3291.000000	99.468433 
3290.000000	99.467827 
3289.000000	99.467320 
3288.000000	99.466628 
3287.000000	99.465741 
3286.000000	99.464911 
3285.000000	99.464308 
3284.000000	99.463870 
3283.000000	99.463488 
3282.000000	99.463188 
3281.000000	99.463099 
3280.000000	99.463317 
3279.000000	99.463838 
3278.000000	99.464514 
3277.000000	99.465058 
3276.000000	99.465167 
3275.000000	99.464731 
3274.000000	99.463906 
3273.000000	99.463035 
3272.000000	99.462460 
3271.000000	99.462318 
3270.000000	99.462505 
3269.000000	99.462750 
3268.000000	99.462802 
3267.000000	99.462583 
3266.000000	99.462181 
3265.000000	99.461754 
3264.000000	99.461442 
3263.000000	99.461335 
3262.000000	99.461470 
3261.000000	99.461805 
3260.000000	99.462242 
3259.000000	99.462662 
3258.000000	99.462946 
3257.000000	99.462999 
3256.000000	99.462784 
3255.000000	99.462337 
3254.000000	99.461758 
3253.000000	99.461214 
3252.000000	99.460932 
3251.000000	99.461100 
3250.000000	99.461684 
3249.000000	99.462367 
3248.000000	99.462795 
3247.000000	99.462876 
3246.000000	99.462788 
3245.000000	99.462726 
3244.000000	99.462709 
3243.000000	99.462645 
3242.000000	99.462466 
3241.000000	99.462176 
3240.000000	99.461859 
3239.000000	99.461726 
3238.000000	99.462035 
3237.000000	99.462921 
3236.000000	99.464243 
3235.000000	99.465592 
3234.000000	99.466460 
3233.000000	99.466516 
3232.000000	99.465821 
3231.000000	99.464876 
3230.000000	99.464257 
3229.000000	99.464147 
3228.000000	99.464281 
3227.000000	99.464278 
3226.000000	99.463962 
3225.000000	99.463389 
3224.000000	99.462742 
3223.000000	99.462266 
3222.000000	99.462173 
3221.000000	99.462471 
3220.000000	99.462935 
3219.000000	99.463309 
3218.000000	99.463533 
3217.000000	99.463739 
3216.000000	99.464084 
3215.000000	99.464612 
3214.000000	99.465154 
3213.000000	99.465359 
3212.000000	99.464932 
3211.000000	99.463900 
3210.000000	99.462655 
3209.000000	99.461698 
3208.000000	99.461295 
3207.000000	99.461396 
3206.000000	99.461724 
3205.000000	99.461942 
3204.000000	99.461879 
3203.000000	99.461641 
3202.000000	99.461459 
3201.000000	99.461430 
3200.000000	99.461469 
3199.000000	99.461484 
3198.000000	99.461502 
3197.000000	99.461566 
3196.000000	99.461641 
3195.000000	99.461645 
3194.000000	99.461543 
3193.000000	99.461335 
3192.000000	99.461019 
3191.000000	99.460614 
3190.000000	99.460191 
3189.000000	99.459838 
3188.000000	99.459614 
3187.000000	99.459548 
3186.000000	99.459622 
3185.000000	99.459749 
3184.000000	99.459792 
3183.000000	99.459649 
3182.000000	99.459342 
3181.000000	99.459014 
3180.000000	99.458807 
3179.000000	99.458758 
3178.000000	99.458796 
3177.000000	99.458803 
3176.000000	99.458697 
3175.000000	99.458515 
3174.000000	99.458395 
3173.000000	99.458414 
3172.000000	99.458443 
3171.000000	99.458252 
3170.000000	99.457785 
3169.000000	99.457280 
3168.000000	99.457055 
3167.000000	99.457155 
3166.000000	99.457319 
3165.000000	99.457277 
3164.000000	99.457036 
3163.000000	99.456805 
3162.000000	99.456752 
3161.000000	99.456908 
3160.000000	99.457264 
3159.000000	99.457798 
3158.000000	99.458338 
3157.000000	99.458525 
3156.000000	99.458101 
3155.000000	99.457203 
3154.000000	99.456257 
3153.000000	99.455487 
3152.000000	99.454707 
3151.000000	99.453712 
3150.000000	99.452719 
3149.000000	99.452221 
3148.000000	99.452462 
3147.000000	99.453254 
3146.000000	99.454238 
3145.000000	99.455135 
3144.000000	99.455791 
3143.000000	99.456147 
3142.000000	99.456250 
3141.000000	99.456216 
3140.000000	99.456142 
3139.000000	99.456066 
3138.000000	99.455998 
3137.000000	99.455971 
3136.000000	99.456077 
3135.000000	99.456428 
3134.000000	99.457012 
3133.000000	99.457558 
3132.000000	99.457708 
3131.000000	99.457371 
3130.000000	99.456839 
3129.000000	99.456522 
3128.000000	99.456598 
3127.000000	99.456992 
3126.000000	99.457537 
3125.000000	99.458052 
3124.000000	99.458349 
3123.000000	99.458333 
3122.000000	99.458115 
3121.000000	99.457958 
3120.000000	99.458030 
3119.000000	99.458284 
3118.000000	99.458559 
3117.000000	99.458744 
3116.000000	99.458834 
3115.000000	99.458898 
3114.000000	99.458998 
3113.000000	99.459143 
3112.000000	99.459293 
3111.000000	99.459422 
3110.000000	99.459554 
3109.000000	99.459711 
3108.000000	99.459848 
3107.000000	99.459894 
3106.000000	99.459820 
3105.000000	99.459663 
3104.000000	99.459503 
3103.000000	99.459450 
3102.000000	99.459619 
3101.000000	99.460055 
3100.000000	99.460636 
3099.000000	99.461119 
3098.000000	99.461359 
3097.000000	99.461383 
3096.000000	99.461308 
3095.000000	99.461212 
3094.000000	99.461092 
3093.000000	99.460915 
3092.000000	99.460670 
3091.000000	99.460412 
3090.000000	99.460312 
3089.000000	99.460610 
3088.000000	99.461420 
3087.000000	99.462540 
3086.000000	99.463528 
3085.000000	99.464005 
3084.000000	99.463855 
3083.000000	99.463147 
3082.000000	99.461986 
3081.000000	99.460612 
3080.000000	99.459564 
3079.000000	99.459550 
3078.000000	99.460963 
3077.000000	99.463425 
3076.000000	99.465853 
3075.000000	99.467144 
3074.000000	99.466859 
3073.000000	99.465372 
3072.000000	99.463441 
3071.000000	99.461597 
3070.000000	99.459798 
3069.000000	99.457602 
3068.000000	99.454834 
3067.000000	99.452255 
3066.000000	99.451425 
3065.000000	99.453538 
3064.000000	99.458120 
3063.000000	99.462867 
3062.000000	99.465043 
3061.000000	99.463355 
3060.000000	99.458814 
3059.000000	99.453914 
3058.000000	99.450801 
3057.000000	99.450070 
3056.000000	99.451080 
3055.000000	99.453045 
3054.000000	99.455447 
3053.000000	99.457557 
3052.000000	99.458147 
3051.000000	99.456214 
3050.000000	99.452159 
3049.000000	99.448083 
3048.000000	99.446378 
3047.000000	99.447447 
3046.000000	99.448786 
3045.000000	99.446996 
3044.000000	99.441217 
3043.000000	99.434310 
3042.000000	99.430139 
3041.000000	99.429709 
3040.000000	99.430583 
3039.000000	99.429849 
3038.000000	99.426676 
3037.000000	99.421866 
3036.000000	99.416062 
3035.000000	99.409332 
3034.000000	99.402022 
3033.000000	99.394927 
3032.000000	99.388426 
3031.000000	99.381909 
3030.000000	99.374360 
3029.000000	99.365586 
3028.000000	99.356862 
3027.000000	99.350126 
3026.000000	99.346092 
3025.000000	99.343044 
3024.000000	99.337966 
3023.000000	99.329155 
3022.000000	99.317482 
3021.000000	99.304934 
3020.000000	99.292310 
3019.000000	99.278888 
3018.000000	99.264212 
3017.000000	99.249417 
3016.000000	99.236314 
3015.000000	99.225411 
3014.000000	99.215365 
3013.000000	99.204526 
3012.000000	99.192658 
3011.000000	99.180775 
3010.000000	99.169517 
3009.000000	99.158395 
3008.000000	99.146806 
3007.000000	99.135105 
3006.000000	99.124067 
3005.000000	99.113576 
3004.000000	99.102515 
3003.000000	99.089942 
3002.000000	99.075907 
3001.000000	99.061207 
3000.000000	99.046909 
2999.000000	99.034251 
2998.000000	99.024482 
2997.000000	99.018287 
2996.000000	99.015066 
2995.000000	99.012290 
2994.000000	99.005584 
2993.000000	98.990690 
2992.000000	98.966999 
2991.000000	98.939500 
2990.000000	98.916169 
2989.000000	98.902606 
2988.000000	98.899283 
2987.000000	98.903305 
2986.000000	98.911479 
2985.000000	98.921346 
2984.000000	98.930433 
2983.000000	98.936252 
2982.000000	98.937595 
2981.000000	98.935473 
2980.000000	98.932520 
2979.000000	98.931285 
2978.000000	98.932565 
2977.000000	98.934885 
2976.000000	98.935721 
2975.000000	98.933646 
2974.000000	98.929498 
2973.000000	98.925629 
2972.000000	98.924275 
2971.000000	98.926562 
2970.000000	98.932391 
2969.000000	98.940757 
2968.000000	98.950400 
2967.000000	98.960595 
2966.000000	98.971286 
2965.000000	98.982346 
2964.000000	98.992956 
2963.000000	99.002058 
2962.000000	99.009356 
2961.000000	99.015644 
2960.000000	99.022081 
2959.000000	99.029133 
2958.000000	99.036176 
2957.000000	99.042223 
2956.000000	99.047211 
2955.000000	99.052510 
2954.000000	99.059875 
2953.000000	99.069772 
2952.000000	99.080901 
2951.000000	99.091239 
2950.000000	99.099297 
2949.000000	99.104546 
2948.000000	99.107183 
2947.000000	99.107928 
2946.000000	99.108016 
2945.000000	99.109101 
2944.000000	99.112662 
2943.000000	99.118926 
2942.000000	99.126019 
2941.000000	99.130720 
2940.000000	99.130957 
2939.000000	99.127903 
2938.000000	99.125258 
2937.000000	99.126257 
2936.000000	99.131547 
2935.000000	99.139511 
2934.000000	99.147764 
2933.000000	99.154281 
2932.000000	99.158003 
2931.000000	99.158979 
2930.000000	99.157903 
2929.000000	99.155556 
2928.000000	99.152807 
2927.000000	99.150607 
2926.000000	99.149189 
2925.000000	99.147470 
2924.000000	99.144165 
2923.000000	99.139507 
2922.000000	99.135007 
2921.000000	99.131384 
2920.000000	99.127652 
2919.000000	99.122547 
2918.000000	99.116049 
2917.000000	99.109092 
2916.000000	99.102434 
2915.000000	99.096253 
2914.000000	99.090409 
2913.000000	99.084787 
2912.000000	99.079687 
2911.000000	99.075908 
2910.000000	99.073865 
2909.000000	99.072707 
2908.000000	99.070921 
2907.000000	99.067932 
2906.000000	99.064053 
2905.000000	99.058804 
2904.000000	99.050702 
2903.000000	99.039887 
2902.000000	99.030143 
2901.000000	99.027209 
2900.000000	99.033774 
2899.000000	99.047524 
2898.000000	99.062560 
2897.000000	99.073241 
2896.000000	99.077581 
2895.000000	99.077894 
2894.000000	99.078493 
2893.000000	99.082205 
2892.000000	99.088758 
2891.000000	99.095985 
2890.000000	99.101927 
2889.000000	99.105674 
2888.000000	99.107177 
2887.000000	99.107258 
2886.000000	99.107590 
2885.000000	99.109815 
2884.000000	99.114483 
2883.000000	99.121116 
2882.000000	99.129148 
2881.000000	99.138384 
2880.000000	99.148612 
2879.000000	99.159201 
2878.000000	99.169263 
2877.000000	99.178162 
2876.000000	99.185961 
2875.000000	99.193427 
2874.000000	99.201316 
2873.000000	99.209433 
2872.000000	99.216622 
2871.000000	99.221872 
2870.000000	99.225298 
2869.000000	99.228104 
2868.000000	99.232006 
2867.000000	99.238680 
2866.000000	99.248910 
2865.000000	99.261614 
2864.000000	99.274095 
2863.000000	99.283977 
2862.000000	99.290872 
2861.000000	99.296017 
2860.000000	99.300839 
2859.000000	99.306322 
2858.000000	99.313124 
2857.000000	99.321285 
2856.000000	99.329817 
2855.000000	99.337361 
2854.000000	99.343455 
2853.000000	99.348850 
2852.000000	99.354508 
2851.000000	99.360646 
2850.000000	99.366819 
2849.000000	99.372476 
2848.000000	99.377352 
2847.000000	99.381630 
2846.000000	99.385723 
2845.000000	99.389592 
2844.000000	99.392426 
2843.000000	99.393519 
2842.000000	99.393598 
2841.000000	99.394807 
2840.000000	99.398925 
2839.000000	99.405638 
2838.000000	99.412759 
2837.000000	99.418121 
2836.000000	99.421189 
2835.000000	99.423017 
2834.000000	99.424893 
2833.000000	99.427153 
2832.000000	99.429181 
2831.000000	99.430205 
2830.000000	99.429921 
2829.000000	99.428609 
2828.000000	99.427098 
2827.000000	99.426589 
2826.000000	99.428020 
2825.000000	99.431251 
2824.000000	99.435023 
2823.000000	99.437904 
2822.000000	99.439311 
2821.000000	99.439685 
2820.000000	99.439977 
2819.000000	99.441015 
2818.000000	99.443020 
2817.000000	99.445472 
2816.000000	99.447515 
2815.000000	99.448609 
2814.000000	99.448771 
2813.000000	99.448341 
2812.000000	99.447797 
2811.000000	99.447793 
2810.000000	99.448947 
2809.000000	99.451297 
2808.000000	99.454068 
2807.000000	99.456154 
2806.000000	99.456873 
2805.000000	99.456372 
2804.000000	99.455502 
2803.000000	99.455278 
2802.000000	99.456165 
2801.000000	99.457789 
2800.000000	99.459379 
2799.000000	99.460441 
2798.000000	99.460917 
2797.000000	99.460881 
2796.000000	99.460450 
2795.000000	99.459985 
2794.000000	99.460005 
2793.000000	99.460732 
2792.000000	99.461881 
2791.000000	99.462979 
2790.000000	99.463788 
2789.000000	99.464422 
2788.000000	99.465104 
2787.000000	99.465918 
2786.000000	99.466731 
2785.000000	99.467317 
2784.000000	99.467548 
2783.000000	99.467515 
2782.000000	99.467485 
2781.000000	99.467715 
2780.000000	99.468275 
2779.000000	99.469031 
2778.000000	99.469761 
2777.000000	99.470353 
2776.000000	99.470892 
2775.000000	99.471521 
2774.000000	99.472223 
2773.000000	99.472794 
2772.000000	99.473114 
2771.000000	99.473348 
2770.000000	99.473779 
2769.000000	99.474426 
2768.000000	99.475024 
2767.000000	99.475415 
2766.000000	99.475790 
2765.000000	99.476389 
2764.000000	99.477078 
2763.000000	99.477424 
2762.000000	99.477172 
2761.000000	99.476488 
2760.000000	99.475793 
2759.000000	99.475426 
2758.000000	99.475468 
2757.000000	99.475836 
2756.000000	99.476396 
2755.000000	99.476975 
2754.000000	99.477371 
2753.000000	99.477473 
2752.000000	99.477439 
2751.000000	99.477663 
2750.000000	99.478410 
2749.000000	99.479528 
2748.000000	99.480568 
2747.000000	99.481188 
2746.000000	99.481362 
2745.000000	99.481249 
2744.000000	99.481022 
2743.000000	99.480840 
2742.000000	99.480871 
2741.000000	99.481238 
2740.000000	99.481950 
2739.000000	99.482908 
2738.000000	99.483928 
2737.000000	99.484793 
2736.000000	99.485382 
2735.000000	99.485733 
2734.000000	99.485969 
2733.000000	99.486150 
2732.000000	99.486263 
2731.000000	99.486331 
2730.000000	99.486434 
2729.000000	99.486618 
2728.000000	99.486880 
2727.000000	99.487231 
2726.000000	99.487697 
2725.000000	99.488246 
2724.000000	99.488776 
2723.000000	99.489235 
2722.000000	99.489681 
2721.000000	99.490194 
2720.000000	99.490766 
2719.000000	99.491298 
2718.000000	99.491687 
2717.000000	99.491917 
2716.000000	99.492069 
2715.000000	99.492283 
2714.000000	99.492641 
2713.000000	99.493112 
2712.000000	99.493595 
2711.000000	99.493995 
2710.000000	99.494293 
2709.000000	99.494542 
2708.000000	99.494817 
2707.000000	99.495148 
2706.000000	99.495478 
2705.000000	99.495706 
2704.000000	99.495812 
2703.000000	99.495924 
2702.000000	99.496185 
2701.000000	99.496569 
2700.000000	99.496910 
2699.000000	99.497133 
2698.000000	99.497379 
2697.000000	99.497825 
2696.000000	99.498451 
2695.000000	99.499037 
2694.000000	99.499396 
2693.000000	99.499532 
2692.000000	99.499595 
2691.000000	99.499714 
2690.000000	99.499896 
2689.000000	99.500073 
2688.000000	99.500246 
2687.000000	99.500532 
2686.000000	99.501017 
2685.000000	99.501589 
2684.000000	99.502034 
2683.000000	99.502268 
2682.000000	99.502349 
2681.000000	99.502257 
2680.000000	99.501869 
2679.000000	99.501203 
2678.000000	99.500591 
2677.000000	99.500497 
2676.000000	99.501185 
2675.000000	99.502597 
2674.000000	99.504339 
2673.000000	99.505786 
2672.000000	99.506419 
2671.000000	99.506185 
2670.000000	99.505556 
2669.000000	99.505152 
2668.000000	99.505203 
2667.000000	99.505526 
2666.000000	99.505898 
2665.000000	99.506321 
2664.000000	99.506892 
2663.000000	99.507595 
2662.000000	99.508310 
2661.000000	99.508991 
2660.000000	99.509729 
2659.000000	99.510600 
2658.000000	99.511517 
2657.000000	99.512335 
2656.000000	99.513066 
2655.000000	99.513862 
2654.000000	99.514723 
2653.000000	99.515410 
2652.000000	99.515813 
2651.000000	99.516241 
2650.000000	99.517090 
2649.000000	99.518257 
2648.000000	99.519149 
2647.000000	99.519416 
2646.000000	99.519386 
2645.000000	99.519685 
2644.000000	99.520517 
2643.000000	99.521491 
2642.000000	99.522064 
2641.000000	99.522052 
2640.000000	99.521715 
2639.000000	99.521555 
2638.000000	99.521905 
2637.000000	99.522688 
2636.000000	99.523521 
2635.000000	99.524083 
2634.000000	99.524377 
2633.000000	99.524588 
2632.000000	99.524838 
2631.000000	99.525159 
2630.000000	99.525564 
2629.000000	99.525995 
2628.000000	99.526274 
2627.000000	99.526295 
2626.000000	99.526237 
2625.000000	99.526410 
2624.000000	99.526897 
2623.000000	99.527496 
2622.000000	99.527971 
2621.000000	99.528255 
2620.000000	99.528420 
2619.000000	99.528577 
2618.000000	99.528842 
2617.000000	99.529296 
2616.000000	99.529900 
2615.000000	99.530509 
2614.000000	99.530995 
2613.000000	99.531317 
2612.000000	99.531469 
2611.000000	99.531451 
2610.000000	99.531295 
2609.000000	99.531066 
2608.000000	99.530837 
2607.000000	99.530726 
2606.000000	99.530950 
2605.000000	99.531700 
2604.000000	99.532886 
2603.000000	99.534043 
2602.000000	99.534650 
2601.000000	99.534582 
2600.000000	99.534260 
2599.000000	99.534214 
2598.000000	99.534450 
2597.000000	99.534398 
2596.000000	99.533613 
2595.000000	99.532337 
2594.000000	99.531322 
2593.000000	99.531056 
2592.000000	99.531389 
2591.000000	99.531884 
2590.000000	99.532295 
2589.000000	99.532644 
2588.000000	99.532881 
2587.000000	99.532736 
2586.000000	99.532016 
2585.000000	99.530926 
2584.000000	99.529991 
2583.000000	99.529591 
2582.000000	99.529636 
2581.000000	99.529738 
2580.000000	99.529629 
2579.000000	99.529331 
2578.000000	99.528950 
2577.000000	99.528470 
2576.000000	99.527853 
2575.000000	99.527220 
2574.000000	99.526777 
2573.000000	99.526590 
2572.000000	99.526550 
2571.000000	99.526553 
2570.000000	99.526562 
2569.000000	99.526526 
2568.000000	99.526369 
2567.000000	99.526078 
2566.000000	99.525704 
2565.000000	99.525251 
2564.000000	99.524678 
2563.000000	99.524033 
2562.000000	99.523491 
2561.000000	99.523172 
2560.000000	99.522973 
2559.000000	99.522643 
2558.000000	99.522021 
2557.000000	99.521175 
2556.000000	99.520386 
2555.000000	99.519968 
2554.000000	99.520042 
2553.000000	99.520361 
2552.000000	99.520419 
2551.000000	99.519909 
2550.000000	99.518942 
2549.000000	99.517833 
2548.000000	99.516747 
2547.000000	99.515701 
2546.000000	99.514773 
2545.000000	99.514125 
2544.000000	99.513860 
2543.000000	99.513891 
2542.000000	99.513895 
2541.000000	99.513459 
2540.000000	99.512410 
2539.000000	99.511097 
2538.000000	99.510152 
2537.000000	99.509801 
2536.000000	99.509619 
2535.000000	99.509143 
2534.000000	99.508537 
2533.000000	99.508274 
2532.000000	99.508301 
2531.000000	99.507999 
2530.000000	99.507038 
2529.000000	99.505904 
2528.000000	99.505319 
2527.000000	99.505374 
2526.000000	99.505494 
2525.000000	99.505243 
2524.000000	99.504907 
2523.000000	99.505114 
2522.000000	99.506091 
2521.000000	99.507440 
2520.000000	99.508481 
2519.000000	99.508743 
2518.000000	99.508114 
2517.000000	99.506763 
2516.000000	99.505104 
2515.000000	99.503701 
2514.000000	99.502984 
2513.000000	99.503049 
2512.000000	99.503792 
2511.000000	99.505074 
2510.000000	99.506652 
2509.000000	99.508066 
2508.000000	99.508926 
2507.000000	99.509303 
2506.000000	99.509551 
2505.000000	99.509763 
2504.000000	99.509687 
2503.000000	99.509211 
2502.000000	99.508606 
2501.000000	99.508204 
2500.000000	99.508108 
2499.000000	99.508297 
2498.000000	99.508741 
2497.000000	99.509246 
2496.000000	99.509477 
2495.000000	99.509285 
2494.000000	99.508886 
2493.000000	99.508594 
2492.000000	99.508516 
2491.000000	99.508581 
2490.000000	99.508745 
2489.000000	99.509042 
2488.000000	99.509523 
2487.000000	99.510159 
2486.000000	99.510737 
2485.000000	99.510869 
2484.000000	99.510333 
2483.000000	99.509316 
2482.000000	99.508365 
2481.000000	99.507900 
2480.000000	99.507868 
2479.000000	99.507934 
2478.000000	99.507830 
2477.000000	99.507566 
2476.000000	99.507315 
2475.000000	99.507225 
2474.000000	99.507331 
2473.000000	99.507531 
2472.000000	99.507650 
2471.000000	99.507588 
2470.000000	99.507384 
2469.000000	99.507137 
2468.000000	99.506888 
2467.000000	99.506607 
2466.000000	99.506278 
2465.000000	99.505933 
2464.000000	99.505608 
2463.000000	99.505315 
2462.000000	99.505047 
2461.000000	99.504797 
2460.000000	99.504554 
2459.000000	99.504304 
2458.000000	99.504033 
2457.000000	99.503739 
2456.000000	99.503433 
2455.000000	99.503125 
2454.000000	99.502820 
2453.000000	99.502514 
2452.000000	99.502200 
2451.000000	99.501865 
2450.000000	99.501501 
2449.000000	99.501108 
2448.000000	99.500698 
2447.000000	99.500299 
2446.000000	99.499940 
2445.000000	99.499616 
2444.000000	99.499277 
2443.000000	99.498861 
2442.000000	99.498351 
2441.000000	99.497810 
2440.000000	99.497349 
2439.000000	99.497039 
2438.000000	99.496857 
2437.000000	99.496662 
2436.000000	99.496295 
2435.000000	99.495688 
2434.000000	99.494912 
2433.000000	99.494127 
2432.000000	99.493488 
2431.000000	99.493120 
2430.000000	99.493038 
2429.000000	99.493020 
2428.000000	99.492676 
2427.000000	99.491816 
2426.000000	99.490680 
2425.000000	99.489741 
2424.000000	99.489251 
2423.000000	99.489185 
2422.000000	99.489482 
2421.000000	99.490089 
2420.000000	99.490702 
2419.000000	99.490737 
2418.000000	99.489799 
2417.000000	99.488036 
2416.000000	99.485980 
2415.000000	99.484091 
2414.000000	99.482469 
2413.000000	99.481024 
2412.000000	99.479798 
2411.000000	99.478955 
2410.000000	99.478492 
2409.000000	99.478106 
2408.000000	99.477460 
2407.000000	99.476538 
2406.000000	99.475652 
2405.000000	99.475149 
2404.000000	99.475195 
2403.000000	99.475710 
2402.000000	99.476334 
2401.000000	99.476514 
2400.000000	99.475882 
2399.000000	99.474577 
2398.000000	99.473146 
2397.000000	99.472165 
2396.000000	99.471917 
2395.000000	99.472305 
2394.000000	99.472856 
2393.000000	99.472963 
2392.000000	99.472391 
2391.000000	99.471481 
2390.000000	99.470751 
2389.000000	99.470407 
2388.000000	99.470406 
2387.000000	99.470798 
2386.000000	99.471644 
2385.000000	99.472676 
2384.000000	99.473412 
2383.000000	99.473684 
2382.000000	99.473733 
2381.000000	99.473781 
2380.000000	99.473760 
2379.000000	99.473582 
2378.000000	99.473435 
2377.000000	99.473610 
2376.000000	99.474156 
2375.000000	99.474819 
2374.000000	99.475268 
2373.000000	99.475334 
2372.000000	99.475074 
2371.000000	99.474763 
2370.000000	99.474739 
2369.000000	99.475143 
2368.000000	99.475858 
2367.000000	99.476677 
2366.000000	99.477493 
2365.000000	99.478284 
2364.000000	99.478995 
2363.000000	99.479519 
2362.000000	99.479786 
2361.000000	99.479838 
2360.000000	99.479858 
2359.000000	99.480049 
2358.000000	99.480464 
2357.000000	99.480998 
2356.000000	99.481552 
2355.000000	99.482150 
2354.000000	99.482804 
2353.000000	99.483429 
2352.000000	99.483951 
2351.000000	99.484404 
2350.000000	99.484870 
2349.000000	99.485377 
2348.000000	99.485897 
2347.000000	99.486403 
2346.000000	99.486899 
2345.000000	99.487392 
2344.000000	99.487880 
2343.000000	99.488361 
2342.000000	99.488828 
2341.000000	99.489280 
2340.000000	99.489727 
2339.000000	99.490194 
2338.000000	99.490696 
2337.000000	99.491215 
2336.000000	99.491699 
2335.000000	99.492126 
2334.000000	99.492519 
2333.000000	99.492938 
2332.000000	99.493416 
2331.000000	99.493939 
2330.000000	99.494461 
2329.000000	99.494970 
2328.000000	99.495509 
2327.000000	99.496119 
2326.000000	99.496816 
2325.000000	99.497543 
2324.000000	99.498188 
2323.000000	99.498683 
2322.000000	99.499084 
2321.000000	99.499512 
2320.000000	99.499939 
2319.000000	99.500248 
2318.000000	99.500432 
2317.000000	99.500646 
2316.000000	99.501017 
2315.000000	99.501498 
2314.000000	99.501939 
2313.000000	99.502304 
2312.000000	99.502708 
2311.000000	99.503219 
2310.000000	99.503762 
2309.000000	99.504191 
2308.000000	99.504475 
2307.000000	99.504708 
2306.000000	99.505004 
2305.000000	99.505388 
2304.000000	99.505828 
2303.000000	99.506301 
2302.000000	99.506792 
2301.000000	99.507219 
2300.000000	99.507506 
2299.000000	99.507715 
2298.000000	99.508047 
2297.000000	99.508527 
2296.000000	99.508909 
2295.000000	99.508995 
2294.000000	99.509014 
2293.000000	99.509378 
2292.000000	99.510177 
2291.000000	99.511089 
2290.000000	99.511770 
2289.000000	99.512096 
2288.000000	99.512112 
2287.000000	99.511988 
2286.000000	99.512007 
2285.000000	99.512241 
2284.000000	99.512318 
2283.000000	99.511887 
2282.000000	99.511095 
2281.000000	99.510352 
2280.000000	99.509811 
2279.000000	99.509384 
2278.000000	99.509146 
2277.000000	99.509276 
2276.000000	99.509676 
2275.000000	99.510034 
2274.000000	99.510164 
2273.000000	99.510126 
2272.000000	99.510029 
2271.000000	99.509915 
2270.000000	99.509798 
2269.000000	99.509668 
2268.000000	99.509490 
2267.000000	99.509250 
2266.000000	99.508992 
2265.000000	99.508771 
2264.000000	99.508561 
2263.000000	99.508252 
2262.000000	99.507784 
2261.000000	99.507263 
2260.000000	99.506870 
2259.000000	99.506689 
2258.000000	99.506621 
2257.000000	99.506512 
2256.000000	99.506289 
2255.000000	99.505983 
2254.000000	99.505666 
2253.000000	99.505386 
2252.000000	99.505154 
2251.000000	99.504972 
2250.000000	99.504824 
2249.000000	99.504654 
2248.000000	99.504390 
2247.000000	99.504050 
2246.000000	99.503730 
2245.000000	99.503471 
2244.000000	99.503212 
2243.000000	99.502904 
2242.000000	99.502600 
2241.000000	99.502367 
2240.000000	99.502199 
2239.000000	99.502060 
2238.000000	99.501946 
2237.000000	99.501842 
2236.000000	99.501678 
2235.000000	99.501397 
2234.000000	99.501016 
2233.000000	99.500624 
2232.000000	99.500306 
2231.000000	99.500076 
2230.000000	99.499902 
2229.000000	99.499747 
2228.000000	99.499598 
2227.000000	99.499467 
2226.000000	99.499382 
2225.000000	99.499357 
2224.000000	99.499384 
2223.000000	99.499447 
2222.000000	99.499527 
2221.000000	99.499601 
2220.000000	99.499652 
2219.000000	99.499676 
2218.000000	99.499688 
2217.000000	99.499712 
2216.000000	99.499762 
2215.000000	99.499827 
2214.000000	99.499876 
2213.000000	99.499892 
2212.000000	99.499885 
2211.000000	99.499884 
2210.000000	99.499907 
2209.000000	99.499962 
2208.000000	99.500070 
2207.000000	99.500253 
2206.000000	99.500477 
2205.000000	99.500547 
2204.000000	99.500195 
2203.000000	99.499611 
2202.000000	99.499795 
2201.000000	99.501496 
2200.000000	99.503760 
2199.000000	99.504696 
2198.000000	99.503649 
2197.000000	99.501732 
2196.000000	99.500373 
2195.000000	99.500048 
2194.000000	99.500556 
2193.000000	99.501649 
2192.000000	99.502974 
2191.000000	99.504174 
2190.000000	99.505558 
2189.000000	99.507944 
2188.000000	99.511181 
2187.000000	99.513300 
2186.000000	99.512123 
2185.000000	99.507849 
2184.000000	99.503334 
2183.000000	99.501245 
2182.000000	99.501164 
2181.000000	99.500175 
2180.000000	99.496497 
2179.000000	99.491834 
2178.000000	99.489599 
2177.000000	99.491406 
2176.000000	99.495932 
2175.000000	99.500636 
2174.000000	99.503679 
2173.000000	99.504652 
2172.000000	99.504908 
2171.000000	99.507084 
2170.000000	99.512812 
2169.000000	99.520636 
2168.000000	99.527285 
2167.000000	99.531065 
2166.000000	99.532709 
2165.000000	99.533506 
2164.000000	99.534714 
2163.000000	99.538242 
2162.000000	99.544358 
2161.000000	99.547926 
2160.000000	99.541107 
2159.000000	99.522008 
2158.000000	99.498171 
2157.000000	99.478731 
2156.000000	99.465644 
2155.000000	99.456629 
2154.000000	99.451982 
2153.000000	99.454000 
2152.000000	99.461685 
2151.000000	99.469873 
2150.000000	99.474011 
2149.000000	99.474166 
2148.000000	99.474126 
2147.000000	99.477431 
2146.000000	99.483733 
2145.000000	99.488374 
2144.000000	99.486575 
2143.000000	99.478624 
2142.000000	99.469950 
2141.000000	99.465390 
2140.000000	99.464668 
2139.000000	99.464578 
2138.000000	99.463687 
2137.000000	99.462824 
2136.000000	99.462143 
2135.000000	99.460425 
2134.000000	99.457463 
2133.000000	99.455125 
2132.000000	99.455239 
2131.000000	99.457311 
2130.000000	99.458761 
2129.000000	99.457130 
2128.000000	99.452321 
2127.000000	99.446984 
2126.000000	99.444361 
2125.000000	99.445494 
2124.000000	99.448943 
2123.000000	99.453136 
2122.000000	99.457831 
2121.000000	99.462846 
2120.000000	99.466987 
2119.000000	99.469383 
2118.000000	99.470900 
2117.000000	99.473066 
2116.000000	99.476020 
2115.000000	99.478506 
2114.000000	99.479469 
2113.000000	99.478836 
2112.000000	99.477019 
2111.000000	99.474662 
2110.000000	99.472863 
2109.000000	99.472481 
2108.000000	99.473017 
2107.000000	99.472996 
2106.000000	99.471737 
2105.000000	99.470227 
2104.000000	99.470030 
2103.000000	99.471648 
2102.000000	99.474114 
2101.000000	99.475885 
2100.000000	99.476124 
2099.000000	99.475172 
2098.000000	99.474028 
2097.000000	99.473522 
2096.000000	99.473881 
2095.000000	99.474933 
2094.000000	99.476346 
2093.000000	99.477667 
2092.000000	99.478501 
2091.000000	99.478887 
2090.000000	99.479344 
2089.000000	99.480346 
2088.000000	99.481750 
2087.000000	99.482874 
2086.000000	99.483142 
2085.000000	99.482594 
2084.000000	99.481950 
2083.000000	99.482143 
2082.000000	99.483597 
2081.000000	99.485860 
2080.000000	99.487857 
2079.000000	99.488972 
2078.000000	99.489719 
2077.000000	99.491092 
2076.000000	99.493221 
2075.000000	99.495045 
2074.000000	99.495365 
2073.000000	99.493919 
2072.000000	99.491563 
2071.000000	99.489652 
2070.000000	99.489171 
2069.000000	99.489958 
2068.000000	99.490924 
2067.000000	99.491231 
2066.000000	99.491030 
2065.000000	99.491067 
2064.000000	99.491949 
2063.000000	99.493918 
2062.000000	99.496669 
2061.000000	99.499173 
2060.000000	99.500413 
2059.000000	99.500584 
2058.000000	99.501054 
2057.000000	99.502688 
2056.000000	99.504776 
2055.000000	99.506147 
2054.000000	99.506842 
2053.000000	99.507898 
2052.000000	99.509706 
2051.000000	99.511356 
2050.000000	99.511746 
2049.000000	99.510831 
2048.000000	99.509590 
2047.000000	99.509039 
2046.000000	99.509429 
2045.000000	99.510279 
2044.000000	99.510856 
2043.000000	99.510789 
2042.000000	99.510315 
2041.000000	99.509908 
2040.000000	99.509713 
2039.000000	99.509485 
2038.000000	99.508978 
2037.000000	99.508153 
2036.000000	99.507102 
2035.000000	99.505907 
2034.000000	99.504644 
2033.000000	99.503475 
2032.000000	99.502634 
2031.000000	99.502239 
2030.000000	99.502139 
2029.000000	99.501963 
2028.000000	99.501405 
2027.000000	99.500495 
2026.000000	99.499437 
2025.000000	99.498475 
2024.000000	99.497739 
2023.000000	99.497260 
2022.000000	99.497013 
2021.000000	99.496845 
2020.000000	99.496511 
2019.000000	99.495852 
2018.000000	99.494988 
2017.000000	99.494190 
2016.000000	99.493453 
2015.000000	99.492545 
2014.000000	99.491497 
2013.000000	99.490638 
2012.000000	99.490072 
2011.000000	99.489547 
2010.000000	99.488964 
2009.000000	99.488542 
2008.000000	99.488339 
2007.000000	99.488181 
2006.000000	99.488228 
2005.000000	99.488878 
2004.000000	99.489776 
2003.000000	99.489724 
2002.000000	99.488057 
2001.000000	99.485448 
2000.000000	99.483005 
1999.000000	99.481001 
1998.000000	99.479059 
1997.000000	99.477131 
1996.000000	99.475782 
1995.000000	99.475637 
1994.000000	99.476858 
1993.000000	99.478986 
1992.000000	99.481113 
1991.000000	99.482497 
1990.000000	99.482985 
1989.000000	99.482616 
1988.000000	99.481489 
1987.000000	99.480644 
1986.000000	99.482203 
1985.000000	99.487406 
1984.000000	99.494605 
1983.000000	99.500416 
1982.000000	99.502503 
1981.000000	99.500377 
1980.000000	99.494895 
1979.000000	99.488188 
1978.000000	99.483128 
1977.000000	99.480754 
1976.000000	99.478637 
1975.000000	99.473833 
1974.000000	99.467051 
1973.000000	99.462101 
1972.000000	99.461327 
1971.000000	99.463450 
1970.000000	99.465905 
1969.000000	99.467708 
1968.000000	99.469172 
1967.000000	99.469925 
1966.000000	99.468744 
1965.000000	99.465295 
1964.000000	99.461098 
1963.000000	99.458382 
1962.000000	99.458110 
1961.000000	99.459180 
1960.000000	99.459481 
1959.000000	99.457810 
1958.000000	99.454609 
1957.000000	99.451085 
1956.000000	99.447970 
1955.000000	99.445019 
1954.000000	99.441450 
1953.000000	99.436836 
1952.000000	99.431770 
1951.000000	99.427651 
1950.000000	99.425601 
1949.000000	99.425590 
1948.000000	99.426585 
1947.000000	99.427448 
1946.000000	99.427458 
1945.000000	99.426207 
1944.000000	99.423710 
1943.000000	99.420746 
1942.000000	99.418470 
1941.000000	99.417222 
1940.000000	99.416393 
1939.000000	99.415438 
1938.000000	99.414410 
1937.000000	99.413587 
1936.000000	99.413027 
1935.000000	99.412549 
1934.000000	99.411905 
1933.000000	99.410922 
1932.000000	99.409614 
1931.000000	99.408300 
1930.000000	99.407458 
1929.000000	99.407249 
1928.000000	99.407336 
1927.000000	99.407210 
1926.000000	99.406635 
1925.000000	99.405688 
1924.000000	99.404574 
1923.000000	99.403552 
1922.000000	99.402862 
1921.000000	99.402562 
1920.000000	99.402487 
1919.000000	99.402377 
1918.000000	99.402108 
1917.000000	99.401742 
1916.000000	99.401395 
1915.000000	99.401153 
1914.000000	99.401077 
1913.000000	99.401170 
1912.000000	99.401324 
1911.000000	99.401391 
1910.000000	99.401316 
1909.000000	99.401155 
1908.000000	99.400977 
1907.000000	99.400808 
1906.000000	99.400679 
1905.000000	99.400610 
1904.000000	99.400507 
1903.000000	99.400169 
1902.000000	99.399508 
1901.000000	99.398670 
1900.000000	99.397908 
1899.000000	99.397384 
1898.000000	99.397126 
1897.000000	99.397021 
1896.000000	99.396880 
1895.000000	99.396638 
1894.000000	99.396499 
1893.000000	99.396670 
1892.000000	99.396917 
1891.000000	99.396731 
1890.000000	99.396027 
1889.000000	99.395398 
1888.000000	99.395314 
1887.000000	99.395629 
1886.000000	99.396051 
1885.000000	99.396470 
1884.000000	99.396686 
1883.000000	99.396393 
1882.000000	99.395645 
1881.000000	99.394733 
1880.000000	99.393732 
1879.000000	99.392752 
1878.000000	99.392212 
1877.000000	99.392174 
1876.000000	99.391979 
1875.000000	99.391407 
1874.000000	99.391625 
1873.000000	99.393724 
1872.000000	99.396656 
1871.000000	99.397954 
1870.000000	99.396570 
1869.000000	99.393813 
1868.000000	99.390982 
1867.000000	99.387917 
1866.000000	99.385002 
1865.000000	99.383544 
1864.000000	99.384019 
1863.000000	99.385816 
1862.000000	99.388696 
1861.000000	99.392882 
1860.000000	99.397388 
1859.000000	99.400351 
1858.000000	99.401726 
1857.000000	99.403367 
1856.000000	99.406146 
1855.000000	99.408938 
1854.000000	99.410562 
1853.000000	99.410883 
1852.000000	99.409814 
1851.000000	99.407085 
1850.000000	99.403581 
1849.000000	99.401275 
1848.000000	99.401021 
1847.000000	99.401735 
1846.000000	99.402323 
1845.000000	99.402758 
1844.000000	99.402906 
1843.000000	99.402159 
1842.000000	99.400888 
1841.000000	99.400378 
1840.000000	99.401457 
1839.000000	99.403742 
1838.000000	99.406110 
1837.000000	99.407785 
1836.000000	99.408622 
1835.000000	99.408775 
1834.000000	99.408562 
1833.000000	99.408437 
1832.000000	99.408779 
1831.000000	99.409348 
1830.000000	99.409453 
1829.000000	99.409241 
1828.000000	99.409866 
1827.000000	99.411726 
1826.000000	99.413892 
1825.000000	99.415299 
1824.000000	99.415717 
1823.000000	99.415544 
1822.000000	99.415110 
1821.000000	99.414343 
1820.000000	99.412970 
1819.000000	99.410978 
1818.000000	99.409143 
1817.000000	99.408697 
1816.000000	99.409829 
1815.000000	99.411304 
1814.000000	99.412047 
1813.000000	99.412466 
1812.000000	99.413724 
1811.000000	99.416040 
1810.000000	99.418702 
1809.000000	99.421214 
1808.000000	99.423178 
1807.000000	99.423955 
1806.000000	99.423415 
1805.000000	99.422400 
1804.000000	99.421881 
1803.000000	99.421953 
1802.000000	99.422272 
1801.000000	99.422874 
1800.000000	99.423748 
1799.000000	99.424389 
1798.000000	99.424591 
1797.000000	99.424787 
1796.000000	99.425366 
1795.000000	99.426269 
1794.000000	99.427240 
1793.000000	99.428095 
1792.000000	99.428789 
1791.000000	99.429255 
1790.000000	99.429527 
1789.000000	99.429854 
1788.000000	99.430425 
1787.000000	99.431182 
1786.000000	99.431928 
1785.000000	99.432528 
1784.000000	99.432977 
1783.000000	99.433390 
1782.000000	99.433901 
1781.000000	99.434524 
1780.000000	99.435156 
1779.000000	99.435724 
1778.000000	99.436271 
1777.000000	99.436876 
1776.000000	99.437547 
1775.000000	99.438243 
1774.000000	99.438917 
1773.000000	99.439552 
1772.000000	99.440153 
1771.000000	99.440728 
1770.000000	99.441284 
1769.000000	99.441821 
1768.000000	99.442347 
1767.000000	99.442866 
1766.000000	99.443386 
1765.000000	99.443914 
1764.000000	99.444453 
1763.000000	99.445003 
1762.000000	99.445562 
1761.000000	99.446128 
1760.000000	99.446699 
1759.000000	99.447270 
1758.000000	99.447831 
1757.000000	99.448374 
1756.000000	99.448897 
1755.000000	99.449399 
1754.000000	99.449883 
1753.000000	99.450351 
1752.000000	99.450811 
1751.000000	99.451280 
1750.000000	99.451769 
1749.000000	99.452261 
1748.000000	99.452722 
1747.000000	99.453138 
1746.000000	99.453527 
1745.000000	99.453905 
1744.000000	99.454274 
1743.000000	99.454627 
1742.000000	99.454946 
1741.000000	99.455225 
1740.000000	99.455472 
1739.000000	99.455703 
1738.000000	99.455928 
1737.000000	99.456144 
1736.000000	99.456345 
1735.000000	99.456530 
1734.000000	99.456700 
1733.000000	99.456867 
1732.000000	99.457037 
1731.000000	99.457208 
1730.000000	99.457375 
1729.000000	99.457532 
1728.000000	99.457674 
1727.000000	99.457801 
1726.000000	99.457916 
1725.000000	99.458025 
1724.000000	99.458128 
1723.000000	99.458225 
1722.000000	99.458316 
1721.000000	99.458395 
1720.000000	99.458455 
1719.000000	99.458487 
1718.000000	99.458483 
1717.000000	99.458444 
1716.000000	99.458384 
1715.000000	99.458316 
1714.000000	99.458248 
1713.000000	99.458185 
1712.000000	99.458126 
1711.000000	99.458071 
1710.000000	99.458015 
1709.000000	99.457958 
1708.000000	99.457899 
1707.000000	99.457840 
1706.000000	99.457785 
1705.000000	99.457735 
1704.000000	99.457685 
1703.000000	99.457629 
1702.000000	99.457567 
1701.000000	99.457515 
1700.000000	99.457490 
1699.000000	99.457497 
1698.000000	99.457527 
1697.000000	99.457570 
1696.000000	99.457619 
1695.000000	99.457669 
1694.000000	99.457718 
1693.000000	99.457762 
1692.000000	99.457793 
1691.000000	99.457799 
1690.000000	99.457778 
1689.000000	99.457743 
1688.000000	99.457699 
1687.000000	99.457632 
1686.000000	99.457553 
1685.000000	99.457537 
1684.000000	99.457614 
1683.000000	99.457696 
1682.000000	99.457741 
1681.000000	99.457727 
1680.000000	99.457670 
1679.000000	99.457625 
1678.000000	99.457630 
1677.000000	99.457670 
1676.000000	99.457674 
1675.000000	99.457659 
1674.000000	99.457759 
1673.000000	99.458026 
1672.000000	99.458344 
1671.000000	99.458615 
1670.000000	99.458822 
1669.000000	99.458960 
1668.000000	99.459118 
1667.000000	99.459389 
1666.000000	99.459544 
1665.000000	99.459333 
1664.000000	99.458883 
1663.000000	99.458658 
1662.000000	99.459088 
1661.000000	99.460049 
1660.000000	99.460849 
1659.000000	99.461279 
1658.000000	99.461782 
1657.000000	99.462340 
1656.000000	99.462092 
1655.000000	99.460951 
1654.000000	99.460408 
1653.000000	99.460657 
1652.000000	99.460851 
1651.000000	99.462037 
1650.000000	99.462669 
1649.000000	99.462035 
1648.000000	99.460349 
1647.000000	99.458147 
1646.000000	99.456310 
1645.000000	99.456176 
1644.000000	99.457683 
1643.000000	99.459538 
1642.000000	99.460764 
1641.000000	99.461185 
1640.000000	99.460954 
1639.000000	99.460429 
1638.000000	99.460202 
1637.000000	99.460719 
1636.000000	99.460915 
1635.000000	99.460004 
1634.000000	99.460285 
1633.000000	99.462405 
1632.000000	99.464644 
1631.000000	99.465917 
1630.000000	99.466576 
1629.000000	99.467529 
1628.000000	99.469031 
1627.000000	99.470772 
1626.000000	99.472640 
1625.000000	99.474699 
1624.000000	99.476738 
1623.000000	99.478483 
1622.000000	99.480292 
1621.000000	99.482128 
1620.000000	99.482857 
1619.000000	99.482193 
1618.000000	99.481703 
1617.000000	99.482656 
1616.000000	99.483842 
1615.000000	99.484326 
1614.000000	99.484058 
1613.000000	99.482853 
1612.000000	99.481192 
1611.000000	99.480045 
1610.000000	99.480090 
1609.000000	99.480786 
1608.000000	99.481035 
1607.000000	99.480868 
1606.000000	99.481104 
1605.000000	99.481776 
1604.000000	99.482335 
1603.000000	99.483122 
1602.000000	99.484794 
1601.000000	99.486712 
1600.000000	99.487801 
1599.000000	99.488377 
1598.000000	99.489561 
1597.000000	99.491543 
1596.000000	99.493596 
1595.000000	99.495408 
1594.000000	99.497294 
1593.000000	99.499026 
1592.000000	99.499892 
1591.000000	99.499988 
1590.000000	99.500324 
1589.000000	99.501420 
1588.000000	99.502831 
1587.000000	99.504114 
1586.000000	99.505161 
1585.000000	99.505700 
1584.000000	99.505396 
1583.000000	99.504586 
1582.000000	99.504231 
1581.000000	99.504676 
1580.000000	99.505421 
1579.000000	99.506107 
1578.000000	99.506866 
1577.000000	99.507616 
1576.000000	99.507898 
1575.000000	99.507941 
1574.000000	99.508266 
1573.000000	99.508668 
1572.000000	99.508914 
1571.000000	99.509106 
1570.000000	99.509415 
1569.000000	99.509784 
1568.000000	99.510072 
1567.000000	99.510272 
1566.000000	99.510435 
1565.000000	99.510587 
1564.000000	99.510730 
1563.000000	99.510860 
1562.000000	99.510976 
1561.000000	99.511075 
1560.000000	99.511153 
1559.000000	99.511207 
1558.000000	99.511236 
1557.000000	99.511247 
1556.000000	99.511237 
1555.000000	99.511200 
1554.000000	99.511132 
1553.000000	99.511036 
1552.000000	99.510915 
1551.000000	99.510774 
1550.000000	99.510616 
1549.000000	99.510449 
1548.000000	99.510272 
1547.000000	99.510083 
1546.000000	99.509880 
1545.000000	99.509666 
1544.000000	99.509445 
1543.000000	99.509221 
1542.000000	99.508999 
1541.000000	99.508782 
1540.000000	99.508567 
1539.000000	99.508354 
1538.000000	99.508151 
1537.000000	99.507968 
1536.000000	99.507801 
1535.000000	99.507636 
1534.000000	99.507456 
1533.000000	99.507279 
1532.000000	99.507108 
1531.000000	99.506857 
1530.000000	99.506502 
1529.000000	99.506221 
1528.000000	99.506152 
1527.000000	99.506176 
1526.000000	99.506078 
1525.000000	99.505894 
1524.000000	99.505773 
1523.000000	99.505793 
1522.000000	99.506096 
1521.000000	99.506758 
1520.000000	99.507264 
1519.000000	99.506934 
1518.000000	99.505613 
1517.000000	99.503816 
1516.000000	99.502320 
1515.000000	99.501496 
1514.000000	99.501138 
1513.000000	99.500806 
1512.000000	99.500288 
1511.000000	99.499606 
1510.000000	99.498820 
1509.000000	99.498313 
1508.000000	99.499178 
1507.000000	99.501296 
1506.000000	99.501524 
1505.000000	99.499956 
1504.000000	99.498559 
1503.000000	99.497451 
1502.000000	99.496681 
1501.000000	99.496747 
1500.000000	99.498073 
1499.000000	99.500365 
1498.000000	99.502359 
1497.000000	99.503529 
1496.000000	99.504488 
1495.000000	99.504588 
1494.000000	99.502451 
1493.000000	99.498223 
1492.000000	99.493347 
1491.000000	99.489455 
1490.000000	99.487198 
1489.000000	99.486196 
1488.000000	99.485204 
1487.000000	99.483111 
1486.000000	99.480821 
1485.000000	99.479758 
1484.000000	99.479834 
1483.000000	99.479990 
1482.000000	99.479090 
1481.000000	99.476920 
1480.000000	99.474240 
1479.000000	99.471859 
1478.000000	99.470272 
1477.000000	99.469742 
1476.000000	99.469925 
1475.000000	99.469203 
1474.000000	99.467122 
1473.000000	99.465882 
1472.000000	99.467124 
1471.000000	99.468826 
1470.000000	99.469024 
1469.000000	99.468558 
1468.000000	99.469133 
1467.000000	99.470919 
1466.000000	99.472707 
1465.000000	99.473405 
1464.000000	99.472847 
1463.000000	99.471735 
1462.000000	99.470657 
1461.000000	99.470155 
1460.000000	99.470384 
1459.000000	99.470543 
1458.000000	99.467880 
1457.000000	99.460550 
1456.000000	99.452669 
1455.000000	99.448142 
1454.000000	99.445972 
1453.000000	99.444914 
1452.000000	99.444368 
1451.000000	99.443912 
1450.000000	99.443749 
1449.000000	99.445082 
1448.000000	99.448290 
1447.000000	99.451077 
1446.000000	99.451594 
1445.000000	99.450932 
1444.000000	99.450590 
1443.000000	99.450270 
1442.000000	99.448827 
1441.000000	99.446583 
1440.000000	99.445749 
1439.000000	99.448033 
1438.000000	99.451114 
1437.000000	99.450268 
1436.000000	99.444696 
1435.000000	99.437950 
1434.000000	99.432402 
1433.000000	99.429087 
1432.000000	99.428358 
1431.000000	99.430015 
1430.000000	99.432145 
1429.000000	99.432614 
1428.000000	99.431673 
1427.000000	99.430410 
1426.000000	99.428581 
1425.000000	99.424468 
1424.000000	99.418486 
1423.000000	99.413794 
1422.000000	99.410805 
1421.000000	99.406809 
1420.000000	99.400147 
1419.000000	99.392589 
1418.000000	99.384633 
1417.000000	99.374769 
1416.000000	99.364141 
1415.000000	99.354698 
1414.000000	99.346111 
1413.000000	99.336341 
1412.000000	99.325481 
1411.000000	99.316422 
1410.000000	99.310434 
1409.000000	99.306615 
1408.000000	99.305012 
1407.000000	99.306002 
1406.000000	99.308456 
1405.000000	99.311006 
1404.000000	99.314725 
1403.000000	99.320637 
1402.000000	99.326309 
1401.000000	99.329199 
1400.000000	99.330272 
1399.000000	99.332624 
1398.000000	99.334953 
1397.000000	99.331222 
1396.000000	99.318620 
1395.000000	99.303303 
1394.000000	99.296071 
1393.000000	99.301246 
1392.000000	99.315660 
1391.000000	99.333434 
1390.000000	99.349169 
1389.000000	99.359341 
1388.000000	99.362938 
1387.000000	99.361478 
1386.000000	99.357449 
1385.000000	99.353051 
1384.000000	99.350002 
1383.000000	99.349337 
1382.000000	99.350882 
1381.000000	99.354011 
1380.000000	99.358234 
1379.000000	99.363312 
1378.000000	99.368997 
1377.000000	99.374765 
1376.000000	99.380276 
1375.000000	99.385902 
1374.000000	99.392210 
1373.000000	99.398670 
1372.000000	99.404439 
1371.000000	99.410218 
1370.000000	99.417918 
1369.000000	99.427405 
1368.000000	99.436730 
1367.000000	99.444777 
1366.000000	99.451999 
1365.000000	99.458882 
1364.000000	99.464546 
1363.000000	99.468054 
1362.000000	99.470461 
1361.000000	99.473504 
1360.000000	99.477369 
1359.000000	99.481589 
1358.000000	99.486529 
1357.000000	99.492415 
1356.000000	99.498134 
1355.000000	99.502184 
1354.000000	99.504492 
1353.000000	99.506245 
1352.000000	99.507440 
1351.000000	99.506659 
1350.000000	99.505029 
1349.000000	99.504803 
1348.000000	99.506741 
1347.000000	99.510217 
1346.000000	99.514924 
1345.000000	99.520189 
1344.000000	99.524221 
1343.000000	99.525825 
1342.000000	99.526154 
1341.000000	99.526951 
1340.000000	99.528005 
1339.000000	99.528092 
1338.000000	99.527312 
1337.000000	99.526921 
1336.000000	99.527450 
1335.000000	99.528281 
1334.000000	99.529179 
1333.000000	99.530811 
1332.000000	99.533321 
1331.000000	99.535717 
1330.000000	99.536941 
1329.000000	99.536515 
1328.000000	99.534721 
1327.000000	99.532747 
1326.000000	99.532191 
1325.000000	99.532940 
1324.000000	99.533885 
1323.000000	99.534748 
1322.000000	99.535870 
1321.000000	99.536506 
1320.000000	99.535199 
1319.000000	99.532086 
1318.000000	99.529408 
1317.000000	99.529136 
1316.000000	99.530956 
1315.000000	99.533101 
1314.000000	99.534219 
1313.000000	99.534174 
1312.000000	99.533592 
1311.000000	99.533195 
1310.000000	99.533382 
1309.000000	99.533928 
1308.000000	99.534155 
1307.000000	99.533455 
1306.000000	99.532007 
1305.000000	99.530393 
1304.000000	99.529575 
1303.000000	99.530422 
1302.000000	99.532973 
1301.000000	99.536067 
1300.000000	99.538171 
1299.000000	99.538447 
1298.000000	99.536935 
1297.000000	99.534294 
1296.000000	99.531685 
1295.000000	99.530717 
1294.000000	99.532301 
1293.000000	99.535517 
1292.000000	99.538171 
1291.000000	99.538598 
1290.000000	99.536860 
1289.000000	99.534478 
1288.000000	99.533107 
1287.000000	99.533055 
1286.000000	99.532782 
1285.000000	99.530477 
1284.000000	99.526427 
1283.000000	99.523160 
1282.000000	99.522548 
1281.000000	99.523583 
1280.000000	99.523866 
1279.000000	99.522499 
1278.000000	99.520193 
1277.000000	99.517397 
1276.000000	99.513719 
1275.000000	99.509398 
1274.000000	99.505860 
1273.000000	99.504317 
1272.000000	99.504495 
1271.000000	99.504875 
1270.000000	99.503685 
1269.000000	99.499928 
1268.000000	99.494268 
1267.000000	99.488719 
1266.000000	99.484475 
1265.000000	99.480606 
1264.000000	99.475713 
1263.000000	99.470074 
1262.000000	99.465041 
1261.000000	99.460975 
1260.000000	99.457197 
1259.000000	99.453711 
1258.000000	99.451131 
1257.000000	99.449212 
1256.000000	99.446905 
1255.000000	99.443951 
1254.000000	99.441091 
1253.000000	99.438704 
1252.000000	99.436551 
1251.000000	99.435070 
1250.000000	99.435297 
1249.000000	99.437267 
1248.000000	99.440022 
1247.000000	99.443297 
1246.000000	99.447093 
1245.000000	99.449359 
1244.000000	99.446736 
1243.000000	99.439223 
1242.000000	99.432334 
1241.000000	99.432337 
1240.000000	99.439884 
1239.000000	99.449649 
1238.000000	99.455689 
1237.000000	99.455880 
1236.000000	99.451518 
1235.000000	99.444747 
1234.000000	99.436974 
1233.000000	99.428832 
1232.000000	99.420953 
1231.000000	99.414357 
1230.000000	99.409640 
1229.000000	99.405954 
1228.000000	99.401804 
1227.000000	99.397202 
1226.000000	99.394084 
1225.000000	99.393739 
1224.000000	99.394653 
1223.000000	99.393968 
1222.000000	99.390605 
1221.000000	99.385979 
1220.000000	99.381988 
1219.000000	99.379276 
1218.000000	99.377128 
1217.000000	99.374253 
1216.000000	99.369636 
1215.000000	99.363271 
1214.000000	99.356060 
1213.000000	99.348674 
1212.000000	99.340692 
1211.000000	99.331087 
1210.000000	99.319375 
1209.000000	99.305984 
1208.000000	99.291784 
1207.000000	99.277685 
1206.000000	99.264525 
1205.000000	99.252861 
1204.000000	99.242637 
1203.000000	99.233032 
1202.000000	99.222614 
1201.000000	99.209975 
1200.000000	99.194798 
1199.000000	99.178344 
1198.000000	99.162385 
1197.000000	99.147717 
1196.000000	99.133994 
1195.000000	99.120644 
1194.000000	99.107216 
1193.000000	99.092877 
1192.000000	99.076642 
1191.000000	99.058542 
1190.000000	99.039995 
1189.000000	99.022823 
1188.000000	99.008251 
1187.000000	98.996482 
1186.000000	98.986226 
1185.000000	98.974743 
1184.000000	98.959414 
1183.000000	98.939802 
1182.000000	98.917876 
1181.000000	98.896136 
1180.000000	98.876007 
1179.000000	98.857779 
1178.000000	98.840755 
1177.000000	98.823110 
1176.000000	98.802919 
1175.000000	98.780191 
1174.000000	98.757234 
1173.000000	98.736271 
1172.000000	98.717441 
1171.000000	98.699648 
1170.000000	98.682360 
1169.000000	98.665669 
1168.000000	98.649237 
1167.000000	98.632391 
1166.000000	98.615448 
1165.000000	98.600471 
1164.000000	98.590586 
1163.000000	98.588386 
1162.000000	98.594287 
1161.000000	98.605721 
1160.000000	98.618066 
1159.000000	98.627051 
1158.000000	98.630529 
1157.000000	98.628007 
1156.000000	98.619220 
1155.000000	98.604073 
1154.000000	98.583787 
1153.000000	98.560946 
1152.000000	98.537852 
1151.000000	98.515296 
1150.000000	98.493196 
1149.000000	98.471759 
1148.000000	98.451254 
1147.000000	98.430843 
1146.000000	98.408694 
1145.000000	98.383955 
1144.000000	98.358252 
1143.000000	98.334584 
1142.000000	98.314568 
1141.000000	98.297106 
1140.000000	98.279658 
1139.000000	98.260162 
1138.000000	98.237799 
1137.000000	98.212949 
1136.000000	98.187088 
1135.000000	98.162174 
1134.000000	98.139255 
1133.000000	98.117618 
1132.000000	98.095645 
1131.000000	98.072425 
1130.000000	98.048343 
1129.000000	98.024237 
1128.000000	98.000114 
1127.000000	97.974676 
1126.000000	97.946428 
1125.000000	97.915644 
1124.000000	97.884861 
1123.000000	97.856634 
1122.000000	97.830744 
1121.000000	97.804545 
1120.000000	97.776174 
1119.000000	97.746415 
1118.000000	97.717084 
1117.000000	97.688710 
1116.000000	97.660475 
1115.000000	97.631552 
1114.000000	97.601714 
1113.000000	97.571218 
1112.000000	97.540995 
1111.000000	97.512702 
1110.000000	97.487829 
1109.000000	97.466260 
1108.000000	97.445612 
1107.000000	97.422487 
1106.000000	97.395293 
1105.000000	97.365730 
1104.000000	97.336888 
1103.000000	97.309818 
1102.000000	97.283263 
1101.000000	97.256918 
1100.000000	97.233535 
1099.000000	97.214697 
1098.000000	97.198112 
1097.000000	97.179994 
1096.000000	97.159492 
1095.000000	97.138130 
1094.000000	97.115643 
1093.000000	97.089424 
1092.000000	97.058348 
1091.000000	97.024462 
1090.000000	96.990094 
1089.000000	96.955239 
1088.000000	96.918815 
1087.000000	96.880969 
1086.000000	96.843303 
1085.000000	96.807800 
1084.000000	96.775754 
1083.000000	96.746399 
1082.000000	96.716608 
1081.000000	96.683800 
1080.000000	96.649267 
1079.000000	96.616757 
1078.000000	96.587770 
1077.000000	96.560756 
1076.000000	96.535057 
1075.000000	96.512429 
1074.000000	96.493705 
1073.000000	96.476678 
1072.000000	96.457724 
1071.000000	96.432055 
1070.000000	96.392363 
1069.000000	96.333074 
1068.000000	96.259522 
1067.000000	96.189387 
1066.000000	96.139560 
1065.000000	96.112000 
1064.000000	96.094791 
1063.000000	96.074243 
1062.000000	96.042870 
1061.000000	95.998516 
1060.000000	95.942325 
1059.000000	95.879885 
1058.000000	95.820836 
1057.000000	95.773376 
1056.000000	95.737965 
1055.000000	95.706459 
1054.000000	95.668295 
1053.000000	95.619301 
1052.000000	95.564737 
1051.000000	95.512578 
1050.000000	95.464653 
1049.000000	95.417224 
1048.000000	95.369058 
1047.000000	95.323734 
1046.000000	95.283341 
1045.000000	95.244895 
1044.000000	95.204941 
1043.000000	95.164371 
1042.000000	95.126407 
1041.000000	95.091942 
1040.000000	95.059141 
1039.000000	95.026814 
1038.000000	94.996876 
1037.000000	94.973833 
1036.000000	94.961850 
1035.000000	94.961297 
1034.000000	94.968107 
1033.000000	94.976836 
1032.000000	94.982789 
1031.000000	94.980760 
1030.000000	94.966454 
1029.000000	94.943786 
1028.000000	94.927716 
1027.000000	94.933213 
1026.000000	94.960620 
1025.000000	94.995539 
1024.000000	95.022969 
1023.000000	95.037616 
1022.000000	95.041632 
1021.000000	95.039143 
1020.000000	95.034953 
1019.000000	95.033517 
1018.000000	95.035854 
1017.000000	95.039604 
1016.000000	95.043208 
1015.000000	95.047449 
1014.000000	95.052580 
1013.000000	95.057244 
1012.000000	95.060962 
1011.000000	95.064711 
1010.000000	95.068791 
1009.000000	95.073326 
1008.000000	95.080784 
1007.000000	95.094209 
1006.000000	95.112756 
1005.000000	95.132766 
1004.000000	95.153375 
1003.000000	95.176874 
1002.000000	95.203270 
1001.000000	95.229216 
1000.000000	95.253238 
999.000000	 95.277447 
998.000000	 95.302697 
997.000000	 95.326631 
996.000000	 95.348672 
995.000000	 95.372929 
994.000000	 95.403398 
993.000000	 95.438974 
992.000000	 95.475275 
991.000000	 95.509100 
990.000000	 95.539746 
989.000000	 95.568425 
988.000000	 95.597853 
987.000000	 95.630250 
986.000000	 95.664903 
985.000000	 95.700135 
984.000000	 95.737757 
983.000000	 95.782164 
982.000000	 95.834513 
981.000000	 95.890953 
980.000000	 95.947264 
979.000000	 96.002319 
978.000000	 96.056340 
977.000000	 96.109691 
976.000000	 96.164905 
975.000000	 96.226003 
974.000000	 96.293391 
973.000000	 96.362259 
972.000000	 96.428148 
971.000000	 96.491466 
970.000000	 96.554591 
969.000000	 96.617477 
968.000000	 96.678791 
967.000000	 96.738942 
966.000000	 96.798685 
965.000000	 96.856143 
964.000000	 96.908464 
963.000000	 96.956086 
962.000000	 97.002737 
961.000000	 97.051067 
960.000000	 97.100299 
959.000000	 97.148321 
958.000000	 97.194081 
957.000000	 97.237398 
956.000000	 97.278146 
955.000000	 97.316783 
954.000000	 97.354663 
953.000000	 97.392503 
952.000000	 97.428682 
951.000000	 97.460155 
950.000000	 97.485513 
949.000000	 97.506749 
948.000000	 97.527809 
947.000000	 97.551635 
946.000000	 97.578590 
945.000000	 97.606997 
944.000000	 97.634246 
943.000000	 97.657554 
942.000000	 97.675102 
941.000000	 97.687430 
940.000000	 97.697353 
939.000000	 97.707872 
938.000000	 97.720231 
937.000000	 97.733959 
936.000000	 97.747914 
935.000000	 97.760739 
934.000000	 97.771345 
933.000000	 97.780155 
932.000000	 97.789489 
931.000000	 97.801694 
930.000000	 97.817041 
929.000000	 97.834240 
928.000000	 97.852397 
927.000000	 97.871292 
926.000000	 97.890083 
925.000000	 97.907102 
924.000000	 97.921012 
923.000000	 97.931182 
922.000000	 97.937030 
921.000000	 97.938153 
920.000000	 97.935474 
919.000000	 97.931529 
918.000000	 97.929180 
917.000000	 97.930155 
916.000000	 97.934478 
915.000000	 97.940820 
914.000000	 97.947917 
913.000000	 97.956501 
912.000000	 97.969456 
911.000000	 97.988853 
910.000000	 98.012937 
909.000000	 98.037326 
908.000000	 98.059389 
907.000000	 98.080320 
906.000000	 98.103064 
905.000000	 98.129736 
904.000000	 98.161396 
903.000000	 98.198737 
902.000000	 98.241584 
901.000000	 98.287962 
900.000000	 98.334487 
899.000000	 98.378018 
898.000000	 98.417040 
897.000000	 98.451539 
896.000000	 98.481894 
895.000000	 98.508739 
894.000000	 98.534240 
893.000000	 98.562230 
892.000000	 98.595492 
891.000000	 98.632858 
890.000000	 98.670334 
889.000000	 98.705362 
888.000000	 98.738503 
887.000000	 98.770366 
886.000000	 98.798704 
885.000000	 98.820457 
884.000000	 98.836238 
883.000000	 98.851044 
882.000000	 98.869606 
881.000000	 98.891670 
880.000000	 98.913265 
879.000000	 98.932812 
878.000000	 98.954267 
877.000000	 98.982162 
876.000000	 99.013825 
875.000000	 99.039583 
874.000000	 99.052597 
873.000000	 99.056718 
872.000000	 99.062887 
871.000000	 99.078584 
870.000000	 99.102460 
869.000000	 99.128006 
868.000000	 99.149765 
867.000000	 99.166523 
866.000000	 99.181358 
865.000000	 99.199036 
864.000000	 99.221729 
863.000000	 99.247161 
862.000000	 99.271953 
861.000000	 99.295589 
860.000000	 99.318979 
859.000000	 99.340887 
858.000000	 99.359809 
857.000000	 99.378745 
856.000000	 99.402927 
855.000000	 99.431259 
854.000000	 99.454751 
853.000000	 99.466453 
852.000000	 99.469512 
851.000000	 99.472613 
850.000000	 99.480151 
849.000000	 99.490299 
848.000000	 99.500370 
847.000000	 99.509555 
846.000000	 99.517214 
845.000000	 99.522761 
844.000000	 99.527776 
843.000000	 99.534952 
842.000000	 99.543615 
841.000000	 99.548732 
840.000000	 99.546276 
839.000000	 99.538527 
838.000000	 99.532154 
837.000000	 99.530487 
836.000000	 99.529219 
835.000000	 99.521822 
834.000000	 99.509163 
833.000000	 99.500304 
832.000000	 99.500624 
831.000000	 99.501946 
830.000000	 99.491178 
829.000000	 99.469845 
828.000000	 99.457411 
827.000000	 99.469312 
826.000000	 99.496746 
825.000000	 99.516998 
824.000000	 99.521030 
823.000000	 99.520368 
822.000000	 99.527427 
821.000000	 99.540238 
820.000000	 99.549319 
819.000000	 99.549858 
818.000000	 99.543095 
817.000000	 99.532147 
816.000000	 99.520314 
815.000000	 99.509457 
814.000000	 99.496436 
813.000000	 99.474096 
812.000000	 99.438950 
811.000000	 99.395392 
810.000000	 99.349144 
809.000000	 99.298655 
808.000000	 99.236832 
807.000000	 99.159625 
806.000000	 99.069084 
805.000000	 98.969162 
804.000000	 98.863589 
803.000000	 98.758971 
802.000000	 98.665576 
801.000000	 98.592357 
800.000000	 98.542327 
799.000000	 98.513119 
798.000000	 98.500722 
797.000000	 98.502574 
796.000000	 98.517757 
795.000000	 98.544593 
794.000000	 98.579097 
793.000000	 98.616744 
792.000000	 98.654150 
791.000000	 98.686870 
790.000000	 98.707524 
789.000000	 98.710542 
788.000000	 98.699148 
787.000000	 98.683502 
786.000000	 98.669979 
785.000000	 98.655140 
784.000000	 98.632406 
783.000000	 98.601830 
782.000000	 98.570404 
781.000000	 98.544929 
780.000000	 98.527885 
779.000000	 98.519018 
778.000000	 98.518012 
777.000000	 98.526367 
776.000000	 98.547872 
775.000000	 98.585002 
774.000000	 98.633014 
773.000000	 98.680393 
772.000000	 98.718168 
771.000000	 98.746704 
770.000000	 98.770482 
769.000000	 98.789295 
768.000000	 98.800013 
767.000000	 98.805857 
766.000000	 98.816933 
765.000000	 98.838679 
764.000000	 98.864271 
763.000000	 98.882012 
762.000000	 98.887980 
761.000000	 98.888527 
760.000000	 98.892293 
759.000000	 98.903039 
758.000000	 98.919075 
757.000000	 98.936392 
756.000000	 98.952126 
755.000000	 98.967001 
754.000000	 98.984525 
753.000000	 99.006471 
752.000000	 99.029940 
751.000000	 99.050278 
750.000000	 99.065965 
749.000000	 99.078464 
748.000000	 99.088393 
747.000000	 99.095629 
746.000000	 99.103327 
745.000000	 99.117284 
744.000000	 99.138865 
743.000000	 99.161899 
742.000000	 99.179948 
741.000000	 99.194376 
740.000000	 99.211473 
739.000000	 99.233652 
738.000000	 99.257640 
737.000000	 99.280257 
736.000000	 99.301362 
735.000000	 99.321123 
734.000000	 99.339112 
733.000000	 99.357061 
732.000000	 99.378029 
731.000000	 99.400541 
730.000000	 99.417690 
729.000000	 99.425218 
728.000000	 99.427078 
727.000000	 99.429950 
726.000000	 99.435301 
725.000000	 99.440722 
724.000000	 99.446677 
723.000000	 99.457015 
722.000000	 99.473235 
721.000000	 99.491920 
720.000000	 99.507920 
719.000000	 99.517674 
718.000000	 99.520039 
717.000000	 99.516738 
716.000000	 99.512262 
715.000000	 99.510424 
714.000000	 99.510605 
713.000000	 99.510154 
712.000000	 99.510326 
711.000000	 99.516107 
710.000000	 99.528755 
709.000000	 99.541513 
708.000000	 99.545141 
707.000000	 99.536175 
706.000000	 99.519177 
705.000000	 99.502826 
704.000000	 99.493346 
703.000000	 99.489731 
702.000000	 99.484123 
701.000000	 99.467923 
700.000000	 99.438083 
699.000000	 99.397331 
698.000000	 99.350007 
697.000000	 99.299853 
696.000000	 99.251788 
695.000000	 99.213062 
694.000000	 99.190888 
693.000000	 99.189922 
692.000000	 99.210802 
691.000000	 99.247830 
690.000000	 99.289682 
689.000000	 99.326261 
688.000000	 99.355429 
687.000000	 99.380462 
686.000000	 99.401512 
685.000000	 99.414930 
684.000000	 99.420584 
683.000000	 99.423663 
682.000000	 99.428520 
681.000000	 99.435512 
680.000000	 99.444589 
679.000000	 99.456267 
678.000000	 99.466740 
677.000000	 99.469092 
676.000000	 99.463720 
675.000000	 99.460066 
674.000000	 99.466430 
673.000000	 99.480941 
672.000000	 99.493450 
671.000000	 99.494442 
670.000000	 99.479770 
669.000000	 99.450964 
668.000000	 99.417821 
667.000000	 99.401857 
666.000000	 99.419401 
665.000000	 99.461068 
664.000000	 99.504615 
663.000000	 99.532288 
662.000000	 99.539702 
661.000000	 99.538655 
660.000000	 99.544526 
659.000000	 99.559150 
658.000000	 99.570499 
657.000000	 99.568580 
656.000000	 99.556375 
655.000000	 99.544248 
654.000000	 99.538607 
653.000000	 99.535738 
652.000000	 99.526991 
651.000000	 99.511728 
650.000000	 99.503877 

