4000.000000	99.086966 
3999.000000	99.086651 
3998.000000	99.086411 
3997.000000	99.086496 
3996.000000	99.086876 
3995.000000	99.087264 
3994.000000	99.087461 
3993.000000	99.087539 
3992.000000	99.087671 
3991.000000	99.087846 
3990.000000	99.087851 
3989.000000	99.087514 
3988.000000	99.086888 
3987.000000	99.086212 
3986.000000	99.085731 
3985.000000	99.085587 
3984.000000	99.085775 
3983.000000	99.086182 
3982.000000	99.086706 
3981.000000	99.087297 
3980.000000	99.087875 
3979.000000	99.088300 
3978.000000	99.088485 
3977.000000	99.088495 
3976.000000	99.088431 
3975.000000	99.088216 
3974.000000	99.087635 
3973.000000	99.086621 
3972.000000	99.085452 
3971.000000	99.084615 
3970.000000	99.084449 
3969.000000	99.084942 
3968.000000	99.085763 
3967.000000	99.086426 
3966.000000	99.086591 
3965.000000	99.086235 
3964.000000	99.085597 
3963.000000	99.085008 
3962.000000	99.084667 
3961.000000	99.084549 
3960.000000	99.084457 
3959.000000	99.084192 
3958.000000	99.083719 
3957.000000	99.083213 
3956.000000	99.082883 
3955.000000	99.082763 
3954.000000	99.082686 
3953.000000	99.082465 
3952.000000	99.082061 
3951.000000	99.081562 
3950.000000	99.081063 
3949.000000	99.080557 
3948.000000	99.079971 
3947.000000	99.079308 
3946.000000	99.078733 
3945.000000	99.078415 
3944.000000	99.078345 
3943.000000	99.078313 
3942.000000	99.078110 
3941.000000	99.077740 
3940.000000	99.077348 
3939.000000	99.076969 
3938.000000	99.076474 
3937.000000	99.075759 
3936.000000	99.074885 
3935.000000	99.074046 
3934.000000	99.073393 
3933.000000	99.072976 
3932.000000	99.072752 
3931.000000	99.072642 
3930.000000	99.072545 
3929.000000	99.072349 
3928.000000	99.071996 
3927.000000	99.071516 
3926.000000	99.070965 
3925.000000	99.070394 
3924.000000	99.069863 
3923.000000	99.069410 
3922.000000	99.068979 
3921.000000	99.068473 
3920.000000	99.067903 
3919.000000	99.067402 
3918.000000	99.067042 
3917.000000	99.066758 
3916.000000	99.066466 
3915.000000	99.066164 
3914.000000	99.065879 
3913.000000	99.065592 
3912.000000	99.065254 
3911.000000	99.064851 
3910.000000	99.064397 
3909.000000	99.063938 
3908.000000	99.063507 
3907.000000	99.063115 
3906.000000	99.062755 
3905.000000	99.062410 
3904.000000	99.062074 
3903.000000	99.061754 
3902.000000	99.061462 
3901.000000	99.061194 
3900.000000	99.060939 
3899.000000	99.060682 
3898.000000	99.060418 
3897.000000	99.060142 
3896.000000	99.059859 
3895.000000	99.059566 
3894.000000	99.059267 
3893.000000	99.059001 
3892.000000	99.058796 
3891.000000	99.058587 
3890.000000	99.058287 
3889.000000	99.057947 
3888.000000	99.057696 
3887.000000	99.057557 
3886.000000	99.057392 
3885.000000	99.057047 
3884.000000	99.056644 
3883.000000	99.056523 
3882.000000	99.056769 
3881.000000	99.057058 
3880.000000	99.056958 
3879.000000	99.056342 
3878.000000	99.055609 
3877.000000	99.055243 
3876.000000	99.055253 
3875.000000	99.055261 
3874.000000	99.054888 
3873.000000	99.054246 
3872.000000	99.053843 
3871.000000	99.053764 
3870.000000	99.053398 
3869.000000	99.052430 
3868.000000	99.051783 
3867.000000	99.052425 
3866.000000	99.053844 
3865.000000	99.054919 
3864.000000	99.055403 
3863.000000	99.055735 
3862.000000	99.056124 
3861.000000	99.056180 
3860.000000	99.055485 
3859.000000	99.054005 
3858.000000	99.051832 
3857.000000	99.049385 
3856.000000	99.047627 
3855.000000	99.047693 
3854.000000	99.049043 
3853.000000	99.049289 
3852.000000	99.048939 
3851.000000	99.050973 
3850.000000	99.055059 
3849.000000	99.058482 
3848.000000	99.060084 
3847.000000	99.060418 
3846.000000	99.060292 
3845.000000	99.060123 
3844.000000	99.059955 
3843.000000	99.059694 
3842.000000	99.059368 
3841.000000	99.059243 
3840.000000	99.059525 
3839.000000	99.060104 
3838.000000	99.060545 
3837.000000	99.060576 
3836.000000	99.060394 
3835.000000	99.060399 
3834.000000	99.060717 
3833.000000	99.061211 
3832.000000	99.061681 
3831.000000	99.062042 
3830.000000	99.062381 
3829.000000	99.062794 
3828.000000	99.063200 
3827.000000	99.063426 
3826.000000	99.063445 
3825.000000	99.063432 
3824.000000	99.063570 
3823.000000	99.063867 
3822.000000	99.064202 
3821.000000	99.064464 
3820.000000	99.064676 
3819.000000	99.064917 
3818.000000	99.065206 
3817.000000	99.065509 
3816.000000	99.065800 
3815.000000	99.066075 
3814.000000	99.066333 
3813.000000	99.066571 
3812.000000	99.066781 
3811.000000	99.066960 
3810.000000	99.067117 
3809.000000	99.067256 
3808.000000	99.067392 
3807.000000	99.067540 
3806.000000	99.067680 
3805.000000	99.067818 
3804.000000	99.068007 
3803.000000	99.068286 
3802.000000	99.068613 
3801.000000	99.068834 
3800.000000	99.068866 
3799.000000	99.068987 
3798.000000	99.069426 
3797.000000	99.069990 
3796.000000	99.070381 
3795.000000	99.070621 
3794.000000	99.071056 
3793.000000	99.071904 
3792.000000	99.072958 
3791.000000	99.073820 
3790.000000	99.074243 
3789.000000	99.074217 
3788.000000	99.074087 
3787.000000	99.074439 
3786.000000	99.075593 
3785.000000	99.077065 
3784.000000	99.077989 
3783.000000	99.078139 
3782.000000	99.078071 
3781.000000	99.078192 
3780.000000	99.078122 
3779.000000	99.077198 
3778.000000	99.075462 
3777.000000	99.073823 
3776.000000	99.072739 
3775.000000	99.071745 
3774.000000	99.070515 
3773.000000	99.069593 
3772.000000	99.069592 
3771.000000	99.070070 
3770.000000	99.069789 
3769.000000	99.068494 
3768.000000	99.067630 
3767.000000	99.068405 
3766.000000	99.069980 
3765.000000	99.070571 
3764.000000	99.069724 
3763.000000	99.068745 
3762.000000	99.068767 
3761.000000	99.069476 
3760.000000	99.070118 
3759.000000	99.070329 
3758.000000	99.069782 
3757.000000	99.068081 
3756.000000	99.065128 
3755.000000	99.061525 
3754.000000	99.057960 
3753.000000	99.055274 
3752.000000	99.054283 
3751.000000	99.053639 
3750.000000	99.049799 
3749.000000	99.041899 
3748.000000	99.034190 
3747.000000	99.031511 
3746.000000	99.034995 
3745.000000	99.040866 
3744.000000	99.041285 
3743.000000	99.036005 
3742.000000	99.035155 
3741.000000	99.040180 
3740.000000	99.043147 
3739.000000	99.041741 
3738.000000	99.039761 
3737.000000	99.040185 
3736.000000	99.041930 
3735.000000	99.043172 
3734.000000	99.044337 
3733.000000	99.045961 
3732.000000	99.046842 
3731.000000	99.046677 
3730.000000	99.047426 
3729.000000	99.049764 
3728.000000	99.051621 
3727.000000	99.051443 
3726.000000	99.050362 
3725.000000	99.050912 
3724.000000	99.053754 
3723.000000	99.056063 
3722.000000	99.055029 
3721.000000	99.051226 
3720.000000	99.047604 
3719.000000	99.045598 
3718.000000	99.043280 
3717.000000	99.037701 
3716.000000	99.027975 
3715.000000	99.015701 
3714.000000	99.002992 
3713.000000	98.991946 
3712.000000	98.984308 
3711.000000	98.980682 
3710.000000	98.980631 
3709.000000	98.982445 
3708.000000	98.983068 
3707.000000	98.980053 
3706.000000	98.973207 
3705.000000	98.964437 
3704.000000	98.956159 
3703.000000	98.949670 
3702.000000	98.944392 
3701.000000	98.938860 
3700.000000	98.933112 
3699.000000	98.928317 
3698.000000	98.924160 
3697.000000	98.918828 
3696.000000	98.911777 
3695.000000	98.904699 
3694.000000	98.899176 
3693.000000	98.894927 
3692.000000	98.891374 
3691.000000	98.889084 
3690.000000	98.887965 
3689.000000	98.885605 
3688.000000	98.880181 
3687.000000	98.874411 
3686.000000	98.872145 
3685.000000	98.872487 
3684.000000	98.871393 
3683.000000	98.866951 
3682.000000	98.860094 
3681.000000	98.851860 
3680.000000	98.841862 
3679.000000	98.830089 
3678.000000	98.818617 
3677.000000	98.809945 
3676.000000	98.803752 
3675.000000	98.796645 
3674.000000	98.788519 
3673.000000	98.783058 
3672.000000	98.780542 
3671.000000	98.778495 
3670.000000	98.775029 
3669.000000	98.769079 
3668.000000	98.762292 
3667.000000	98.756925 
3666.000000	98.752256 
3665.000000	98.746808 
3664.000000	98.740426 
3663.000000	98.733574 
3662.000000	98.726151 
3661.000000	98.717724 
3660.000000	98.708738 
3659.000000	98.701002 
3658.000000	98.695777 
3657.000000	98.691221 
3656.000000	98.683399 
3655.000000	98.672085 
3654.000000	98.662308 
3653.000000	98.656533 
3652.000000	98.652179 
3651.000000	98.646512 
3650.000000	98.638398 
3649.000000	98.627669 
3648.000000	98.616864 
3647.000000	98.609342 
3646.000000	98.606358 
3645.000000	98.607346 
3644.000000	98.610334 
3643.000000	98.612602 
3642.000000	98.611908 
3641.000000	98.607913 
3640.000000	98.602190 
3639.000000	98.596797 
3638.000000	98.592616 
3637.000000	98.589564 
3636.000000	98.586427 
3635.000000	98.580086 
3634.000000	98.567396 
3633.000000	98.549020 
3632.000000	98.530197 
3631.000000	98.516203 
3630.000000	98.508224 
3629.000000	98.500625 
3628.000000	98.488151 
3627.000000	98.478864 
3626.000000	98.481801 
3625.000000	98.492050 
3624.000000	98.500325 
3623.000000	98.503186 
3622.000000	98.502285 
3621.000000	98.500832 
3620.000000	98.501369 
3619.000000	98.504828 
3618.000000	98.511540 
3617.000000	98.522744 
3616.000000	98.538508 
3615.000000	98.555538 
3614.000000	98.568655 
3613.000000	98.574165 
3612.000000	98.572812 
3611.000000	98.569208 
3610.000000	98.567989 
3609.000000	98.571063 
3608.000000	98.577813 
3607.000000	98.586968 
3606.000000	98.597774 
3605.000000	98.609271 
3604.000000	98.620062 
3603.000000	98.629431 
3602.000000	98.637592 
3601.000000	98.645049 
3600.000000	98.652293 
3599.000000	98.659482 
3598.000000	98.665770 
3597.000000	98.669720 
3596.000000	98.670887 
3595.000000	98.669982 
3594.000000	98.668168 
3593.000000	98.666947 
3592.000000	98.668190 
3591.000000	98.672762 
3590.000000	98.679683 
3589.000000	98.686058 
3588.000000	98.688131 
3587.000000	98.684477 
3586.000000	98.678640 
3585.000000	98.675727 
3584.000000	98.676865 
3583.000000	98.679426 
3582.000000	98.680771 
3581.000000	98.680069 
3580.000000	98.677859 
3579.000000	98.674950 
3578.000000	98.671793 
3577.000000	98.668673 
3576.000000	98.666319 
3575.000000	98.665542 
3574.000000	98.666312 
3573.000000	98.667460 
3572.000000	98.667487 
3571.000000	98.665530 
3570.000000	98.661592 
3569.000000	98.656417 
3568.000000	98.651201 
3567.000000	98.647433 
3566.000000	98.646550 
3565.000000	98.649059 
3564.000000	98.653347 
3563.000000	98.656610 
3562.000000	98.657275 
3561.000000	98.655852 
3560.000000	98.653712 
3559.000000	98.651610 
3558.000000	98.649422 
3557.000000	98.646950 
3556.000000	98.644653 
3555.000000	98.643428 
3554.000000	98.643533 
3553.000000	98.644024 
3552.000000	98.643495 
3551.000000	98.641444 
3550.000000	98.638524 
3549.000000	98.635696 
3548.000000	98.633573 
3547.000000	98.632353 
3546.000000	98.631878 
3545.000000	98.631773 
3544.000000	98.631684 
3543.000000	98.631371 
3542.000000	98.630707 
3541.000000	98.629736 
3540.000000	98.628723 
3539.000000	98.627973 
3538.000000	98.627558 
3537.000000	98.627241 
3536.000000	98.626673 
3535.000000	98.625697 
3534.000000	98.624401 
3533.000000	98.623023 
3532.000000	98.621845 
3531.000000	98.621061 
3530.000000	98.620656 
3529.000000	98.620402 
3528.000000	98.620028 
3527.000000	98.619429 
3526.000000	98.618670 
3525.000000	98.617837 
3524.000000	98.616966 
3523.000000	98.616071 
3522.000000	98.615176 
3521.000000	98.614286 
3520.000000	98.613374 
3519.000000	98.612422 
3518.000000	98.611453 
3517.000000	98.610501 
3516.000000	98.609583 
3515.000000	98.608692 
3514.000000	98.607812 
3513.000000	98.606924 
3512.000000	98.606006 
3511.000000	98.605051 
3510.000000	98.604069 
3509.000000	98.603077 
3508.000000	98.602080 
3507.000000	98.601076 
3506.000000	98.600056 
3505.000000	98.599018 
3504.000000	98.597959 
3503.000000	98.596884 
3502.000000	98.595800 
3501.000000	98.594712 
3500.000000	98.593619 
3499.000000	98.592512 
3498.000000	98.591382 
3497.000000	98.590227 
3496.000000	98.589055 
3495.000000	98.587876 
3494.000000	98.586696 
3493.000000	98.585514 
3492.000000	98.584321 
3491.000000	98.583110 
3490.000000	98.581880 
3489.000000	98.580631 
3488.000000	98.579364 
3487.000000	98.578077 
3486.000000	98.576767 
3485.000000	98.575436 
3484.000000	98.574085 
3483.000000	98.572715 
3482.000000	98.571327 
3481.000000	98.569917 
3480.000000	98.568486 
3479.000000	98.567033 
3478.000000	98.565559 
3477.000000	98.564068 
3476.000000	98.562558 
3475.000000	98.561026 
3474.000000	98.559472 
3473.000000	98.557905 
3472.000000	98.556334 
3471.000000	98.554758 
3470.000000	98.553171 
3469.000000	98.551566 
3468.000000	98.549944 
3467.000000	98.548309 
3466.000000	98.546658 
3465.000000	98.544984 
3464.000000	98.543285 
3463.000000	98.541560 
3462.000000	98.539802 
3461.000000	98.538010 
3460.000000	98.536210 
3459.000000	98.534467 
3458.000000	98.532833 
3457.000000	98.531263 
3456.000000	98.529629 
3455.000000	98.527832 
3454.000000	98.525941 
3453.000000	98.524122 
3452.000000	98.522452 
3451.000000	98.520854 
3450.000000	98.519240 
3449.000000	98.517618 
3448.000000	98.515968 
3447.000000	98.514135 
3446.000000	98.511997 
3445.000000	98.509725 
3444.000000	98.507702 
3443.000000	98.506119 
3442.000000	98.504779 
3441.000000	98.503292 
3440.000000	98.501508 
3439.000000	98.499614 
3438.000000	98.497841 
3437.000000	98.496160 
3436.000000	98.494341 
3435.000000	98.492304 
3434.000000	98.490334 
3433.000000	98.488845 
3432.000000	98.487950 
3431.000000	98.487284 
3430.000000	98.486273 
3429.000000	98.484585 
3428.000000	98.482329 
3427.000000	98.479906 
3426.000000	98.477728 
3425.000000	98.476045 
3424.000000	98.474903 
3423.000000	98.474151 
3422.000000	98.473472 
3421.000000	98.472533 
3420.000000	98.471207 
3419.000000	98.469725 
3418.000000	98.468548 
3417.000000	98.467955 
3416.000000	98.467673 
3415.000000	98.467005 
3414.000000	98.465481 
3413.000000	98.463385 
3412.000000	98.461520 
3411.000000	98.460470 
3410.000000	98.460260 
3409.000000	98.460600 
3408.000000	98.461132 
3407.000000	98.461375 
3406.000000	98.460792 
3405.000000	98.459285 
3404.000000	98.457534 
3403.000000	98.456520 
3402.000000	98.456644 
3401.000000	98.457485 
3400.000000	98.458304 
3399.000000	98.458692 
3398.000000	98.458770 
3397.000000	98.458908 
3396.000000	98.459329 
3395.000000	98.459881 
3394.000000	98.460201 
3393.000000	98.460111 
3392.000000	98.459795 
3391.000000	98.459547 
3390.000000	98.459458 
3389.000000	98.459452 
3388.000000	98.459499 
3387.000000	98.459614 
3386.000000	98.459705 
3385.000000	98.459614 
3384.000000	98.459357 
3383.000000	98.459215 
3382.000000	98.459489 
3381.000000	98.460203 
3380.000000	98.461061 
3379.000000	98.461684 
3378.000000	98.461930 
3377.000000	98.462004 
3376.000000	98.462278 
3375.000000	98.462971 
3374.000000	98.464018 
3373.000000	98.465161 
3372.000000	98.466111 
3371.000000	98.466680 
3370.000000	98.466866 
3369.000000	98.466886 
3368.000000	98.467093 
3367.000000	98.467691 
3366.000000	98.468581 
3365.000000	98.469460 
3364.000000	98.470139 
3363.000000	98.470692 
3362.000000	98.471283 
3361.000000	98.471957 
3360.000000	98.472652 
3359.000000	98.473324 
3358.000000	98.473989 
3357.000000	98.474709 
3356.000000	98.475531 
3355.000000	98.476411 
3354.000000	98.477185 
3353.000000	98.477729 
3352.000000	98.478169 
3351.000000	98.478828 
3350.000000	98.479895 
3349.000000	98.481275 
3348.000000	98.482779 
3347.000000	98.484326 
3346.000000	98.485848 
3345.000000	98.487140 
3344.000000	98.488009 
3343.000000	98.488467 
3342.000000	98.488630 
3341.000000	98.488555 
3340.000000	98.488351 
3339.000000	98.488355 
3338.000000	98.488908 
3337.000000	98.489932 
3336.000000	98.490942 
3335.000000	98.491602 
3334.000000	98.492151 
3333.000000	98.493111 
3332.000000	98.494681 
3331.000000	98.496530 
3330.000000	98.498118 
3329.000000	98.499187 
3328.000000	98.499922 
3327.000000	98.500717 
3326.000000	98.501775 
3325.000000	98.502979 
3324.000000	98.504153 
3323.000000	98.505325 
3322.000000	98.506609 
3321.000000	98.507896 
3320.000000	98.508889 
3319.000000	98.509464 
3318.000000	98.509881 
3317.000000	98.510551 
3316.000000	98.511620 
3315.000000	98.512908 
3314.000000	98.514140 
3313.000000	98.515215 
3312.000000	98.516220 
3311.000000	98.517274 
3310.000000	98.518409 
3309.000000	98.519550 
3308.000000	98.520614 
3307.000000	98.521618 
3306.000000	98.522689 
3305.000000	98.523911 
3304.000000	98.525181 
3303.000000	98.526292 
3302.000000	98.527158 
3301.000000	98.527941 
3300.000000	98.528928 
3299.000000	98.530261 
3298.000000	98.531801 
3297.000000	98.533260 
3296.000000	98.534476 
3295.000000	98.535531 
3294.000000	98.536661 
3293.000000	98.538053 
3292.000000	98.539669 
3291.000000	98.541246 
3290.000000	98.542561 
3289.000000	98.543672 
3288.000000	98.544838 
3287.000000	98.546179 
3286.000000	98.547549 
3285.000000	98.548770 
3284.000000	98.549883 
3283.000000	98.551101 
3282.000000	98.552534 
3281.000000	98.553995 
3280.000000	98.555068 
3279.000000	98.555415 
3278.000000	98.555129 
3277.000000	98.554841 
3276.000000	98.555251 
3275.000000	98.556484 
3274.000000	98.558068 
3273.000000	98.559435 
3272.000000	98.560328 
3271.000000	98.560756 
3270.000000	98.560867 
3269.000000	98.561011 
3268.000000	98.561688 
3267.000000	98.563196 
3266.000000	98.565372 
3265.000000	98.567751 
3264.000000	98.570009 
3263.000000	98.572147 
3262.000000	98.574334 
3261.000000	98.576644 
3260.000000	98.578813 
3259.000000	98.580269 
3258.000000	98.580592 
3257.000000	98.580011 
3256.000000	98.579363 
3255.000000	98.579372 
3254.000000	98.580078 
3253.000000	98.581083 
3252.000000	98.582122 
3251.000000	98.583193 
3250.000000	98.584277 
3249.000000	98.585265 
3248.000000	98.586180 
3247.000000	98.587228 
3246.000000	98.588521 
3245.000000	98.589960 
3244.000000	98.591453 
3243.000000	98.593150 
3242.000000	98.595312 
3241.000000	98.597986 
3240.000000	98.600793 
3239.000000	98.603048 
3238.000000	98.604224 
3237.000000	98.604367 
3236.000000	98.604188 
3235.000000	98.604560 
3234.000000	98.605793 
3233.000000	98.607554 
3232.000000	98.609388 
3231.000000	98.611196 
3230.000000	98.613110 
3229.000000	98.615038 
3228.000000	98.616572 
3227.000000	98.617380 
3226.000000	98.617566 
3225.000000	98.617672 
3224.000000	98.618328 
3223.000000	98.619832 
3222.000000	98.621999 
3221.000000	98.624338 
3220.000000	98.626445 
3219.000000	98.628230 
3218.000000	98.629785 
3217.000000	98.631176 
3216.000000	98.632411 
3215.000000	98.633551 
3214.000000	98.634696 
3213.000000	98.635886 
3212.000000	98.637124 
3211.000000	98.638540 
3210.000000	98.640427 
3209.000000	98.642984 
3208.000000	98.646025 
3207.000000	98.649024 
3206.000000	98.651493 
3205.000000	98.653292 
3204.000000	98.654615 
3203.000000	98.655767 
3202.000000	98.657034 
3201.000000	98.658673 
3200.000000	98.660815 
3199.000000	98.663221 
3198.000000	98.665276 
3197.000000	98.666493 
3196.000000	98.666995 
3195.000000	98.667431 
3194.000000	98.668298 
3193.000000	98.669479 
3192.000000	98.670583 
3191.000000	98.671566 
3190.000000	98.672828 
3189.000000	98.674742 
3188.000000	98.677215 
3187.000000	98.679713 
3186.000000	98.681676 
3185.000000	98.682915 
3184.000000	98.683675 
3183.000000	98.684412 
3182.000000	98.685462 
3181.000000	98.686867 
3180.000000	98.688443 
3179.000000	98.689946 
3178.000000	98.691205 
3177.000000	98.692181 
3176.000000	98.692949 
3175.000000	98.693693 
3174.000000	98.694695 
3173.000000	98.696231 
3172.000000	98.698342 
3171.000000	98.700689 
3170.000000	98.702739 
3169.000000	98.704240 
3168.000000	98.705439 
3167.000000	98.706810 
3166.000000	98.708586 
3165.000000	98.710605 
3164.000000	98.712547 
3163.000000	98.714223 
3162.000000	98.715636 
3161.000000	98.716903 
3160.000000	98.718198 
3159.000000	98.719675 
3158.000000	98.721320 
3157.000000	98.722927 
3156.000000	98.724300 
3155.000000	98.725454 
3154.000000	98.726606 
3153.000000	98.727968 
3152.000000	98.729590 
3151.000000	98.731350 
3150.000000	98.733040 
3149.000000	98.734521 
3148.000000	98.735842 
3147.000000	98.737211 
3146.000000	98.738779 
3145.000000	98.740432 
3144.000000	98.741906 
3143.000000	98.743124 
3142.000000	98.744321 
3141.000000	98.745765 
3140.000000	98.747417 
3139.000000	98.748979 
3138.000000	98.750263 
3137.000000	98.751390 
3136.000000	98.752613 
3135.000000	98.753996 
3134.000000	98.755360 
3133.000000	98.756524 
3132.000000	98.757517 
3131.000000	98.758526 
3130.000000	98.759665 
3129.000000	98.760842 
3128.000000	98.761897 
3127.000000	98.762815 
3126.000000	98.763752 
3125.000000	98.764818 
3124.000000	98.765932 
3123.000000	98.766926 
3122.000000	98.767733 
3121.000000	98.768463 
3120.000000	98.769368 
3119.000000	98.770700 
3118.000000	98.772480 
3117.000000	98.774355 
3116.000000	98.775796 
3115.000000	98.776572 
3114.000000	98.776929 
3113.000000	98.777298 
3112.000000	98.777883 
3111.000000	98.778660 
3110.000000	98.779668 
3109.000000	98.780977 
3108.000000	98.782405 
3107.000000	98.783566 
3106.000000	98.784293 
3105.000000	98.784875 
3104.000000	98.785774 
3103.000000	98.787217 
3102.000000	98.789116 
3101.000000	98.791228 
3100.000000	98.793263 
3099.000000	98.794911 
3098.000000	98.795951 
3097.000000	98.796448 
3096.000000	98.796787 
3095.000000	98.797403 
3094.000000	98.798425 
3093.000000	98.799640 
3092.000000	98.800765 
3091.000000	98.801676 
3090.000000	98.802393 
3089.000000	98.802995 
3088.000000	98.803669 
3087.000000	98.804713 
3086.000000	98.806239 
3085.000000	98.807853 
3084.000000	98.808926 
3083.000000	98.809272 
3082.000000	98.809365 
3081.000000	98.809779 
3080.000000	98.810580 
3079.000000	98.811491 
3078.000000	98.812399 
3077.000000	98.813351 
3076.000000	98.814204 
3075.000000	98.814750 
3074.000000	98.815171 
3073.000000	98.815900 
3072.000000	98.817027 
3071.000000	98.818301 
3070.000000	98.819629 
3069.000000	98.820880 
3068.000000	98.821110 
3067.000000	98.818975 
3066.000000	98.814563 
3065.000000	98.810259 
3064.000000	98.808885 
3063.000000	98.811101 
3062.000000	98.815068 
3061.000000	98.818458 
3060.000000	98.820452 
3059.000000	98.821781 
3058.000000	98.823280 
3057.000000	98.824765 
3056.000000	98.825326 
3055.000000	98.824623 
3054.000000	98.823616 
3053.000000	98.823660 
3052.000000	98.824985 
3051.000000	98.826553 
3050.000000	98.827413 
3049.000000	98.827533 
3048.000000	98.827014 
3047.000000	98.825285 
3046.000000	98.821943 
3045.000000	98.818089 
3044.000000	98.815845 
3043.000000	98.816299 
3042.000000	98.818403 
3041.000000	98.820050 
3040.000000	98.819854 
3039.000000	98.817881 
3038.000000	98.815232 
3037.000000	98.813222 
3036.000000	98.812497 
3035.000000	98.812499 
3034.000000	98.811890 
3033.000000	98.809749 
3032.000000	98.806320 
3031.000000	98.802618 
3030.000000	98.799220 
3029.000000	98.795454 
3028.000000	98.790016 
3027.000000	98.782550 
3026.000000	98.774523 
3025.000000	98.768121 
3024.000000	98.763979 
3023.000000	98.760306 
3022.000000	98.754672 
3021.000000	98.746473 
3020.000000	98.737440 
3019.000000	98.729923 
3018.000000	98.725036 
3017.000000	98.722223 
3016.000000	98.719909 
3015.000000	98.716452 
3014.000000	98.710987 
3013.000000	98.703675 
3012.000000	98.694969 
3011.000000	98.684720 
3010.000000	98.672588 
3009.000000	98.659437 
3008.000000	98.647596 
3007.000000	98.639196 
3006.000000	98.634454 
3005.000000	98.631756 
3004.000000	98.628870 
3003.000000	98.623791 
3002.000000	98.615239 
3001.000000	98.603549 
3000.000000	98.591043 
2999.000000	98.580492 
2998.000000	98.572896 
2997.000000	98.567418 
2996.000000	98.563364 
2995.000000	98.560872 
2994.000000	98.558835 
2993.000000	98.553455 
2992.000000	98.540982 
2991.000000	98.522371 
2990.000000	98.503971 
2989.000000	98.492430 
2988.000000	98.489350 
2987.000000	98.491271 
2986.000000	98.494008 
2985.000000	98.496274 
2984.000000	98.499094 
2983.000000	98.502960 
2982.000000	98.506690 
2981.000000	98.508820 
2980.000000	98.509293 
2979.000000	98.509321 
2978.000000	98.509876 
2977.000000	98.510708 
2976.000000	98.510793 
2975.000000	98.509452 
2974.000000	98.506914 
2973.000000	98.504032 
2972.000000	98.501742 
2971.000000	98.500837 
2970.000000	98.501930 
2969.000000	98.505341 
2968.000000	98.510941 
2967.000000	98.518166 
2966.000000	98.526256 
2965.000000	98.534578 
2964.000000	98.542900 
2963.000000	98.551400 
2962.000000	98.560182 
2961.000000	98.568615 
2960.000000	98.575401 
2959.000000	98.579743 
2958.000000	98.582540 
2957.000000	98.585917 
2956.000000	98.591109 
2955.000000	98.596923 
2954.000000	98.600800 
2953.000000	98.601772 
2952.000000	98.602085 
2951.000000	98.605430 
2950.000000	98.613268 
2949.000000	98.623118 
2948.000000	98.630787 
2947.000000	98.634077 
2946.000000	98.634048 
2945.000000	98.633133 
2944.000000	98.632692 
2943.000000	98.632674 
2942.000000	98.632985 
2941.000000	98.634102 
2940.000000	98.636205 
2939.000000	98.638378 
2938.000000	98.639158 
2937.000000	98.637882 
2936.000000	98.635508 
2935.000000	98.634224 
2934.000000	98.635851 
2933.000000	98.640077 
2932.000000	98.644200 
2931.000000	98.645129 
2930.000000	98.641905 
2929.000000	98.636218 
2928.000000	98.630744 
2927.000000	98.627290 
2926.000000	98.626351 
2925.000000	98.627355 
2924.000000	98.628786 
2923.000000	98.628893 
2922.000000	98.627215 
2921.000000	98.625162 
2920.000000	98.624364 
2919.000000	98.624684 
2918.000000	98.624548 
2917.000000	98.623035 
2916.000000	98.620856 
2915.000000	98.619329 
2914.000000	98.619253 
2913.000000	98.620906 
2912.000000	98.624147 
2911.000000	98.627912 
2910.000000	98.630223 
2909.000000	98.629588 
2908.000000	98.626412 
2907.000000	98.622636 
2906.000000	98.619957 
2905.000000	98.618558 
2904.000000	98.617355 
2903.000000	98.615285 
2902.000000	98.612655 
2901.000000	98.611469 
2900.000000	98.614033 
2899.000000	98.620809 
2898.000000	98.629536 
2897.000000	98.636799 
2896.000000	98.640898 
2895.000000	98.642964 
2894.000000	98.645350 
2893.000000	98.649294 
2892.000000	98.654210 
2891.000000	98.658763 
2890.000000	98.662147 
2889.000000	98.664418 
2888.000000	98.666081 
2887.000000	98.667734 
2886.000000	98.669992 
2885.000000	98.673322 
2884.000000	98.677688 
2883.000000	98.682491 
2882.000000	98.687086 
2881.000000	98.691431 
2880.000000	98.696174 
2879.000000	98.702152 
2878.000000	98.709760 
2877.000000	98.718467 
2876.000000	98.726649 
2875.000000	98.732281 
2874.000000	98.734414 
2873.000000	98.734278 
2872.000000	98.734619 
2871.000000	98.737545 
2870.000000	98.743076 
2869.000000	98.749749 
2868.000000	98.756347 
2867.000000	98.762929 
2866.000000	98.770407 
2865.000000	98.779369 
2864.000000	98.789161 
2863.000000	98.797935 
2862.000000	98.803875 
2861.000000	98.806721 
2860.000000	98.808223 
2859.000000	98.810890 
2858.000000	98.816011 
2857.000000	98.822863 
2856.000000	98.829625 
2855.000000	98.834961 
2854.000000	98.838896 
2853.000000	98.842483 
2852.000000	98.846763 
2851.000000	98.851974 
2850.000000	98.857711 
2849.000000	98.863587 
2848.000000	98.869426 
2847.000000	98.874921 
2846.000000	98.879611 
2845.000000	98.883449 
2844.000000	98.887016 
2843.000000	98.890827 
2842.000000	98.894664 
2841.000000	98.897933 
2840.000000	98.900465 
2839.000000	98.902529 
2838.000000	98.904232 
2837.000000	98.905367 
2836.000000	98.905909 
2835.000000	98.906375 
2834.000000	98.907674 
2833.000000	98.910677 
2832.000000	98.915661 
2831.000000	98.921768 
2830.000000	98.927275 
2829.000000	98.930946 
2828.000000	98.933076 
2827.000000	98.934803 
2826.000000	98.936405 
2825.000000	98.937017 
2824.000000	98.936250 
2823.000000	98.935368 
2822.000000	98.936237 
2821.000000	98.939307 
2820.000000	98.943142 
2819.000000	98.945896 
2818.000000	98.946943 
2817.000000	98.947030 
2816.000000	98.947268 
2815.000000	98.948175 
2814.000000	98.949487 
2813.000000	98.950594 
2812.000000	98.951056 
2811.000000	98.950853 
2810.000000	98.950335 
2809.000000	98.950071 
2808.000000	98.950587 
2807.000000	98.952087 
2806.000000	98.954319 
2805.000000	98.956727 
2804.000000	98.958794 
2803.000000	98.960317 
2802.000000	98.961465 
2801.000000	98.962517 
2800.000000	98.963425 
2799.000000	98.963760 
2798.000000	98.963288 
2797.000000	98.962540 
2796.000000	98.962455 
2795.000000	98.963337 
2794.000000	98.964494 
2793.000000	98.965080 
2792.000000	98.965071 
2791.000000	98.965137 
2790.000000	98.965786 
2789.000000	98.967021 
2788.000000	98.968660 
2787.000000	98.970518 
2786.000000	98.972272 
2785.000000	98.973607 
2784.000000	98.974606 
2783.000000	98.975652 
2782.000000	98.976815 
2781.000000	98.977620 
2780.000000	98.977664 
2779.000000	98.977215 
2778.000000	98.976985 
2777.000000	98.977394 
2776.000000	98.978314 
2775.000000	98.979356 
2774.000000	98.980139 
2773.000000	98.980397 
2772.000000	98.980111 
2771.000000	98.979586 
2770.000000	98.979300 
2769.000000	98.979655 
2768.000000	98.980916 
2767.000000	98.983132 
2766.000000	98.985858 
2765.000000	98.988179 
2764.000000	98.989426 
2763.000000	98.989796 
2762.000000	98.990062 
2761.000000	98.990697 
2760.000000	98.991578 
2759.000000	98.992476 
2758.000000	98.993381 
2757.000000	98.994267 
2756.000000	98.994996 
2755.000000	98.995609 
2754.000000	98.996317 
2753.000000	98.997036 
2752.000000	98.997288 
2751.000000	98.996789 
2750.000000	98.995900 
2749.000000	98.995249 
2748.000000	98.995031 
2747.000000	98.994945 
2746.000000	98.994701 
2745.000000	98.994358 
2744.000000	98.994237 
2743.000000	98.994675 
2742.000000	98.995832 
2741.000000	98.997564 
2740.000000	98.999440 
2739.000000	99.000984 
2738.000000	99.001978 
2737.000000	99.002508 
2736.000000	99.002820 
2735.000000	99.003145 
2734.000000	99.003589 
2733.000000	99.004084 
2732.000000	99.004464 
2731.000000	99.004633 
2730.000000	99.004687 
2729.000000	99.004838 
2728.000000	99.005249 
2727.000000	99.005935 
2726.000000	99.006771 
2725.000000	99.007553 
2724.000000	99.008132 
2723.000000	99.008546 
2722.000000	99.008980 
2721.000000	99.009573 
2720.000000	99.010268 
2719.000000	99.010875 
2718.000000	99.011256 
2717.000000	99.011431 
2716.000000	99.011543 
2715.000000	99.011771 
2714.000000	99.012208 
2713.000000	99.012829 
2712.000000	99.013486 
2711.000000	99.013995 
2710.000000	99.014300 
2709.000000	99.014516 
2708.000000	99.014821 
2707.000000	99.015272 
2706.000000	99.015763 
2705.000000	99.016160 
2704.000000	99.016432 
2703.000000	99.016637 
2702.000000	99.016831 
2701.000000	99.017019 
2700.000000	99.017182 
2699.000000	99.017310 
2698.000000	99.017405 
2697.000000	99.017471 
2696.000000	99.017523 
2695.000000	99.017618 
2694.000000	99.017834 
2693.000000	99.018197 
2692.000000	99.018601 
2691.000000	99.018833 
2690.000000	99.018772 
2689.000000	99.018558 
2688.000000	99.018521 
2687.000000	99.018866 
2686.000000	99.019468 
2685.000000	99.019987 
2684.000000	99.020207 
2683.000000	99.020192 
2682.000000	99.020168 
2681.000000	99.020341 
2680.000000	99.020809 
2679.000000	99.021467 
2678.000000	99.021961 
2677.000000	99.021894 
2676.000000	99.021195 
2675.000000	99.020211 
2674.000000	99.019467 
2673.000000	99.019278 
2672.000000	99.019545 
2671.000000	99.019845 
2670.000000	99.019736 
2669.000000	99.019060 
2668.000000	99.018045 
2667.000000	99.017175 
2666.000000	99.016854 
2665.000000	99.017153 
2664.000000	99.017804 
2663.000000	99.018384 
2662.000000	99.018625 
2661.000000	99.018563 
2660.000000	99.018372 
2659.000000	99.018127 
2658.000000	99.017758 
2657.000000	99.017234 
2656.000000	99.016665 
2655.000000	99.016178 
2654.000000	99.015779 
2653.000000	99.015429 
2652.000000	99.015173 
2651.000000	99.015095 
2650.000000	99.015176 
2649.000000	99.015274 
2648.000000	99.015274 
2647.000000	99.015194 
2646.000000	99.015164 
2645.000000	99.015334 
2644.000000	99.015748 
2643.000000	99.016277 
2642.000000	99.016687 
2641.000000	99.016855 
2640.000000	99.016878 
2639.000000	99.016966 
2638.000000	99.017224 
2637.000000	99.017585 
2636.000000	99.017895 
2635.000000	99.018056 
2634.000000	99.018092 
2633.000000	99.018105 
2632.000000	99.018210 
2631.000000	99.018438 
2630.000000	99.018735 
2629.000000	99.019027 
2628.000000	99.019280 
2627.000000	99.019514 
2626.000000	99.019766 
2625.000000	99.020054 
2624.000000	99.020369 
2623.000000	99.020688 
2622.000000	99.020984 
2621.000000	99.021237 
2620.000000	99.021451 
2619.000000	99.021649 
2618.000000	99.021859 
2617.000000	99.022097 
2616.000000	99.022361 
2615.000000	99.022643 
2614.000000	99.022935 
2613.000000	99.023238 
2612.000000	99.023554 
2611.000000	99.023884 
2610.000000	99.024218 
2609.000000	99.024549 
2608.000000	99.024870 
2607.000000	99.025175 
2606.000000	99.025458 
2605.000000	99.025716 
2604.000000	99.025952 
2603.000000	99.026169 
2602.000000	99.026367 
2601.000000	99.026548 
2600.000000	99.026719 
2599.000000	99.026889 
2598.000000	99.027063 
2597.000000	99.027241 
2596.000000	99.027416 
2595.000000	99.027583 
2594.000000	99.027744 
2593.000000	99.027903 
2592.000000	99.028067 
2591.000000	99.028241 
2590.000000	99.028427 
2589.000000	99.028618 
2588.000000	99.028801 
2587.000000	99.028963 
2586.000000	99.029097 
2585.000000	99.029203 
2584.000000	99.029293 
2583.000000	99.029382 
2582.000000	99.029489 
2581.000000	99.029622 
2580.000000	99.029782 
2579.000000	99.029961 
2578.000000	99.030149 
2577.000000	99.030341 
2576.000000	99.030538 
2575.000000	99.030742 
2574.000000	99.030951 
2573.000000	99.031163 
2572.000000	99.031374 
2571.000000	99.031581 
2570.000000	99.031784 
2569.000000	99.031988 
2568.000000	99.032199 
2567.000000	99.032421 
2566.000000	99.032655 
2565.000000	99.032901 
2564.000000	99.033162 
2563.000000	99.033446 
2562.000000	99.033756 
2561.000000	99.034094 
2560.000000	99.034455 
2559.000000	99.034830 
2558.000000	99.035213 
2557.000000	99.035596 
2556.000000	99.035974 
2555.000000	99.036350 
2554.000000	99.036730 
2553.000000	99.037121 
2552.000000	99.037520 
2551.000000	99.037916 
2550.000000	99.038301 
2549.000000	99.038672 
2548.000000	99.039031 
2547.000000	99.039384 
2546.000000	99.039736 
2545.000000	99.040089 
2544.000000	99.040449 
2543.000000	99.040816 
2542.000000	99.041187 
2541.000000	99.041563 
2540.000000	99.041940 
2539.000000	99.042298 
2538.000000	99.042616 
2537.000000	99.042881 
2536.000000	99.043096 
2535.000000	99.043288 
2534.000000	99.043514 
2533.000000	99.043836 
2532.000000	99.044280 
2531.000000	99.044792 
2530.000000	99.045247 
2529.000000	99.045556 
2528.000000	99.045746 
2527.000000	99.045936 
2526.000000	99.046195 
2525.000000	99.046503 
2524.000000	99.046833 
2523.000000	99.047197 
2522.000000	99.047569 
2521.000000	99.047874 
2520.000000	99.048075 
2519.000000	99.048195 
2518.000000	99.048231 
2517.000000	99.048133 
2516.000000	99.047921 
2515.000000	99.047725 
2514.000000	99.047661 
2513.000000	99.047712 
2512.000000	99.047759 
2511.000000	99.047680 
2510.000000	99.047427 
2509.000000	99.047104 
2508.000000	99.046965 
2507.000000	99.047198 
2506.000000	99.047693 
2505.000000	99.048044 
2504.000000	99.047917 
2503.000000	99.047319 
2502.000000	99.046603 
2501.000000	99.046194 
2500.000000	99.046300 
2499.000000	99.046868 
2498.000000	99.047661 
2497.000000	99.048380 
2496.000000	99.048841 
2495.000000	99.049052 
2494.000000	99.049096 
2493.000000	99.048950 
2492.000000	99.048507 
2491.000000	99.047782 
2490.000000	99.047021 
2489.000000	99.046535 
2488.000000	99.046450 
2487.000000	99.046650 
2486.000000	99.046909 
2485.000000	99.047107 
2484.000000	99.047285 
2483.000000	99.047500 
2482.000000	99.047697 
2481.000000	99.047767 
2480.000000	99.047705 
2479.000000	99.047632 
2478.000000	99.047622 
2477.000000	99.047596 
2476.000000	99.047439 
2475.000000	99.047168 
2474.000000	99.046919 
2473.000000	99.046814 
2472.000000	99.046866 
2471.000000	99.046997 
2470.000000	99.047078 
2469.000000	99.046984 
2468.000000	99.046665 
2467.000000	99.046188 
2466.000000	99.045725 
2465.000000	99.045435 
2464.000000	99.045362 
2463.000000	99.045426 
2462.000000	99.045479 
2461.000000	99.045381 
2460.000000	99.045111 
2459.000000	99.044784 
2458.000000	99.044562 
2457.000000	99.044497 
2456.000000	99.044494 
2455.000000	99.044403 
2454.000000	99.044162 
2453.000000	99.043841 
2452.000000	99.043574 
2451.000000	99.043454 
2450.000000	99.043463 
2449.000000	99.043479 
2448.000000	99.043389 
2447.000000	99.043220 
2446.000000	99.043135 
2445.000000	99.043275 
2444.000000	99.043611 
2443.000000	99.043960 
2442.000000	99.044126 
2441.000000	99.044030 
2440.000000	99.043717 
2439.000000	99.043288 
2438.000000	99.042846 
2437.000000	99.042465 
2436.000000	99.042167 
2435.000000	99.041909 
2434.000000	99.041597 
2433.000000	99.041198 
2432.000000	99.040862 
2431.000000	99.040831 
2430.000000	99.041183 
2429.000000	99.041709 
2428.000000	99.042152 
2427.000000	99.042521 
2426.000000	99.043001 
2425.000000	99.043603 
2424.000000	99.044063 
2423.000000	99.044132 
2422.000000	99.043854 
2421.000000	99.043548 
2420.000000	99.043524 
2419.000000	99.043841 
2418.000000	99.044378 
2417.000000	99.044937 
2416.000000	99.045392 
2415.000000	99.045719 
2414.000000	99.045939 
2413.000000	99.046086 
2412.000000	99.046219 
2411.000000	99.046416 
2410.000000	99.046733 
2409.000000	99.047158 
2408.000000	99.047614 
2407.000000	99.048039 
2406.000000	99.048440 
2405.000000	99.048847 
2404.000000	99.049255 
2403.000000	99.049620 
2402.000000	99.049911 
2401.000000	99.050160 
2400.000000	99.050425 
2399.000000	99.050751 
2398.000000	99.051146 
2397.000000	99.051596 
2396.000000	99.052090 
2395.000000	99.052621 
2394.000000	99.053181 
2393.000000	99.053762 
2392.000000	99.054354 
2391.000000	99.054953 
2390.000000	99.055559 
2389.000000	99.056162 
2388.000000	99.056740 
2387.000000	99.057257 
2386.000000	99.057689 
2385.000000	99.058039 
2384.000000	99.058363 
2383.000000	99.058735 
2382.000000	99.059173 
2381.000000	99.059601 
2380.000000	99.059911 
2379.000000	99.060053 
2378.000000	99.060078 
2377.000000	99.060141 
2376.000000	99.060416 
2375.000000	99.060987 
2374.000000	99.061778 
2373.000000	99.062567 
2372.000000	99.063168 
2371.000000	99.063618 
2370.000000	99.064156 
2369.000000	99.064921 
2368.000000	99.065706 
2367.000000	99.066085 
2366.000000	99.065817 
2365.000000	99.065049 
2364.000000	99.064355 
2363.000000	99.064316 
2362.000000	99.065058 
2361.000000	99.066207 
2360.000000	99.067108 
2359.000000	99.067374 
2358.000000	99.067295 
2357.000000	99.067446 
2356.000000	99.068258 
2355.000000	99.069582 
2354.000000	99.070807 
2353.000000	99.071495 
2352.000000	99.071644 
2351.000000	99.071770 
2350.000000	99.071835 
2349.000000	99.071115 
2348.000000	99.069158 
2347.000000	99.066240 
2346.000000	99.063779 
2345.000000	99.062673 
2344.000000	99.062895 
2343.000000	99.063826 
2342.000000	99.065138 
2341.000000	99.067150 
2340.000000	99.069343 
2339.000000	99.070919 
2338.000000	99.071266 
2337.000000	99.070664 
2336.000000	99.069784 
2335.000000	99.069390 
2334.000000	99.069576 
2333.000000	99.070091 
2332.000000	99.070208 
2331.000000	99.069872 
2330.000000	99.069161 
2329.000000	99.068393 
2328.000000	99.067951 
2327.000000	99.067582 
2326.000000	99.067138 
2325.000000	99.065841 
2324.000000	99.063686 
2323.000000	99.061514 
2322.000000	99.060647 
2321.000000	99.062033 
2320.000000	99.064867 
2319.000000	99.067769 
2318.000000	99.069263 
2317.000000	99.069094 
2316.000000	99.067380 
2315.000000	99.065044 
2314.000000	99.063112 
2313.000000	99.062430 
2312.000000	99.062927 
2311.000000	99.063986 
2310.000000	99.065101 
2309.000000	99.065967 
2308.000000	99.066148 
2307.000000	99.065032 
2306.000000	99.062658 
2305.000000	99.059829 
2304.000000	99.057273 
2303.000000	99.055040 
2302.000000	99.052915 
2301.000000	99.051131 
2300.000000	99.050007 
2299.000000	99.049391 
2298.000000	99.048703 
2297.000000	99.047668 
2296.000000	99.046694 
2295.000000	99.046165 
2294.000000	99.045862 
2293.000000	99.045064 
2292.000000	99.043558 
2291.000000	99.041862 
2290.000000	99.040680 
2289.000000	99.040018 
2288.000000	99.039315 
2287.000000	99.038180 
2286.000000	99.036872 
2285.000000	99.035866 
2284.000000	99.035253 
2283.000000	99.034709 
2282.000000	99.033892 
2281.000000	99.032700 
2280.000000	99.031275 
2279.000000	99.030091 
2278.000000	99.029776 
2277.000000	99.030571 
2276.000000	99.031973 
2275.000000	99.033147 
2274.000000	99.033625 
2273.000000	99.033418 
2272.000000	99.032536 
2271.000000	99.030815 
2270.000000	99.028541 
2269.000000	99.026839 
2268.000000	99.026823 
2267.000000	99.028606 
2266.000000	99.031234 
2265.000000	99.033466 
2264.000000	99.034547 
2263.000000	99.034234 
2262.000000	99.032883 
2261.000000	99.031656 
2260.000000	99.031879 
2259.000000	99.033678 
2258.000000	99.035584 
2257.000000	99.036064 
2256.000000	99.035080 
2255.000000	99.033763 
2254.000000	99.032875 
2253.000000	99.032423 
2252.000000	99.032571 
2251.000000	99.033825 
2250.000000	99.036077 
2249.000000	99.038212 
2248.000000	99.039185 
2247.000000	99.039058 
2246.000000	99.038619 
2245.000000	99.038295 
2244.000000	99.037761 
2243.000000	99.036498 
2242.000000	99.034580 
2241.000000	99.032879 
2240.000000	99.032391 
2239.000000	99.033165 
2238.000000	99.034034 
2237.000000	99.033577 
2236.000000	99.031289 
2235.000000	99.027705 
2234.000000	99.023848 
2233.000000	99.021089 
2232.000000	99.021109 
2231.000000	99.024992 
2230.000000	99.032019 
2229.000000	99.039742 
2228.000000	99.045859 
2227.000000	99.049756 
2226.000000	99.051964 
2225.000000	99.052815 
2224.000000	99.052148 
2223.000000	99.050070 
2222.000000	99.047494 
2221.000000	99.045693 
2220.000000	99.045258 
2219.000000	99.045750 
2218.000000	99.046588 
2217.000000	99.048036 
2216.000000	99.050828 
2215.000000	99.054678 
2214.000000	99.057700 
2213.000000	99.057912 
2212.000000	99.055220 
2211.000000	99.051761 
2210.000000	99.050356 
2209.000000	99.052365 
2208.000000	99.056641 
2207.000000	99.060180 
2206.000000	99.060519 
2205.000000	99.057709 
2204.000000	99.054070 
2203.000000	99.051829 
2202.000000	99.051290 
2201.000000	99.051507 
2200.000000	99.051612 
2199.000000	99.050801 
2198.000000	99.048001 
2197.000000	99.042997 
2196.000000	99.037792 
2195.000000	99.035470 
2194.000000	99.037374 
2193.000000	99.042128 
2192.000000	99.047137 
2191.000000	99.050560 
2190.000000	99.051953 
2189.000000	99.052064 
2188.000000	99.052424 
2187.000000	99.054299 
2186.000000	99.057707 
2185.000000	99.061754 
2184.000000	99.065582 
2183.000000	99.068387 
2182.000000	99.069105 
2181.000000	99.067515 
2180.000000	99.065415 
2179.000000	99.065120 
2178.000000	99.066676 
2177.000000	99.067855 
2176.000000	99.066873 
2175.000000	99.063810 
2174.000000	99.059395 
2173.000000	99.054141 
2172.000000	99.049065 
2171.000000	99.045792 
2170.000000	99.045389 
2169.000000	99.047956 
2168.000000	99.053289 
2167.000000	99.060513 
2166.000000	99.066915 
2165.000000	99.069418 
2164.000000	99.067982 
2163.000000	99.066099 
2162.000000	99.067159 
2161.000000	99.071306 
2160.000000	99.076335 
2159.000000	99.080208 
2158.000000	99.082125 
2157.000000	99.082495 
2156.000000	99.082775 
2155.000000	99.084180 
2154.000000	99.085997 
2153.000000	99.086255 
2152.000000	99.084300 
2151.000000	99.081636 
2150.000000	99.080141 
2149.000000	99.080426 
2148.000000	99.082198 
2147.000000	99.084846 
2146.000000	99.087127 
2145.000000	99.087541 
2144.000000	99.085867 
2143.000000	99.083570 
2142.000000	99.082171 
2141.000000	99.081693 
2140.000000	99.081371 
2139.000000	99.080929 
2138.000000	99.080448 
2137.000000	99.079682 
2136.000000	99.078364 
2135.000000	99.076903 
2134.000000	99.076019 
2133.000000	99.075821 
2132.000000	99.075708 
2131.000000	99.075062 
2130.000000	99.073788 
2129.000000	99.072205 
2128.000000	99.070688 
2127.000000	99.069407 
2126.000000	99.068277 
2125.000000	99.067087 
2124.000000	99.065726 
2123.000000	99.064400 
2122.000000	99.063421 
2121.000000	99.062751 
2120.000000	99.061964 
2119.000000	99.060713 
2118.000000	99.059057 
2117.000000	99.057358 
2116.000000	99.055897 
2115.000000	99.054704 
2114.000000	99.053689 
2113.000000	99.052776 
2112.000000	99.051891 
2111.000000	99.050922 
2110.000000	99.049769 
2109.000000	99.048456 
2108.000000	99.047206 
2107.000000	99.046354 
2106.000000	99.046001 
2105.000000	99.045671 
2104.000000	99.044544 
2103.000000	99.042262 
2102.000000	99.039515 
2101.000000	99.037628 
2100.000000	99.037417 
2099.000000	99.038694 
2098.000000	99.040577 
2097.000000	99.042295 
2096.000000	99.043559 
2095.000000	99.044206 
2094.000000	99.043729 
2093.000000	99.041532 
2092.000000	99.037923 
2091.000000	99.034586 
2090.000000	99.033309 
2089.000000	99.034071 
2088.000000	99.035074 
2087.000000	99.034928 
2086.000000	99.034253 
2085.000000	99.034640 
2084.000000	99.036645 
2083.000000	99.039329 
2082.000000	99.041461 
2081.000000	99.042706 
2080.000000	99.043746 
2079.000000	99.045578 
2078.000000	99.048625 
2077.000000	99.052362 
2076.000000	99.055783 
2075.000000	99.058255 
2074.000000	99.059669 
2073.000000	99.060112 
2072.000000	99.059900 
2071.000000	99.059606 
2070.000000	99.059515 
2069.000000	99.059195 
2068.000000	99.058192 
2067.000000	99.056996 
2066.000000	99.056648 
2065.000000	99.057336 
2064.000000	99.058137 
2063.000000	99.058385 
2062.000000	99.058607 
2061.000000	99.059711 
2060.000000	99.061747 
2059.000000	99.063958 
2058.000000	99.065654 
2057.000000	99.066618 
2056.000000	99.066908 
2055.000000	99.066627 
2054.000000	99.065974 
2053.000000	99.065353 
2052.000000	99.065216 
2051.000000	99.065753 
2050.000000	99.066775 
2049.000000	99.067852 
2048.000000	99.068623 
2047.000000	99.069023 
2046.000000	99.069189 
2045.000000	99.069346 
2044.000000	99.069705 
2043.000000	99.070337 
2042.000000	99.071131 
2041.000000	99.071834 
2040.000000	99.072257 
2039.000000	99.072451 
2038.000000	99.072668 
2037.000000	99.073073 
2036.000000	99.073560 
2035.000000	99.073935 
2034.000000	99.074184 
2033.000000	99.074440 
2032.000000	99.074772 
2031.000000	99.075182 
2030.000000	99.075760 
2029.000000	99.076633 
2028.000000	99.077708 
2027.000000	99.078593 
2026.000000	99.078952 
2025.000000	99.078911 
2024.000000	99.078977 
2023.000000	99.079387 
2022.000000	99.079685 
2021.000000	99.079181 
2020.000000	99.077824 
2019.000000	99.076472 
2018.000000	99.076122 
2017.000000	99.076930 
2016.000000	99.078097 
2015.000000	99.078657 
2014.000000	99.078275 
2013.000000	99.077356 
2012.000000	99.076753 
2011.000000	99.077283 
2010.000000	99.079197 
2009.000000	99.082114 
2008.000000	99.085321 
2007.000000	99.088146 
2006.000000	99.090010 
2005.000000	99.090414 
2004.000000	99.089387 
2003.000000	99.087738 
2002.000000	99.086459 
2001.000000	99.085887 
2000.000000	99.085713 
1999.000000	99.085550 
1998.000000	99.085257 
1997.000000	99.084923 
1996.000000	99.084798 
1995.000000	99.085230 
1994.000000	99.086385 
1993.000000	99.087869 
1992.000000	99.088787 
1991.000000	99.088559 
1990.000000	99.087448 
1989.000000	99.086341 
1988.000000	99.085943 
1987.000000	99.086251 
1986.000000	99.086779 
1985.000000	99.087090 
1984.000000	99.087145 
1983.000000	99.087157 
1982.000000	99.087232 
1981.000000	99.087178 
1980.000000	99.086688 
1979.000000	99.085663 
1978.000000	99.084356 
1977.000000	99.083219 
1976.000000	99.082506 
1975.000000	99.082070 
1974.000000	99.081691 
1973.000000	99.081621 
1972.000000	99.082525 
1971.000000	99.084627 
1970.000000	99.086950 
1969.000000	99.087833 
1968.000000	99.086449 
1967.000000	99.083538 
1966.000000	99.080801 
1965.000000	99.079228 
1964.000000	99.078676 
1963.000000	99.078686 
1962.000000	99.078995 
1961.000000	99.079279 
1960.000000	99.078990 
1959.000000	99.077873 
1958.000000	99.076461 
1957.000000	99.075630 
1956.000000	99.075632 
1955.000000	99.075897 
1954.000000	99.075791 
1953.000000	99.075269 
1952.000000	99.074471 
1951.000000	99.073038 
1950.000000	99.070434 
1949.000000	99.066916 
1948.000000	99.063702 
1947.000000	99.061484 
1946.000000	99.059135 
1945.000000	99.054781 
1944.000000	99.048437 
1943.000000	99.042990 
1942.000000	99.041539 
1941.000000	99.044105 
1940.000000	99.047756 
1939.000000	99.049823 
1938.000000	99.050381 
1937.000000	99.051425 
1936.000000	99.054132 
1935.000000	99.057228 
1934.000000	99.058333 
1933.000000	99.056867 
1932.000000	99.054762 
1931.000000	99.054106 
1930.000000	99.054648 
1929.000000	99.054406 
1928.000000	99.052850 
1927.000000	99.051666 
1926.000000	99.052293 
1925.000000	99.053809 
1924.000000	99.054195 
1923.000000	99.053151 
1922.000000	99.052133 
1921.000000	99.052030 
1920.000000	99.051896 
1919.000000	99.050194 
1918.000000	99.046425 
1917.000000	99.041585 
1916.000000	99.037392 
1915.000000	99.034942 
1914.000000	99.034288 
1913.000000	99.034912 
1912.000000	99.036076 
1911.000000	99.037075 
1910.000000	99.037281 
1909.000000	99.036468 
1908.000000	99.035454 
1907.000000	99.035416 
1906.000000	99.036599 
1905.000000	99.037963 
1904.000000	99.038329 
1903.000000	99.037688 
1902.000000	99.036667 
1901.000000	99.035567 
1900.000000	99.034459 
1899.000000	99.033653 
1898.000000	99.033517 
1897.000000	99.033942 
1896.000000	99.034257 
1895.000000	99.033865 
1894.000000	99.032695 
1893.000000	99.031104 
1892.000000	99.029672 
1891.000000	99.029004 
1890.000000	99.029227 
1889.000000	99.029721 
1888.000000	99.029872 
1887.000000	99.029747 
1886.000000	99.029597 
1885.000000	99.029330 
1884.000000	99.028850 
1883.000000	99.028604 
1882.000000	99.029083 
1881.000000	99.030003 
1880.000000	99.030741 
1879.000000	99.031328 
1878.000000	99.032424 
1877.000000	99.034340 
1876.000000	99.036360 
1875.000000	99.037404 
1874.000000	99.036967 
1873.000000	99.035209 
1872.000000	99.032797 
1871.000000	99.030779 
1870.000000	99.029979 
1869.000000	99.030050 
1868.000000	99.029866 
1867.000000	99.029379 
1866.000000	99.029503 
1865.000000	99.030387 
1864.000000	99.031084 
1863.000000	99.030655 
1862.000000	99.029213 
1861.000000	99.027915 
1860.000000	99.028148 
1859.000000	99.030543 
1858.000000	99.034300 
1857.000000	99.037565 
1856.000000	99.039206 
1855.000000	99.039918 
1854.000000	99.040972 
1853.000000	99.042199 
1852.000000	99.042512 
1851.000000	99.041722 
1850.000000	99.041065 
1849.000000	99.042127 
1848.000000	99.045179 
1847.000000	99.049007 
1846.000000	99.051952 
1845.000000	99.053165 
1844.000000	99.053092 
1843.000000	99.053084 
1842.000000	99.053717 
1841.000000	99.053975 
1840.000000	99.052951 
1839.000000	99.050943 
1838.000000	99.049122 
1837.000000	99.048337 
1836.000000	99.048464 
1835.000000	99.049035 
1834.000000	99.049663 
1833.000000	99.050020 
1832.000000	99.049854 
1831.000000	99.049008 
1830.000000	99.047788 
1829.000000	99.047200 
1828.000000	99.047925 
1827.000000	99.049406 
1826.000000	99.050549 
1825.000000	99.050930 
1824.000000	99.050852 
1823.000000	99.050639 
1822.000000	99.050114 
1821.000000	99.049174 
1820.000000	99.048452 
1819.000000	99.048734 
1818.000000	99.050000 
1817.000000	99.051167 
1816.000000	99.051236 
1815.000000	99.050615 
1814.000000	99.050388 
1813.000000	99.050935 
1812.000000	99.051634 
1811.000000	99.052007 
1810.000000	99.052597 
1809.000000	99.053717 
1808.000000	99.054575 
1807.000000	99.054309 
1806.000000	99.052907 
1805.000000	99.050956 
1804.000000	99.049034 
1803.000000	99.047542 
1802.000000	99.046561 
1801.000000	99.045926 
1800.000000	99.045512 
1799.000000	99.045520 
1798.000000	99.046247 
1797.000000	99.047429 
1796.000000	99.048475 
1795.000000	99.049125 
1794.000000	99.049481 
1793.000000	99.049670 
1792.000000	99.049588 
1791.000000	99.049264 
1790.000000	99.049040 
1789.000000	99.049020 
1788.000000	99.049211 
1787.000000	99.049786 
1786.000000	99.050826 
1785.000000	99.051890 
1784.000000	99.052389 
1783.000000	99.052294 
1782.000000	99.051867 
1781.000000	99.051372 
1780.000000	99.050960 
1779.000000	99.050685 
1778.000000	99.050636 
1777.000000	99.050783 
1776.000000	99.051062 
1775.000000	99.051352 
1774.000000	99.051569 
1773.000000	99.051832 
1772.000000	99.052294 
1771.000000	99.052856 
1770.000000	99.053283 
1769.000000	99.053407 
1768.000000	99.053259 
1767.000000	99.053086 
1766.000000	99.053120 
1765.000000	99.053361 
1764.000000	99.053639 
1763.000000	99.053773 
1762.000000	99.053681 
1761.000000	99.053456 
1760.000000	99.053285 
1759.000000	99.053275 
1758.000000	99.053486 
1757.000000	99.053949 
1756.000000	99.054570 
1755.000000	99.055031 
1754.000000	99.055023 
1753.000000	99.054523 
1752.000000	99.053954 
1751.000000	99.053635 
1750.000000	99.053374 
1749.000000	99.052857 
1748.000000	99.052139 
1747.000000	99.051580 
1746.000000	99.051202 
1745.000000	99.050933 
1744.000000	99.050755 
1743.000000	99.050518 
1742.000000	99.050039 
1741.000000	99.049262 
1740.000000	99.048335 
1739.000000	99.047775 
1738.000000	99.048118 
1737.000000	99.048876 
1736.000000	99.049137 
1735.000000	99.048877 
1734.000000	99.047953 
1733.000000	99.046071 
1732.000000	99.044316 
1731.000000	99.042587 
1730.000000	99.040851 
1729.000000	99.039643 
1728.000000	99.039005 
1727.000000	99.038090 
1726.000000	99.036013 
1725.000000	99.033536 
1724.000000	99.031858 
1723.000000	99.031247 
1722.000000	99.031236 
1721.000000	99.030779 
1720.000000	99.029424 
1719.000000	99.028108 
1718.000000	99.028180 
1717.000000	99.028503 
1716.000000	99.027303 
1715.000000	99.025344 
1714.000000	99.023567 
1713.000000	99.021128 
1712.000000	99.017045 
1711.000000	99.012436 
1710.000000	99.009218 
1709.000000	99.007748 
1708.000000	99.006801 
1707.000000	99.004906 
1706.000000	99.001345 
1705.000000	98.996065 
1704.000000	98.990267 
1703.000000	98.985405 
1702.000000	98.981853 
1701.000000	98.979179 
1700.000000	98.975489 
1699.000000	98.971494 
1698.000000	98.969427 
1697.000000	98.967069 
1696.000000	98.962718 
1695.000000	98.957564 
1694.000000	98.954052 
1693.000000	98.951545 
1692.000000	98.948054 
1691.000000	98.943761 
1690.000000	98.939581 
1689.000000	98.935695 
1688.000000	98.932356 
1687.000000	98.929586 
1686.000000	98.927269 
1685.000000	98.924651 
1684.000000	98.919396 
1683.000000	98.912267 
1682.000000	98.906727 
1681.000000	98.902124 
1680.000000	98.897679 
1679.000000	98.893701 
1678.000000	98.889717 
1677.000000	98.884637 
1676.000000	98.878399 
1675.000000	98.872609 
1674.000000	98.868956 
1673.000000	98.867702 
1672.000000	98.867053 
1671.000000	98.865248 
1670.000000	98.861164 
1669.000000	98.854485 
1668.000000	98.847900 
1667.000000	98.843614 
1666.000000	98.840684 
1665.000000	98.837468 
1664.000000	98.833418 
1663.000000	98.829257 
1662.000000	98.825250 
1661.000000	98.821400 
1660.000000	98.818560 
1659.000000	98.816799 
1658.000000	98.815141 
1657.000000	98.812890 
1656.000000	98.810357 
1655.000000	98.808191 
1654.000000	98.807524 
1653.000000	98.804193 
1652.000000	98.797557 
1651.000000	98.797103 
1650.000000	98.798677 
1649.000000	98.797881 
1648.000000	98.795269 
1647.000000	98.790785 
1646.000000	98.785370 
1645.000000	98.782900 
1644.000000	98.783941 
1643.000000	98.785602 
1642.000000	98.785598 
1641.000000	98.783265 
1640.000000	98.780023 
1639.000000	98.777723 
1638.000000	98.777743 
1637.000000	98.780715 
1636.000000	98.785828 
1635.000000	98.789770 
1634.000000	98.792151 
1633.000000	98.793701 
1632.000000	98.792634 
1631.000000	98.789916 
1630.000000	98.787664 
1629.000000	98.786778 
1628.000000	98.787044 
1627.000000	98.788653 
1626.000000	98.791492 
1625.000000	98.795031 
1624.000000	98.799356 
1623.000000	98.804652 
1622.000000	98.810235 
1621.000000	98.815535 
1620.000000	98.820803 
1619.000000	98.826402 
1618.000000	98.832823 
1617.000000	98.838949 
1616.000000	98.843834 
1615.000000	98.849277 
1614.000000	98.855641 
1613.000000	98.861325 
1612.000000	98.866555 
1611.000000	98.872681 
1610.000000	98.878970 
1609.000000	98.883477 
1608.000000	98.886350 
1607.000000	98.889572 
1606.000000	98.893564 
1605.000000	98.897479 
1604.000000	98.901401 
1603.000000	98.905350 
1602.000000	98.909069 
1601.000000	98.912724 
1600.000000	98.917068 
1599.000000	98.922360 
1598.000000	98.928069 
1597.000000	98.933845 
1596.000000	98.939347 
1595.000000	98.943509 
1594.000000	98.945269 
1593.000000	98.945539 
1592.000000	98.947135 
1591.000000	98.951747 
1590.000000	98.957842 
1589.000000	98.962672 
1588.000000	98.965672 
1587.000000	98.968461 
1586.000000	98.972091 
1585.000000	98.975736 
1584.000000	98.978944 
1583.000000	98.981714 
1582.000000	98.983246 
1581.000000	98.983399 
1580.000000	98.983406 
1579.000000	98.984116 
1578.000000	98.985142 
1577.000000	98.986010 
1576.000000	98.986075 
1575.000000	98.985763 
1574.000000	98.986123 
1573.000000	98.986968 
1572.000000	98.988261 
1571.000000	98.990627 
1570.000000	98.993708 
1569.000000	98.996005 
1568.000000	98.997744 
1567.000000	98.999256 
1566.000000	98.999888 
1565.000000	98.999745 
1564.000000	98.999795 
1563.000000	99.000190 
1562.000000	99.000190 
1561.000000	98.999544 
1560.000000	99.000499 
1559.000000	99.002961 
1558.000000	99.003549 
1557.000000	99.004443 
1556.000000	99.006130 
1555.000000	99.007193 
1554.000000	99.007339 
1553.000000	99.007108 
1552.000000	99.007052 
1551.000000	99.007171 
1550.000000	99.007577 
1549.000000	99.008359 
1548.000000	99.009366 
1547.000000	99.010245 
1546.000000	99.010770 
1545.000000	99.011079 
1544.000000	99.011473 
1543.000000	99.012126 
1542.000000	99.013021 
1541.000000	99.014060 
1540.000000	99.015011 
1539.000000	99.015745 
1538.000000	99.016409 
1537.000000	99.017101 
1536.000000	99.017789 
1535.000000	99.018517 
1534.000000	99.019253 
1533.000000	99.019822 
1532.000000	99.020194 
1531.000000	99.020618 
1530.000000	99.021295 
1529.000000	99.022146 
1528.000000	99.022903 
1527.000000	99.023458 
1526.000000	99.023989 
1525.000000	99.024757 
1524.000000	99.025850 
1523.000000	99.027330 
1522.000000	99.029366 
1521.000000	99.031402 
1520.000000	99.032587 
1519.000000	99.032742 
1518.000000	99.032001 
1517.000000	99.031014 
1516.000000	99.030395 
1515.000000	99.030319 
1514.000000	99.030637 
1513.000000	99.031362 
1512.000000	99.032570 
1511.000000	99.033820 
1510.000000	99.034686 
1509.000000	99.035392 
1508.000000	99.037550 
1507.000000	99.041547 
1506.000000	99.044166 
1505.000000	99.044772 
1504.000000	99.045240 
1503.000000	99.045594 
1502.000000	99.046078 
1501.000000	99.046605 
1500.000000	99.046318 
1499.000000	99.044796 
1498.000000	99.043015 
1497.000000	99.042039 
1496.000000	99.041325 
1495.000000	99.041179 
1494.000000	99.042832 
1493.000000	99.045895 
1492.000000	99.048617 
1491.000000	99.049473 
1490.000000	99.048235 
1489.000000	99.045708 
1488.000000	99.042612 
1487.000000	99.039722 
1486.000000	99.037621 
1485.000000	99.035605 
1484.000000	99.033531 
1483.000000	99.032030 
1482.000000	99.031619 
1481.000000	99.031878 
1480.000000	99.031467 
1479.000000	99.029755 
1478.000000	99.027095 
1477.000000	99.024240 
1476.000000	99.021689 
1475.000000	99.020303 
1474.000000	99.020560 
1473.000000	99.021331 
1472.000000	99.020459 
1471.000000	99.017813 
1470.000000	99.015202 
1469.000000	99.013066 
1468.000000	99.010845 
1467.000000	99.008453 
1466.000000	99.006290 
1465.000000	99.004596 
1464.000000	99.003392 
1463.000000	99.002367 
1462.000000	99.001168 
1461.000000	98.999449 
1460.000000	98.997159 
1459.000000	98.994173 
1458.000000	98.989779 
1457.000000	98.983124 
1456.000000	98.975911 
1455.000000	98.971291 
1454.000000	98.968900 
1453.000000	98.967837 
1452.000000	98.968164 
1451.000000	98.969039 
1450.000000	98.969141 
1449.000000	98.967878 
1448.000000	98.965763 
1447.000000	98.964187 
1446.000000	98.963785 
1445.000000	98.964274 
1444.000000	98.964968 
1443.000000	98.964409 
1442.000000	98.961966 
1441.000000	98.958321 
1440.000000	98.954735 
1439.000000	98.951649 
1438.000000	98.949829 
1437.000000	98.949951 
1436.000000	98.950454 
1435.000000	98.949547 
1434.000000	98.947166 
1433.000000	98.943937 
1432.000000	98.940720 
1431.000000	98.937917 
1430.000000	98.935194 
1429.000000	98.932305 
1428.000000	98.929257 
1427.000000	98.926765 
1426.000000	98.925104 
1425.000000	98.924440 
1424.000000	98.924511 
1423.000000	98.923455 
1422.000000	98.919830 
1421.000000	98.913644 
1420.000000	98.906264 
1419.000000	98.899184 
1418.000000	98.893608 
1417.000000	98.889984 
1416.000000	98.886815 
1415.000000	98.882570 
1414.000000	98.877289 
1413.000000	98.872306 
1412.000000	98.868782 
1411.000000	98.866376 
1410.000000	98.864099 
1409.000000	98.861632 
1408.000000	98.859456 
1407.000000	98.858915 
1406.000000	98.860887 
1405.000000	98.864912 
1404.000000	98.869998 
1403.000000	98.875671 
1402.000000	98.882387 
1401.000000	98.890229 
1400.000000	98.897976 
1399.000000	98.903261 
1398.000000	98.904316 
1397.000000	98.900709 
1396.000000	98.893019 
1395.000000	98.884796 
1394.000000	98.882288 
1393.000000	98.889050 
1392.000000	98.902326 
1391.000000	98.915849 
1390.000000	98.925269 
1389.000000	98.929924 
1388.000000	98.931134 
1387.000000	98.930507 
1386.000000	98.929682 
1385.000000	98.930018 
1384.000000	98.931742 
1383.000000	98.933887 
1382.000000	98.935658 
1381.000000	98.937240 
1380.000000	98.939399 
1379.000000	98.942673 
1378.000000	98.947033 
1377.000000	98.952188 
1376.000000	98.957831 
1375.000000	98.963614 
1374.000000	98.969150 
1373.000000	98.974537 
1372.000000	98.980140 
1371.000000	98.985768 
1370.000000	98.990643 
1369.000000	98.994376 
1368.000000	98.997467 
1367.000000	99.000609 
1366.000000	99.004247 
1365.000000	99.008613 
1364.000000	99.013789 
1363.000000	99.019334 
1362.000000	99.024346 
1361.000000	99.028392 
1360.000000	99.031943 
1359.000000	99.035826 
1358.000000	99.040609 
1357.000000	99.046209 
1356.000000	99.051798 
1355.000000	99.056437 
1354.000000	99.060212 
1353.000000	99.063974 
1352.000000	99.067584 
1351.000000	99.069797 
1350.000000	99.069939 
1349.000000	99.069311 
1348.000000	99.069651 
1347.000000	99.071001 
1346.000000	99.072547 
1345.000000	99.074016 
1344.000000	99.075356 
1343.000000	99.075733 
1342.000000	99.074657 
1341.000000	99.073642 
1340.000000	99.075063 
1339.000000	99.078861 
1338.000000	99.082495 
1337.000000	99.084554 
1336.000000	99.086043 
1335.000000	99.087929 
1334.000000	99.089445 
1333.000000	99.089470 
1332.000000	99.088391 
1331.000000	99.087583 
1330.000000	99.087589 
1329.000000	99.087761 
1328.000000	99.087370 
1327.000000	99.086313 
1326.000000	99.084835 
1325.000000	99.083454 
1324.000000	99.082891 
1323.000000	99.083286 
1322.000000	99.083983 
1321.000000	99.084526 
1320.000000	99.085614 
1319.000000	99.088288 
1318.000000	99.092079 
1317.000000	99.094665 
1316.000000	99.093927 
1315.000000	99.090122 
1314.000000	99.085815 
1313.000000	99.083411 
1312.000000	99.082906 
1311.000000	99.082611 
1310.000000	99.081738 
1309.000000	99.081274 
1308.000000	99.082131 
1307.000000	99.083522 
1306.000000	99.083873 
1305.000000	99.082939 
1304.000000	99.082054 
1303.000000	99.082305 
1302.000000	99.083464 
1301.000000	99.084730 
1300.000000	99.085847 
1299.000000	99.087165 
1298.000000	99.089080 
1297.000000	99.091557 
1296.000000	99.093972 
1295.000000	99.095360 
1294.000000	99.095071 
1293.000000	99.093252 
1292.000000	99.090537 
1291.000000	99.087614 
1290.000000	99.085381 
1289.000000	99.084986 
1288.000000	99.086896 
1287.000000	99.089896 
1286.000000	99.091763 
1285.000000	99.091200 
1284.000000	99.088631 
1283.000000	99.085368 
1282.000000	99.082504 
1281.000000	99.080675 
1280.000000	99.080310 
1279.000000	99.081384 
1278.000000	99.083213 
1277.000000	99.085105 
1276.000000	99.087032 
1275.000000	99.089194 
1274.000000	99.091089 
1273.000000	99.091732 
1272.000000	99.090867 
1271.000000	99.089410 
1270.000000	99.088393 
1269.000000	99.087893 
1268.000000	99.087338 
1267.000000	99.086409 
1266.000000	99.085204 
1265.000000	99.083811 
1264.000000	99.082228 
1263.000000	99.080638 
1262.000000	99.079256 
1261.000000	99.077916 
1260.000000	99.076300 
1259.000000	99.074503 
1258.000000	99.072893 
1257.000000	99.071579 
1256.000000	99.070539 
1255.000000	99.070165 
1254.000000	99.070766 
1253.000000	99.071437 
1252.000000	99.070502 
1251.000000	99.067662 
1250.000000	99.064905 
1249.000000	99.064570 
1248.000000	99.067022 
1247.000000	99.070574 
1246.000000	99.072607 
1245.000000	99.070019 
1244.000000	99.060305 
1243.000000	99.044716 
1242.000000	99.029978 
1241.000000	99.023847 
1240.000000	99.027742 
1239.000000	99.035232 
1238.000000	99.038614 
1237.000000	99.035578 
1236.000000	99.028685 
1235.000000	99.020631 
1234.000000	99.012226 
1233.000000	99.003707 
1232.000000	98.995191 
1231.000000	98.985613 
1230.000000	98.973488 
1229.000000	98.959476 
1228.000000	98.946496 
1227.000000	98.936257 
1226.000000	98.926781 
1225.000000	98.914533 
1224.000000	98.898253 
1223.000000	98.879540 
1222.000000	98.860145 
1221.000000	98.840023 
1220.000000	98.818174 
1219.000000	98.794174 
1218.000000	98.768070 
1217.000000	98.739377 
1216.000000	98.707210 
1215.000000	98.671657 
1214.000000	98.634396 
1213.000000	98.597333 
1212.000000	98.560651 
1211.000000	98.522770 
1210.000000	98.482548 
1209.000000	98.441085 
1208.000000	98.400645 
1207.000000	98.361902 
1206.000000	98.323225 
1205.000000	98.283102 
1204.000000	98.242144 
1203.000000	98.201867 
1202.000000	98.162464 
1201.000000	98.122876 
1200.000000	98.082507 
1199.000000	98.041641 
1198.000000	98.000391 
1197.000000	97.958315 
1196.000000	97.914964 
1195.000000	97.870053 
1194.000000	97.823454 
1193.000000	97.775851 
1192.000000	97.728869 
1191.000000	97.683412 
1190.000000	97.638287 
1189.000000	97.591725 
1188.000000	97.543778 
1187.000000	97.495843 
1186.000000	97.448383 
1185.000000	97.400682 
1184.000000	97.352299 
1183.000000	97.302972 
1182.000000	97.251602 
1181.000000	97.197434 
1180.000000	97.141888 
1179.000000	97.086930 
1178.000000	97.031822 
1177.000000	96.973902 
1176.000000	96.912381 
1175.000000	96.848633 
1174.000000	96.782719 
1173.000000	96.712939 
1172.000000	96.639699 
1171.000000	96.566756 
1170.000000	96.497211 
1169.000000	96.430673 
1168.000000	96.365646 
1167.000000	96.302692 
1166.000000	96.244813 
1165.000000	96.197406 
1164.000000	96.168241 
1163.000000	96.163707 
1162.000000	96.182766 
1161.000000	96.216204 
1160.000000	96.252431 
1159.000000	96.281926 
1158.000000	96.296694 
1157.000000	96.290151 
1156.000000	96.260298 
1155.000000	96.211710 
1154.000000	96.153149 
1153.000000	96.093416 
1152.000000	96.038219 
1151.000000	95.987668 
1150.000000	95.936228 
1149.000000	95.878349 
1148.000000	95.815065 
1147.000000	95.752441 
1146.000000	95.693287 
1145.000000	95.634119 
1144.000000	95.571144 
1143.000000	95.505137 
1142.000000	95.438899 
1141.000000	95.373798 
1140.000000	95.310713 
1139.000000	95.250479 
1138.000000	95.190868 
1137.000000	95.126534 
1136.000000	95.054711 
1135.000000	94.978477 
1134.000000	94.902178 
1133.000000	94.826017 
1132.000000	94.747344 
1131.000000	94.665069 
1130.000000	94.580872 
1129.000000	94.497706 
1128.000000	94.417934 
1127.000000	94.340772 
1126.000000	94.261390 
1125.000000	94.175579 
1124.000000	94.085450 
1123.000000	93.997008 
1122.000000	93.912083 
1121.000000	93.827068 
1120.000000	93.739866 
1119.000000	93.652728 
1118.000000	93.567214 
1117.000000	93.482090 
1116.000000	93.397958 
1115.000000	93.318464 
1114.000000	93.244750 
1113.000000	93.173745 
1112.000000	93.103653 
1111.000000	93.035485 
1110.000000	92.967456 
1109.000000	92.894280 
1108.000000	92.814866 
1107.000000	92.735351 
1106.000000	92.661299 
1105.000000	92.591450 
1104.000000	92.521718 
1103.000000	92.450675 
1102.000000	92.378743 
1101.000000	92.306621 
1100.000000	92.236599 
1099.000000	92.171170 
1098.000000	92.108641 
1097.000000	92.044397 
1096.000000	91.977527 
1095.000000	91.911233 
1094.000000	91.846136 
1093.000000	91.778772 
1092.000000	91.707476 
1091.000000	91.633990 
1090.000000	91.558807 
1089.000000	91.481353 
1088.000000	91.405274 
1087.000000	91.336371 
1086.000000	91.274236 
1085.000000	91.213206 
1084.000000	91.152475 
1083.000000	91.097100 
1082.000000	91.047392 
1081.000000	90.995881 
1080.000000	90.937534 
1079.000000	90.875341 
1078.000000	90.813392 
1077.000000	90.751994 
1076.000000	90.692111 
1075.000000	90.636703 
1074.000000	90.584277 
1073.000000	90.527616 
1072.000000	90.460646 
1071.000000	90.379753 
1070.000000	90.278414 
1069.000000	90.150659 
1068.000000	90.003061 
1067.000000	89.854772 
1066.000000	89.720703 
1065.000000	89.600743 
1064.000000	89.487919 
1063.000000	89.377522 
1062.000000	89.264252 
1061.000000	89.140484 
1060.000000	89.004327 
1059.000000	88.863706 
1058.000000	88.727795 
1057.000000	88.599044 
1056.000000	88.475473 
1055.000000	88.353453 
1054.000000	88.225654 
1053.000000	88.084288 
1052.000000	87.930302 
1051.000000	87.772467 
1050.000000	87.614585 
1049.000000	87.452105 
1048.000000	87.283482 
1047.000000	87.114269 
1046.000000	86.947513 
1045.000000	86.780090 
1044.000000	86.610176 
1043.000000	86.439200 
1042.000000	86.265916 
1041.000000	86.088563 
1040.000000	85.913928 
1039.000000	85.753810 
1038.000000	85.610919 
1037.000000	85.478411 
1036.000000	85.353958 
1035.000000	85.242784 
1034.000000	85.145829 
1033.000000	85.057245 
1032.000000	84.975077 
1031.000000	84.902362 
1030.000000	84.837006 
1029.000000	84.774020 
1028.000000	84.718986 
1027.000000	84.684466 
1026.000000	84.669780 
1025.000000	84.657961 
1024.000000	84.636338 
1023.000000	84.607315 
1022.000000	84.576081 
1021.000000	84.541856 
1020.000000	84.505390 
1019.000000	84.471957 
1018.000000	84.441829 
1017.000000	84.408984 
1016.000000	84.372841 
1015.000000	84.340019 
1014.000000	84.311571 
1013.000000	84.280365 
1012.000000	84.244157 
1011.000000	84.209598 
1010.000000	84.180468 
1009.000000	84.153802 
1008.000000	84.130383 
1007.000000	84.116977 
1006.000000	84.115103 
1005.000000	84.119088 
1004.000000	84.127637 
1003.000000	84.145747 
1002.000000	84.173276 
1001.000000	84.203770 
1000.000000	84.236407 
999.000000	 84.276635 
998.000000	 84.323247 
997.000000	 84.368044 
996.000000	 84.410725 
995.000000	 84.460864 
994.000000	 84.522024 
993.000000	 84.586556 
992.000000	 84.649108 
991.000000	 84.712874 
990.000000	 84.779382 
989.000000	 84.844948 
988.000000	 84.911261 
987.000000	 84.987643 
986.000000	 85.078649 
985.000000	 85.179889 
984.000000	 85.288804 
983.000000	 85.408569 
982.000000	 85.538779 
981.000000	 85.673622 
980.000000	 85.812425 
979.000000	 85.961594 
978.000000	 86.123468 
977.000000	 86.293328 
976.000000	 86.469122 
975.000000	 86.653499 
974.000000	 86.844551 
973.000000	 87.035479 
972.000000	 87.225484 
971.000000	 87.420438 
970.000000	 87.620873 
969.000000	 87.819781 
968.000000	 88.014138 
967.000000	 88.208090 
966.000000	 88.402414 
965.000000	 88.591033 
964.000000	 88.770776 
963.000000	 88.945420 
962.000000	 89.117618 
961.000000	 89.285377 
960.000000	 89.448379 
959.000000	 89.608947 
958.000000	 89.764686 
957.000000	 89.908900 
956.000000	 90.040650 
955.000000	 90.166547 
954.000000	 90.290716 
953.000000	 90.410719 
952.000000	 90.524886 
951.000000	 90.635151 
950.000000	 90.740502 
949.000000	 90.835741 
948.000000	 90.919311 
947.000000	 90.995228 
946.000000	 91.065528 
945.000000	 91.128258 
944.000000	 91.184930 
943.000000	 91.242237 
942.000000	 91.303428 
941.000000	 91.364391 
940.000000	 91.420424 
939.000000	 91.470655 
938.000000	 91.514889 
937.000000	 91.553593 
936.000000	 91.592764 
935.000000	 91.641341 
934.000000	 91.700978 
933.000000	 91.764561 
932.000000	 91.826287 
931.000000	 91.886473 
930.000000	 91.945307 
929.000000	 91.999481 
928.000000	 92.047488 
927.000000	 92.092015 
926.000000	 92.135147 
925.000000	 92.176913 
924.000000	 92.219411 
923.000000	 92.265553 
922.000000	 92.312265 
921.000000	 92.351477 
920.000000	 92.379447 
919.000000	 92.399407 
918.000000	 92.414848 
917.000000	 92.427199 
916.000000	 92.440781 
915.000000	 92.462299 
914.000000	 92.493562 
913.000000	 92.531581 
912.000000	 92.577437 
911.000000	 92.638179 
910.000000	 92.718566 
909.000000	 92.817716 
908.000000	 92.934490 
907.000000	 93.068399 
906.000000	 93.214116 
905.000000	 93.363252 
904.000000	 93.513464 
903.000000	 93.668933 
902.000000	 93.830901 
901.000000	 93.994593 
900.000000	 94.156190 
899.000000	 94.315745 
898.000000	 94.472092 
897.000000	 94.621427 
896.000000	 94.762077 
895.000000	 94.895163 
894.000000	 95.020461 
893.000000	 95.137515 
892.000000	 95.250864 
891.000000	 95.367801 
890.000000	 95.489878 
889.000000	 95.611588 
888.000000	 95.727349 
887.000000	 95.834861 
886.000000	 95.933177 
885.000000	 96.024035 
884.000000	 96.114156 
883.000000	 96.208950 
882.000000	 96.303900 
881.000000	 96.389587 
880.000000	 96.465730 
879.000000	 96.542971 
878.000000	 96.629746 
877.000000	 96.724306 
876.000000	 96.820491 
875.000000	 96.913549 
874.000000	 96.999224 
873.000000	 97.075360 
872.000000	 97.146899 
871.000000	 97.222962 
870.000000	 97.307337 
869.000000	 97.397607 
868.000000	 97.493389 
867.000000	 97.596909 
866.000000	 97.703689 
865.000000	 97.801612 
864.000000	 97.883944 
863.000000	 97.957389 
862.000000	 98.032646 
861.000000	 98.111143 
860.000000	 98.185968 
859.000000	 98.252731 
858.000000	 98.314218 
857.000000	 98.375379 
856.000000	 98.437863 
855.000000	 98.499896 
854.000000	 98.558737 
853.000000	 98.612113 
852.000000	 98.658571 
851.000000	 98.697959 
850.000000	 98.732127 
849.000000	 98.764315 
848.000000	 98.796377 
847.000000	 98.826295 
846.000000	 98.849812 
845.000000	 98.864819 
844.000000	 98.872271 
843.000000	 98.872739 
842.000000	 98.865365 
841.000000	 98.851125 
840.000000	 98.833005 
839.000000	 98.810737 
838.000000	 98.779685 
837.000000	 98.738571 
836.000000	 98.694445 
835.000000	 98.655535 
834.000000	 98.622500 
833.000000	 98.592183 
832.000000	 98.566755 
831.000000	 98.551553 
830.000000	 98.545271 
829.000000	 98.540960 
828.000000	 98.537985 
827.000000	 98.544955 
826.000000	 98.567764 
825.000000	 98.601307 
824.000000	 98.636290 
823.000000	 98.668209 
822.000000	 98.696650 
821.000000	 98.721163 
820.000000	 98.740713 
819.000000	 98.753950 
818.000000	 98.759095 
817.000000	 98.755777 
816.000000	 98.745511 
815.000000	 98.726883 
814.000000	 98.691855 
813.000000	 98.630940 
812.000000	 98.540346 
811.000000	 98.419256 
810.000000	 98.262036 
809.000000	 98.060258 
808.000000	 97.813719 
807.000000	 97.533901 
806.000000	 97.234725 
805.000000	 96.925172 
804.000000	 96.613412 
803.000000	 96.312166 
802.000000	 96.036150 
801.000000	 95.798765 
800.000000	 95.613035 
799.000000	 95.488812 
798.000000	 95.425860 
797.000000	 95.415201 
796.000000	 95.447950 
795.000000	 95.515896 
794.000000	 95.604577 
793.000000	 95.695959 
792.000000	 95.779754 
791.000000	 95.854559 
790.000000	 95.917937 
789.000000	 95.963343 
788.000000	 95.986174 
787.000000	 95.983871 
786.000000	 95.949950 
785.000000	 95.877718 
784.000000	 95.772470 
783.000000	 95.652381 
782.000000	 95.535093 
781.000000	 95.430543 
780.000000	 95.347688 
779.000000	 95.297858 
778.000000	 95.287166 
777.000000	 95.313474 
776.000000	 95.373916 
775.000000	 95.467376 
774.000000	 95.586863 
773.000000	 95.717627 
772.000000	 95.846257 
771.000000	 95.965601 
770.000000	 96.069902 
769.000000	 96.152895 
768.000000	 96.213271 
767.000000	 96.256338 
766.000000	 96.288619 
765.000000	 96.315469 
764.000000	 96.343169 
763.000000	 96.375790 
762.000000	 96.408843 
761.000000	 96.433482 
760.000000	 96.449134 
759.000000	 96.466029 
758.000000	 96.493880 
757.000000	 96.533530 
756.000000	 96.579627 
755.000000	 96.624920 
754.000000	 96.662467 
753.000000	 96.691425 
752.000000	 96.721245 
751.000000	 96.763146 
750.000000	 96.816736 
749.000000	 96.871316 
748.000000	 96.920106 
747.000000	 96.966083 
746.000000	 97.014576 
745.000000	 97.068648 
744.000000	 97.131998 
743.000000	 97.207498 
742.000000	 97.291556 
741.000000	 97.377703 
740.000000	 97.465947 
739.000000	 97.560208 
738.000000	 97.656798 
737.000000	 97.744794 
736.000000	 97.818522 
735.000000	 97.880977 
734.000000	 97.935294 
733.000000	 97.982391 
732.000000	 98.027107 
731.000000	 98.075830 
730.000000	 98.125531 
729.000000	 98.164772 
728.000000	 98.188451 
727.000000	 98.203063 
726.000000	 98.215590 
725.000000	 98.226633 
724.000000	 98.237446 
723.000000	 98.254228 
722.000000	 98.281537 
721.000000	 98.319239 
720.000000	 98.368381 
719.000000	 98.430788 
718.000000	 98.499599 
717.000000	 98.559830 
716.000000	 98.602368 
715.000000	 98.630388 
714.000000	 98.650321 
713.000000	 98.664829 
712.000000	 98.677554 
711.000000	 98.694624 
710.000000	 98.715267 
709.000000	 98.728858 
708.000000	 98.726813 
707.000000	 98.710676 
706.000000	 98.684369 
705.000000	 98.646627 
704.000000	 98.596841 
703.000000	 98.540390 
702.000000	 98.480159 
701.000000	 98.407010 
700.000000	 98.305256 
699.000000	 98.166606 
698.000000	 97.999040 
697.000000	 97.828165 
696.000000	 97.690240 
695.000000	 97.614190 
694.000000	 97.604670 
693.000000	 97.644991 
692.000000	 97.715425 
691.000000	 97.802725 
690.000000	 97.895207 
689.000000	 97.982415 
688.000000	 98.063248 
687.000000	 98.142700 
686.000000	 98.216582 
685.000000	 98.271397 
684.000000	 98.303510 
683.000000	 98.326965 
682.000000	 98.357814 
681.000000	 98.399719 
680.000000	 98.446990 
679.000000	 98.492022 
678.000000	 98.527427 
677.000000	 98.551151 
676.000000	 98.574623 
675.000000	 98.612425 
674.000000	 98.661369 
673.000000	 98.703315 
672.000000	 98.731619 
671.000000	 98.762222 
670.000000	 98.814271 
669.000000	 98.891179 
668.000000	 98.970672 
667.000000	 99.017146 
666.000000	 99.024846 
665.000000	 99.014341 
664.000000	 99.008748 
663.000000	 99.027773 
662.000000	 99.070428 
661.000000	 99.109147 
660.000000	 99.118769 
659.000000	 99.102699 
658.000000	 99.080608 
657.000000	 99.062024 
656.000000	 99.047224 
655.000000	 99.041031 
654.000000	 99.046928 
653.000000	 99.057317 
652.000000	 99.065169 
651.000000	 99.075486 
650.000000	 99.090935 

