4000.000000	99.370263 
3999.000000	99.377933 
3998.000000	99.385831 
3997.000000	99.392777 
3996.000000	99.398888 
3995.000000	99.403459 
3994.000000	99.405180 
3993.000000	99.404210 
3992.000000	99.402724 
3991.000000	99.402687 
3990.000000	99.403742 
3989.000000	99.404023 
3988.000000	99.402677 
3987.000000	99.400794 
3986.000000	99.399879 
3985.000000	99.400229 
3984.000000	99.401172 
3983.000000	99.402545 
3982.000000	99.405279 
3981.000000	99.410270 
3980.000000	99.416974 
3979.000000	99.423495 
3978.000000	99.428014 
3977.000000	99.429803 
3976.000000	99.428782 
3975.000000	99.424541 
3974.000000	99.416606 
3973.000000	99.405993 
3972.000000	99.395991 
3971.000000	99.390422 
3970.000000	99.390854 
3969.000000	99.395574 
3968.000000	99.401179 
3967.000000	99.405042 
3966.000000	99.406439 
3965.000000	99.406124 
3964.000000	99.405179 
3963.000000	99.404369 
3962.000000	99.404256 
3961.000000	99.405430 
3960.000000	99.408169 
3959.000000	99.411604 
3958.000000	99.413857 
3957.000000	99.413754 
3956.000000	99.412075 
3955.000000	99.410733 
3954.000000	99.410598 
3953.000000	99.410826 
3952.000000	99.410019 
3951.000000	99.407712 
3950.000000	99.404642 
3949.000000	99.401509 
3948.000000	99.398282 
3947.000000	99.395248 
3946.000000	99.394228 
3945.000000	99.397179 
3944.000000	99.403260 
3943.000000	99.408468 
3942.000000	99.409394 
3941.000000	99.407074 
3940.000000	99.405352 
3939.000000	99.405659 
3938.000000	99.405743 
3937.000000	99.403410 
3936.000000	99.399314 
3935.000000	99.396076 
3934.000000	99.395478 
3933.000000	99.397580 
3932.000000	99.401335 
3931.000000	99.405075 
3930.000000	99.407166 
3929.000000	99.406373 
3928.000000	99.402719 
3927.000000	99.397526 
3926.000000	99.392004 
3925.000000	99.386718 
3924.000000	99.382891 
3923.000000	99.382667 
3922.000000	99.385559 
3921.000000	99.387217 
3920.000000	99.384822 
3919.000000	99.381209 
3918.000000	99.380542 
3917.000000	99.382500 
3916.000000	99.384080 
3915.000000	99.385640 
3914.000000	99.390323 
3913.000000	99.398321 
3912.000000	99.405373 
3911.000000	99.406933 
3910.000000	99.401549 
3909.000000	99.391784 
3908.000000	99.381857 
3907.000000	99.375745 
3906.000000	99.374327 
3905.000000	99.374575 
3904.000000	99.372062 
3903.000000	99.366980 
3902.000000	99.365257 
3901.000000	99.370085 
3900.000000	99.376405 
3899.000000	99.377259 
3898.000000	99.372471 
3897.000000	99.366894 
3896.000000	99.362948 
3895.000000	99.360524 
3894.000000	99.362666 
3893.000000	99.373536 
3892.000000	99.388358 
3891.000000	99.394480 
3890.000000	99.388224 
3889.000000	99.382159 
3888.000000	99.386557 
3887.000000	99.397135 
3886.000000	99.401184 
3885.000000	99.391163 
3884.000000	99.376829 
3883.000000	99.375512 
3882.000000	99.389415 
3881.000000	99.405937 
3880.000000	99.412194 
3879.000000	99.406466 
3878.000000	99.399636 
3877.000000	99.399929 
3876.000000	99.402988 
3875.000000	99.399685 
3874.000000	99.385959 
3873.000000	99.369076 
3872.000000	99.361615 
3871.000000	99.364811 
3870.000000	99.365559 
3869.000000	99.355867 
3868.000000	99.348350 
3867.000000	99.357314 
3866.000000	99.375043 
3865.000000	99.386091 
3864.000000	99.387392 
3863.000000	99.385700 
3862.000000	99.385530 
3861.000000	99.384113 
3860.000000	99.377144 
3859.000000	99.364048 
3858.000000	99.345240 
3857.000000	99.324402 
3856.000000	99.311459 
3855.000000	99.319303 
3854.000000	99.343213 
3853.000000	99.355247 
3852.000000	99.352105 
3851.000000	99.365125 
3850.000000	99.395926 
3849.000000	99.417153 
3848.000000	99.418371 
3847.000000	99.408097 
3846.000000	99.396075 
3845.000000	99.386448 
3844.000000	99.379790 
3843.000000	99.375156 
3842.000000	99.371627 
3841.000000	99.370428 
3840.000000	99.372898 
3839.000000	99.378136 
3838.000000	99.382449 
3837.000000	99.383732 
3836.000000	99.384105 
3835.000000	99.387148 
3834.000000	99.392560 
3833.000000	99.397239 
3832.000000	99.398404 
3831.000000	99.395925 
3830.000000	99.393650 
3829.000000	99.395370 
3828.000000	99.398849 
3827.000000	99.396895 
3826.000000	99.385397 
3825.000000	99.371351 
3824.000000	99.368286 
3823.000000	99.381951 
3822.000000	99.400666 
3821.000000	99.401788 
3820.000000	99.380239 
3819.000000	99.362753 
3818.000000	99.369076 
3817.000000	99.387940 
3816.000000	99.398419 
3815.000000	99.392514 
3814.000000	99.384034 
3813.000000	99.386098 
3812.000000	99.390004 
3811.000000	99.384390 
3810.000000	99.374131 
3809.000000	99.370730 
3808.000000	99.375678 
3807.000000	99.376741 
3806.000000	99.365731 
3805.000000	99.354836 
3804.000000	99.359885 
3803.000000	99.378746 
3802.000000	99.395210 
3801.000000	99.392374 
3800.000000	99.374873 
3799.000000	99.367335 
3798.000000	99.374957 
3797.000000	99.381797 
3796.000000	99.378848 
3795.000000	99.371627 
3794.000000	99.371260 
3793.000000	99.380863 
3792.000000	99.393798 
3791.000000	99.402757 
3790.000000	99.405626 
3789.000000	99.404087 
3788.000000	99.401979 
3787.000000	99.403263 
3786.000000	99.408745 
3785.000000	99.414482 
3784.000000	99.416297 
3783.000000	99.414983 
3782.000000	99.414503 
3781.000000	99.415603 
3780.000000	99.414396 
3779.000000	99.407420 
3778.000000	99.397288 
3777.000000	99.391136 
3776.000000	99.390986 
3775.000000	99.391806 
3774.000000	99.389702 
3773.000000	99.387273 
3772.000000	99.388327 
3771.000000	99.390681 
3770.000000	99.387694 
3769.000000	99.378967 
3768.000000	99.373827 
3767.000000	99.378828 
3766.000000	99.387968 
3765.000000	99.391555 
3764.000000	99.388991 
3763.000000	99.388266 
3762.000000	99.393575 
3761.000000	99.400138 
3760.000000	99.402183 
3759.000000	99.398735 
3758.000000	99.390922 
3757.000000	99.379000 
3756.000000	99.363522 
3755.000000	99.348837 
3754.000000	99.341183 
3753.000000	99.345820 
3752.000000	99.362939 
3751.000000	99.381070 
3750.000000	99.383188 
3749.000000	99.366989 
3748.000000	99.347972 
3747.000000	99.340963 
3746.000000	99.348078 
3745.000000	99.358579 
3744.000000	99.354030 
3743.000000	99.338967 
3742.000000	99.343995 
3741.000000	99.366744 
3740.000000	99.376947 
3739.000000	99.369079 
3738.000000	99.359903 
3737.000000	99.361887 
3736.000000	99.371602 
3735.000000	99.380292 
3734.000000	99.386027 
3733.000000	99.389843 
3732.000000	99.389416 
3731.000000	99.385385 
3730.000000	99.385085 
3729.000000	99.392142 
3728.000000	99.401058 
3727.000000	99.404611 
3726.000000	99.401096 
3725.000000	99.395011 
3724.000000	99.391392 
3723.000000	99.389496 
3722.000000	99.386875 
3721.000000	99.385083 
3720.000000	99.387552 
3719.000000	99.393376 
3718.000000	99.396127 
3717.000000	99.389991 
3716.000000	99.375457 
3715.000000	99.358489 
3714.000000	99.344531 
3713.000000	99.336530 
3712.000000	99.334874 
3711.000000	99.337834 
3710.000000	99.344831 
3709.000000	99.355420 
3708.000000	99.365299 
3707.000000	99.369187 
3706.000000	99.365800 
3705.000000	99.358702 
3704.000000	99.352746 
3703.000000	99.350590 
3702.000000	99.351288 
3701.000000	99.352401 
3700.000000	99.354255 
3699.000000	99.357974 
3698.000000	99.359761 
3697.000000	99.353330 
3696.000000	99.338508 
3695.000000	99.322762 
3694.000000	99.312368 
3693.000000	99.305904 
3692.000000	99.299996 
3691.000000	99.296554 
3690.000000	99.298921 
3689.000000	99.303616 
3688.000000	99.304625 
3687.000000	99.305740 
3686.000000	99.314564 
3685.000000	99.327733 
3684.000000	99.335363 
3683.000000	99.334393 
3682.000000	99.328522 
3681.000000	99.319367 
3680.000000	99.303610 
3679.000000	99.282261 
3678.000000	99.267525 
3677.000000	99.271674 
3676.000000	99.287359 
3675.000000	99.289818 
3674.000000	99.277777 
3673.000000	99.276765 
3672.000000	99.291833 
3671.000000	99.306894 
3670.000000	99.309209 
3669.000000	99.296371 
3668.000000	99.282537 
3667.000000	99.281298 
3666.000000	99.288888 
3665.000000	99.297448 
3664.000000	99.304513 
3663.000000	99.309536 
3662.000000	99.310850 
3661.000000	99.307461 
3660.000000	99.301947 
3659.000000	99.299918 
3658.000000	99.304335 
3657.000000	99.310184 
3656.000000	99.308232 
3655.000000	99.298144 
3654.000000	99.290957 
3653.000000	99.291834 
3652.000000	99.296175 
3651.000000	99.300832 
3650.000000	99.304733 
3649.000000	99.304585 
3648.000000	99.301787 
3647.000000	99.302496 
3646.000000	99.309459 
3645.000000	99.321095 
3644.000000	99.333646 
3643.000000	99.343069 
3642.000000	99.347063 
3641.000000	99.346815 
3640.000000	99.346073 
3639.000000	99.348453 
3638.000000	99.355252 
3637.000000	99.366669 
3636.000000	99.380983 
3635.000000	99.391533 
3634.000000	99.390090 
3633.000000	99.376371 
3632.000000	99.361363 
3631.000000	99.357137 
3630.000000	99.364932 
3629.000000	99.369154 
3628.000000	99.356018 
3627.000000	99.342530 
3626.000000	99.349622 
3625.000000	99.368047 
3624.000000	99.380235 
3623.000000	99.382094 
3622.000000	99.378972 
3621.000000	99.376788 
3620.000000	99.377031 
3619.000000	99.376772 
3618.000000	99.374243 
3617.000000	99.372890 
3616.000000	99.375305 
3615.000000	99.378478 
3614.000000	99.377444 
3613.000000	99.369541 
3612.000000	99.356876 
3611.000000	99.345453 
3610.000000	99.340791 
3609.000000	99.344447 
3608.000000	99.353630 
3607.000000	99.363900 
3606.000000	99.372898 
3605.000000	99.380375 
3604.000000	99.386461 
3603.000000	99.391452 
3602.000000	99.394870 
3601.000000	99.395665 
3600.000000	99.394651 
3599.000000	99.394832 
3598.000000	99.397592 
3597.000000	99.400508 
3596.000000	99.400772 
3595.000000	99.397914 
3594.000000	99.393380 
3593.000000	99.389194 
3592.000000	99.387568 
3591.000000	99.389532 
3590.000000	99.394934 
3589.000000	99.401659 
3588.000000	99.404497 
3587.000000	99.398914 
3586.000000	99.388663 
3585.000000	99.382583 
3584.000000	99.383468 
3583.000000	99.387279 
3582.000000	99.389953 
3581.000000	99.390347 
3580.000000	99.388983 
3579.000000	99.386450 
3578.000000	99.382980 
3577.000000	99.378773 
3576.000000	99.374927 
3575.000000	99.372933 
3574.000000	99.373441 
3573.000000	99.375595 
3572.000000	99.377914 
3571.000000	99.379385 
3570.000000	99.379682 
3569.000000	99.378780 
3568.000000	99.376410 
3567.000000	99.372804 
3566.000000	99.370136 
3565.000000	99.371064 
3564.000000	99.374051 
3563.000000	99.374757 
3562.000000	99.372608 
3561.000000	99.371711 
3560.000000	99.375149 
3559.000000	99.380883 
3558.000000	99.384032 
3557.000000	99.382132 
3556.000000	99.377557 
3555.000000	99.375178 
3554.000000	99.377451 
3553.000000	99.381815 
3552.000000	99.383306 
3551.000000	99.380187 
3550.000000	99.375661 
3549.000000	99.374209 
3548.000000	99.377650 
3547.000000	99.384337 
3546.000000	99.390440 
3545.000000	99.392701 
3544.000000	99.390931 
3543.000000	99.387527 
3542.000000	99.384716 
3541.000000	99.382799 
3540.000000	99.380925 
3539.000000	99.378841 
3538.000000	99.376930 
3537.000000	99.374833 
3536.000000	99.371127 
3535.000000	99.365436 
3534.000000	99.359917 
3533.000000	99.357661 
3532.000000	99.359910 
3531.000000	99.365214 
3530.000000	99.370966 
3529.000000	99.375090 
3528.000000	99.377098 
3527.000000	99.378145 
3526.000000	99.380035 
3525.000000	99.383226 
3524.000000	99.386133 
3523.000000	99.386986 
3522.000000	99.386002 
3521.000000	99.384679 
3520.000000	99.383173 
3519.000000	99.379801 
3518.000000	99.373521 
3517.000000	99.366002 
3516.000000	99.360491 
3515.000000	99.359280 
3514.000000	99.362712 
3513.000000	99.369469 
3512.000000	99.376504 
3511.000000	99.379585 
3510.000000	99.376293 
3509.000000	99.368611 
3508.000000	99.361264 
3507.000000	99.357141 
3506.000000	99.355183 
3505.000000	99.352673 
3504.000000	99.348815 
3503.000000	99.345917 
3502.000000	99.347957 
3501.000000	99.357611 
3500.000000	99.373262 
3499.000000	99.388567 
3498.000000	99.396300 
3497.000000	99.394113 
3496.000000	99.386581 
3495.000000	99.380668 
3494.000000	99.379266 
3493.000000	99.379833 
3492.000000	99.378629 
3491.000000	99.374895 
3490.000000	99.370905 
3489.000000	99.368960 
3488.000000	99.369027 
3487.000000	99.369222 
3486.000000	99.368153 
3485.000000	99.366433 
3484.000000	99.365948 
3483.000000	99.367855 
3482.000000	99.371256 
3481.000000	99.373982 
3480.000000	99.374825 
3479.000000	99.374715 
3478.000000	99.375425 
3477.000000	99.377006 
3476.000000	99.376995 
3475.000000	99.372880 
3474.000000	99.365646 
3473.000000	99.359915 
3472.000000	99.359813 
3471.000000	99.365119 
3470.000000	99.372027 
3469.000000	99.376987 
3468.000000	99.378756 
3467.000000	99.377497 
3466.000000	99.373776 
3465.000000	99.368910 
3464.000000	99.364952 
3463.000000	99.363345 
3462.000000	99.363775 
3461.000000	99.364611 
3460.000000	99.364168 
3459.000000	99.361817 
3458.000000	99.358637 
3457.000000	99.356915 
3456.000000	99.357961 
3455.000000	99.360226 
3454.000000	99.360506 
3453.000000	99.357387 
3452.000000	99.352956 
3451.000000	99.351055 
3450.000000	99.354243 
3449.000000	99.361922 
3448.000000	99.370414 
3447.000000	99.374940 
3446.000000	99.373449 
3445.000000	99.369153 
3444.000000	99.367818 
3443.000000	99.371713 
3442.000000	99.376788 
3441.000000	99.376848 
3440.000000	99.370329 
3439.000000	99.361786 
3438.000000	99.356926 
3437.000000	99.357413 
3436.000000	99.360681 
3435.000000	99.363598 
3434.000000	99.365231 
3433.000000	99.366453 
3432.000000	99.368016 
3431.000000	99.369377 
3430.000000	99.368982 
3429.000000	99.365442 
3428.000000	99.358929 
3427.000000	99.351645 
3426.000000	99.346885 
3425.000000	99.347307 
3424.000000	99.353439 
3423.000000	99.362956 
3422.000000	99.371244 
3421.000000	99.373848 
3420.000000	99.369652 
3419.000000	99.361969 
3418.000000	99.356029 
3417.000000	99.355038 
3416.000000	99.358331 
3415.000000	99.362646 
3414.000000	99.364798 
3413.000000	99.363589 
3412.000000	99.359985 
3411.000000	99.355965 
3410.000000	99.353128 
3409.000000	99.351988 
3408.000000	99.352047 
3407.000000	99.352236 
3406.000000	99.351413 
3405.000000	99.349090 
3404.000000	99.346152 
3403.000000	99.344770 
3402.000000	99.347077 
3401.000000	99.353397 
3400.000000	99.361394 
3399.000000	99.367054 
3398.000000	99.367313 
3397.000000	99.362495 
3396.000000	99.356263 
3395.000000	99.352733 
3394.000000	99.353429 
3393.000000	99.356745 
3392.000000	99.359874 
3391.000000	99.361107 
3390.000000	99.360630 
3389.000000	99.359653 
3388.000000	99.358960 
3387.000000	99.358251 
3386.000000	99.356741 
3385.000000	99.354221 
3384.000000	99.351191 
3383.000000	99.348036 
3382.000000	99.344585 
3381.000000	99.340591 
3380.000000	99.336193 
3379.000000	99.331912 
3378.000000	99.328922 
3377.000000	99.329310 
3376.000000	99.334841 
3375.000000	99.344716 
3374.000000	99.355333 
3373.000000	99.362930 
3372.000000	99.366022 
3371.000000	99.365116 
3370.000000	99.361431 
3369.000000	99.356952 
3368.000000	99.354399 
3367.000000	99.355274 
3366.000000	99.358152 
3365.000000	99.360237 
3364.000000	99.360451 
3363.000000	99.359771 
3362.000000	99.358897 
3361.000000	99.357231 
3360.000000	99.354380 
3359.000000	99.351285 
3358.000000	99.349375 
3357.000000	99.349550 
3356.000000	99.352154 
3355.000000	99.356625 
3354.000000	99.360787 
3353.000000	99.362000 
3352.000000	99.360065 
3351.000000	99.358071 
3350.000000	99.359351 
3349.000000	99.364171 
3348.000000	99.370050 
3347.000000	99.374503 
3346.000000	99.376324 
3345.000000	99.374870 
3344.000000	99.369754 
3343.000000	99.361639 
3342.000000	99.352560 
3341.000000	99.345132 
3340.000000	99.341549 
3339.000000	99.342729 
3338.000000	99.347487 
3337.000000	99.352658 
3336.000000	99.355172 
3335.000000	99.354594 
3334.000000	99.353169 
3333.000000	99.353100 
3332.000000	99.354223 
3331.000000	99.354544 
3330.000000	99.352734 
3329.000000	99.349875 
3328.000000	99.349000 
3327.000000	99.352821 
3326.000000	99.361283 
3325.000000	99.371054 
3324.000000	99.377870 
3323.000000	99.379826 
3322.000000	99.378252 
3321.000000	99.375345 
3320.000000	99.371578 
3319.000000	99.366131 
3318.000000	99.359711 
3317.000000	99.355721 
3316.000000	99.357552 
3315.000000	99.364618 
3314.000000	99.371870 
3313.000000	99.374051 
3312.000000	99.370519 
3311.000000	99.365445 
3310.000000	99.363181 
3309.000000	99.364034 
3308.000000	99.365112 
3307.000000	99.364609 
3306.000000	99.363891 
3305.000000	99.364966 
3304.000000	99.367079 
3303.000000	99.367076 
3302.000000	99.363029 
3301.000000	99.356560 
3300.000000	99.351295 
3299.000000	99.349656 
3298.000000	99.351432 
3297.000000	99.354727 
3296.000000	99.357646 
3295.000000	99.359351 
3294.000000	99.360391 
3293.000000	99.362259 
3292.000000	99.366052 
3291.000000	99.371042 
3290.000000	99.374769 
3289.000000	99.374970 
3288.000000	99.371644 
3287.000000	99.367279 
3286.000000	99.365009 
3285.000000	99.366392 
3284.000000	99.370682 
3283.000000	99.375746 
3282.000000	99.379356 
3281.000000	99.379734 
3280.000000	99.375702 
3279.000000	99.367379 
3278.000000	99.357084 
3277.000000	99.348727 
3276.000000	99.345299 
3275.000000	99.346823 
3274.000000	99.351020 
3273.000000	99.355630 
3272.000000	99.359408 
3271.000000	99.361218 
3270.000000	99.359668 
3269.000000	99.354640 
3268.000000	99.348780 
3267.000000	99.346405 
3266.000000	99.350283 
3265.000000	99.359241 
3264.000000	99.368879 
3263.000000	99.374709 
3262.000000	99.375111 
3261.000000	99.371864 
3260.000000	99.368186 
3259.000000	99.366318 
3258.000000	99.366588 
3257.000000	99.367803 
3256.000000	99.368067 
3255.000000	99.366196 
3254.000000	99.363444 
3253.000000	99.363325 
3252.000000	99.368159 
3251.000000	99.375609 
3250.000000	99.380010 
3249.000000	99.377891 
3248.000000	99.371392 
3247.000000	99.365712 
3246.000000	99.364092 
3245.000000	99.365993 
3244.000000	99.369292 
3243.000000	99.372921 
3242.000000	99.377376 
3241.000000	99.383361 
3240.000000	99.389826 
3239.000000	99.393198 
3238.000000	99.389575 
3237.000000	99.378717 
3236.000000	99.365437 
3235.000000	99.356064 
3234.000000	99.353533 
3233.000000	99.356282 
3232.000000	99.361026 
3231.000000	99.365296 
3230.000000	99.367638 
3229.000000	99.367114 
3228.000000	99.363549 
3227.000000	99.357857 
3226.000000	99.351811 
3225.000000	99.347637 
3224.000000	99.347317 
3223.000000	99.351304 
3222.000000	99.357813 
3221.000000	99.364219 
3220.000000	99.369213 
3219.000000	99.372786 
3218.000000	99.374395 
3217.000000	99.372733 
3216.000000	99.368026 
3215.000000	99.363452 
3214.000000	99.362979 
3213.000000	99.367790 
3212.000000	99.375445 
3211.000000	99.382403 
3210.000000	99.386822 
3209.000000	99.389130 
3208.000000	99.390548 
3207.000000	99.391363 
3206.000000	99.390566 
3205.000000	99.387196 
3204.000000	99.381946 
3203.000000	99.377160 
3202.000000	99.375180 
3201.000000	99.376938 
3200.000000	99.381844 
3199.000000	99.388153 
3198.000000	99.393314 
3197.000000	99.395123 
3196.000000	99.393509 
3195.000000	99.390624 
3194.000000	99.388323 
3193.000000	99.386105 
3192.000000	99.382519 
3191.000000	99.378054 
3190.000000	99.375044 
3189.000000	99.374617 
3188.000000	99.375402 
3187.000000	99.375811 
3186.000000	99.376067 
3185.000000	99.376777 
3184.000000	99.376909 
3183.000000	99.375222 
3182.000000	99.373162 
3181.000000	99.373967 
3180.000000	99.378316 
3179.000000	99.382599 
3178.000000	99.382571 
3177.000000	99.377714 
3176.000000	99.371191 
3175.000000	99.366716 
3174.000000	99.366536 
3173.000000	99.371095 
3172.000000	99.378519 
3171.000000	99.384691 
3170.000000	99.385912 
3169.000000	99.382335 
3168.000000	99.377769 
3167.000000	99.375705 
3166.000000	99.376494 
3165.000000	99.378565 
3164.000000	99.380822 
3163.000000	99.382980 
3162.000000	99.384903 
3161.000000	99.387099 
3160.000000	99.391178 
3159.000000	99.398023 
3158.000000	99.405285 
3157.000000	99.408170 
3156.000000	99.403621 
3155.000000	99.393393 
3154.000000	99.382698 
3153.000000	99.376209 
3152.000000	99.375367 
3151.000000	99.378613 
3150.000000	99.383434 
3149.000000	99.388393 
3148.000000	99.393686 
3147.000000	99.399760 
3146.000000	99.405406 
3145.000000	99.407844 
3144.000000	99.405378 
3143.000000	99.399821 
3142.000000	99.395569 
3141.000000	99.395839 
3140.000000	99.399682 
3139.000000	99.402607 
3138.000000	99.400321 
3137.000000	99.392493 
3136.000000	99.383132 
3135.000000	99.376943 
3134.000000	99.375296 
3133.000000	99.376413 
3132.000000	99.379627 
3131.000000	99.387824 
3130.000000	99.403751 
3129.000000	99.424289 
3128.000000	99.440661 
3127.000000	99.445571 
3126.000000	99.439220 
3125.000000	99.427707 
3124.000000	99.417069 
3123.000000	99.410122 
3122.000000	99.407331 
3121.000000	99.407908 
3120.000000	99.409865 
3119.000000	99.410914 
3118.000000	99.410120 
3117.000000	99.407820 
3116.000000	99.403868 
3115.000000	99.397446 
3114.000000	99.389056 
3113.000000	99.381265 
3112.000000	99.376652 
3111.000000	99.376059 
3110.000000	99.379203 
3109.000000	99.385252 
3108.000000	99.391690 
3107.000000	99.394478 
3106.000000	99.391712 
3105.000000	99.386719 
3104.000000	99.385569 
3103.000000	99.391175 
3102.000000	99.400777 
3101.000000	99.409062 
3100.000000	99.412533 
3099.000000	99.410837 
3098.000000	99.405679 
3097.000000	99.399547 
3096.000000	99.394324 
3095.000000	99.390007 
3094.000000	99.385413 
3093.000000	99.380784 
3092.000000	99.378603 
3091.000000	99.380681 
3090.000000	99.385284 
3089.000000	99.388901 
3088.000000	99.390703 
3087.000000	99.393417 
3086.000000	99.399152 
3085.000000	99.405832 
3084.000000	99.409077 
3083.000000	99.406933 
3082.000000	99.401659 
3081.000000	99.397240 
3080.000000	99.396081 
3079.000000	99.397774 
3078.000000	99.399724 
3077.000000	99.398863 
3076.000000	99.394017 
3075.000000	99.387329 
3074.000000	99.382609 
3073.000000	99.381752 
3072.000000	99.383453 
3071.000000	99.385875 
3070.000000	99.389167 
3069.000000	99.394037 
3068.000000	99.398868 
3067.000000	99.400411 
3066.000000	99.397648 
3065.000000	99.393370 
3064.000000	99.391229 
3063.000000	99.392180 
3062.000000	99.394272 
3061.000000	99.394920 
3060.000000	99.392914 
3059.000000	99.389251 
3058.000000	99.386700 
3057.000000	99.387745 
3056.000000	99.392149 
3055.000000	99.397124 
3054.000000	99.400348 
3053.000000	99.401917 
3052.000000	99.402912 
3051.000000	99.403297 
3050.000000	99.402172 
3049.000000	99.399011 
3048.000000	99.393536 
3047.000000	99.385463 
3046.000000	99.375975 
3045.000000	99.368553 
3044.000000	99.366118 
3043.000000	99.367401 
3042.000000	99.367989 
3041.000000	99.365292 
3040.000000	99.360993 
3039.000000	99.358406 
3038.000000	99.359039 
3037.000000	99.362187 
3036.000000	99.366278 
3035.000000	99.369726 
3034.000000	99.371581 
3033.000000	99.372200 
3032.000000	99.372372 
3031.000000	99.371164 
3030.000000	99.365805 
3029.000000	99.354656 
3028.000000	99.339621 
3027.000000	99.324895 
3026.000000	99.313724 
3025.000000	99.306662 
3024.000000	99.302266 
3023.000000	99.298797 
3022.000000	99.295501 
3021.000000	99.292504 
3020.000000	99.289457 
3019.000000	99.284882 
3018.000000	99.277918 
3017.000000	99.270351 
3016.000000	99.265195 
3015.000000	99.262836 
3014.000000	99.260099 
3013.000000	99.253643 
3012.000000	99.242660 
3011.000000	99.227655 
3010.000000	99.209042 
3009.000000	99.188919 
3008.000000	99.172295 
3007.000000	99.163347 
3006.000000	99.160336 
3005.000000	99.156518 
3004.000000	99.146895 
3003.000000	99.132790 
3002.000000	99.119387 
3001.000000	99.110243 
3000.000000	99.104950 
2999.000000	99.100912 
2998.000000	99.096152 
2997.000000	99.090803 
2996.000000	99.086644 
2995.000000	99.084909 
2994.000000	99.083855 
2993.000000	99.078710 
2992.000000	99.065125 
2991.000000	99.043534 
2990.000000	99.020120 
2989.000000	99.002622 
2988.000000	98.994410 
2987.000000	98.992740 
2986.000000	98.993044 
2985.000000	98.994308 
2984.000000	98.999032 
2983.000000	99.008185 
2982.000000	99.018263 
2981.000000	99.024427 
2980.000000	99.025422 
2979.000000	99.023760 
2978.000000	99.021713 
2977.000000	99.019017 
2976.000000	99.014686 
2975.000000	99.009344 
2974.000000	99.004672 
2973.000000	99.001338 
2972.000000	98.998535 
2971.000000	98.995455 
2970.000000	98.992596 
2969.000000	98.991394 
2968.000000	98.992802 
2967.000000	98.996395 
2966.000000	99.000956 
2965.000000	99.005811 
2964.000000	99.011245 
2963.000000	99.017635 
2962.000000	99.024731 
2961.000000	99.031998 
2960.000000	99.039043 
2959.000000	99.045263 
2958.000000	99.049876 
2957.000000	99.053132 
2956.000000	99.056834 
2955.000000	99.062377 
2954.000000	99.068554 
2953.000000	99.072952 
2952.000000	99.075798 
2951.000000	99.080683 
2950.000000	99.090096 
2949.000000	99.101191 
2948.000000	99.107725 
2947.000000	99.106313 
2946.000000	99.099641 
2945.000000	99.093201 
2944.000000	99.090054 
2943.000000	99.089456 
2942.000000	99.089401 
2941.000000	99.088796 
2940.000000	99.087004 
2939.000000	99.082961 
2938.000000	99.076062 
2937.000000	99.067670 
2936.000000	99.060744 
2935.000000	99.057599 
2934.000000	99.058156 
2933.000000	99.060204 
2932.000000	99.061101 
2931.000000	99.059439 
2930.000000	99.055557 
2929.000000	99.050463 
2928.000000	99.044289 
2927.000000	99.036405 
2926.000000	99.027477 
2925.000000	99.020611 
2924.000000	99.019258 
2923.000000	99.023941 
2922.000000	99.031798 
2921.000000	99.039196 
2920.000000	99.043980 
2919.000000	99.045563 
2918.000000	99.044404 
2917.000000	99.041991 
2916.000000	99.040407 
2915.000000	99.041158 
2914.000000	99.044612 
2913.000000	99.050463 
2912.000000	99.057824 
2911.000000	99.064806 
2910.000000	99.069227 
2909.000000	99.070532 
2908.000000	99.070332 
2907.000000	99.070396 
2906.000000	99.070648 
2905.000000	99.069573 
2904.000000	99.065933 
2903.000000	99.059848 
2902.000000	99.053206 
2901.000000	99.049575 
2900.000000	99.052220 
2899.000000	99.060841 
2898.000000	99.070895 
2897.000000	99.077686 
2896.000000	99.081092 
2895.000000	99.085014 
2894.000000	99.092371 
2893.000000	99.101930 
2892.000000	99.110315 
2891.000000	99.115720 
2890.000000	99.118856 
2889.000000	99.121174 
2888.000000	99.123301 
2887.000000	99.125169 
2886.000000	99.126878 
2885.000000	99.129021 
2884.000000	99.132240 
2883.000000	99.136660 
2882.000000	99.141994 
2881.000000	99.148323 
2880.000000	99.156662 
2879.000000	99.168418 
2878.000000	99.183773 
2877.000000	99.200109 
2876.000000	99.212117 
2875.000000	99.214678 
2874.000000	99.207085 
2873.000000	99.194694 
2872.000000	99.185296 
2871.000000	99.183070 
2870.000000	99.186428 
2869.000000	99.191539 
2868.000000	99.196728 
2867.000000	99.202853 
2866.000000	99.210777 
2865.000000	99.220002 
2864.000000	99.229243 
2863.000000	99.236854 
2862.000000	99.240876 
2861.000000	99.240286 
2860.000000	99.236759 
2859.000000	99.234019 
2858.000000	99.234545 
2857.000000	99.237423 
2856.000000	99.239987 
2855.000000	99.241212 
2854.000000	99.242846 
2853.000000	99.247258 
2852.000000	99.254858 
2851.000000	99.264041 
2850.000000	99.273401 
2849.000000	99.283244 
2848.000000	99.294476 
2847.000000	99.306496 
2846.000000	99.316985 
2845.000000	99.323914 
2844.000000	99.327310 
2843.000000	99.329054 
2842.000000	99.331454 
2841.000000	99.335856 
2840.000000	99.341770 
2839.000000	99.347107 
2838.000000	99.349906 
2837.000000	99.350103 
2836.000000	99.349048 
2835.000000	99.347499 
2834.000000	99.345207 
2833.000000	99.342648 
2832.000000	99.341755 
2831.000000	99.344123 
2830.000000	99.349487 
2829.000000	99.356709 
2828.000000	99.365085 
2827.000000	99.373546 
2826.000000	99.379662 
2825.000000	99.381345 
2824.000000	99.379546 
2823.000000	99.378005 
2822.000000	99.379934 
2821.000000	99.385390 
2820.000000	99.391672 
2819.000000	99.395697 
2818.000000	99.396379 
2817.000000	99.395449 
2816.000000	99.395756 
2815.000000	99.398220 
2814.000000	99.400714 
2813.000000	99.400379 
2812.000000	99.396538 
2811.000000	99.390859 
2810.000000	99.385493 
2809.000000	99.381892 
2808.000000	99.380604 
2807.000000	99.380939 
2806.000000	99.381243 
2805.000000	99.380704 
2804.000000	99.380697 
2803.000000	99.383342 
2802.000000	99.388950 
2801.000000	99.395707 
2800.000000	99.401438 
2799.000000	99.404767 
2798.000000	99.405244 
2797.000000	99.403763 
2796.000000	99.402541 
2795.000000	99.403127 
2794.000000	99.404403 
2793.000000	99.403793 
2792.000000	99.400484 
2791.000000	99.396463 
2790.000000	99.394559 
2789.000000	99.396576 
2788.000000	99.402700 
2787.000000	99.410884 
2786.000000	99.416949 
2785.000000	99.417455 
2784.000000	99.413272 
2783.000000	99.408646 
2782.000000	99.406190 
2781.000000	99.404463 
2780.000000	99.401443 
2779.000000	99.398552 
2778.000000	99.399393 
2777.000000	99.405176 
2776.000000	99.412865 
2775.000000	99.417802 
2774.000000	99.417381 
2773.000000	99.412562 
2772.000000	99.406708 
2771.000000	99.403072 
2770.000000	99.402966 
2769.000000	99.405878 
2768.000000	99.410615 
2767.000000	99.415580 
2766.000000	99.418606 
2765.000000	99.418278 
2764.000000	99.415862 
2763.000000	99.414636 
2762.000000	99.416534 
2761.000000	99.420380 
2760.000000	99.423866 
2759.000000	99.426046 
2758.000000	99.426934 
2757.000000	99.425687 
2756.000000	99.420500 
2755.000000	99.410242 
2754.000000	99.395925 
2753.000000	99.381321 
2752.000000	99.372268 
2751.000000	99.373611 
2750.000000	99.385201 
2749.000000	99.401238 
2748.000000	99.414611 
2747.000000	99.421640 
2746.000000	99.422572 
2745.000000	99.419277 
2744.000000	99.414118 
2743.000000	99.409820 
2742.000000	99.407946 
2741.000000	99.407386 
2740.000000	99.406140 
2739.000000	99.404743 
2738.000000	99.406186 
2737.000000	99.411932 
2736.000000	99.419543 
2735.000000	99.425088 
2734.000000	99.426749 
2733.000000	99.425338 
2732.000000	99.422456 
2731.000000	99.419379 
2730.000000	99.417154 
2729.000000	99.416512 
2728.000000	99.417522 
2727.000000	99.419769 
2726.000000	99.422707 
2725.000000	99.425642 
2724.000000	99.427927 
2723.000000	99.429697 
2722.000000	99.431883 
2721.000000	99.434814 
2720.000000	99.437226 
2719.000000	99.437467 
2718.000000	99.435404 
2717.000000	99.432359 
2716.000000	99.429590 
2715.000000	99.427910 
2714.000000	99.428477 
2713.000000	99.432168 
2712.000000	99.437571 
2711.000000	99.441192 
2710.000000	99.441044 
2709.000000	99.439069 
2708.000000	99.438511 
2707.000000	99.439420 
2706.000000	99.438581 
2705.000000	99.434064 
2704.000000	99.428163 
2703.000000	99.424972 
2702.000000	99.426059 
2701.000000	99.429361 
2700.000000	99.431629 
2699.000000	99.431053 
2698.000000	99.427901 
2697.000000	99.423581 
2696.000000	99.419420 
2695.000000	99.416231 
2694.000000	99.414892 
2693.000000	99.416524 
2692.000000	99.420968 
2691.000000	99.425320 
2690.000000	99.425783 
2689.000000	99.421982 
2688.000000	99.418131 
2687.000000	99.418505 
2686.000000	99.422465 
2685.000000	99.425348 
2684.000000	99.423869 
2683.000000	99.419283 
2682.000000	99.415416 
2681.000000	99.415034 
2680.000000	99.418275 
2679.000000	99.423242 
2678.000000	99.427467 
2677.000000	99.429525 
2676.000000	99.429758 
2675.000000	99.429296 
2674.000000	99.428704 
2673.000000	99.428245 
2672.000000	99.428798 
2671.000000	99.430974 
2670.000000	99.433207 
2669.000000	99.432329 
2668.000000	99.427023 
2667.000000	99.419898 
2666.000000	99.415349 
2665.000000	99.415729 
2664.000000	99.419899 
2663.000000	99.424776 
2662.000000	99.427694 
2661.000000	99.427874 
2660.000000	99.426411 
2659.000000	99.424871 
2658.000000	99.423777 
2657.000000	99.422760 
2656.000000	99.422092 
2655.000000	99.423030 
2654.000000	99.425914 
2653.000000	99.428531 
2652.000000	99.427564 
2651.000000	99.422099 
2650.000000	99.415310 
2649.000000	99.412141 
2648.000000	99.414995 
2647.000000	99.421766 
2646.000000	99.428371 
2645.000000	99.433056 
2644.000000	99.437259 
2643.000000	99.441953 
2642.000000	99.444638 
2641.000000	99.441634 
2640.000000	99.432935 
2639.000000	99.422961 
2638.000000	99.416336 
2637.000000	99.414249 
2636.000000	99.415043 
2635.000000	99.416660 
2634.000000	99.417838 
2633.000000	99.418425 
2632.000000	99.419654 
2631.000000	99.423337 
2630.000000	99.429944 
2629.000000	99.437878 
2628.000000	99.444776 
2627.000000	99.448814 
2626.000000	99.448984 
2625.000000	99.445743 
2624.000000	99.441637 
2623.000000	99.439425 
2622.000000	99.438693 
2621.000000	99.436044 
2620.000000	99.429717 
2619.000000	99.422369 
2618.000000	99.418030 
2617.000000	99.417916 
2616.000000	99.420842 
2615.000000	99.425959 
2614.000000	99.432572 
2613.000000	99.438120 
2612.000000	99.439191 
2611.000000	99.435014 
2610.000000	99.428340 
2609.000000	99.422619 
2608.000000	99.419657 
2607.000000	99.420017 
2606.000000	99.423981 
2605.000000	99.431160 
2604.000000	99.439857 
2603.000000	99.447566 
2602.000000	99.452256 
2601.000000	99.453500 
2600.000000	99.452645 
2599.000000	99.451570 
2598.000000	99.451112 
2597.000000	99.451175 
2596.000000	99.451982 
2595.000000	99.453575 
2594.000000	99.453851 
2593.000000	99.449461 
2592.000000	99.440272 
2591.000000	99.431070 
2590.000000	99.426621 
2589.000000	99.426323 
2588.000000	99.426106 
2587.000000	99.424473 
2586.000000	99.423543 
2585.000000	99.424495 
2584.000000	99.425463 
2583.000000	99.424984 
2582.000000	99.424616 
2581.000000	99.426070 
2580.000000	99.427464 
2579.000000	99.424822 
2578.000000	99.417261 
2577.000000	99.409422 
2576.000000	99.408192 
2575.000000	99.416796 
2574.000000	99.431540 
2573.000000	99.444195 
2572.000000	99.448198 
2571.000000	99.443118 
2570.000000	99.433582 
2569.000000	99.424830 
2568.000000	99.419736 
2567.000000	99.418661 
2566.000000	99.420191 
2565.000000	99.422037 
2564.000000	99.422661 
2563.000000	99.422283 
2562.000000	99.421507 
2561.000000	99.419576 
2560.000000	99.415552 
2559.000000	99.410839 
2558.000000	99.408372 
2557.000000	99.408846 
2556.000000	99.409694 
2555.000000	99.408847 
2554.000000	99.408014 
2553.000000	99.410884 
2552.000000	99.418810 
2551.000000	99.429278 
2550.000000	99.438111 
2549.000000	99.442473 
2548.000000	99.442263 
2547.000000	99.439526 
2546.000000	99.436772 
2545.000000	99.435735 
2544.000000	99.437443 
2543.000000	99.442439 
2542.000000	99.449759 
2541.000000	99.456063 
2540.000000	99.457235 
2539.000000	99.451284 
2538.000000	99.439180 
2537.000000	99.423423 
2536.000000	99.407209 
2535.000000	99.394561 
2534.000000	99.388812 
2533.000000	99.389738 
2532.000000	99.393549 
2531.000000	99.396934 
2530.000000	99.400477 
2529.000000	99.407363 
2528.000000	99.419380 
2527.000000	99.434481 
2526.000000	99.447395 
2525.000000	99.452748 
2524.000000	99.449485 
2523.000000	99.443025 
2522.000000	99.441228 
2521.000000	99.446833 
2520.000000	99.455172 
2519.000000	99.460544 
2518.000000	99.462917 
2517.000000	99.466033 
2516.000000	99.470304 
2515.000000	99.471115 
2514.000000	99.464897 
2513.000000	99.454285 
2512.000000	99.445400 
2511.000000	99.440954 
2510.000000	99.437635 
2509.000000	99.430547 
2508.000000	99.419609 
2507.000000	99.410865 
2506.000000	99.410772 
2505.000000	99.418983 
2504.000000	99.427592 
2503.000000	99.428389 
2502.000000	99.420471 
2501.000000	99.410259 
2500.000000	99.405230 
2499.000000	99.408837 
2498.000000	99.420188 
2497.000000	99.435641 
2496.000000	99.449964 
2495.000000	99.458367 
2494.000000	99.459371 
2493.000000	99.455188 
2492.000000	99.448589 
2491.000000	99.440454 
2490.000000	99.431181 
2489.000000	99.422843 
2488.000000	99.417788 
2487.000000	99.415580 
2486.000000	99.413582 
2485.000000	99.411095 
2484.000000	99.411079 
2483.000000	99.416380 
2482.000000	99.425046 
2481.000000	99.430805 
2480.000000	99.428554 
2479.000000	99.419038 
2478.000000	99.408453 
2477.000000	99.403989 
2476.000000	99.409121 
2475.000000	99.421646 
2474.000000	99.435471 
2473.000000	99.445273 
2472.000000	99.450797 
2471.000000	99.456495 
2470.000000	99.465870 
2469.000000	99.476051 
2468.000000	99.479172 
2467.000000	99.469908 
2466.000000	99.451041 
2465.000000	99.431246 
2464.000000	99.418147 
2463.000000	99.413816 
2462.000000	99.415234 
2461.000000	99.417258 
2460.000000	99.416173 
2459.000000	99.412812 
2458.000000	99.412257 
2457.000000	99.418112 
2456.000000	99.426669 
2455.000000	99.429338 
2454.000000	99.422259 
2453.000000	99.411328 
2452.000000	99.405774 
2451.000000	99.408438 
2450.000000	99.414706 
2449.000000	99.419471 
2448.000000	99.422071 
2447.000000	99.424802 
2446.000000	99.429560 
2445.000000	99.436319 
2444.000000	99.442541 
2443.000000	99.444052 
2442.000000	99.439313 
2441.000000	99.433332 
2440.000000	99.433945 
2439.000000	99.442593 
2438.000000	99.451720 
2437.000000	99.453594 
2436.000000	99.448910 
2435.000000	99.443494 
2434.000000	99.438953 
2433.000000	99.431364 
2432.000000	99.418852 
2431.000000	99.405709 
2430.000000	99.397644 
2429.000000	99.396560 
2428.000000	99.401935 
2427.000000	99.413641 
2426.000000	99.429488 
2425.000000	99.441764 
2424.000000	99.441302 
2423.000000	99.426807 
2422.000000	99.407844 
2421.000000	99.396738 
2420.000000	99.398148 
2419.000000	99.407368 
2418.000000	99.417241 
2417.000000	99.424509 
2416.000000	99.429486 
2415.000000	99.432110 
2414.000000	99.430706 
2413.000000	99.424704 
2412.000000	99.416874 
2411.000000	99.411599 
2410.000000	99.411002 
2409.000000	99.413319 
2408.000000	99.414925 
2407.000000	99.413576 
2406.000000	99.409849 
2405.000000	99.406274 
2404.000000	99.405384 
2403.000000	99.408018 
2402.000000	99.412763 
2401.000000	99.416935 
2400.000000	99.418575 
2399.000000	99.417885 
2398.000000	99.416852 
2397.000000	99.417442 
2396.000000	99.420078 
2395.000000	99.423690 
2394.000000	99.426924 
2393.000000	99.429095 
2392.000000	99.430169 
2391.000000	99.430475 
2390.000000	99.430906 
2389.000000	99.433017 
2388.000000	99.437890 
2387.000000	99.444379 
2386.000000	99.448941 
2385.000000	99.448090 
2384.000000	99.441474 
2383.000000	99.432474 
2382.000000	99.425613 
2381.000000	99.422996 
2380.000000	99.422599 
2379.000000	99.419723 
2378.000000	99.410774 
2377.000000	99.396962 
2376.000000	99.384956 
2375.000000	99.382809 
2374.000000	99.393510 
2373.000000	99.411494 
2372.000000	99.426700 
2371.000000	99.433852 
2370.000000	99.437344 
2369.000000	99.445095 
2368.000000	99.457608 
2367.000000	99.465888 
2366.000000	99.461973 
2365.000000	99.449089 
2364.000000	99.438370 
2363.000000	99.436290 
2362.000000	99.439421 
2361.000000	99.441482 
2360.000000	99.440246 
2359.000000	99.437713 
2358.000000	99.437880 
2357.000000	99.444457 
2356.000000	99.458527 
2355.000000	99.474731 
2354.000000	99.484272 
2353.000000	99.482927 
2352.000000	99.474466 
2351.000000	99.465778 
2350.000000	99.458594 
2349.000000	99.449778 
2348.000000	99.437192 
2347.000000	99.423759 
2346.000000	99.416540 
2345.000000	99.418994 
2344.000000	99.428632 
2343.000000	99.439328 
2342.000000	99.446487 
2341.000000	99.449233 
2340.000000	99.449322 
2339.000000	99.449773 
2338.000000	99.451589 
2337.000000	99.454069 
2336.000000	99.455342 
2335.000000	99.454384 
2334.000000	99.451301 
2333.000000	99.449058 
2332.000000	99.450318 
2331.000000	99.454828 
2330.000000	99.456673 
2329.000000	99.451470 
2328.000000	99.441439 
2327.000000	99.434036 
2326.000000	99.434730 
2325.000000	99.442154 
2324.000000	99.451966 
2323.000000	99.461646 
2322.000000	99.472240 
2321.000000	99.485021 
2320.000000	99.497269 
2319.000000	99.504013 
2318.000000	99.501488 
2317.000000	99.491707 
2316.000000	99.479601 
2315.000000	99.469351 
2314.000000	99.461187 
2313.000000	99.455154 
2312.000000	99.453237 
2311.000000	99.458327 
2310.000000	99.469277 
2309.000000	99.480708 
2308.000000	99.486646 
2307.000000	99.484906 
2306.000000	99.476995 
2305.000000	99.465961 
2304.000000	99.453939 
2303.000000	99.442346 
2302.000000	99.432989 
2301.000000	99.428876 
2300.000000	99.430883 
2299.000000	99.434937 
2298.000000	99.434460 
2297.000000	99.428360 
2296.000000	99.422993 
2295.000000	99.423994 
2294.000000	99.428249 
2293.000000	99.428219 
2292.000000	99.422579 
2291.000000	99.417246 
2290.000000	99.416355 
2289.000000	99.417484 
2288.000000	99.417424 
2287.000000	99.416767 
2286.000000	99.415979 
2285.000000	99.411418 
2284.000000	99.399932 
2283.000000	99.384435 
2282.000000	99.370921 
2281.000000	99.361951 
2280.000000	99.356989 
2279.000000	99.357125 
2278.000000	99.364555 
2277.000000	99.378021 
2276.000000	99.392751 
2275.000000	99.404965 
2274.000000	99.412857 
2273.000000	99.413922 
2272.000000	99.405675 
2271.000000	99.390101 
2270.000000	99.374392 
2269.000000	99.366032 
2268.000000	99.368451 
2267.000000	99.380669 
2266.000000	99.397885 
2265.000000	99.412109 
2264.000000	99.415969 
2263.000000	99.408504 
2262.000000	99.396865 
2261.000000	99.391319 
2260.000000	99.397394 
2259.000000	99.410146 
2258.000000	99.415480 
2257.000000	99.402134 
2256.000000	99.377339 
2255.000000	99.366821 
2254.000000	99.390660 
2253.000000	99.438437 
2252.000000	99.476333 
2251.000000	99.481629 
2250.000000	99.463286 
2249.000000	99.445685 
2248.000000	99.439754 
2247.000000	99.437335 
2246.000000	99.428198 
2245.000000	99.411817 
2244.000000	99.392579 
2243.000000	99.373330 
2242.000000	99.357827 
2241.000000	99.352436 
2240.000000	99.359050 
2239.000000	99.369038 
2238.000000	99.369391 
2237.000000	99.354675 
2236.000000	99.330865 
2235.000000	99.308760 
2234.000000	99.296123 
2233.000000	99.294843 
2232.000000	99.302260 
2231.000000	99.314404 
2230.000000	99.328674 
2229.000000	99.343537 
2228.000000	99.356754 
2227.000000	99.366582 
2226.000000	99.374696 
2225.000000	99.383927 
2224.000000	99.391480 
2223.000000	99.389362 
2222.000000	99.375644 
2221.000000	99.361005 
2220.000000	99.357485 
2219.000000	99.363181 
2218.000000	99.365872 
2217.000000	99.361493 
2216.000000	99.360525 
2215.000000	99.372761 
2214.000000	99.392467 
2213.000000	99.403704 
2212.000000	99.397189 
2211.000000	99.378362 
2210.000000	99.361584 
2209.000000	99.359146 
2208.000000	99.372370 
2207.000000	99.390043 
2206.000000	99.397537 
2205.000000	99.389938 
2204.000000	99.374940 
2203.000000	99.363015 
2202.000000	99.359393 
2201.000000	99.365570 
2200.000000	99.380127 
2199.000000	99.393524 
2198.000000	99.390233 
2197.000000	99.365456 
2196.000000	99.336479 
2195.000000	99.328248 
2194.000000	99.347637 
2193.000000	99.377329 
2192.000000	99.394399 
2191.000000	99.390272 
2190.000000	99.374041 
2189.000000	99.362541 
2188.000000	99.366678 
2187.000000	99.382433 
2186.000000	99.395594 
2185.000000	99.398528 
2184.000000	99.399237 
2183.000000	99.408225 
2182.000000	99.420646 
2181.000000	99.420825 
2180.000000	99.403158 
2179.000000	99.378363 
2178.000000	99.358732 
2177.000000	99.346728 
2176.000000	99.339460 
2175.000000	99.335740 
2174.000000	99.335013 
2173.000000	99.335354 
2172.000000	99.336306 
2171.000000	99.339837 
2170.000000	99.346597 
2169.000000	99.354573 
2168.000000	99.361745 
2167.000000	99.365920 
2166.000000	99.362507 
2165.000000	99.348463 
2164.000000	99.329139 
2163.000000	99.315478 
2162.000000	99.313982 
2161.000000	99.324060 
2160.000000	99.342708 
2159.000000	99.363771 
2158.000000	99.375161 
2157.000000	99.369111 
2156.000000	99.354670 
2155.000000	99.348129 
2154.000000	99.352624 
2153.000000	99.357136 
2152.000000	99.354421 
2151.000000	99.349652 
2150.000000	99.350213 
2149.000000	99.356809 
2148.000000	99.366925 
2147.000000	99.377861 
2146.000000	99.383455 
2145.000000	99.377291 
2144.000000	99.363300 
2143.000000	99.354443 
2142.000000	99.356722 
2141.000000	99.362425 
2140.000000	99.363358 
2139.000000	99.362481 
2138.000000	99.366396 
2137.000000	99.373342 
2136.000000	99.375749 
2135.000000	99.370626 
2134.000000	99.361974 
2133.000000	99.355968 
2132.000000	99.356088 
2131.000000	99.357755 
2130.000000	99.346236 
2129.000000	99.308766 
2128.000000	99.254419 
2127.000000	99.213985 
2126.000000	99.211841 
2125.000000	99.241995 
2124.000000	99.278787 
2123.000000	99.306225 
2122.000000	99.326636 
2121.000000	99.344424 
2120.000000	99.355459 
2119.000000	99.355760 
2118.000000	99.350179 
2117.000000	99.346051 
2116.000000	99.344053 
2115.000000	99.341401 
2114.000000	99.340391 
2113.000000	99.347168 
2112.000000	99.362178 
2111.000000	99.376678 
2110.000000	99.380902 
2109.000000	99.374449 
2108.000000	99.367115 
2107.000000	99.368657 
2106.000000	99.377720 
2105.000000	99.381890 
2104.000000	99.369865 
2103.000000	99.343255 
2102.000000	99.315483 
2101.000000	99.299776 
2100.000000	99.299044 
2099.000000	99.306464 
2098.000000	99.314003 
2097.000000	99.319996 
2096.000000	99.328883 
2095.000000	99.343212 
2094.000000	99.356669 
2093.000000	99.358461 
2092.000000	99.346265 
2091.000000	99.331432 
2090.000000	99.327918 
2089.000000	99.337231 
2088.000000	99.347487 
2087.000000	99.347155 
2086.000000	99.336174 
2085.000000	99.323249 
2084.000000	99.315784 
2083.000000	99.314684 
2082.000000	99.317238 
2081.000000	99.321778 
2080.000000	99.328337 
2079.000000	99.335947 
2078.000000	99.341744 
2077.000000	99.344278 
2076.000000	99.346443 
2075.000000	99.352520 
2074.000000	99.362340 
2073.000000	99.371255 
2072.000000	99.376002 
2071.000000	99.377098 
2070.000000	99.375101 
2069.000000	99.369084 
2068.000000	99.360885 
2067.000000	99.356169 
2066.000000	99.357561 
2065.000000	99.359863 
2064.000000	99.356268 
2063.000000	99.347179 
2062.000000	99.339165 
2061.000000	99.337943 
2060.000000	99.345896 
2059.000000	99.363045 
2058.000000	99.384882 
2057.000000	99.401003 
2056.000000	99.402241 
2055.000000	99.389736 
2054.000000	99.372601 
2053.000000	99.356728 
2052.000000	99.340536 
2051.000000	99.322549 
2050.000000	99.308496 
2049.000000	99.307505 
2048.000000	99.322010 
2047.000000	99.344021 
2046.000000	99.361666 
2045.000000	99.368442 
2044.000000	99.367037 
2043.000000	99.364983 
2042.000000	99.366616 
2041.000000	99.369927 
2040.000000	99.370767 
2039.000000	99.367034 
2038.000000	99.357396 
2037.000000	99.340576 
2036.000000	99.320043 
2035.000000	99.305908 
2034.000000	99.305777 
2033.000000	99.314022 
2032.000000	99.316158 
2031.000000	99.305396 
2030.000000	99.289693 
2029.000000	99.280467 
2028.000000	99.278007 
2027.000000	99.272425 
2026.000000	99.258808 
2025.000000	99.246822 
2024.000000	99.250653 
2023.000000	99.269307 
2022.000000	99.283141 
2021.000000	99.274392 
2020.000000	99.248481 
2019.000000	99.228390 
2018.000000	99.229304 
2017.000000	99.245305 
2016.000000	99.261596 
2015.000000	99.271959 
2014.000000	99.278938 
2013.000000	99.284143 
2012.000000	99.285663 
2011.000000	99.282688 
2010.000000	99.278750 
2009.000000	99.281442 
2008.000000	99.298655 
2007.000000	99.330879 
2006.000000	99.367336 
2005.000000	99.395433 
2004.000000	99.413645 
2003.000000	99.426992 
2002.000000	99.431720 
2001.000000	99.415784 
2000.000000	99.377283 
1999.000000	99.330500 
1998.000000	99.288714 
1997.000000	99.253389 
1996.000000	99.226124 
1995.000000	99.219022 
1994.000000	99.241024 
1993.000000	99.279767 
1992.000000	99.309564 
1991.000000	99.317695 
1990.000000	99.311643 
1989.000000	99.303253 
1988.000000	99.298922 
1987.000000	99.301466 
1986.000000	99.308067 
1985.000000	99.307793 
1984.000000	99.293652 
1983.000000	99.277050 
1982.000000	99.278306 
1981.000000	99.300545 
1980.000000	99.324174 
1979.000000	99.330427 
1978.000000	99.320186 
1977.000000	99.305884 
1976.000000	99.294000 
1975.000000	99.283131 
1974.000000	99.271900 
1973.000000	99.261723 
1972.000000	99.255983 
1971.000000	99.259395 
1970.000000	99.272878 
1969.000000	99.287592 
1968.000000	99.291134 
1967.000000	99.283294 
1966.000000	99.278850 
1965.000000	99.290386 
1964.000000	99.314559 
1963.000000	99.338261 
1962.000000	99.351272 
1961.000000	99.350814 
1960.000000	99.340713 
1959.000000	99.330012 
1958.000000	99.328182 
1957.000000	99.336951 
1956.000000	99.348433 
1955.000000	99.353815 
1954.000000	99.351565 
1953.000000	99.345505 
1952.000000	99.337280 
1951.000000	99.324510 
1950.000000	99.306489 
1949.000000	99.288481 
1948.000000	99.279147 
1947.000000	99.282160 
1946.000000	99.290030 
1945.000000	99.289190 
1944.000000	99.274167 
1943.000000	99.255223 
1942.000000	99.247904 
1941.000000	99.255802 
1940.000000	99.269856 
1939.000000	99.282364 
1938.000000	99.293873 
1937.000000	99.307549 
1936.000000	99.323687 
1935.000000	99.340810 
1934.000000	99.356927 
1933.000000	99.368230 
1932.000000	99.370701 
1931.000000	99.365579 
1930.000000	99.359593 
1929.000000	99.356823 
1928.000000	99.355156 
1927.000000	99.351463 
1926.000000	99.346763 
1925.000000	99.343470 
1924.000000	99.340108 
1923.000000	99.334420 
1922.000000	99.328625 
1921.000000	99.327711 
1920.000000	99.332867 
1919.000000	99.339924 
1918.000000	99.343433 
1917.000000	99.341987 
1916.000000	99.339363 
1915.000000	99.339605 
1914.000000	99.343158 
1913.000000	99.348321 
1912.000000	99.353657 
1911.000000	99.358181 
1910.000000	99.359160 
1909.000000	99.353151 
1908.000000	99.342559 
1907.000000	99.335662 
1906.000000	99.337182 
1905.000000	99.341782 
1904.000000	99.340255 
1903.000000	99.332612 
1902.000000	99.327697 
1901.000000	99.330920 
1900.000000	99.338643 
1899.000000	99.344786 
1898.000000	99.347830 
1897.000000	99.349547 
1896.000000	99.350485 
1895.000000	99.350647 
1894.000000	99.351202 
1893.000000	99.353314 
1892.000000	99.356934 
1891.000000	99.361386 
1890.000000	99.364538 
1889.000000	99.362100 
1888.000000	99.352136 
1887.000000	99.338955 
1886.000000	99.329465 
1885.000000	99.327136 
1884.000000	99.330531 
1883.000000	99.337303 
1882.000000	99.345111 
1881.000000	99.347098 
1880.000000	99.333295 
1879.000000	99.300943 
1878.000000	99.262746 
1877.000000	99.241389 
1876.000000	99.251747 
1875.000000	99.289031 
1874.000000	99.334140 
1873.000000	99.368602 
1872.000000	99.386111 
1871.000000	99.391673 
1870.000000	99.391619 
1869.000000	99.386584 
1868.000000	99.376340 
1867.000000	99.366864 
1866.000000	99.363999 
1865.000000	99.365575 
1864.000000	99.364723 
1863.000000	99.357875 
1862.000000	99.347721 
1861.000000	99.339243 
1860.000000	99.335574 
1859.000000	99.337720 
1858.000000	99.344689 
1857.000000	99.352959 
1856.000000	99.359005 
1855.000000	99.363174 
1854.000000	99.368138 
1853.000000	99.373097 
1852.000000	99.374658 
1851.000000	99.372754 
1850.000000	99.371420 
1849.000000	99.374649 
1848.000000	99.380937 
1847.000000	99.384764 
1846.000000	99.382021 
1845.000000	99.374392 
1844.000000	99.368800 
1843.000000	99.371417 
1842.000000	99.380448 
1841.000000	99.387055 
1840.000000	99.385715 
1839.000000	99.378594 
1838.000000	99.371935 
1837.000000	99.369875 
1836.000000	99.371475 
1835.000000	99.374234 
1834.000000	99.376391 
1833.000000	99.376522 
1832.000000	99.373864 
1831.000000	99.368941 
1830.000000	99.363790 
1829.000000	99.362173 
1828.000000	99.365714 
1827.000000	99.370610 
1826.000000	99.371790 
1825.000000	99.368289 
1824.000000	99.363534 
1823.000000	99.361635 
1822.000000	99.362379 
1821.000000	99.362409 
1820.000000	99.361018 
1819.000000	99.362054 
1818.000000	99.369203 
1817.000000	99.378534 
1816.000000	99.380736 
1815.000000	99.373835 
1814.000000	99.365850 
1813.000000	99.364955 
1812.000000	99.370635 
1811.000000	99.376584 
1810.000000	99.380879 
1809.000000	99.385135 
1808.000000	99.388160 
1807.000000	99.387201 
1806.000000	99.382616 
1805.000000	99.377648 
1804.000000	99.374503 
1803.000000	99.372789 
1802.000000	99.369594 
1801.000000	99.361796 
1800.000000	99.350096 
1799.000000	99.339989 
1798.000000	99.338191 
1797.000000	99.345531 
1796.000000	99.356982 
1795.000000	99.367190 
1794.000000	99.373760 
1793.000000	99.376123 
1792.000000	99.374294 
1791.000000	99.371186 
1790.000000	99.371399 
1789.000000	99.374353 
1788.000000	99.376724 
1787.000000	99.377346 
1786.000000	99.377595 
1785.000000	99.378524 
1784.000000	99.379972 
1783.000000	99.382305 
1782.000000	99.384330 
1781.000000	99.383448 
1780.000000	99.379049 
1779.000000	99.373240 
1778.000000	99.370045 
1777.000000	99.370531 
1776.000000	99.373471 
1775.000000	99.376629 
1774.000000	99.377857 
1773.000000	99.376710 
1772.000000	99.374326 
1771.000000	99.373409 
1770.000000	99.375905 
1769.000000	99.379521 
1768.000000	99.380501 
1767.000000	99.376920 
1766.000000	99.370094 
1765.000000	99.363109 
1764.000000	99.358340 
1763.000000	99.356691 
1762.000000	99.356969 
1761.000000	99.358079 
1760.000000	99.360638 
1759.000000	99.364321 
1758.000000	99.368502 
1757.000000	99.371625 
1756.000000	99.373171 
1755.000000	99.374452 
1754.000000	99.377858 
1753.000000	99.385908 
1752.000000	99.397859 
1751.000000	99.404281 
1750.000000	99.395772 
1749.000000	99.376107 
1748.000000	99.357163 
1747.000000	99.347761 
1746.000000	99.346969 
1745.000000	99.349462 
1744.000000	99.351244 
1743.000000	99.350917 
1742.000000	99.350241 
1741.000000	99.351119 
1740.000000	99.352350 
1739.000000	99.352137 
1738.000000	99.352563 
1737.000000	99.354622 
1736.000000	99.356823 
1735.000000	99.358667 
1734.000000	99.358171 
1733.000000	99.357036 
1732.000000	99.361113 
1731.000000	99.364993 
1730.000000	99.364291 
1729.000000	99.361611 
1728.000000	99.361073 
1727.000000	99.362816 
1726.000000	99.363358 
1725.000000	99.361683 
1724.000000	99.359023 
1723.000000	99.356018 
1722.000000	99.353494 
1721.000000	99.351883 
1720.000000	99.352800 
1719.000000	99.359091 
1718.000000	99.369612 
1717.000000	99.375624 
1716.000000	99.372738 
1715.000000	99.366767 
1714.000000	99.364157 
1713.000000	99.365866 
1712.000000	99.368781 
1711.000000	99.371744 
1710.000000	99.375611 
1709.000000	99.379461 
1708.000000	99.380875 
1707.000000	99.378135 
1706.000000	99.371176 
1705.000000	99.361615 
1704.000000	99.353726 
1703.000000	99.351283 
1702.000000	99.355029 
1701.000000	99.361712 
1700.000000	99.359743 
1699.000000	99.353280 
1698.000000	99.358234 
1697.000000	99.369733 
1696.000000	99.376836 
1695.000000	99.374919 
1694.000000	99.371486 
1693.000000	99.369812 
1692.000000	99.366708 
1691.000000	99.362985 
1690.000000	99.360948 
1689.000000	99.360621 
1688.000000	99.362508 
1687.000000	99.366919 
1686.000000	99.374375 
1685.000000	99.382596 
1684.000000	99.380173 
1683.000000	99.371260 
1682.000000	99.370456 
1681.000000	99.371222 
1680.000000	99.368489 
1679.000000	99.363809 
1678.000000	99.359726 
1677.000000	99.358267 
1676.000000	99.360451 
1675.000000	99.363509 
1674.000000	99.364931 
1673.000000	99.366998 
1672.000000	99.370185 
1671.000000	99.372773 
1670.000000	99.372236 
1669.000000	99.367077 
1668.000000	99.362819 
1667.000000	99.362240 
1666.000000	99.361772 
1665.000000	99.359880 
1664.000000	99.358390 
1663.000000	99.359031 
1662.000000	99.360810 
1661.000000	99.362512 
1660.000000	99.364711 
1659.000000	99.366244 
1658.000000	99.364775 
1657.000000	99.359393 
1656.000000	99.352071 
1655.000000	99.346472 
1654.000000	99.348186 
1653.000000	99.351890 
1652.000000	99.354684 
1651.000000	99.366079 
1650.000000	99.371585 
1649.000000	99.368724 
1648.000000	99.365792 
1647.000000	99.365405 
1646.000000	99.364056 
1645.000000	99.364148 
1644.000000	99.366078 
1643.000000	99.367375 
1642.000000	99.366633 
1641.000000	99.363152 
1640.000000	99.358787 
1639.000000	99.356218 
1638.000000	99.357402 
1637.000000	99.362625 
1636.000000	99.368625 
1635.000000	99.370944 
1634.000000	99.371934 
1633.000000	99.372513 
1632.000000	99.368712 
1631.000000	99.362420 
1630.000000	99.357418 
1629.000000	99.355450 
1628.000000	99.356574 
1627.000000	99.360506 
1626.000000	99.364675 
1625.000000	99.365341 
1624.000000	99.362154 
1623.000000	99.358613 
1622.000000	99.358415 
1621.000000	99.361175 
1620.000000	99.363834 
1619.000000	99.364594 
1618.000000	99.364224 
1617.000000	99.362672 
1616.000000	99.361464 
1615.000000	99.365523 
1614.000000	99.373248 
1613.000000	99.379063 
1612.000000	99.381913 
1611.000000	99.383515 
1610.000000	99.383905 
1609.000000	99.382638 
1608.000000	99.381682 
1607.000000	99.382900 
1606.000000	99.384190 
1605.000000	99.382673 
1604.000000	99.380024 
1603.000000	99.379483 
1602.000000	99.382350 
1601.000000	99.387593 
1600.000000	99.393239 
1599.000000	99.397008 
1598.000000	99.397361 
1597.000000	99.395251 
1596.000000	99.392747 
1595.000000	99.390183 
1594.000000	99.386509 
1593.000000	99.382523 
1592.000000	99.381343 
1591.000000	99.384284 
1590.000000	99.388572 
1589.000000	99.391015 
1588.000000	99.392101 
1587.000000	99.393863 
1586.000000	99.395904 
1585.000000	99.396031 
1584.000000	99.395058 
1583.000000	99.395095 
1582.000000	99.394386 
1581.000000	99.390531 
1580.000000	99.385026 
1579.000000	99.381037 
1578.000000	99.379207 
1577.000000	99.377942 
1576.000000	99.374056 
1575.000000	99.369105 
1574.000000	99.366536 
1573.000000	99.364222 
1572.000000	99.361611 
1571.000000	99.361241 
1570.000000	99.363146 
1569.000000	99.364968 
1568.000000	99.369127 
1567.000000	99.375851 
1566.000000	99.380757 
1565.000000	99.381816 
1564.000000	99.380185 
1563.000000	99.376490 
1562.000000	99.369874 
1561.000000	99.362257 
1560.000000	99.364813 
1559.000000	99.372325 
1558.000000	99.369172 
1557.000000	99.371558 
1556.000000	99.377795 
1555.000000	99.382306 
1554.000000	99.384396 
1553.000000	99.384245 
1552.000000	99.383104 
1551.000000	99.381040 
1550.000000	99.378527 
1549.000000	99.376246 
1548.000000	99.374567 
1547.000000	99.372461 
1546.000000	99.367002 
1545.000000	99.357262 
1544.000000	99.346753 
1543.000000	99.342349 
1542.000000	99.349323 
1541.000000	99.365806 
1540.000000	99.377821 
1539.000000	99.378772 
1538.000000	99.378702 
1537.000000	99.379577 
1536.000000	99.378566 
1535.000000	99.378488 
1534.000000	99.379701 
1533.000000	99.378036 
1532.000000	99.374324 
1531.000000	99.371969 
1530.000000	99.371327 
1529.000000	99.371049 
1528.000000	99.369670 
1527.000000	99.367805 
1526.000000	99.367312 
1525.000000	99.369125 
1524.000000	99.372895 
1523.000000	99.378791 
1522.000000	99.387113 
1521.000000	99.393395 
1520.000000	99.393764 
1519.000000	99.387872 
1518.000000	99.376257 
1517.000000	99.364297 
1516.000000	99.358059 
1515.000000	99.359100 
1514.000000	99.363660 
1513.000000	99.368113 
1512.000000	99.370455 
1511.000000	99.368348 
1510.000000	99.362789 
1509.000000	99.358570 
1508.000000	99.362819 
1507.000000	99.372144 
1506.000000	99.374635 
1505.000000	99.373093 
1504.000000	99.372816 
1503.000000	99.372942 
1502.000000	99.373711 
1501.000000	99.374422 
1500.000000	99.373960 
1499.000000	99.373957 
1498.000000	99.377552 
1497.000000	99.383656 
1496.000000	99.385908 
1495.000000	99.384101 
1494.000000	99.383806 
1493.000000	99.386352 
1492.000000	99.389588 
1491.000000	99.391616 
1490.000000	99.391923 
1489.000000	99.390438 
1488.000000	99.386296 
1487.000000	99.379933 
1486.000000	99.373967 
1485.000000	99.368070 
1484.000000	99.361790 
1483.000000	99.356334 
1482.000000	99.352950 
1481.000000	99.352044 
1480.000000	99.352565 
1479.000000	99.354160 
1478.000000	99.356060 
1477.000000	99.355923 
1476.000000	99.351450 
1475.000000	99.346231 
1474.000000	99.346688 
1473.000000	99.352767 
1472.000000	99.357326 
1471.000000	99.356861 
1470.000000	99.354080 
1469.000000	99.350273 
1468.000000	99.345875 
1467.000000	99.342509 
1466.000000	99.341918 
1465.000000	99.342830 
1464.000000	99.343051 
1463.000000	99.342124 
1462.000000	99.340671 
1461.000000	99.338471 
1460.000000	99.334718 
1459.000000	99.328575 
1458.000000	99.319621 
1457.000000	99.308986 
1456.000000	99.301726 
1455.000000	99.301266 
1454.000000	99.302727 
1453.000000	99.305076 
1452.000000	99.310490 
1451.000000	99.317840 
1450.000000	99.324202 
1449.000000	99.327887 
1448.000000	99.328413 
1447.000000	99.327447 
1446.000000	99.327009 
1445.000000	99.327544 
1444.000000	99.329207 
1443.000000	99.331616 
1442.000000	99.335512 
1441.000000	99.340677 
1440.000000	99.344782 
1439.000000	99.345022 
1438.000000	99.342990 
1437.000000	99.343051 
1436.000000	99.344733 
1435.000000	99.344066 
1434.000000	99.339120 
1433.000000	99.331793 
1432.000000	99.325700 
1431.000000	99.322417 
1430.000000	99.320770 
1429.000000	99.319713 
1428.000000	99.318230 
1427.000000	99.316262 
1426.000000	99.314296 
1425.000000	99.313771 
1424.000000	99.315699 
1423.000000	99.317377 
1422.000000	99.316222 
1421.000000	99.312294 
1420.000000	99.306872 
1419.000000	99.298447 
1418.000000	99.286998 
1417.000000	99.276262 
1416.000000	99.266053 
1415.000000	99.254792 
1414.000000	99.243406 
1413.000000	99.234374 
1412.000000	99.228629 
1411.000000	99.223485 
1410.000000	99.215942 
1409.000000	99.206595 
1408.000000	99.198411 
1407.000000	99.194935 
1406.000000	99.197779 
1405.000000	99.205312 
1404.000000	99.214466 
1403.000000	99.222646 
1402.000000	99.230324 
1401.000000	99.240026 
1400.000000	99.252616 
1399.000000	99.263473 
1398.000000	99.265110 
1397.000000	99.253336 
1396.000000	99.230067 
1395.000000	99.205912 
1394.000000	99.195362 
1393.000000	99.204202 
1392.000000	99.224534 
1391.000000	99.244169 
1390.000000	99.256766 
1389.000000	99.261841 
1388.000000	99.260124 
1387.000000	99.252550 
1386.000000	99.243016 
1385.000000	99.236430 
1384.000000	99.234053 
1383.000000	99.232964 
1382.000000	99.230093 
1381.000000	99.225368 
1380.000000	99.221655 
1379.000000	99.222795 
1378.000000	99.230746 
1377.000000	99.243767 
1376.000000	99.256813 
1375.000000	99.264643 
1374.000000	99.266311 
1373.000000	99.267211 
1372.000000	99.272831 
1371.000000	99.282613 
1370.000000	99.291773 
1369.000000	99.296624 
1368.000000	99.297873 
1367.000000	99.298686 
1366.000000	99.301832 
1365.000000	99.308311 
1364.000000	99.317231 
1363.000000	99.325880 
1362.000000	99.331652 
1361.000000	99.334217 
1360.000000	99.334780 
1359.000000	99.334914 
1358.000000	99.336612 
1357.000000	99.341448 
1356.000000	99.348587 
1355.000000	99.354644 
1354.000000	99.357183 
1353.000000	99.357218 
1352.000000	99.356593 
1351.000000	99.355442 
1350.000000	99.352915 
1349.000000	99.349916 
1348.000000	99.349185 
1347.000000	99.351428 
1346.000000	99.354695 
1345.000000	99.357062 
1344.000000	99.358365 
1343.000000	99.358840 
1342.000000	99.358507 
1341.000000	99.358352 
1340.000000	99.360276 
1339.000000	99.364501 
1338.000000	99.368718 
1337.000000	99.370842 
1336.000000	99.370920 
1335.000000	99.369968 
1334.000000	99.368703 
1333.000000	99.367603 
1332.000000	99.366576 
1331.000000	99.364167 
1330.000000	99.358886 
1329.000000	99.352214 
1328.000000	99.348322 
1327.000000	99.349549 
1326.000000	99.353535 
1325.000000	99.356506 
1324.000000	99.357785 
1323.000000	99.358837 
1322.000000	99.360009 
1321.000000	99.360575 
1320.000000	99.361280 
1319.000000	99.364003 
1318.000000	99.368562 
1317.000000	99.371952 
1316.000000	99.371818 
1315.000000	99.369352 
1314.000000	99.367862 
1313.000000	99.369099 
1312.000000	99.371550 
1311.000000	99.372235 
1310.000000	99.369663 
1309.000000	99.365148 
1308.000000	99.361565 
1307.000000	99.360940 
1306.000000	99.362801 
1305.000000	99.365139 
1304.000000	99.366952 
1303.000000	99.368993 
1302.000000	99.371999 
1301.000000	99.374749 
1300.000000	99.375101 
1299.000000	99.372891 
1298.000000	99.370644 
1297.000000	99.370568 
1296.000000	99.371959 
1295.000000	99.372728 
1294.000000	99.372487 
1293.000000	99.372332 
1292.000000	99.372058 
1291.000000	99.370111 
1290.000000	99.366801 
1289.000000	99.365004 
1288.000000	99.366188 
1287.000000	99.367764 
1286.000000	99.366423 
1285.000000	99.362608 
1284.000000	99.359225 
1283.000000	99.357046 
1282.000000	99.354212 
1281.000000	99.350030 
1280.000000	99.346448 
1279.000000	99.344814 
1278.000000	99.343462 
1277.000000	99.340185 
1276.000000	99.335620 
1275.000000	99.332440 
1274.000000	99.331705 
1273.000000	99.331479 
1272.000000	99.328964 
1271.000000	99.323091 
1270.000000	99.315040 
1269.000000	99.306973 
1268.000000	99.300552 
1267.000000	99.296178 
1266.000000	99.293152 
1265.000000	99.290394 
1264.000000	99.286895 
1263.000000	99.281846 
1262.000000	99.275093 
1261.000000	99.267645 
1260.000000	99.261199 
1259.000000	99.256558 
1258.000000	99.252997 
1257.000000	99.250044 
1256.000000	99.249472 
1255.000000	99.254090 
1254.000000	99.263570 
1253.000000	99.272422 
1252.000000	99.274009 
1251.000000	99.267327 
1250.000000	99.258740 
1249.000000	99.255992 
1248.000000	99.261238 
1247.000000	99.270523 
1246.000000	99.278272 
1245.000000	99.280241 
1244.000000	99.273796 
1243.000000	99.259883 
1242.000000	99.245690 
1241.000000	99.241044 
1240.000000	99.249096 
1239.000000	99.262555 
1238.000000	99.271643 
1237.000000	99.273979 
1236.000000	99.273948 
1235.000000	99.274622 
1234.000000	99.274617 
1233.000000	99.272139 
1232.000000	99.267552 
1231.000000	99.261167 
1230.000000	99.252597 
1229.000000	99.244054 
1228.000000	99.240821 
1227.000000	99.245632 
1226.000000	99.254426 
1225.000000	99.260484 
1224.000000	99.261852 
1223.000000	99.262368 
1222.000000	99.265920 
1221.000000	99.272087 
1220.000000	99.277809 
1219.000000	99.281478 
1218.000000	99.284233 
1217.000000	99.287837 
1216.000000	99.292260 
1215.000000	99.295791 
1214.000000	99.297205 
1213.000000	99.297107 
1212.000000	99.296843 
1211.000000	99.297075 
1210.000000	99.298401 
1209.000000	99.302501 
1208.000000	99.310871 
1207.000000	99.322249 
1206.000000	99.332772 
1205.000000	99.339172 
1204.000000	99.340846 
1203.000000	99.338896 
1202.000000	99.334880 
1201.000000	99.331081 
1200.000000	99.330322 
1199.000000	99.333917 
1198.000000	99.340063 
1197.000000	99.345077 
1196.000000	99.346061 
1195.000000	99.342514 
1194.000000	99.336431 
1193.000000	99.331206 
1192.000000	99.329241 
1191.000000	99.329688 
1190.000000	99.329113 
1189.000000	99.325145 
1188.000000	99.319073 
1187.000000	99.314598 
1186.000000	99.314780 
1185.000000	99.320311 
1184.000000	99.329253 
1183.000000	99.337431 
1182.000000	99.340531 
1181.000000	99.337799 
1180.000000	99.333348 
1179.000000	99.332303 
1178.000000	99.335589 
1177.000000	99.339569 
1176.000000	99.340479 
1175.000000	99.337755 
1174.000000	99.332967 
1173.000000	99.327228 
1172.000000	99.320839 
1171.000000	99.314703 
1170.000000	99.310733 
1169.000000	99.310469 
1168.000000	99.313479 
1167.000000	99.317227 
1166.000000	99.318877 
1165.000000	99.317717 
1164.000000	99.315592 
1163.000000	99.314427 
1162.000000	99.313776 
1161.000000	99.312062 
1160.000000	99.310206 
1159.000000	99.311967 
1158.000000	99.318976 
1157.000000	99.326597 
1156.000000	99.327220 
1155.000000	99.318453 
1154.000000	99.306677 
1153.000000	99.301267 
1152.000000	99.305751 
1151.000000	99.315239 
1150.000000	99.321805 
1149.000000	99.321397 
1148.000000	99.315790 
1147.000000	99.309374 
1146.000000	99.305025 
1145.000000	99.302525 
1144.000000	99.299895 
1143.000000	99.295786 
1142.000000	99.290927 
1141.000000	99.287755 
1140.000000	99.288602 
1139.000000	99.293664 
1138.000000	99.300261 
1137.000000	99.304436 
1136.000000	99.304002 
1135.000000	99.300325 
1134.000000	99.296806 
1133.000000	99.295403 
1132.000000	99.294860 
1131.000000	99.292173 
1130.000000	99.285109 
1129.000000	99.273330 
1128.000000	99.258330 
1127.000000	99.243322 
1126.000000	99.232311 
1125.000000	99.227574 
1124.000000	99.227653 
1123.000000	99.228636 
1122.000000	99.227911 
1121.000000	99.226274 
1120.000000	99.225993 
1119.000000	99.227241 
1118.000000	99.227171 
1117.000000	99.222785 
1116.000000	99.214429 
1115.000000	99.205995 
1114.000000	99.201467 
1113.000000	99.201518 
1112.000000	99.203558 
1111.000000	99.204177 
1110.000000	99.200674 
1109.000000	99.191513 
1108.000000	99.177596 
1107.000000	99.163275 
1106.000000	99.153345 
1105.000000	99.147483 
1104.000000	99.139962 
1103.000000	99.126909 
1102.000000	99.112020 
1101.000000	99.102473 
1100.000000	99.100369 
1099.000000	99.101413 
1098.000000	99.101371 
1097.000000	99.100103 
1096.000000	99.098687 
1095.000000	99.095845 
1094.000000	99.089199 
1093.000000	99.077917 
1092.000000	99.062400 
1091.000000	99.043083 
1090.000000	99.021129 
1089.000000	98.998789 
1088.000000	98.977476 
1087.000000	98.956731 
1086.000000	98.936513 
1085.000000	98.918989 
1084.000000	98.906020 
1083.000000	98.895759 
1082.000000	98.883964 
1081.000000	98.868359 
1080.000000	98.849760 
1079.000000	98.829306 
1078.000000	98.807286 
1077.000000	98.785580 
1076.000000	98.769100 
1075.000000	98.762870 
1074.000000	98.768077 
1073.000000	98.781467 
1072.000000	98.796913 
1071.000000	98.806199 
1070.000000	98.800850 
1069.000000	98.777906 
1068.000000	98.745617 
1067.000000	98.720887 
1066.000000	98.717322 
1065.000000	98.734736 
1064.000000	98.761213 
1063.000000	98.784153 
1062.000000	98.797251 
1061.000000	98.798497 
1060.000000	98.787051 
1059.000000	98.765774 
1058.000000	98.743879 
1057.000000	98.731713 
1056.000000	98.732069 
1055.000000	98.739077 
1054.000000	98.745644 
1053.000000	98.749580 
1052.000000	98.752520 
1051.000000	98.756203 
1050.000000	98.761169 
1049.000000	98.766323 
1048.000000	98.768482 
1047.000000	98.765354 
1046.000000	98.760349 
1045.000000	98.761223 
1044.000000	98.771945 
1043.000000	98.788182 
1042.000000	98.802735 
1041.000000	98.813374 
1040.000000	98.823111 
1039.000000	98.835154 
1038.000000	98.850848 
1037.000000	98.870879 
1036.000000	98.894775 
1035.000000	98.919572 
1034.000000	98.941686 
1033.000000	98.959401 
1032.000000	98.971107 
1031.000000	98.973004 
1030.000000	98.963063 
1029.000000	98.947324 
1028.000000	98.938235 
1027.000000	98.944871 
1026.000000	98.965943 
1025.000000	98.992172 
1024.000000	99.013183 
1023.000000	99.022783 
1022.000000	99.021913 
1021.000000	99.018131 
1020.000000	99.019547 
1019.000000	99.027492 
1018.000000	99.036468 
1017.000000	99.041713 
1016.000000	99.044519 
1015.000000	99.049228 
1014.000000	99.057574 
1013.000000	99.067720 
1012.000000	99.077039 
1011.000000	99.083930 
1010.000000	99.088214 
1009.000000	99.091673 
1008.000000	99.097563 
1007.000000	99.107877 
1006.000000	99.121024 
1005.000000	99.133189 
1004.000000	99.142137 
1003.000000	99.149299 
1002.000000	99.158172 
1001.000000	99.170639 
1000.000000	99.184582 
999.000000	 99.195275 
998.000000	 99.199654 
997.000000	 99.199044 
996.000000	 99.197376 
995.000000	 99.197548 
994.000000	 99.200284 
993.000000	 99.205374 
992.000000	 99.212090 
991.000000	 99.218475 
990.000000	 99.222027 
989.000000	 99.221692 
988.000000	 99.218377 
987.000000	 99.213922 
986.000000	 99.210833 
985.000000	 99.212339 
984.000000	 99.220250 
983.000000	 99.232012 
982.000000	 99.241637 
981.000000	 99.244746 
980.000000	 99.241956 
979.000000	 99.237264 
978.000000	 99.234641 
977.000000	 99.236346 
976.000000	 99.242278 
975.000000	 99.249431 
974.000000	 99.253601 
973.000000	 99.253822 
972.000000	 99.254575 
971.000000	 99.261613 
970.000000	 99.275228 
969.000000	 99.288995 
968.000000	 99.295878 
967.000000	 99.294831 
966.000000	 99.290733 
965.000000	 99.288374 
964.000000	 99.287905 
963.000000	 99.286810 
962.000000	 99.285017 
961.000000	 99.285943 
960.000000	 99.291989 
959.000000	 99.300689 
958.000000	 99.306830 
957.000000	 99.307836 
956.000000	 99.305822 
955.000000	 99.304643 
954.000000	 99.306123 
953.000000	 99.309183 
952.000000	 99.311662 
951.000000	 99.312512 
950.000000	 99.312386 
949.000000	 99.312182 
948.000000	 99.311332 
947.000000	 99.308403 
946.000000	 99.303471 
945.000000	 99.298665 
944.000000	 99.295928 
943.000000	 99.295667 
942.000000	 99.298244 
941.000000	 99.304630 
940.000000	 99.313583 
939.000000	 99.319781 
938.000000	 99.317898 
937.000000	 99.308732 
936.000000	 99.299161 
935.000000	 99.295656 
934.000000	 99.299235 
933.000000	 99.306652 
932.000000	 99.314340 
931.000000	 99.320140 
930.000000	 99.322616 
929.000000	 99.320366 
928.000000	 99.312486 
927.000000	 99.300003 
926.000000	 99.286762 
925.000000	 99.277777 
924.000000	 99.275815 
923.000000	 99.280015 
922.000000	 99.288062 
921.000000	 99.298260 
920.000000	 99.308376 
919.000000	 99.314350 
918.000000	 99.312946 
917.000000	 99.305282 
916.000000	 99.295586 
915.000000	 99.286694 
914.000000	 99.278677 
913.000000	 99.271471 
912.000000	 99.266363 
911.000000	 99.264409 
910.000000	 99.265485 
909.000000	 99.269613 
908.000000	 99.277379 
907.000000	 99.287960 
906.000000	 99.297899 
905.000000	 99.302872 
904.000000	 99.300460 
903.000000	 99.291701 
902.000000	 99.281095 
901.000000	 99.274535 
900.000000	 99.275354 
899.000000	 99.281723 
898.000000	 99.288355 
897.000000	 99.290558 
896.000000	 99.286214 
895.000000	 99.275643 
894.000000	 99.262034 
893.000000	 99.251119 
892.000000	 99.247470 
891.000000	 99.250525 
890.000000	 99.256001 
889.000000	 99.261266 
888.000000	 99.267182 
887.000000	 99.274817 
886.000000	 99.283302 
885.000000	 99.291737 
884.000000	 99.300182 
883.000000	 99.306947 
882.000000	 99.307493 
881.000000	 99.299289 
880.000000	 99.287443 
879.000000	 99.283165 
878.000000	 99.295104 
877.000000	 99.321643 
876.000000	 99.350926 
875.000000	 99.368239 
874.000000	 99.365309 
873.000000	 99.344950 
872.000000	 99.317713 
871.000000	 99.293915 
870.000000	 99.278100 
869.000000	 99.270063 
868.000000	 99.269792 
867.000000	 99.279322 
866.000000	 99.298532 
865.000000	 99.320723 
864.000000	 99.335831 
863.000000	 99.339557 
862.000000	 99.336988 
861.000000	 99.335138 
860.000000	 99.334788 
859.000000	 99.333398 
858.000000	 99.332894 
857.000000	 99.337987 
856.000000	 99.347444 
855.000000	 99.354418 
854.000000	 99.356923 
853.000000	 99.360462 
852.000000	 99.366878 
851.000000	 99.368280 
850.000000	 99.358197 
849.000000	 99.343081 
848.000000	 99.335502 
847.000000	 99.339576 
846.000000	 99.349779 
845.000000	 99.360955 
844.000000	 99.371846 
843.000000	 99.380372 
842.000000	 99.383237 
841.000000	 99.380411 
840.000000	 99.374281 
839.000000	 99.365125 
838.000000	 99.353146 
837.000000	 99.343566 
836.000000	 99.342540 
835.000000	 99.347895 
834.000000	 99.351047 
833.000000	 99.349419 
832.000000	 99.349960 
831.000000	 99.357789 
830.000000	 99.367576 
829.000000	 99.370242 
828.000000	 99.363813 
827.000000	 99.353857 
826.000000	 99.346576 
825.000000	 99.344804 
824.000000	 99.348091 
823.000000	 99.353820 
822.000000	 99.359885 
821.000000	 99.366696 
820.000000	 99.374061 
819.000000	 99.377875 
818.000000	 99.374871 
817.000000	 99.369824 
816.000000	 99.372089 
815.000000	 99.383625 
814.000000	 99.395479 
813.000000	 99.398467 
812.000000	 99.393108 
811.000000	 99.386371 
810.000000	 99.382296 
809.000000	 99.379055 
808.000000	 99.373187 
807.000000	 99.364046 
806.000000	 99.354395 
805.000000	 99.347121 
804.000000	 99.341138 
803.000000	 99.332461 
802.000000	 99.321384 
801.000000	 99.315588 
800.000000	 99.321615 
799.000000	 99.335515 
798.000000	 99.347546 
797.000000	 99.354466 
796.000000	 99.360198 
795.000000	 99.365484 
794.000000	 99.365710 
793.000000	 99.360301 
792.000000	 99.355683 
791.000000	 99.355668 
790.000000	 99.356199 
789.000000	 99.353434 
788.000000	 99.350027 
787.000000	 99.348524 
786.000000	 99.344721 
785.000000	 99.333619 
784.000000	 99.317661 
783.000000	 99.303503 
782.000000	 99.294099 
781.000000	 99.289017 
780.000000	 99.289022 
779.000000	 99.294232 
778.000000	 99.299812 
777.000000	 99.299508 
776.000000	 99.293320 
775.000000	 99.287551 
774.000000	 99.287150 
773.000000	 99.290997 
772.000000	 99.294813 
771.000000	 99.296555 
770.000000	 99.298940 
769.000000	 99.307166 
768.000000	 99.322849 
767.000000	 99.340336 
766.000000	 99.351988 
765.000000	 99.357834 
764.000000	 99.366065 
763.000000	 99.381680 
762.000000	 99.397691 
761.000000	 99.400588 
760.000000	 99.383870 
759.000000	 99.355717 
758.000000	 99.334486 
757.000000	 99.334789 
756.000000	 99.353910 
755.000000	 99.372564 
754.000000	 99.373859 
753.000000	 99.360986 
752.000000	 99.350528 
751.000000	 99.350167 
750.000000	 99.351945 
749.000000	 99.348018 
748.000000	 99.341850 
747.000000	 99.338717 
746.000000	 99.335669 
745.000000	 99.329209 
744.000000	 99.325146 
743.000000	 99.331307 
742.000000	 99.345257 
741.000000	 99.358381 
740.000000	 99.368469 
739.000000	 99.379037 
738.000000	 99.388178 
737.000000	 99.387112 
736.000000	 99.370841 
735.000000	 99.344756 
734.000000	 99.320377 
733.000000	 99.308060 
732.000000	 99.311994 
731.000000	 99.327176 
730.000000	 99.342124 
729.000000	 99.349096 
728.000000	 99.350881 
727.000000	 99.354520 
726.000000	 99.361042 
725.000000	 99.365522 
724.000000	 99.364177 
723.000000	 99.356681 
722.000000	 99.344805 
721.000000	 99.334187 
720.000000	 99.334107 
719.000000	 99.348375 
718.000000	 99.368160 
717.000000	 99.379824 
716.000000	 99.377724 
715.000000	 99.365317 
714.000000	 99.348399 
713.000000	 99.333567 
712.000000	 99.329297 
711.000000	 99.339399 
710.000000	 99.356179 
709.000000	 99.367417 
708.000000	 99.369134 
707.000000	 99.364747 
706.000000	 99.353833 
705.000000	 99.331941 
704.000000	 99.302881 
703.000000	 99.281611 
702.000000	 99.280870 
701.000000	 99.299898 
700.000000	 99.327519 
699.000000	 99.351627 
698.000000	 99.365567 
697.000000	 99.370623 
696.000000	 99.372928 
695.000000	 99.374351 
694.000000	 99.369179 
693.000000	 99.354985 
692.000000	 99.342227 
691.000000	 99.344477 
690.000000	 99.361261 
689.000000	 99.379923 
688.000000	 99.392387 
687.000000	 99.398587 
686.000000	 99.395268 
685.000000	 99.376755 
684.000000	 99.349004 
683.000000	 99.328976 
682.000000	 99.325868 
681.000000	 99.333162 
680.000000	 99.340685 
679.000000	 99.343482 
678.000000	 99.337121 
677.000000	 99.318962 
676.000000	 99.300934 
675.000000	 99.302617 
674.000000	 99.323214 
673.000000	 99.335692 
672.000000	 99.318005 
671.000000	 99.282039 
670.000000	 99.263773 
669.000000	 99.299057 
668.000000	 99.375472 
667.000000	 99.423298 
666.000000	 99.414561 
665.000000	 99.374301 
664.000000	 99.336118 
663.000000	 99.334818 
662.000000	 99.376207 
661.000000	 99.420347 
660.000000	 99.420365 
659.000000	 99.372530 
658.000000	 99.313684 
657.000000	 99.275225 
656.000000	 99.258278 
655.000000	 99.249822 
654.000000	 99.244499 
653.000000	 99.248771 
652.000000	 99.271575 
651.000000	 99.310247 
650.000000	 99.342845 

