4000.000000	98.934755 
3999.000000	98.933441 
3998.000000	98.932942 
3997.000000	98.935019 
3996.000000	98.938995 
3995.000000	98.942601 
3994.000000	98.944418 
3993.000000	98.945078 
3992.000000	98.945897 
3991.000000	98.946704 
3990.000000	98.945701 
3989.000000	98.941527 
3988.000000	98.935015 
3987.000000	98.928797 
3986.000000	98.925512 
3985.000000	98.926381 
3984.000000	98.930751 
3983.000000	98.936600 
3982.000000	98.941784 
3981.000000	98.945358 
3980.000000	98.947853 
3979.000000	98.950118 
3978.000000	98.952161 
3977.000000	98.953366 
3976.000000	98.953374 
3975.000000	98.952097 
3974.000000	98.949076 
3973.000000	98.943775 
3972.000000	98.936994 
3971.000000	98.931375 
3970.000000	98.929991 
3969.000000	98.933933 
3968.000000	98.941263 
3967.000000	98.948252 
3966.000000	98.951707 
3965.000000	98.950624 
3964.000000	98.946212 
3963.000000	98.940863 
3962.000000	98.936728 
3961.000000	98.934575 
3960.000000	98.933420 
3959.000000	98.931392 
3958.000000	98.927880 
3957.000000	98.924571 
3956.000000	98.923899 
3955.000000	98.926310 
3954.000000	98.929719 
3953.000000	98.931879 
3952.000000	98.932439 
3951.000000	98.932634 
3950.000000	98.933155 
3949.000000	98.933165 
3948.000000	98.931954 
3947.000000	98.930895 
3946.000000	98.932313 
3945.000000	98.936377 
3944.000000	98.940167 
3943.000000	98.940292 
3942.000000	98.936270 
3941.000000	98.930929 
3940.000000	98.927085 
3939.000000	98.924850 
3938.000000	98.923072 
3937.000000	98.921257 
3936.000000	98.919725 
3935.000000	98.918726 
3934.000000	98.918341 
3933.000000	98.919195 
3932.000000	98.921845 
3931.000000	98.925932 
3930.000000	98.930203 
3929.000000	98.933287 
3928.000000	98.934790 
3927.000000	98.934796 
3926.000000	98.932931 
3925.000000	98.928995 
3924.000000	98.924459 
3923.000000	98.921277 
3922.000000	98.918685 
3921.000000	98.914373 
3920.000000	98.909118 
3919.000000	98.906758 
3918.000000	98.909198 
3917.000000	98.914303 
3916.000000	98.919618 
3915.000000	98.925261 
3914.000000	98.931581 
3913.000000	98.936774 
3912.000000	98.938969 
3911.000000	98.937644 
3910.000000	98.933773 
3909.000000	98.928555 
3908.000000	98.923168 
3907.000000	98.918592 
3906.000000	98.914784 
3905.000000	98.910427 
3904.000000	98.904432 
3903.000000	98.898996 
3902.000000	98.897859 
3901.000000	98.900406 
3900.000000	98.901901 
3899.000000	98.900282 
3898.000000	98.898291 
3897.000000	98.897960 
3896.000000	98.897490 
3895.000000	98.895779 
3894.000000	98.897010 
3893.000000	98.905052 
3892.000000	98.915802 
3891.000000	98.920338 
3890.000000	98.919393 
3889.000000	98.921061 
3888.000000	98.926482 
3887.000000	98.930261 
3886.000000	98.928440 
3885.000000	98.922592 
3884.000000	98.920318 
3883.000000	98.924377 
3882.000000	98.928144 
3881.000000	98.926289 
3880.000000	98.920062 
3879.000000	98.915542 
3878.000000	98.918370 
3877.000000	98.925881 
3876.000000	98.930298 
3875.000000	98.925941 
3874.000000	98.912833 
3873.000000	98.898091 
3872.000000	98.887766 
3871.000000	98.879181 
3870.000000	98.867681 
3869.000000	98.858683 
3868.000000	98.864203 
3867.000000	98.882041 
3866.000000	98.897291 
3865.000000	98.904434 
3864.000000	98.909634 
3863.000000	98.917386 
3862.000000	98.926288 
3861.000000	98.932757 
3860.000000	98.935722 
3859.000000	98.933993 
3858.000000	98.925970 
3857.000000	98.913421 
3856.000000	98.903677 
3855.000000	98.903951 
3854.000000	98.905334 
3853.000000	98.888339 
3852.000000	98.865833 
3851.000000	98.865247 
3850.000000	98.879010 
3849.000000	98.889481 
3848.000000	98.894926 
3847.000000	98.898983 
3846.000000	98.901589 
3845.000000	98.901171 
3844.000000	98.898254 
3843.000000	98.894017 
3842.000000	98.889754 
3841.000000	98.886760 
3840.000000	98.887560 
3839.000000	98.894742 
3838.000000	98.907251 
3837.000000	98.920431 
3836.000000	98.931578 
3835.000000	98.940748 
3834.000000	98.947526 
3833.000000	98.951033 
3832.000000	98.951483 
3831.000000	98.951002 
3830.000000	98.952502 
3829.000000	98.956132 
3828.000000	98.957997 
3827.000000	98.952889 
3826.000000	98.940290 
3825.000000	98.926261 
3824.000000	98.917245 
3823.000000	98.914038 
3822.000000	98.911970 
3821.000000	98.902985 
3820.000000	98.890338 
3819.000000	98.887681 
3818.000000	98.893019 
3817.000000	98.894585 
3816.000000	98.889252 
3815.000000	98.884318 
3814.000000	98.889355 
3813.000000	98.900803 
3812.000000	98.906665 
3811.000000	98.905837 
3810.000000	98.907281 
3809.000000	98.916546 
3808.000000	98.928539 
3807.000000	98.932869 
3806.000000	98.928816 
3805.000000	98.926735 
3804.000000	98.929755 
3803.000000	98.930835 
3802.000000	98.924456 
3801.000000	98.910079 
3800.000000	98.898827 
3799.000000	98.900372 
3798.000000	98.906017 
3797.000000	98.906192 
3796.000000	98.902456 
3795.000000	98.901359 
3794.000000	98.905911 
3793.000000	98.913145 
3792.000000	98.919160 
3791.000000	98.922666 
3790.000000	98.923414 
3789.000000	98.922135 
3788.000000	98.921953 
3787.000000	98.926412 
3786.000000	98.935056 
3785.000000	98.943244 
3784.000000	98.947718 
3783.000000	98.949546 
3782.000000	98.950677 
3781.000000	98.950781 
3780.000000	98.948549 
3779.000000	98.943398 
3778.000000	98.937392 
3777.000000	98.933049 
3776.000000	98.929725 
3775.000000	98.925957 
3774.000000	98.923670 
3773.000000	98.925876 
3772.000000	98.931440 
3771.000000	98.934571 
3770.000000	98.931187 
3769.000000	98.925074 
3768.000000	98.924174 
3767.000000	98.929647 
3766.000000	98.935136 
3765.000000	98.936574 
3764.000000	98.937171 
3763.000000	98.941170 
3762.000000	98.946383 
3761.000000	98.948117 
3760.000000	98.946502 
3759.000000	98.943414 
3758.000000	98.938251 
3757.000000	98.929840 
3756.000000	98.919656 
3755.000000	98.910145 
3754.000000	98.902691 
3753.000000	98.900086 
3752.000000	98.904994 
3751.000000	98.910884 
3750.000000	98.905274 
3749.000000	98.889355 
3748.000000	98.876861 
3747.000000	98.874513 
3746.000000	98.879666 
3745.000000	98.886290 
3744.000000	98.885926 
3743.000000	98.886294 
3742.000000	98.899025 
3741.000000	98.908902 
3740.000000	98.902264 
3739.000000	98.887641 
3738.000000	98.878153 
3737.000000	98.876763 
3736.000000	98.878837 
3735.000000	98.882395 
3734.000000	98.888025 
3733.000000	98.892143 
3732.000000	98.890718 
3731.000000	98.888031 
3730.000000	98.891176 
3729.000000	98.899444 
3728.000000	98.907085 
3727.000000	98.912632 
3726.000000	98.919226 
3725.000000	98.928592 
3724.000000	98.937001 
3723.000000	98.939817 
3722.000000	98.938163 
3721.000000	98.936986 
3720.000000	98.939022 
3719.000000	98.941429 
3718.000000	98.939040 
3717.000000	98.929462 
3716.000000	98.914356 
3715.000000	98.896253 
3714.000000	98.877330 
3713.000000	98.861043 
3712.000000	98.849750 
3711.000000	98.842443 
3710.000000	98.839108 
3709.000000	98.840000 
3708.000000	98.841319 
3707.000000	98.838038 
3706.000000	98.828765 
3705.000000	98.816348 
3704.000000	98.804786 
3703.000000	98.796668 
3702.000000	98.791436 
3701.000000	98.787017 
3700.000000	98.783339 
3699.000000	98.780048 
3698.000000	98.773590 
3697.000000	98.762041 
3696.000000	98.749304 
3695.000000	98.740913 
3694.000000	98.737563 
3693.000000	98.735921 
3692.000000	98.734453 
3691.000000	98.733093 
3690.000000	98.728755 
3689.000000	98.716547 
3688.000000	98.699985 
3687.000000	98.691439 
3686.000000	98.696008 
3685.000000	98.705965 
3684.000000	98.713543 
3683.000000	98.718530 
3682.000000	98.722221 
3681.000000	98.721218 
3680.000000	98.710325 
3679.000000	98.691389 
3678.000000	98.671898 
3677.000000	98.657234 
3676.000000	98.645419 
3675.000000	98.632275 
3674.000000	98.626794 
3673.000000	98.635236 
3672.000000	98.644702 
3671.000000	98.647529 
3670.000000	98.646503 
3669.000000	98.642732 
3668.000000	98.639397 
3667.000000	98.636962 
3666.000000	98.631971 
3665.000000	98.624671 
3664.000000	98.618031 
3663.000000	98.613476 
3662.000000	98.609804 
3661.000000	98.605111 
3660.000000	98.599577 
3659.000000	98.596349 
3658.000000	98.597466 
3657.000000	98.599768 
3656.000000	98.596851 
3655.000000	98.589983 
3654.000000	98.586262 
3653.000000	98.586249 
3652.000000	98.586945 
3651.000000	98.588931 
3650.000000	98.590284 
3649.000000	98.583600 
3648.000000	98.569421 
3647.000000	98.558974 
3646.000000	98.560791 
3645.000000	98.573609 
3644.000000	98.590014 
3643.000000	98.602362 
3642.000000	98.607122 
3641.000000	98.605766 
3640.000000	98.602393 
3639.000000	98.600304 
3638.000000	98.600987 
3637.000000	98.604717 
3636.000000	98.608420 
3635.000000	98.605637 
3634.000000	98.592652 
3633.000000	98.574370 
3632.000000	98.560113 
3631.000000	98.555194 
3630.000000	98.557964 
3629.000000	98.558176 
3628.000000	98.549516 
3627.000000	98.543539 
3626.000000	98.545646 
3625.000000	98.547167 
3624.000000	98.545683 
3623.000000	98.545680 
3622.000000	98.548688 
3621.000000	98.552194 
3620.000000	98.555089 
3619.000000	98.559086 
3618.000000	98.566593 
3617.000000	98.578902 
3616.000000	98.593959 
3615.000000	98.608001 
3614.000000	98.618082 
3613.000000	98.622591 
3612.000000	98.622853 
3611.000000	98.622560 
3610.000000	98.623873 
3609.000000	98.626090 
3608.000000	98.627931 
3607.000000	98.630100 
3606.000000	98.633897 
3605.000000	98.638050 
3604.000000	98.640560 
3603.000000	98.642203 
3602.000000	98.644849 
3601.000000	98.649075 
3600.000000	98.655409 
3599.000000	98.665525 
3598.000000	98.678950 
3597.000000	98.691550 
3596.000000	98.698571 
3595.000000	98.699728 
3594.000000	98.699997 
3593.000000	98.704822 
3592.000000	98.714813 
3591.000000	98.726578 
3590.000000	98.736934 
3589.000000	98.742972 
3588.000000	98.739626 
3587.000000	98.724654 
3586.000000	98.706556 
3585.000000	98.696530 
3584.000000	98.695638 
3583.000000	98.697930 
3582.000000	98.699006 
3581.000000	98.698207 
3580.000000	98.695552 
3579.000000	98.690220 
3578.000000	98.682340 
3577.000000	98.674859 
3576.000000	98.671382 
3575.000000	98.672277 
3574.000000	98.675007 
3573.000000	98.677570 
3572.000000	98.680082 
3571.000000	98.682766 
3570.000000	98.684651 
3569.000000	98.684634 
3568.000000	98.682809 
3567.000000	98.680369 
3566.000000	98.680212 
3565.000000	98.685555 
3564.000000	98.694867 
3563.000000	98.702300 
3562.000000	98.702927 
3561.000000	98.695906 
3560.000000	98.684610 
3559.000000	98.674006 
3558.000000	98.667145 
3557.000000	98.664180 
3556.000000	98.664534 
3555.000000	98.667799 
3554.000000	98.672187 
3553.000000	98.674247 
3552.000000	98.672120 
3551.000000	98.667865 
3550.000000	98.664582 
3549.000000	98.662987 
3548.000000	98.662930 
3547.000000	98.665728 
3546.000000	98.672009 
3545.000000	98.678740 
3544.000000	98.681304 
3543.000000	98.678138 
3542.000000	98.671825 
3541.000000	98.665782 
3540.000000	98.661840 
3539.000000	98.660787 
3538.000000	98.663127 
3537.000000	98.667837 
3536.000000	98.671531 
3535.000000	98.671178 
3534.000000	98.666964 
3533.000000	98.661704 
3532.000000	98.657922 
3531.000000	98.656797 
3530.000000	98.658484 
3529.000000	98.661887 
3528.000000	98.664563 
3527.000000	98.664892 
3526.000000	98.664346 
3525.000000	98.665617 
3524.000000	98.668584 
3523.000000	98.670226 
3522.000000	98.669360 
3521.000000	98.668646 
3520.000000	98.670263 
3519.000000	98.672159 
3518.000000	98.670978 
3517.000000	98.667097 
3516.000000	98.663655 
3515.000000	98.661745 
3514.000000	98.659911 
3513.000000	98.658139 
3512.000000	98.658312 
3511.000000	98.660089 
3510.000000	98.659890 
3509.000000	98.656023 
3508.000000	98.651598 
3507.000000	98.649637 
3506.000000	98.647978 
3505.000000	98.642624 
3504.000000	98.634577 
3503.000000	98.629925 
3502.000000	98.633341 
3501.000000	98.644038 
3500.000000	98.657556 
3499.000000	98.668257 
3498.000000	98.670541 
3497.000000	98.662119 
3496.000000	98.648072 
3495.000000	98.638218 
3494.000000	98.637764 
3493.000000	98.642346 
3492.000000	98.644121 
3491.000000	98.640569 
3490.000000	98.635169 
3489.000000	98.631312 
3488.000000	98.629204 
3487.000000	98.628520 
3486.000000	98.630260 
3485.000000	98.634522 
3484.000000	98.639040 
3483.000000	98.641688 
3482.000000	98.642634 
3481.000000	98.642579 
3480.000000	98.640717 
3479.000000	98.636761 
3478.000000	98.633538 
3477.000000	98.634327 
3476.000000	98.637738 
3475.000000	98.638317 
3474.000000	98.633622 
3473.000000	98.627829 
3472.000000	98.626201 
3471.000000	98.628246 
3470.000000	98.629323 
3469.000000	98.627567 
3468.000000	98.625575 
3467.000000	98.625260 
3466.000000	98.624769 
3465.000000	98.622041 
3464.000000	98.618485 
3463.000000	98.616761 
3462.000000	98.616567 
3461.000000	98.615368 
3460.000000	98.612537 
3459.000000	98.610226 
3458.000000	98.610089 
3457.000000	98.611357 
3456.000000	98.612351 
3455.000000	98.612081 
3454.000000	98.609763 
3453.000000	98.604949 
3452.000000	98.599346 
3451.000000	98.596814 
3450.000000	98.599495 
3449.000000	98.604800 
3448.000000	98.607907 
3447.000000	98.606722 
3446.000000	98.602971 
3445.000000	98.598959 
3444.000000	98.595600 
3443.000000	98.593620 
3442.000000	98.594004 
3441.000000	98.596401 
3440.000000	98.599087 
3439.000000	98.601232 
3438.000000	98.603543 
3437.000000	98.605832 
3436.000000	98.605787 
3435.000000	98.601929 
3434.000000	98.596363 
3433.000000	98.592763 
3432.000000	98.592169 
3431.000000	98.592479 
3430.000000	98.591551 
3429.000000	98.589067 
3428.000000	98.585408 
3427.000000	98.580543 
3426.000000	98.575015 
3425.000000	98.570757 
3424.000000	98.569576 
3423.000000	98.571148 
3422.000000	98.573409 
3421.000000	98.574825 
3420.000000	98.575441 
3419.000000	98.576029 
3418.000000	98.577337 
3417.000000	98.580216 
3416.000000	98.584946 
3415.000000	98.589747 
3414.000000	98.591260 
3413.000000	98.587849 
3412.000000	98.581752 
3411.000000	98.576617 
3410.000000	98.573516 
3409.000000	98.570790 
3408.000000	98.567201 
3407.000000	98.563138 
3406.000000	98.558722 
3405.000000	98.553291 
3404.000000	98.547873 
3403.000000	98.546081 
3402.000000	98.550507 
3401.000000	98.559104 
3400.000000	98.566917 
3399.000000	98.571048 
3398.000000	98.572644 
3397.000000	98.574431 
3396.000000	98.577728 
3395.000000	98.581875 
3394.000000	98.585353 
3393.000000	98.587115 
3392.000000	98.587623 
3391.000000	98.588578 
3390.000000	98.590885 
3389.000000	98.593219 
3388.000000	98.593708 
3387.000000	98.592498 
3386.000000	98.591103 
3385.000000	98.589464 
3384.000000	98.585755 
3383.000000	98.579692 
3382.000000	98.573788 
3381.000000	98.570041 
3380.000000	98.567171 
3379.000000	98.562986 
3378.000000	98.558202 
3377.000000	98.555844 
3376.000000	98.557604 
3375.000000	98.562796 
3374.000000	98.570219 
3373.000000	98.578501 
3372.000000	98.584869 
3371.000000	98.586450 
3370.000000	98.583824 
3369.000000	98.581102 
3368.000000	98.581316 
3367.000000	98.583529 
3366.000000	98.585464 
3365.000000	98.586776 
3364.000000	98.587957 
3363.000000	98.587971 
3362.000000	98.585563 
3361.000000	98.581906 
3360.000000	98.579357 
3359.000000	98.578040 
3358.000000	98.576224 
3357.000000	98.574117 
3356.000000	98.574356 
3355.000000	98.577638 
3354.000000	98.580585 
3353.000000	98.580172 
3352.000000	98.578569 
3351.000000	98.580890 
3350.000000	98.588709 
3349.000000	98.598465 
3348.000000	98.606377 
3347.000000	98.612096 
3346.000000	98.616328 
3345.000000	98.617777 
3344.000000	98.615125 
3343.000000	98.610449 
3342.000000	98.607402 
3341.000000	98.606323 
3340.000000	98.604232 
3339.000000	98.599973 
3338.000000	98.596012 
3337.000000	98.593844 
3336.000000	98.591100 
3335.000000	98.585894 
3334.000000	98.581213 
3333.000000	98.581325 
3332.000000	98.585448 
3331.000000	98.588866 
3330.000000	98.589737 
3329.000000	98.590904 
3328.000000	98.594782 
3327.000000	98.600208 
3326.000000	98.605328 
3325.000000	98.610135 
3324.000000	98.614692 
3323.000000	98.617991 
3322.000000	98.620248 
3321.000000	98.623278 
3320.000000	98.626574 
3319.000000	98.626114 
3318.000000	98.619903 
3317.000000	98.612089 
3316.000000	98.608203 
3315.000000	98.608209 
3314.000000	98.607854 
3313.000000	98.605536 
3312.000000	98.603896 
3311.000000	98.605021 
3310.000000	98.607700 
3309.000000	98.609893 
3308.000000	98.611076 
3307.000000	98.611605 
3306.000000	98.612101 
3305.000000	98.613770 
3304.000000	98.617155 
3303.000000	98.620513 
3302.000000	98.621758 
3301.000000	98.621902 
3300.000000	98.623920 
3299.000000	98.628164 
3298.000000	98.631761 
3297.000000	98.633131 
3296.000000	98.634158 
3295.000000	98.636821 
3294.000000	98.640417 
3293.000000	98.643488 
3292.000000	98.645966 
3291.000000	98.647809 
3290.000000	98.647663 
3289.000000	98.644703 
3288.000000	98.640160 
3287.000000	98.635600 
3286.000000	98.631241 
3285.000000	98.627246 
3284.000000	98.624722 
3283.000000	98.623790 
3282.000000	98.622532 
3281.000000	98.619744 
3280.000000	98.617202 
3279.000000	98.617349 
3278.000000	98.620237 
3277.000000	98.624613 
3276.000000	98.630484 
3275.000000	98.638189 
3274.000000	98.645871 
3273.000000	98.650362 
3272.000000	98.650288 
3271.000000	98.646642 
3270.000000	98.640947 
3269.000000	98.634730 
3268.000000	98.630222 
3267.000000	98.629353 
3266.000000	98.631920 
3265.000000	98.636100 
3264.000000	98.640548 
3263.000000	98.644767 
3262.000000	98.648064 
3261.000000	98.649720 
3260.000000	98.649854 
3259.000000	98.648837 
3258.000000	98.646409 
3257.000000	98.642708 
3256.000000	98.639526 
3255.000000	98.638900 
3254.000000	98.640905 
3253.000000	98.644316 
3252.000000	98.648658 
3251.000000	98.653675 
3250.000000	98.657582 
3249.000000	98.658504 
3248.000000	98.657675 
3247.000000	98.658595 
3246.000000	98.662265 
3245.000000	98.665472 
3244.000000	98.665071 
3243.000000	98.662282 
3242.000000	98.661347 
3241.000000	98.664842 
3240.000000	98.671225 
3239.000000	98.676290 
3238.000000	98.676391 
3237.000000	98.670950 
3236.000000	98.662624 
3235.000000	98.655047 
3234.000000	98.650375 
3233.000000	98.649122 
3232.000000	98.651470 
3231.000000	98.657375 
3230.000000	98.665523 
3229.000000	98.673440 
3228.000000	98.678943 
3227.000000	98.680897 
3226.000000	98.679167 
3225.000000	98.675235 
3224.000000	98.672418 
3223.000000	98.673483 
3222.000000	98.677712 
3221.000000	98.681820 
3220.000000	98.683892 
3219.000000	98.684579 
3218.000000	98.684265 
3217.000000	98.681546 
3216.000000	98.675860 
3215.000000	98.669645 
3214.000000	98.666023 
3213.000000	98.665444 
3212.000000	98.666308 
3211.000000	98.667859 
3210.000000	98.670555 
3209.000000	98.674180 
3208.000000	98.677642 
3207.000000	98.680720 
3206.000000	98.684521 
3205.000000	98.690005 
3204.000000	98.697126 
3203.000000	98.705399 
3202.000000	98.714145 
3201.000000	98.721896 
3200.000000	98.726626 
3199.000000	98.727149 
3198.000000	98.723929 
3197.000000	98.718534 
3196.000000	98.712963 
3195.000000	98.709314 
3194.000000	98.708755 
3193.000000	98.710111 
3192.000000	98.710349 
3191.000000	98.707607 
3190.000000	98.703537 
3189.000000	98.701744 
3188.000000	98.703786 
3187.000000	98.707511 
3186.000000	98.709740 
3185.000000	98.709782 
3184.000000	98.709447 
3183.000000	98.710135 
3182.000000	98.711282 
3181.000000	98.711887 
3180.000000	98.712273 
3179.000000	98.713448 
3178.000000	98.715569 
3177.000000	98.718150 
3176.000000	98.721183 
3175.000000	98.724898 
3174.000000	98.728894 
3173.000000	98.732750 
3172.000000	98.736880 
3171.000000	98.741168 
3170.000000	98.743215 
3169.000000	98.740305 
3168.000000	98.733520 
3167.000000	98.727580 
3166.000000	98.725581 
3165.000000	98.725860 
3164.000000	98.725376 
3163.000000	98.724104 
3162.000000	98.724064 
3161.000000	98.725638 
3160.000000	98.727543 
3159.000000	98.729771 
3158.000000	98.733912 
3157.000000	98.740449 
3156.000000	98.747837 
3155.000000	98.754562 
3154.000000	98.760408 
3153.000000	98.765469 
3152.000000	98.769498 
3151.000000	98.772451 
3150.000000	98.774213 
3149.000000	98.773719 
3148.000000	98.770073 
3147.000000	98.764690 
3146.000000	98.760338 
3145.000000	98.757502 
3144.000000	98.753785 
3143.000000	98.748099 
3142.000000	98.743483 
3141.000000	98.743827 
3140.000000	98.748814 
3139.000000	98.754042 
3138.000000	98.755928 
3137.000000	98.755049 
3136.000000	98.754649 
3135.000000	98.757158 
3134.000000	98.762430 
3133.000000	98.768416 
3132.000000	98.772924 
3131.000000	98.774944 
3130.000000	98.774530 
3129.000000	98.771817 
3128.000000	98.766958 
3127.000000	98.761353 
3126.000000	98.757985 
3125.000000	98.759511 
3124.000000	98.765989 
3123.000000	98.774784 
3122.000000	98.782431 
3121.000000	98.786489 
3120.000000	98.786263 
3119.000000	98.782568 
3118.000000	98.776981 
3117.000000	98.771125 
3116.000000	98.766553 
3115.000000	98.764827 
3114.000000	98.766728 
3113.000000	98.771023 
3112.000000	98.774760 
3111.000000	98.775541 
3110.000000	98.773483 
3109.000000	98.770836 
3108.000000	98.770046 
3107.000000	98.772100 
3106.000000	98.776071 
3105.000000	98.780188 
3104.000000	98.783845 
3103.000000	98.788295 
3102.000000	98.794626 
3101.000000	98.801458 
3100.000000	98.805896 
3099.000000	98.806485 
3098.000000	98.803897 
3097.000000	98.799197 
3096.000000	98.793426 
3095.000000	98.788843 
3094.000000	98.787998 
3093.000000	98.790575 
3092.000000	98.793239 
3091.000000	98.793867 
3090.000000	98.794026 
3089.000000	98.795980 
3088.000000	98.799393 
3087.000000	98.802818 
3086.000000	98.806344 
3085.000000	98.810246 
3084.000000	98.812694 
3083.000000	98.811880 
3082.000000	98.809599 
3081.000000	98.809649 
3080.000000	98.812875 
3079.000000	98.816556 
3078.000000	98.818565 
3077.000000	98.819167 
3076.000000	98.818561 
3075.000000	98.815989 
3074.000000	98.812404 
3073.000000	98.811205 
3072.000000	98.814560 
3071.000000	98.820642 
3070.000000	98.825658 
3069.000000	98.826910 
3068.000000	98.822957 
3067.000000	98.813203 
3066.000000	98.799626 
3065.000000	98.787575 
3064.000000	98.782256 
3063.000000	98.784312 
3062.000000	98.790075 
3061.000000	98.795762 
3060.000000	98.800307 
3059.000000	98.804538 
3058.000000	98.808984 
3057.000000	98.812978 
3056.000000	98.815514 
3055.000000	98.816795 
3054.000000	98.818462 
3053.000000	98.821591 
3052.000000	98.824787 
3051.000000	98.825564 
3050.000000	98.823659 
3049.000000	98.821368 
3048.000000	98.820038 
3047.000000	98.818041 
3046.000000	98.813451 
3045.000000	98.807156 
3044.000000	98.801621 
3043.000000	98.797540 
3042.000000	98.793549 
3041.000000	98.788904 
3040.000000	98.784934 
3039.000000	98.783733 
3038.000000	98.786186 
3037.000000	98.791068 
3036.000000	98.795360 
3035.000000	98.795789 
3034.000000	98.790816 
3033.000000	98.781183 
3032.000000	98.768602 
3031.000000	98.754684 
3030.000000	98.741018 
3029.000000	98.728749 
3028.000000	98.717585 
3027.000000	98.706653 
3026.000000	98.696697 
3025.000000	98.689589 
3024.000000	98.684874 
3023.000000	98.678917 
3022.000000	98.668910 
3021.000000	98.655819 
3020.000000	98.642110 
3019.000000	98.628868 
3018.000000	98.617079 
3017.000000	98.609061 
3016.000000	98.605348 
3015.000000	98.601951 
3014.000000	98.594086 
3013.000000	98.581288 
3012.000000	98.565471 
3011.000000	98.545728 
3010.000000	98.519982 
3009.000000	98.491335 
3008.000000	98.467512 
3007.000000	98.452886 
3006.000000	98.444912 
3005.000000	98.439083 
3004.000000	98.432521 
3003.000000	98.421073 
3002.000000	98.398909 
3001.000000	98.365932 
3000.000000	98.332077 
2999.000000	98.308685 
2998.000000	98.297174 
2997.000000	98.290837 
2996.000000	98.285892 
2995.000000	98.284054 
2994.000000	98.283242 
2993.000000	98.273109 
2992.000000	98.245264 
2991.000000	98.205215 
2990.000000	98.169344 
2989.000000	98.150483 
2988.000000	98.149732 
2987.000000	98.161300 
2986.000000	98.179963 
2985.000000	98.201520 
2984.000000	98.220047 
2983.000000	98.229783 
2982.000000	98.229611 
2981.000000	98.222892 
2980.000000	98.213042 
2979.000000	98.201997 
2978.000000	98.192692 
2977.000000	98.188726 
2976.000000	98.189529 
2975.000000	98.188993 
2974.000000	98.182093 
2973.000000	98.171022 
2972.000000	98.162015 
2971.000000	98.158132 
2970.000000	98.159062 
2969.000000	98.166518 
2968.000000	98.184244 
2967.000000	98.211370 
2966.000000	98.240215 
2965.000000	98.263394 
2964.000000	98.280448 
2963.000000	98.295273 
2962.000000	98.309587 
2961.000000	98.321904 
2960.000000	98.331335 
2959.000000	98.339269 
2958.000000	98.347378 
2957.000000	98.355767 
2956.000000	98.362911 
2955.000000	98.366451 
2954.000000	98.365125 
2953.000000	98.361388 
2952.000000	98.361127 
2951.000000	98.368814 
2950.000000	98.383030 
2949.000000	98.397933 
2948.000000	98.408746 
2947.000000	98.414870 
2946.000000	98.418598 
2945.000000	98.422503 
2944.000000	98.428025 
2943.000000	98.435101 
2942.000000	98.442664 
2941.000000	98.449843 
2940.000000	98.456431 
2939.000000	98.462001 
2938.000000	98.465551 
2937.000000	98.466770 
2936.000000	98.466705 
2935.000000	98.466244 
2934.000000	98.464829 
2933.000000	98.461629 
2932.000000	98.456944 
2931.000000	98.451385 
2930.000000	98.444852 
2929.000000	98.437619 
2928.000000	98.431229 
2927.000000	98.426737 
2926.000000	98.423186 
2925.000000	98.419529 
2924.000000	98.417030 
2923.000000	98.417852 
2922.000000	98.422282 
2921.000000	98.429259 
2920.000000	98.438361 
2919.000000	98.448604 
2918.000000	98.456161 
2917.000000	98.456494 
2916.000000	98.449140 
2915.000000	98.438014 
2914.000000	98.426901 
2913.000000	98.417238 
2912.000000	98.410292 
2911.000000	98.407916 
2910.000000	98.409188 
2909.000000	98.408959 
2908.000000	98.402412 
2907.000000	98.389858 
2906.000000	98.374867 
2905.000000	98.358739 
2904.000000	98.339885 
2903.000000	98.319253 
2902.000000	98.303975 
2901.000000	98.303095 
2900.000000	98.319427 
2899.000000	98.346273 
2898.000000	98.372178 
2897.000000	98.388945 
2896.000000	98.395437 
2895.000000	98.395743 
2894.000000	98.395455 
2893.000000	98.398885 
2892.000000	98.406966 
2891.000000	98.416290 
2890.000000	98.421791 
2889.000000	98.422002 
2888.000000	98.420606 
2887.000000	98.421667 
2886.000000	98.425144 
2885.000000	98.429032 
2884.000000	98.434122 
2883.000000	98.443403 
2882.000000	98.457511 
2881.000000	98.474060 
2880.000000	98.491289 
2879.000000	98.509022 
2878.000000	98.525632 
2877.000000	98.537753 
2876.000000	98.544383 
2875.000000	98.548412 
2874.000000	98.552736 
2873.000000	98.557544 
2872.000000	98.562864 
2871.000000	98.570518 
2870.000000	98.581006 
2869.000000	98.590883 
2868.000000	98.596185 
2867.000000	98.597184 
2866.000000	98.597753 
2865.000000	98.601654 
2864.000000	98.611335 
2863.000000	98.627947 
2862.000000	98.649297 
2861.000000	98.669303 
2860.000000	98.682853 
2859.000000	98.690606 
2858.000000	98.696841 
2857.000000	98.704157 
2856.000000	98.712964 
2855.000000	98.724334 
2854.000000	98.739445 
2853.000000	98.756810 
2852.000000	98.773282 
2851.000000	98.787478 
2850.000000	98.799482 
2849.000000	98.808278 
2848.000000	98.812943 
2847.000000	98.815636 
2846.000000	98.819403 
2845.000000	98.823189 
2844.000000	98.823038 
2843.000000	98.818447 
2842.000000	98.813409 
2841.000000	98.810460 
2840.000000	98.807892 
2839.000000	98.803928 
2838.000000	98.799360 
2837.000000	98.794623 
2836.000000	98.789011 
2835.000000	98.785263 
2834.000000	98.790049 
2833.000000	98.805961 
2832.000000	98.826391 
2831.000000	98.842270 
2830.000000	98.851001 
2829.000000	98.855075 
2828.000000	98.855799 
2827.000000	98.853878 
2826.000000	98.853507 
2825.000000	98.859106 
2824.000000	98.868464 
2823.000000	98.875054 
2822.000000	98.877353 
2821.000000	98.879937 
2820.000000	98.884467 
2819.000000	98.886150 
2818.000000	98.881987 
2817.000000	98.876882 
2816.000000	98.877022 
2815.000000	98.881060 
2814.000000	98.882908 
2813.000000	98.880669 
2812.000000	98.877492 
2811.000000	98.874673 
2810.000000	98.869705 
2809.000000	98.862470 
2808.000000	98.858597 
2807.000000	98.863455 
2806.000000	98.875056 
2805.000000	98.885928 
2804.000000	98.891127 
2803.000000	98.891685 
2802.000000	98.890553 
2801.000000	98.888423 
2800.000000	98.885147 
2799.000000	98.882769 
2798.000000	98.883965 
2797.000000	98.888003 
2796.000000	98.891166 
2795.000000	98.891620 
2794.000000	98.891146 
2793.000000	98.891162 
2792.000000	98.890175 
2791.000000	98.887301 
2790.000000	98.885515 
2789.000000	98.888098 
2788.000000	98.893617 
2787.000000	98.898022 
2786.000000	98.900624 
2785.000000	98.904161 
2784.000000	98.909408 
2783.000000	98.913841 
2782.000000	98.915921 
2781.000000	98.916692 
2780.000000	98.916273 
2779.000000	98.912790 
2778.000000	98.906410 
2777.000000	98.900725 
2776.000000	98.898024 
2775.000000	98.896292 
2774.000000	98.893165 
2773.000000	98.889860 
2772.000000	98.888667 
2771.000000	98.889391 
2770.000000	98.891127 
2769.000000	98.895034 
2768.000000	98.902089 
2767.000000	98.910090 
2766.000000	98.916122 
2765.000000	98.920465 
2764.000000	98.925092 
2763.000000	98.930054 
2762.000000	98.934495 
2761.000000	98.939369 
2760.000000	98.945214 
2759.000000	98.948695 
2758.000000	98.945803 
2757.000000	98.938056 
2756.000000	98.931329 
2755.000000	98.928371 
2754.000000	98.926380 
2753.000000	98.922123 
2752.000000	98.915500 
2751.000000	98.907579 
2750.000000	98.899445 
2749.000000	98.894283 
2748.000000	98.896270 
2747.000000	98.904899 
2746.000000	98.913548 
2745.000000	98.916431 
2744.000000	98.914890 
2743.000000	98.914530 
2742.000000	98.918301 
2741.000000	98.924867 
2740.000000	98.932062 
2739.000000	98.938895 
2738.000000	98.944440 
2737.000000	98.947087 
2736.000000	98.945567 
2735.000000	98.940202 
2734.000000	98.933267 
2733.000000	98.928171 
2732.000000	98.927276 
2731.000000	98.930038 
2730.000000	98.933753 
2729.000000	98.935813 
2728.000000	98.934417 
2727.000000	98.928365 
2726.000000	98.918788 
2725.000000	98.910748 
2724.000000	98.909926 
2723.000000	98.916846 
2722.000000	98.926784 
2721.000000	98.935624 
2720.000000	98.942795 
2719.000000	98.948054 
2718.000000	98.949805 
2717.000000	98.948974 
2716.000000	98.950707 
2715.000000	98.958529 
2714.000000	98.968964 
2713.000000	98.975113 
2712.000000	98.973973 
2711.000000	98.967626 
2710.000000	98.959332 
2709.000000	98.951845 
2708.000000	98.947824 
2707.000000	98.947703 
2706.000000	98.947381 
2705.000000	98.941479 
2704.000000	98.929410 
2703.000000	98.916102 
2702.000000	98.907040 
2701.000000	98.904592 
2700.000000	98.908376 
2699.000000	98.916343 
2698.000000	98.925431 
2697.000000	98.933451 
2696.000000	98.940578 
2695.000000	98.947709 
2694.000000	98.954296 
2693.000000	98.959552 
2692.000000	98.964255 
2691.000000	98.968829 
2690.000000	98.971276 
2689.000000	98.970289 
2688.000000	98.968840 
2687.000000	98.970336 
2686.000000	98.972007 
2685.000000	98.967109 
2684.000000	98.954237 
2683.000000	98.939754 
2682.000000	98.929713 
2681.000000	98.923852 
2680.000000	98.919412 
2679.000000	98.916534 
2678.000000	98.916963 
2677.000000	98.920623 
2676.000000	98.926471 
2675.000000	98.934393 
2674.000000	98.943655 
2673.000000	98.951670 
2672.000000	98.956639 
2671.000000	98.959391 
2670.000000	98.960531 
2669.000000	98.958222 
2668.000000	98.951332 
2667.000000	98.942583 
2666.000000	98.935982 
2665.000000	98.933022 
2664.000000	98.933605 
2663.000000	98.938077 
2662.000000	98.945249 
2661.000000	98.950751 
2660.000000	98.950990 
2659.000000	98.947146 
2658.000000	98.942219 
2657.000000	98.936526 
2656.000000	98.930040 
2655.000000	98.926354 
2654.000000	98.928393 
2653.000000	98.931450 
2652.000000	98.927258 
2651.000000	98.915737 
2650.000000	98.906600 
2649.000000	98.907627 
2648.000000	98.916964 
2647.000000	98.929074 
2646.000000	98.942144 
2645.000000	98.955549 
2644.000000	98.964973 
2643.000000	98.965808 
2642.000000	98.959434 
2641.000000	98.951798 
2640.000000	98.946837 
2639.000000	98.944399 
2638.000000	98.943045 
2637.000000	98.941446 
2636.000000	98.937684 
2635.000000	98.930045 
2634.000000	98.918692 
2633.000000	98.905891 
2632.000000	98.895808 
2631.000000	98.894057 
2630.000000	98.903846 
2629.000000	98.920828 
2628.000000	98.935435 
2627.000000	98.942857 
2626.000000	98.947192 
2625.000000	98.953200 
2624.000000	98.958854 
2623.000000	98.960470 
2622.000000	98.960327 
2621.000000	98.962473 
2620.000000	98.964247 
2619.000000	98.959778 
2618.000000	98.950356 
2617.000000	98.943315 
2616.000000	98.940626 
2615.000000	98.936719 
2614.000000	98.929058 
2613.000000	98.922806 
2612.000000	98.921789 
2611.000000	98.922014 
2610.000000	98.919092 
2609.000000	98.916564 
2608.000000	98.920994 
2607.000000	98.932183 
2606.000000	98.943664 
2605.000000	98.950843 
2604.000000	98.953461 
2603.000000	98.950968 
2602.000000	98.941008 
2601.000000	98.924569 
2600.000000	98.909743 
2599.000000	98.906932 
2598.000000	98.919005 
2597.000000	98.937157 
2596.000000	98.948722 
2595.000000	98.949476 
2594.000000	98.945528 
2593.000000	98.942709 
2592.000000	98.939679 
2591.000000	98.935162 
2590.000000	98.935169 
2589.000000	98.944449 
2588.000000	98.955153 
2587.000000	98.955053 
2586.000000	98.945471 
2585.000000	98.938962 
2584.000000	98.938906 
2583.000000	98.935468 
2582.000000	98.925308 
2581.000000	98.919842 
2580.000000	98.925712 
2579.000000	98.931377 
2578.000000	98.925363 
2577.000000	98.916160 
2576.000000	98.919008 
2575.000000	98.931499 
2574.000000	98.938912 
2573.000000	98.938133 
2572.000000	98.938382 
2571.000000	98.940753 
2570.000000	98.935969 
2569.000000	98.924108 
2568.000000	98.918440 
2567.000000	98.924357 
2566.000000	98.930375 
2565.000000	98.927356 
2564.000000	98.922540 
2563.000000	98.925401 
2562.000000	98.932143 
2561.000000	98.935278 
2560.000000	98.938290 
2559.000000	98.947947 
2558.000000	98.958976 
2557.000000	98.959689 
2556.000000	98.949712 
2555.000000	98.940423 
2554.000000	98.938813 
2553.000000	98.940977 
2552.000000	98.941618 
2551.000000	98.940848 
2550.000000	98.939815 
2549.000000	98.936929 
2548.000000	98.931404 
2547.000000	98.925941 
2546.000000	98.923582 
2545.000000	98.924670 
2544.000000	98.927949 
2543.000000	98.932444 
2542.000000	98.937737 
2541.000000	98.943874 
2540.000000	98.950746 
2539.000000	98.956851 
2538.000000	98.960101 
2537.000000	98.960262 
2536.000000	98.957760 
2535.000000	98.949897 
2534.000000	98.933459 
2533.000000	98.913147 
2532.000000	98.901176 
2531.000000	98.903966 
2530.000000	98.914567 
2529.000000	98.923609 
2528.000000	98.932058 
2527.000000	98.945526 
2526.000000	98.960892 
2525.000000	98.968868 
2524.000000	98.968362 
2523.000000	98.968038 
2522.000000	98.972380 
2521.000000	98.975330 
2520.000000	98.970964 
2519.000000	98.963099 
2518.000000	98.960004 
2517.000000	98.964567 
2516.000000	98.973343 
2515.000000	98.981421 
2514.000000	98.985032 
2513.000000	98.982483 
2512.000000	98.975383 
2511.000000	98.967031 
2510.000000	98.958735 
2509.000000	98.950568 
2508.000000	98.945392 
2507.000000	98.946763 
2506.000000	98.951318 
2505.000000	98.948973 
2504.000000	98.934444 
2503.000000	98.914528 
2502.000000	98.900299 
2501.000000	98.895803 
2500.000000	98.898320 
2499.000000	98.905946 
2498.000000	98.919082 
2497.000000	98.935793 
2496.000000	98.951166 
2495.000000	98.961788 
2494.000000	98.967345 
2493.000000	98.967830 
2492.000000	98.963015 
2491.000000	98.955495 
2490.000000	98.950845 
2489.000000	98.952535 
2488.000000	98.958147 
2487.000000	98.962143 
2486.000000	98.961636 
2485.000000	98.958516 
2484.000000	98.956515 
2483.000000	98.957159 
2482.000000	98.958626 
2481.000000	98.958032 
2480.000000	98.954490 
2479.000000	98.949787 
2478.000000	98.946289 
2477.000000	98.944660 
2476.000000	98.943753 
2475.000000	98.942379 
2474.000000	98.940969 
2473.000000	98.941574 
2472.000000	98.946004 
2471.000000	98.953624 
2470.000000	98.961180 
2469.000000	98.965225 
2468.000000	98.964498 
2467.000000	98.959817 
2466.000000	98.952831 
2465.000000	98.945991 
2464.000000	98.942648 
2463.000000	98.944816 
2462.000000	98.950380 
2461.000000	98.954186 
2460.000000	98.952955 
2459.000000	98.948494 
2458.000000	98.945553 
2457.000000	98.946952 
2456.000000	98.950930 
2455.000000	98.952840 
2454.000000	98.949525 
2453.000000	98.942484 
2452.000000	98.936434 
2451.000000	98.934432 
2450.000000	98.935226 
2449.000000	98.935889 
2448.000000	98.935495 
2447.000000	98.934792 
2446.000000	98.933965 
2445.000000	98.933339 
2444.000000	98.935341 
2443.000000	98.942570 
2442.000000	98.953678 
2441.000000	98.963776 
2440.000000	98.969355 
2439.000000	98.970636 
2438.000000	98.969176 
2437.000000	98.966139 
2436.000000	98.963281 
2435.000000	98.962129 
2434.000000	98.960854 
2433.000000	98.955306 
2432.000000	98.945165 
2431.000000	98.936065 
2430.000000	98.933117 
2429.000000	98.935024 
2428.000000	98.937664 
2427.000000	98.940761 
2426.000000	98.946500 
2425.000000	98.952722 
2424.000000	98.952716 
2423.000000	98.943150 
2422.000000	98.928765 
2421.000000	98.917627 
2420.000000	98.914256 
2419.000000	98.918773 
2418.000000	98.929659 
2417.000000	98.944202 
2416.000000	98.957678 
2415.000000	98.965593 
2414.000000	98.967399 
2413.000000	98.966217 
2412.000000	98.964632 
2411.000000	98.962575 
2410.000000	98.959793 
2409.000000	98.958119 
2408.000000	98.959511 
2407.000000	98.963205 
2406.000000	98.966898 
2405.000000	98.969847 
2404.000000	98.972288 
2403.000000	98.972219 
2402.000000	98.966178 
2401.000000	98.954379 
2400.000000	98.942127 
2399.000000	98.934039 
2398.000000	98.929256 
2397.000000	98.925049 
2396.000000	98.922843 
2395.000000	98.926480 
2394.000000	98.935351 
2393.000000	98.943872 
2392.000000	98.948815 
2391.000000	98.953281 
2390.000000	98.961527 
2389.000000	98.973103 
2388.000000	98.984483 
2387.000000	98.993759 
2386.000000	99.000752 
2385.000000	99.004631 
2384.000000	99.005134 
2383.000000	99.005233 
2382.000000	99.008899 
2381.000000	99.015854 
2380.000000	99.021503 
2379.000000	99.022752 
2378.000000	99.021078 
2377.000000	99.019082 
2376.000000	99.017107 
2375.000000	99.015517 
2374.000000	99.017246 
2373.000000	99.024098 
2372.000000	99.032766 
2371.000000	99.038969 
2370.000000	99.043958 
2369.000000	99.051274 
2368.000000	99.057288 
2367.000000	99.052288 
2366.000000	99.034367 
2365.000000	99.016596 
2364.000000	99.014036 
2363.000000	99.025489 
2362.000000	99.037282 
2361.000000	99.041792 
2360.000000	99.042319 
2359.000000	99.044357 
2358.000000	99.046908 
2357.000000	99.047667 
2356.000000	99.049697 
2355.000000	99.054514 
2354.000000	99.057821 
2353.000000	99.053721 
2352.000000	99.044175 
2351.000000	99.035413 
2350.000000	99.027086 
2349.000000	99.016006 
2348.000000	99.001526 
2347.000000	98.990248 
2346.000000	98.989063 
2345.000000	98.996237 
2344.000000	99.005364 
2343.000000	99.012325 
2342.000000	99.021187 
2341.000000	99.032830 
2340.000000	99.041347 
2339.000000	99.042600 
2338.000000	99.040046 
2337.000000	99.039897 
2336.000000	99.042654 
2335.000000	99.043828 
2334.000000	99.041271 
2333.000000	99.036506 
2332.000000	99.030535 
2331.000000	99.022111 
2330.000000	99.009774 
2329.000000	98.998887 
2328.000000	98.994189 
2327.000000	98.996710 
2326.000000	99.002374 
2325.000000	99.006390 
2324.000000	99.007797 
2323.000000	99.006757 
2322.000000	99.007466 
2321.000000	99.014865 
2320.000000	99.031943 
2319.000000	99.054166 
2318.000000	99.071494 
2317.000000	99.076831 
2316.000000	99.070302 
2315.000000	99.057315 
2314.000000	99.041807 
2313.000000	99.026139 
2312.000000	99.012894 
2311.000000	99.006458 
2310.000000	99.008728 
2309.000000	99.015971 
2308.000000	99.019871 
2307.000000	99.013657 
2306.000000	98.997243 
2305.000000	98.976361 
2304.000000	98.957379 
2303.000000	98.943171 
2302.000000	98.934345 
2301.000000	98.931814 
2300.000000	98.935772 
2299.000000	98.943502 
2298.000000	98.950160 
2297.000000	98.953472 
2296.000000	98.955287 
2295.000000	98.958863 
2294.000000	98.964805 
2293.000000	98.970460 
2292.000000	98.971970 
2291.000000	98.966992 
2290.000000	98.956848 
2289.000000	98.945645 
2288.000000	98.936375 
2287.000000	98.927808 
2286.000000	98.917432 
2285.000000	98.906255 
2284.000000	98.898177 
2283.000000	98.894181 
2282.000000	98.890530 
2281.000000	98.883448 
2280.000000	98.873580 
2279.000000	98.865356 
2278.000000	98.864596 
2277.000000	98.876120 
2276.000000	98.899281 
2275.000000	98.925114 
2274.000000	98.941871 
2273.000000	98.945286 
2272.000000	98.939931 
2271.000000	98.930687 
2270.000000	98.919019 
2269.000000	98.909017 
2268.000000	98.908966 
2267.000000	98.921327 
2266.000000	98.936289 
2265.000000	98.940953 
2264.000000	98.931456 
2263.000000	98.912743 
2262.000000	98.892252 
2261.000000	98.878896 
2260.000000	98.881285 
2259.000000	98.898294 
2258.000000	98.915761 
2257.000000	98.920677 
2256.000000	98.915821 
2255.000000	98.912451 
2254.000000	98.912660 
2253.000000	98.909628 
2252.000000	98.902957 
2251.000000	98.901684 
2250.000000	98.910706 
2249.000000	98.924530 
2248.000000	98.936563 
2247.000000	98.945334 
2246.000000	98.948640 
2245.000000	98.940924 
2244.000000	98.921822 
2243.000000	98.900812 
2242.000000	98.888372 
2241.000000	98.886517 
2240.000000	98.890529 
2239.000000	98.894857 
2238.000000	98.894262 
2237.000000	98.884333 
2236.000000	98.865158 
2235.000000	98.841982 
2234.000000	98.821074 
2233.000000	98.808399 
2232.000000	98.811567 
2231.000000	98.835950 
2230.000000	98.876276 
2229.000000	98.917703 
2228.000000	98.948267 
2227.000000	98.965728 
2226.000000	98.971330 
2225.000000	98.964929 
2224.000000	98.949897 
2223.000000	98.935416 
2222.000000	98.928127 
2221.000000	98.925562 
2220.000000	98.921737 
2219.000000	98.915197 
2218.000000	98.908341 
2217.000000	98.903328 
2216.000000	98.901878 
2215.000000	98.904542 
2214.000000	98.906707 
2213.000000	98.900134 
2212.000000	98.883110 
2211.000000	98.866031 
2210.000000	98.863168 
2209.000000	98.880195 
2208.000000	98.910096 
2207.000000	98.937547 
2206.000000	98.946861 
2205.000000	98.931705 
2204.000000	98.900382 
2203.000000	98.868733 
2202.000000	98.848005 
2201.000000	98.842437 
2200.000000	98.853679 
2199.000000	98.878111 
2198.000000	98.901646 
2197.000000	98.909747 
2196.000000	98.905155 
2195.000000	98.904658 
2194.000000	98.916058 
2193.000000	98.930408 
2192.000000	98.939425 
2191.000000	98.945541 
2190.000000	98.948577 
2189.000000	98.938650 
2188.000000	98.913056 
2187.000000	98.886495 
2186.000000	98.872415 
2185.000000	98.865990 
2184.000000	98.858049 
2183.000000	98.853686 
2182.000000	98.861621 
2181.000000	98.876024 
2180.000000	98.886358 
2179.000000	98.895228 
2178.000000	98.907570 
2177.000000	98.911537 
2176.000000	98.892085 
2175.000000	98.858643 
2174.000000	98.837103 
2173.000000	98.835737 
2172.000000	98.840645 
2171.000000	98.844872 
2170.000000	98.858847 
2169.000000	98.886427 
2168.000000	98.911034 
2167.000000	98.916098 
2166.000000	98.905316 
2165.000000	98.893453 
2164.000000	98.888994 
2163.000000	98.895306 
2162.000000	98.917812 
2161.000000	98.957321 
2160.000000	99.001133 
2159.000000	99.029980 
2158.000000	99.032085 
2157.000000	99.008316 
2156.000000	98.969753 
2155.000000	98.932218 
2154.000000	98.906245 
2153.000000	98.889695 
2152.000000	98.875086 
2151.000000	98.863315 
2150.000000	98.862866 
2149.000000	98.876776 
2148.000000	98.898986 
2147.000000	98.922276 
2146.000000	98.940497 
2145.000000	98.945954 
2144.000000	98.937315 
2143.000000	98.928497 
2142.000000	98.936013 
2141.000000	98.956986 
2140.000000	98.972848 
2139.000000	98.975254 
2138.000000	98.972887 
2137.000000	98.970918 
2136.000000	98.962184 
2135.000000	98.945791 
2134.000000	98.936971 
2133.000000	98.946474 
2132.000000	98.963398 
2131.000000	98.970168 
2130.000000	98.963476 
2129.000000	98.950113 
2128.000000	98.932815 
2127.000000	98.912270 
2126.000000	98.895415 
2125.000000	98.889053 
2124.000000	98.890108 
2123.000000	98.893185 
2122.000000	98.901875 
2121.000000	98.919906 
2120.000000	98.936603 
2119.000000	98.936777 
2118.000000	98.923305 
2117.000000	98.914462 
2116.000000	98.918038 
2115.000000	98.923458 
2114.000000	98.922630 
2113.000000	98.922429 
2112.000000	98.928969 
2111.000000	98.933885 
2110.000000	98.927731 
2109.000000	98.916913 
2108.000000	98.914723 
2107.000000	98.921841 
2106.000000	98.927386 
2105.000000	98.924874 
2104.000000	98.916364 
2103.000000	98.904100 
2102.000000	98.889175 
2101.000000	98.877478 
2100.000000	98.876367 
2099.000000	98.884285 
2098.000000	98.892146 
2097.000000	98.896439 
2096.000000	98.902726 
2095.000000	98.913048 
2094.000000	98.917494 
2093.000000	98.904643 
2092.000000	98.877136 
2091.000000	98.851485 
2090.000000	98.842574 
2089.000000	98.850474 
2088.000000	98.863140 
2087.000000	98.871185 
2086.000000	98.877345 
2085.000000	98.889846 
2084.000000	98.909200 
2083.000000	98.926476 
2082.000000	98.934315 
2081.000000	98.933703 
2080.000000	98.928300 
2079.000000	98.918856 
2078.000000	98.907903 
2077.000000	98.903679 
2076.000000	98.912051 
2075.000000	98.928060 
2074.000000	98.941997 
2073.000000	98.950576 
2072.000000	98.955341 
2071.000000	98.953901 
2070.000000	98.942102 
2069.000000	98.923584 
2068.000000	98.907910 
2067.000000	98.899035 
2066.000000	98.893841 
2065.000000	98.891651 
2064.000000	98.895924 
2063.000000	98.905741 
2062.000000	98.915368 
2061.000000	98.924408 
2060.000000	98.938835 
2059.000000	98.958562 
2058.000000	98.973118 
2057.000000	98.974834 
2056.000000	98.968484 
2055.000000	98.961961 
2054.000000	98.954672 
2053.000000	98.942506 
2052.000000	98.928217 
2051.000000	98.918639 
2050.000000	98.914672 
2049.000000	98.910361 
2048.000000	98.900654 
2047.000000	98.885874 
2046.000000	98.870450 
2045.000000	98.861320 
2044.000000	98.864513 
2043.000000	98.879029 
2042.000000	98.896570 
2041.000000	98.910179 
2040.000000	98.920040 
2039.000000	98.928458 
2038.000000	98.934472 
2037.000000	98.937160 
2036.000000	98.938732 
2035.000000	98.940141 
2034.000000	98.939065 
2033.000000	98.936027 
2032.000000	98.935693 
2031.000000	98.937959 
2030.000000	98.935928 
2029.000000	98.927494 
2028.000000	98.919769 
2027.000000	98.916689 
2026.000000	98.912786 
2025.000000	98.906558 
2024.000000	98.907584 
2023.000000	98.919051 
2022.000000	98.924377 
2021.000000	98.906754 
2020.000000	98.876014 
2019.000000	98.860107 
2018.000000	98.872219 
2017.000000	98.899135 
2016.000000	98.921337 
2015.000000	98.931516 
2014.000000	98.931125 
2013.000000	98.923147 
2012.000000	98.913980 
2011.000000	98.912915 
2010.000000	98.924494 
2009.000000	98.945144 
2008.000000	98.967929 
2007.000000	98.985991 
2006.000000	98.992605 
2005.000000	98.985622 
2004.000000	98.971917 
2003.000000	98.960913 
2002.000000	98.954457 
2001.000000	98.947765 
2000.000000	98.938392 
1999.000000	98.928216 
1998.000000	98.919055 
1997.000000	98.913189 
1996.000000	98.915540 
1995.000000	98.928260 
1994.000000	98.944826 
1993.000000	98.955853 
1992.000000	98.959333 
1991.000000	98.958554 
1990.000000	98.953241 
1989.000000	98.943098 
1988.000000	98.936356 
1987.000000	98.941962 
1986.000000	98.954436 
1985.000000	98.959325 
1984.000000	98.954348 
1983.000000	98.951677 
1982.000000	98.956527 
1981.000000	98.957100 
1980.000000	98.942423 
1979.000000	98.918633 
1978.000000	98.899758 
1977.000000	98.890996 
1976.000000	98.888743 
1975.000000	98.889725 
1974.000000	98.892680 
1973.000000	98.898320 
1972.000000	98.912546 
1971.000000	98.940731 
1970.000000	98.974272 
1969.000000	98.992884 
1968.000000	98.987429 
1967.000000	98.971829 
1966.000000	98.963574 
1965.000000	98.961974 
1964.000000	98.956491 
1963.000000	98.946787 
1962.000000	98.941844 
1961.000000	98.944174 
1960.000000	98.946616 
1959.000000	98.944360 
1958.000000	98.940590 
1957.000000	98.939181 
1956.000000	98.939369 
1955.000000	98.939297 
1954.000000	98.939294 
1953.000000	98.939572 
1952.000000	98.937909 
1951.000000	98.932330 
1950.000000	98.924877 
1949.000000	98.921319 
1948.000000	98.926861 
1947.000000	98.940080 
1946.000000	98.950392 
1945.000000	98.945071 
1944.000000	98.922225 
1943.000000	98.896083 
1942.000000	98.885296 
1941.000000	98.894615 
1940.000000	98.912273 
1939.000000	98.924548 
1938.000000	98.927794 
1937.000000	98.927643 
1936.000000	98.930069 
1935.000000	98.934583 
1934.000000	98.936720 
1933.000000	98.935851 
1932.000000	98.936931 
1931.000000	98.943469 
1930.000000	98.951109 
1929.000000	98.951851 
1928.000000	98.944564 
1927.000000	98.936124 
1926.000000	98.932779 
1925.000000	98.934191 
1924.000000	98.937200 
1923.000000	98.941746 
1922.000000	98.949245 
1921.000000	98.957937 
1920.000000	98.962996 
1919.000000	98.960022 
1918.000000	98.947889 
1917.000000	98.930624 
1916.000000	98.915663 
1915.000000	98.907594 
1914.000000	98.904924 
1913.000000	98.903613 
1912.000000	98.901839 
1911.000000	98.900146 
1910.000000	98.897372 
1909.000000	98.891573 
1908.000000	98.886393 
1907.000000	98.889522 
1906.000000	98.903132 
1905.000000	98.919473 
1904.000000	98.929045 
1903.000000	98.930320 
1902.000000	98.927291 
1901.000000	98.922661 
1900.000000	98.918027 
1899.000000	98.916359 
1898.000000	98.919787 
1897.000000	98.925963 
1896.000000	98.930359 
1895.000000	98.931821 
1894.000000	98.932266 
1893.000000	98.932544 
1892.000000	98.931785 
1891.000000	98.929288 
1890.000000	98.924281 
1889.000000	98.915839 
1888.000000	98.905665 
1887.000000	98.898087 
1886.000000	98.895746 
1885.000000	98.897560 
1884.000000	98.901343 
1883.000000	98.906611 
1882.000000	98.912850 
1881.000000	98.917986 
1880.000000	98.921734 
1879.000000	98.927109 
1878.000000	98.936489 
1877.000000	98.948134 
1876.000000	98.957783 
1875.000000	98.962028 
1874.000000	98.958558 
1873.000000	98.946502 
1872.000000	98.929816 
1871.000000	98.917083 
1870.000000	98.913945 
1869.000000	98.915713 
1868.000000	98.914194 
1867.000000	98.910603 
1866.000000	98.911101 
1865.000000	98.914710 
1864.000000	98.914006 
1863.000000	98.904914 
1862.000000	98.892049 
1861.000000	98.884037 
1860.000000	98.886140 
1859.000000	98.897730 
1858.000000	98.913714 
1857.000000	98.927431 
1856.000000	98.934956 
1855.000000	98.937560 
1854.000000	98.938626 
1853.000000	98.939214 
1852.000000	98.939398 
1851.000000	98.940228 
1850.000000	98.942573 
1849.000000	98.945526 
1848.000000	98.946928 
1847.000000	98.945385 
1846.000000	98.940509 
1845.000000	98.933248 
1844.000000	98.926905 
1843.000000	98.925989 
1842.000000	98.930763 
1841.000000	98.936658 
1840.000000	98.940353 
1839.000000	98.941694 
1838.000000	98.941817 
1837.000000	98.941404 
1836.000000	98.941254 
1835.000000	98.942952 
1834.000000	98.946649 
1833.000000	98.950210 
1832.000000	98.951231 
1831.000000	98.948007 
1830.000000	98.940349 
1829.000000	98.931924 
1828.000000	98.927794 
1827.000000	98.928599 
1826.000000	98.930665 
1825.000000	98.930086 
1824.000000	98.926153 
1823.000000	98.921107 
1822.000000	98.915996 
1821.000000	98.910973 
1820.000000	98.908898 
1819.000000	98.913803 
1818.000000	98.925058 
1817.000000	98.934775 
1816.000000	98.935828 
1815.000000	98.930533 
1814.000000	98.926079 
1813.000000	98.926069 
1812.000000	98.929242 
1811.000000	98.934531 
1810.000000	98.942269 
1809.000000	98.949237 
1808.000000	98.950496 
1807.000000	98.945994 
1806.000000	98.939699 
1805.000000	98.933952 
1804.000000	98.928944 
1803.000000	98.925611 
1802.000000	98.923241 
1801.000000	98.917525 
1800.000000	98.906560 
1799.000000	98.897338 
1798.000000	98.898379 
1797.000000	98.907749 
1796.000000	98.916709 
1795.000000	98.921671 
1794.000000	98.926118 
1793.000000	98.931663 
1792.000000	98.933016 
1791.000000	98.928674 
1790.000000	98.925410 
1789.000000	98.926872 
1788.000000	98.930700 
1787.000000	98.935012 
1786.000000	98.940961 
1785.000000	98.948086 
1784.000000	98.952096 
1783.000000	98.950411 
1782.000000	98.944222 
1781.000000	98.936360 
1780.000000	98.927236 
1779.000000	98.915511 
1778.000000	98.902843 
1777.000000	98.894164 
1776.000000	98.894313 
1775.000000	98.902379 
1774.000000	98.911457 
1773.000000	98.915205 
1772.000000	98.914197 
1771.000000	98.914821 
1770.000000	98.919650 
1769.000000	98.924349 
1768.000000	98.925649 
1767.000000	98.926007 
1766.000000	98.928979 
1765.000000	98.933697 
1764.000000	98.936342 
1763.000000	98.936143 
1762.000000	98.935870 
1761.000000	98.936859 
1760.000000	98.936199 
1759.000000	98.933072 
1758.000000	98.932389 
1757.000000	98.937563 
1756.000000	98.943722 
1755.000000	98.943440 
1754.000000	98.937669 
1753.000000	98.933604 
1752.000000	98.934106 
1751.000000	98.932416 
1750.000000	98.924633 
1749.000000	98.918252 
1748.000000	98.919438 
1747.000000	98.923841 
1746.000000	98.924889 
1745.000000	98.924363 
1744.000000	98.926748 
1743.000000	98.930241 
1742.000000	98.930851 
1741.000000	98.930720 
1740.000000	98.934796 
1739.000000	98.941633 
1738.000000	98.944873 
1737.000000	98.943233 
1736.000000	98.942581 
1735.000000	98.950412 
1734.000000	98.958958 
1733.000000	98.954538 
1732.000000	98.941615 
1731.000000	98.929890 
1730.000000	98.921756 
1729.000000	98.914551 
1728.000000	98.906538 
1727.000000	98.900835 
1726.000000	98.900564 
1725.000000	98.904527 
1724.000000	98.906937 
1723.000000	98.905112 
1722.000000	98.903389 
1721.000000	98.905673 
1720.000000	98.910589 
1719.000000	98.915529 
1718.000000	98.921776 
1717.000000	98.930340 
1716.000000	98.936878 
1715.000000	98.937448 
1714.000000	98.933900 
1713.000000	98.930282 
1712.000000	98.927759 
1711.000000	98.924774 
1710.000000	98.920025 
1709.000000	98.914881 
1708.000000	98.912282 
1707.000000	98.911530 
1706.000000	98.906503 
1705.000000	98.892224 
1704.000000	98.874541 
1703.000000	98.862270 
1702.000000	98.856491 
1701.000000	98.851395 
1700.000000	98.840644 
1699.000000	98.834831 
1698.000000	98.843264 
1697.000000	98.854815 
1696.000000	98.857209 
1695.000000	98.852315 
1694.000000	98.850046 
1693.000000	98.850734 
1692.000000	98.848961 
1691.000000	98.845843 
1690.000000	98.845751 
1689.000000	98.848807 
1688.000000	98.851271 
1687.000000	98.850474 
1686.000000	98.848692 
1685.000000	98.847993 
1684.000000	98.839377 
1683.000000	98.822841 
1682.000000	98.809942 
1681.000000	98.803600 
1680.000000	98.802677 
1679.000000	98.802846 
1678.000000	98.798459 
1677.000000	98.790041 
1676.000000	98.782951 
1675.000000	98.779270 
1674.000000	98.776296 
1673.000000	98.774750 
1672.000000	98.776897 
1671.000000	98.782060 
1670.000000	98.783557 
1669.000000	98.776796 
1668.000000	98.769419 
1667.000000	98.767355 
1666.000000	98.766976 
1665.000000	98.764368 
1664.000000	98.760109 
1663.000000	98.756623 
1662.000000	98.752661 
1661.000000	98.747098 
1660.000000	98.743285 
1659.000000	98.743510 
1658.000000	98.744574 
1657.000000	98.741253 
1656.000000	98.733914 
1655.000000	98.726506 
1654.000000	98.725551 
1653.000000	98.723390 
1652.000000	98.717980 
1651.000000	98.717992 
1650.000000	98.717985 
1649.000000	98.715328 
1648.000000	98.712897 
1647.000000	98.710552 
1646.000000	98.709644 
1645.000000	98.712519 
1644.000000	98.717626 
1643.000000	98.722573 
1642.000000	98.725956 
1641.000000	98.725959 
1640.000000	98.721949 
1639.000000	98.715754 
1638.000000	98.710726 
1637.000000	98.710200 
1636.000000	98.714377 
1635.000000	98.718973 
1634.000000	98.721868 
1633.000000	98.722292 
1632.000000	98.719372 
1631.000000	98.715307 
1630.000000	98.712195 
1629.000000	98.710545 
1628.000000	98.710649 
1627.000000	98.712816 
1626.000000	98.715682 
1625.000000	98.717897 
1624.000000	98.720876 
1623.000000	98.726549 
1622.000000	98.733671 
1621.000000	98.739610 
1620.000000	98.744077 
1619.000000	98.748309 
1618.000000	98.753471 
1617.000000	98.758313 
1616.000000	98.762929 
1615.000000	98.769161 
1614.000000	98.774782 
1613.000000	98.777340 
1612.000000	98.779142 
1611.000000	98.783109 
1610.000000	98.787253 
1609.000000	98.788050 
1608.000000	98.786868 
1607.000000	98.787938 
1606.000000	98.791512 
1605.000000	98.795529 
1604.000000	98.800310 
1603.000000	98.806630 
1602.000000	98.813286 
1601.000000	98.818948 
1600.000000	98.824522 
1599.000000	98.831117 
1598.000000	98.837565 
1597.000000	98.841950 
1596.000000	98.843737 
1595.000000	98.843501 
1594.000000	98.841733 
1593.000000	98.839668 
1592.000000	98.839835 
1591.000000	98.843650 
1590.000000	98.849232 
1589.000000	98.853816 
1588.000000	98.857371 
1587.000000	98.861555 
1586.000000	98.866255 
1585.000000	98.869515 
1584.000000	98.871513 
1583.000000	98.873281 
1582.000000	98.873734 
1581.000000	98.871888 
1580.000000	98.869385 
1579.000000	98.867570 
1578.000000	98.865423 
1577.000000	98.862285 
1576.000000	98.859450 
1575.000000	98.859992 
1574.000000	98.863390 
1573.000000	98.866630 
1572.000000	98.869209 
1571.000000	98.872059 
1570.000000	98.873543 
1569.000000	98.872501 
1568.000000	98.872671 
1567.000000	98.874345 
1566.000000	98.874332 
1565.000000	98.872338 
1564.000000	98.871857 
1563.000000	98.872276 
1562.000000	98.871354 
1561.000000	98.866775 
1560.000000	98.868004 
1559.000000	98.870577 
1558.000000	98.865402 
1557.000000	98.863222 
1556.000000	98.865919 
1555.000000	98.870077 
1554.000000	98.873357 
1553.000000	98.873493 
1552.000000	98.871923 
1551.000000	98.870325 
1550.000000	98.870204 
1549.000000	98.871586 
1548.000000	98.873529 
1547.000000	98.874165 
1546.000000	98.871146 
1545.000000	98.864554 
1544.000000	98.858300 
1543.000000	98.857075 
1542.000000	98.862118 
1541.000000	98.870216 
1540.000000	98.874222 
1539.000000	98.874186 
1538.000000	98.874655 
1537.000000	98.874521 
1536.000000	98.873498 
1535.000000	98.875033 
1534.000000	98.877885 
1533.000000	98.877095 
1532.000000	98.873713 
1531.000000	98.872620 
1530.000000	98.874304 
1529.000000	98.875391 
1528.000000	98.873639 
1527.000000	98.871190 
1526.000000	98.870760 
1525.000000	98.871734 
1524.000000	98.873001 
1523.000000	98.876945 
1522.000000	98.885499 
1521.000000	98.892046 
1520.000000	98.889491 
1519.000000	98.879387 
1518.000000	98.867654 
1517.000000	98.860189 
1516.000000	98.858969 
1515.000000	98.861842 
1514.000000	98.865972 
1513.000000	98.870532 
1512.000000	98.874955 
1511.000000	98.877492 
1510.000000	98.878313 
1509.000000	98.878507 
1508.000000	98.880140 
1507.000000	98.881154 
1506.000000	98.879840 
1505.000000	98.878509 
1504.000000	98.877332 
1503.000000	98.876049 
1502.000000	98.876407 
1501.000000	98.877703 
1500.000000	98.876791 
1499.000000	98.872513 
1498.000000	98.868740 
1497.000000	98.869771 
1496.000000	98.873714 
1495.000000	98.878115 
1494.000000	98.883388 
1493.000000	98.889012 
1492.000000	98.892671 
1491.000000	98.892602 
1490.000000	98.889392 
1489.000000	98.885120 
1488.000000	98.880391 
1487.000000	98.876207 
1486.000000	98.873789 
1485.000000	98.871354 
1484.000000	98.868059 
1483.000000	98.864885 
1482.000000	98.862908 
1481.000000	98.861594 
1480.000000	98.859638 
1479.000000	98.857235 
1478.000000	98.855123 
1477.000000	98.852774 
1476.000000	98.849671 
1475.000000	98.849009 
1474.000000	98.853888 
1473.000000	98.861092 
1472.000000	98.863914 
1471.000000	98.862202 
1470.000000	98.860060 
1469.000000	98.857815 
1468.000000	98.853789 
1467.000000	98.848374 
1466.000000	98.843925 
1465.000000	98.841710 
1464.000000	98.841372 
1463.000000	98.841763 
1462.000000	98.841950 
1461.000000	98.840868 
1460.000000	98.838007 
1459.000000	98.832764 
1458.000000	98.824385 
1457.000000	98.811782 
1456.000000	98.798299 
1455.000000	98.788493 
1454.000000	98.782306 
1453.000000	98.780304 
1452.000000	98.782963 
1451.000000	98.787866 
1450.000000	98.792474 
1449.000000	98.796013 
1448.000000	98.797701 
1447.000000	98.797477 
1446.000000	98.796210 
1445.000000	98.795911 
1444.000000	98.797990 
1443.000000	98.800923 
1442.000000	98.802204 
1441.000000	98.801005 
1440.000000	98.798747 
1439.000000	98.796418 
1438.000000	98.794931 
1437.000000	98.793929 
1436.000000	98.791446 
1435.000000	98.786830 
1434.000000	98.781148 
1433.000000	98.775352 
1432.000000	98.770643 
1431.000000	98.767534 
1430.000000	98.765499 
1429.000000	98.763953 
1428.000000	98.762223 
1427.000000	98.760670 
1426.000000	98.759104 
1425.000000	98.757149 
1424.000000	98.754534 
1423.000000	98.750299 
1422.000000	98.743999 
1421.000000	98.735188 
1420.000000	98.723110 
1419.000000	98.707010 
1418.000000	98.690167 
1417.000000	98.676261 
1416.000000	98.663432 
1415.000000	98.649225 
1414.000000	98.633786 
1413.000000	98.618332 
1412.000000	98.603681 
1411.000000	98.589939 
1410.000000	98.577816 
1409.000000	98.568227 
1408.000000	98.561105 
1407.000000	98.557445 
1406.000000	98.558958 
1405.000000	98.565957 
1404.000000	98.576560 
1403.000000	98.588618 
1402.000000	98.602852 
1401.000000	98.621172 
1400.000000	98.642175 
1399.000000	98.658519 
1398.000000	98.661173 
1397.000000	98.644660 
1396.000000	98.609644 
1395.000000	98.569686 
1394.000000	98.549584 
1393.000000	98.564182 
1392.000000	98.603466 
1391.000000	98.645315 
1390.000000	98.674062 
1389.000000	98.685833 
1388.000000	98.683815 
1387.000000	98.673496 
1386.000000	98.661688 
1385.000000	98.654301 
1384.000000	98.652676 
1383.000000	98.653281 
1382.000000	98.652487 
1381.000000	98.650735 
1380.000000	98.651607 
1379.000000	98.657361 
1378.000000	98.666808 
1377.000000	98.677574 
1376.000000	98.688527 
1375.000000	98.699406 
1374.000000	98.709809 
1373.000000	98.720367 
1372.000000	98.732195 
1371.000000	98.745020 
1370.000000	98.756818 
1369.000000	98.766084 
1368.000000	98.773321 
1367.000000	98.779601 
1366.000000	98.785540 
1365.000000	98.791818 
1364.000000	98.799202 
1363.000000	98.807121 
1362.000000	98.813517 
1361.000000	98.817317 
1360.000000	98.819954 
1359.000000	98.823948 
1358.000000	98.830666 
1357.000000	98.839552 
1356.000000	98.848815 
1355.000000	98.856894 
1354.000000	98.863804 
1353.000000	98.870651 
1352.000000	98.877229 
1351.000000	98.881883 
1350.000000	98.883090 
1349.000000	98.881798 
1348.000000	98.880658 
1347.000000	98.880670 
1346.000000	98.880763 
1345.000000	98.880313 
1344.000000	98.880067 
1343.000000	98.880241 
1342.000000	98.879896 
1341.000000	98.879117 
1340.000000	98.880085 
1339.000000	98.884093 
1338.000000	98.888959 
1337.000000	98.891677 
1336.000000	98.892120 
1335.000000	98.892289 
1334.000000	98.893080 
1333.000000	98.893504 
1332.000000	98.892744 
1331.000000	98.891436 
1330.000000	98.890475 
1329.000000	98.889865 
1328.000000	98.889204 
1327.000000	98.888475 
1326.000000	98.887533 
1325.000000	98.885978 
1324.000000	98.883976 
1323.000000	98.882569 
1322.000000	98.882855 
1321.000000	98.884916 
1320.000000	98.887948 
1319.000000	98.891186 
1318.000000	98.894103 
1317.000000	98.895558 
1316.000000	98.893931 
1315.000000	98.889002 
1314.000000	98.883056 
1313.000000	98.878940 
1312.000000	98.877192 
1311.000000	98.876292 
1310.000000	98.875355 
1309.000000	98.875005 
1308.000000	98.875441 
1307.000000	98.875480 
1306.000000	98.873960 
1305.000000	98.871236 
1304.000000	98.868501 
1303.000000	98.866474 
1302.000000	98.865354 
1301.000000	98.864938 
1300.000000	98.864348 
1299.000000	98.862703 
1298.000000	98.860610 
1297.000000	98.859689 
1296.000000	98.860118 
1295.000000	98.859971 
1294.000000	98.857682 
1293.000000	98.853747 
1292.000000	98.849196 
1291.000000	98.844198 
1290.000000	98.839247 
1289.000000	98.835775 
1288.000000	98.833814 
1287.000000	98.830631 
1286.000000	98.823845 
1285.000000	98.814749 
1284.000000	98.806366 
1283.000000	98.799229 
1282.000000	98.791372 
1281.000000	98.781901 
1280.000000	98.772259 
1279.000000	98.763910 
1278.000000	98.756943 
1277.000000	98.751248 
1276.000000	98.747031 
1275.000000	98.743537 
1274.000000	98.738849 
1273.000000	98.731782 
1272.000000	98.722962 
1271.000000	98.713690 
1270.000000	98.704751 
1269.000000	98.696378 
1268.000000	98.688067 
1267.000000	98.678204 
1266.000000	98.665459 
1265.000000	98.650977 
1264.000000	98.637750 
1263.000000	98.627264 
1262.000000	98.618062 
1261.000000	98.608144 
1260.000000	98.597599 
1259.000000	98.587839 
1258.000000	98.579336 
1257.000000	98.571339 
1256.000000	98.563322 
1255.000000	98.555764 
1254.000000	98.549487 
1253.000000	98.544522 
1252.000000	98.539685 
1251.000000	98.533538 
1250.000000	98.526238 
1249.000000	98.520197 
1248.000000	98.518102 
1247.000000	98.519855 
1246.000000	98.521431 
1245.000000	98.516630 
1244.000000	98.501019 
1243.000000	98.476770 
1242.000000	98.454332 
1241.000000	98.445914 
1240.000000	98.454033 
1239.000000	98.467563 
1238.000000	98.472028 
1237.000000	98.463344 
1236.000000	98.448756 
1235.000000	98.435803 
1234.000000	98.424913 
1233.000000	98.412916 
1232.000000	98.398618 
1231.000000	98.382407 
1230.000000	98.364285 
1229.000000	98.345647 
1228.000000	98.330589 
1227.000000	98.321919 
1226.000000	98.316905 
1225.000000	98.309784 
1224.000000	98.297861 
1223.000000	98.282913 
1222.000000	98.267460 
1221.000000	98.252180 
1220.000000	98.236794 
1219.000000	98.221090 
1218.000000	98.204477 
1217.000000	98.185842 
1216.000000	98.164203 
1215.000000	98.138904 
1214.000000	98.109623 
1213.000000	98.077150 
1212.000000	98.043698 
1211.000000	98.011404 
1210.000000	97.980730 
1209.000000	97.950985 
1208.000000	97.921756 
1207.000000	97.892927 
1206.000000	97.864028 
1205.000000	97.834635 
1204.000000	97.804795 
1203.000000	97.774207 
1202.000000	97.741871 
1201.000000	97.707574 
1200.000000	97.672756 
1199.000000	97.638745 
1198.000000	97.605091 
1197.000000	97.570682 
1196.000000	97.535195 
1195.000000	97.498150 
1194.000000	97.458157 
1193.000000	97.415094 
1192.000000	97.371771 
1191.000000	97.331151 
1190.000000	97.292724 
1189.000000	97.253699 
1188.000000	97.212940 
1187.000000	97.171575 
1186.000000	97.130537 
1185.000000	97.089737 
1184.000000	97.049018 
1183.000000	97.007829 
1182.000000	96.964713 
1181.000000	96.919116 
1180.000000	96.872610 
1179.000000	96.826095 
1178.000000	96.777284 
1177.000000	96.723730 
1176.000000	96.666783 
1175.000000	96.609158 
1174.000000	96.549932 
1173.000000	96.486187 
1172.000000	96.419114 
1171.000000	96.354124 
1170.000000	96.294548 
1169.000000	96.238895 
1168.000000	96.184767 
1167.000000	96.132255 
1166.000000	96.083825 
1165.000000	96.044742 
1164.000000	96.023247 
1163.000000	96.025433 
1162.000000	96.048713 
1161.000000	96.083443 
1160.000000	96.120398 
1159.000000	96.152557 
1158.000000	96.171135 
1157.000000	96.166749 
1156.000000	96.136910 
1155.000000	96.088921 
1154.000000	96.033949 
1153.000000	95.980405 
1152.000000	95.932208 
1151.000000	95.888509 
1150.000000	95.844064 
1149.000000	95.794345 
1148.000000	95.741552 
1147.000000	95.691794 
1146.000000	95.645966 
1145.000000	95.598283 
1144.000000	95.544834 
1143.000000	95.488490 
1142.000000	95.433768 
1141.000000	95.381985 
1140.000000	95.333551 
1139.000000	95.289678 
1138.000000	95.248559 
1137.000000	95.204178 
1136.000000	95.152291 
1135.000000	95.094423 
1134.000000	95.033675 
1133.000000	94.970250 
1132.000000	94.903833 
1131.000000	94.836956 
1130.000000	94.772913 
1129.000000	94.712585 
1128.000000	94.654961 
1127.000000	94.597748 
1126.000000	94.536367 
1125.000000	94.466638 
1124.000000	94.390669 
1123.000000	94.316365 
1122.000000	94.248793 
1121.000000	94.185428 
1120.000000	94.121706 
1119.000000	94.057069 
1118.000000	93.993143 
1117.000000	93.930001 
1116.000000	93.867191 
1115.000000	93.805364 
1114.000000	93.744521 
1113.000000	93.683504 
1112.000000	93.622682 
1111.000000	93.563721 
1110.000000	93.505394 
1109.000000	93.443907 
1108.000000	93.379043 
1107.000000	93.315816 
1106.000000	93.257770 
1105.000000	93.202284 
1104.000000	93.144713 
1103.000000	93.083939 
1102.000000	93.022180 
1101.000000	92.962575 
1100.000000	92.907831 
1099.000000	92.858400 
1098.000000	92.811120 
1097.000000	92.762932 
1096.000000	92.715292 
1095.000000	92.670404 
1094.000000	92.624000 
1093.000000	92.567564 
1092.000000	92.498058 
1091.000000	92.420397 
1090.000000	92.340668 
1089.000000	92.262544 
1088.000000	92.189877 
1087.000000	92.125714 
1086.000000	92.067755 
1085.000000	92.011005 
1084.000000	91.955196 
1083.000000	91.903033 
1082.000000	91.851629 
1081.000000	91.793972 
1080.000000	91.729671 
1079.000000	91.666113 
1078.000000	91.607891 
1077.000000	91.553301 
1076.000000	91.502322 
1075.000000	91.458613 
1074.000000	91.421118 
1073.000000	91.382102 
1072.000000	91.334984 
1071.000000	91.274976 
1070.000000	91.191489 
1069.000000	91.073194 
1068.000000	90.927074 
1067.000000	90.782622 
1066.000000	90.668328 
1065.000000	90.588441 
1064.000000	90.526804 
1063.000000	90.464623 
1062.000000	90.388384 
1061.000000	90.289986 
1060.000000	90.170352 
1059.000000	90.041345 
1058.000000	89.917691 
1057.000000	89.807101 
1056.000000	89.709267 
1055.000000	89.619294 
1054.000000	89.529081 
1053.000000	89.430832 
1052.000000	89.323543 
1051.000000	89.212383 
1050.000000	89.099584 
1049.000000	88.981618 
1048.000000	88.857265 
1047.000000	88.731297 
1046.000000	88.607861 
1045.000000	88.486629 
1044.000000	88.366842 
1043.000000	88.248963 
1042.000000	88.131666 
1041.000000	88.013518 
1040.000000	87.898318 
1039.000000	87.792787 
1038.000000	87.699065 
1037.000000	87.615774 
1036.000000	87.544859 
1035.000000	87.489070 
1034.000000	87.443896 
1033.000000	87.400743 
1032.000000	87.356598 
1031.000000	87.311795 
1030.000000	87.262146 
1029.000000	87.206203 
1028.000000	87.158370 
1027.000000	87.139096 
1026.000000	87.148903 
1025.000000	87.165242 
1024.000000	87.168141 
1023.000000	87.156713 
1022.000000	87.138286 
1021.000000	87.115507 
1020.000000	87.090139 
1019.000000	87.067647 
1018.000000	87.050066 
1017.000000	87.032268 
1016.000000	87.010882 
1015.000000	86.989739 
1014.000000	86.972378 
1013.000000	86.956571 
1012.000000	86.939955 
1011.000000	86.923938 
1010.000000	86.909125 
1009.000000	86.894241 
1008.000000	86.882161 
1007.000000	86.879404 
1006.000000	86.886924 
1005.000000	86.898538 
1004.000000	86.910506 
1003.000000	86.925528 
1002.000000	86.945934 
1001.000000	86.970557 
1000.000000	86.999592 
999.000000	 87.034607 
998.000000	 87.072519 
997.000000	 87.107725 
996.000000	 87.141537 
995.000000	 87.181376 
994.000000	 87.229201 
993.000000	 87.278717 
992.000000	 87.325319 
991.000000	 87.370812 
990.000000	 87.417171 
989.000000	 87.463923 
988.000000	 87.513289 
987.000000	 87.570192 
986.000000	 87.635601 
985.000000	 87.706852 
984.000000	 87.784741 
983.000000	 87.872542 
982.000000	 87.968034 
981.000000	 88.065094 
980.000000	 88.163641 
979.000000	 88.269647 
978.000000	 88.385001 
977.000000	 88.505787 
976.000000	 88.630543 
975.000000	 88.761098 
974.000000	 88.894865 
973.000000	 89.025808 
972.000000	 89.154289 
971.000000	 89.286980 
970.000000	 89.425356 
969.000000	 89.562806 
968.000000	 89.694929 
967.000000	 89.824449 
966.000000	 89.953856 
965.000000	 90.080925 
964.000000	 90.203895 
963.000000	 90.324163 
962.000000	 90.441709 
961.000000	 90.554191 
960.000000	 90.662203 
959.000000	 90.769107 
958.000000	 90.874312 
957.000000	 90.973150 
956.000000	 91.064726 
955.000000	 91.153248 
954.000000	 91.240007 
953.000000	 91.320785 
952.000000	 91.393349 
951.000000	 91.461009 
950.000000	 91.526023 
949.000000	 91.585362 
948.000000	 91.636139 
947.000000	 91.680225 
946.000000	 91.720475 
945.000000	 91.756827 
944.000000	 91.789176 
943.000000	 91.820457 
942.000000	 91.853936 
941.000000	 91.889758 
940.000000	 91.925563 
939.000000	 91.958206 
938.000000	 91.984893 
937.000000	 92.006099 
936.000000	 92.027535 
935.000000	 92.055653 
934.000000	 92.090949 
933.000000	 92.128970 
932.000000	 92.167101 
931.000000	 92.205995 
930.000000	 92.244878 
929.000000	 92.280307 
928.000000	 92.309903 
927.000000	 92.333547 
926.000000	 92.351608 
925.000000	 92.366198 
924.000000	 92.383094 
923.000000	 92.407133 
922.000000	 92.435501 
921.000000	 92.459895 
920.000000	 92.475044 
919.000000	 92.481320 
918.000000	 92.480841 
917.000000	 92.476426 
916.000000	 92.473434 
915.000000	 92.476877 
914.000000	 92.486642 
913.000000	 92.500356 
912.000000	 92.520355 
911.000000	 92.552852 
910.000000	 92.601219 
909.000000	 92.664902 
908.000000	 92.742863 
907.000000	 92.832069 
906.000000	 92.924974 
905.000000	 93.015682 
904.000000	 93.107180 
903.000000	 93.206037 
902.000000	 93.311958 
901.000000	 93.419216 
900.000000	 93.525738 
899.000000	 93.632766 
898.000000	 93.737314 
897.000000	 93.833432 
896.000000	 93.920219 
895.000000	 94.001186 
894.000000	 94.076967 
893.000000	 94.146648 
892.000000	 94.215369 
891.000000	 94.291589 
890.000000	 94.375631 
889.000000	 94.458494 
888.000000	 94.533218 
887.000000	 94.600742 
886.000000	 94.664052 
885.000000	 94.723687 
884.000000	 94.780105 
883.000000	 94.833753 
882.000000	 94.881775 
881.000000	 94.921806 
880.000000	 94.960390 
879.000000	 95.009910 
878.000000	 95.074190 
877.000000	 95.143681 
876.000000	 95.207500 
875.000000	 95.263660 
874.000000	 95.315310 
873.000000	 95.364170 
872.000000	 95.411430 
871.000000	 95.459394 
870.000000	 95.508577 
869.000000	 95.557785 
868.000000	 95.609533 
867.000000	 95.669803 
866.000000	 95.738699 
865.000000	 95.806183 
864.000000	 95.861995 
863.000000	 95.907106 
862.000000	 95.950936 
861.000000	 95.998860 
860.000000	 96.047113 
859.000000	 96.089963 
858.000000	 96.127571 
857.000000	 96.164638 
856.000000	 96.203825 
855.000000	 96.243513 
854.000000	 96.281297 
853.000000	 96.316276 
852.000000	 96.346867 
851.000000	 96.369808 
850.000000	 96.384606 
849.000000	 96.396854 
848.000000	 96.412898 
847.000000	 96.431752 
846.000000	 96.446185 
845.000000	 96.451613 
844.000000	 96.449628 
843.000000	 96.442819 
842.000000	 96.431371 
841.000000	 96.415824 
840.000000	 96.397912 
839.000000	 96.376756 
838.000000	 96.349209 
837.000000	 96.316202 
836.000000	 96.283707 
835.000000	 96.254961 
834.000000	 96.227507 
833.000000	 96.201530 
832.000000	 96.184529 
831.000000	 96.181437 
830.000000	 96.185214 
829.000000	 96.185191 
828.000000	 96.181849 
827.000000	 96.185356 
826.000000	 96.200952 
825.000000	 96.223149 
824.000000	 96.243544 
823.000000	 96.257803 
822.000000	 96.266282 
821.000000	 96.273424 
820.000000	 96.284613 
819.000000	 96.299581 
818.000000	 96.311645 
817.000000	 96.315787 
816.000000	 96.312024 
815.000000	 96.297269 
814.000000	 96.261267 
813.000000	 96.197464 
812.000000	 96.111798 
811.000000	 96.011993 
810.000000	 95.892379 
809.000000	 95.739064 
808.000000	 95.548101 
807.000000	 95.329287 
806.000000	 95.093262 
805.000000	 94.845030 
804.000000	 94.591591 
803.000000	 94.346356 
802.000000	 94.122548 
801.000000	 93.929154 
800.000000	 93.775126 
799.000000	 93.669637 
798.000000	 93.615716 
797.000000	 93.609476 
796.000000	 93.644393 
795.000000	 93.708673 
794.000000	 93.781809 
793.000000	 93.845332 
792.000000	 93.896860 
791.000000	 93.944729 
790.000000	 93.990415 
789.000000	 94.025176 
788.000000	 94.041057 
787.000000	 94.034024 
786.000000	 93.997972 
785.000000	 93.928337 
784.000000	 93.833435 
783.000000	 93.732205 
782.000000	 93.638684 
781.000000	 93.556827 
780.000000	 93.490188 
779.000000	 93.445683 
778.000000	 93.426471 
777.000000	 93.431803 
776.000000	 93.465190 
775.000000	 93.531266 
774.000000	 93.622148 
773.000000	 93.717920 
772.000000	 93.804042 
771.000000	 93.879790 
770.000000	 93.948449 
769.000000	 94.008756 
768.000000	 94.058170 
767.000000	 94.095905 
766.000000	 94.120560 
765.000000	 94.132673 
764.000000	 94.140767 
763.000000	 94.156016 
762.000000	 94.178568 
761.000000	 94.197306 
760.000000	 94.205681 
759.000000	 94.210401 
758.000000	 94.222403 
757.000000	 94.245948 
756.000000	 94.277520 
755.000000	 94.308355 
754.000000	 94.328016 
753.000000	 94.333923 
752.000000	 94.338424 
751.000000	 94.358770 
750.000000	 94.398617 
749.000000	 94.445829 
748.000000	 94.488309 
747.000000	 94.524382 
746.000000	 94.558272 
745.000000	 94.594271 
744.000000	 94.636623 
743.000000	 94.687503 
742.000000	 94.743928 
741.000000	 94.802612 
740.000000	 94.866308 
739.000000	 94.937801 
738.000000	 95.009670 
737.000000	 95.068932 
736.000000	 95.110763 
735.000000	 95.139713 
734.000000	 95.160097 
733.000000	 95.175203 
732.000000	 95.193790 
731.000000	 95.224728 
730.000000	 95.263685 
729.000000	 95.295893 
728.000000	 95.313760 
727.000000	 95.321987 
726.000000	 95.325086 
725.000000	 95.321763 
724.000000	 95.314149 
723.000000	 95.311545 
722.000000	 95.320871 
721.000000	 95.341463 
720.000000	 95.371450 
719.000000	 95.410500 
718.000000	 95.454219 
717.000000	 95.494526 
716.000000	 95.527197 
715.000000	 95.552001 
714.000000	 95.566710 
713.000000	 95.570378 
712.000000	 95.571553 
711.000000	 95.581388 
710.000000	 95.597157 
709.000000	 95.603774 
708.000000	 95.593379 
707.000000	 95.571952 
706.000000	 95.544359 
705.000000	 95.506196 
704.000000	 95.455601 
703.000000	 95.400456 
702.000000	 95.345891 
701.000000	 95.283011 
700.000000	 95.196520 
699.000000	 95.078467 
698.000000	 94.933737 
697.000000	 94.781178 
696.000000	 94.650937 
695.000000	 94.569405 
694.000000	 94.541715 
693.000000	 94.555558 
692.000000	 94.600620 
691.000000	 94.672887 
690.000000	 94.761682 
689.000000	 94.848934 
688.000000	 94.925143 
687.000000	 94.991927 
686.000000	 95.045139 
685.000000	 95.072244 
684.000000	 95.072911 
683.000000	 95.066974 
682.000000	 95.074498 
681.000000	 95.098297 
680.000000	 95.129394 
679.000000	 95.158649 
678.000000	 95.179769 
677.000000	 95.193024 
676.000000	 95.211344 
675.000000	 95.248693 
674.000000	 95.297500 
673.000000	 95.332766 
672.000000	 95.345297 
671.000000	 95.355374 
670.000000	 95.387680 
669.000000	 95.447016 
668.000000	 95.514996 
667.000000	 95.556260 
666.000000	 95.553264 
665.000000	 95.528081 
664.000000	 95.510697 
663.000000	 95.519259 
662.000000	 95.549882 
661.000000	 95.576595 
660.000000	 95.577594 
659.000000	 95.554724 
658.000000	 95.522881 
657.000000	 95.491785 
656.000000	 95.465606 
655.000000	 95.447351 
654.000000	 95.433865 
653.000000	 95.419355 
652.000000	 95.409470 
651.000000	 95.415412 
650.000000	 95.430587 

