4000.000000	99.806423 
3999.000000	99.805278 
3998.000000	99.804445 
3997.000000	99.804376 
3996.000000	99.805059 
3995.000000	99.806009 
3994.000000	99.806752 
3993.000000	99.807159 
3992.000000	99.807331 
3991.000000	99.807342 
3990.000000	99.807144 
3989.000000	99.806661 
3988.000000	99.805883 
3987.000000	99.804907 
3986.000000	99.804008 
3985.000000	99.803633 
3984.000000	99.804155 
3983.000000	99.805536 
3982.000000	99.807279 
3981.000000	99.808714 
3980.000000	99.809362 
3979.000000	99.809051 
3978.000000	99.807912 
3977.000000	99.806338 
3976.000000	99.804773 
3975.000000	99.803437 
3974.000000	99.802279 
3973.000000	99.801239 
3972.000000	99.800488 
3971.000000	99.800369 
3970.000000	99.801077 
3969.000000	99.802422 
3968.000000	99.803836 
3967.000000	99.804658 
3966.000000	99.804520 
3965.000000	99.803511 
3964.000000	99.802090 
3963.000000	99.800853 
3962.000000	99.800200 
3961.000000	99.800154 
3960.000000	99.800398 
3959.000000	99.800487 
3958.000000	99.800191 
3957.000000	99.799653 
3956.000000	99.799201 
3955.000000	99.799011 
3954.000000	99.798960 
3953.000000	99.798809 
3952.000000	99.798462 
3951.000000	99.798022 
3950.000000	99.797634 
3949.000000	99.797332 
3948.000000	99.797045 
3947.000000	99.796723 
3946.000000	99.796420 
3945.000000	99.796236 
3944.000000	99.796172 
3943.000000	99.796077 
3942.000000	99.795782 
3941.000000	99.795287 
3940.000000	99.794756 
3939.000000	99.794335 
3938.000000	99.794032 
3937.000000	99.793780 
3936.000000	99.793519 
3935.000000	99.793232 
3934.000000	99.792953 
3933.000000	99.792748 
3932.000000	99.792664 
3931.000000	99.792687 
3930.000000	99.792744 
3929.000000	99.792712 
3928.000000	99.792448 
3927.000000	99.791866 
3926.000000	99.791029 
3925.000000	99.790148 
3924.000000	99.789440 
3923.000000	99.788955 
3922.000000	99.788513 
3921.000000	99.787911 
3920.000000	99.787267 
3919.000000	99.787009 
3918.000000	99.787357 
3917.000000	99.787959 
3916.000000	99.788234 
3915.000000	99.788058 
3914.000000	99.787869 
3913.000000	99.788124 
3912.000000	99.788781 
3911.000000	99.789292 
3910.000000	99.789054 
3909.000000	99.787897 
3908.000000	99.786185 
3907.000000	99.784619 
3906.000000	99.783826 
3905.000000	99.784021 
3904.000000	99.784901 
3903.000000	99.785876 
3902.000000	99.786529 
3901.000000	99.786710 
3900.000000	99.786365 
3899.000000	99.785491 
3898.000000	99.784217 
3897.000000	99.782760 
3896.000000	99.781283 
3895.000000	99.780026 
3894.000000	99.779597 
3893.000000	99.780753 
3892.000000	99.783482 
3891.000000	99.786524 
3890.000000	99.788495 
3889.000000	99.789175 
3888.000000	99.789157 
3887.000000	99.789046 
3886.000000	99.789081 
3885.000000	99.789041 
3884.000000	99.788841 
3883.000000	99.788733 
3882.000000	99.788596 
3881.000000	99.787915 
3880.000000	99.786468 
3879.000000	99.784675 
3878.000000	99.783391 
3877.000000	99.783108 
3876.000000	99.783573 
3875.000000	99.784150 
3874.000000	99.784235 
3873.000000	99.783570 
3872.000000	99.782320 
3871.000000	99.780831 
3870.000000	99.779589 
3869.000000	99.779267 
3868.000000	99.780462 
3867.000000	99.782933 
3866.000000	99.785224 
3865.000000	99.786022 
3864.000000	99.785492 
3863.000000	99.784816 
3862.000000	99.784719 
3861.000000	99.784707 
3860.000000	99.783834 
3859.000000	99.781729 
3858.000000	99.778660 
3857.000000	99.775364 
3856.000000	99.773008 
3855.000000	99.772834 
3854.000000	99.774671 
3853.000000	99.776242 
3852.000000	99.776706 
3851.000000	99.777901 
3850.000000	99.780250 
3849.000000	99.782310 
3848.000000	99.783310 
3847.000000	99.783589 
3846.000000	99.783732 
3845.000000	99.784002 
3844.000000	99.784222 
3843.000000	99.784028 
3842.000000	99.783283 
3841.000000	99.782341 
3840.000000	99.781849 
3839.000000	99.782079 
3838.000000	99.782429 
3837.000000	99.782029 
3836.000000	99.780811 
3835.000000	99.779602 
3834.000000	99.779251 
3833.000000	99.779939 
3832.000000	99.781149 
3831.000000	99.782118 
3830.000000	99.782543 
3829.000000	99.782710 
3828.000000	99.782953 
3827.000000	99.783179 
3826.000000	99.782993 
3825.000000	99.782213 
3824.000000	99.781121 
3823.000000	99.780252 
3822.000000	99.779976 
3821.000000	99.780164 
3820.000000	99.780525 
3819.000000	99.781232 
3818.000000	99.782382 
3817.000000	99.783437 
3816.000000	99.783790 
3815.000000	99.783400 
3814.000000	99.782926 
3813.000000	99.782906 
3812.000000	99.782948 
3811.000000	99.782378 
3810.000000	99.781239 
3809.000000	99.780292 
3808.000000	99.780134 
3807.000000	99.780453 
3806.000000	99.780518 
3805.000000	99.780487 
3804.000000	99.781184 
3803.000000	99.782849 
3802.000000	99.784607 
3801.000000	99.784970 
3800.000000	99.783641 
3799.000000	99.782206 
3798.000000	99.781859 
3797.000000	99.782205 
3796.000000	99.782457 
3795.000000	99.782498 
3794.000000	99.782949 
3793.000000	99.784309 
3792.000000	99.786329 
3791.000000	99.788235 
3790.000000	99.789338 
3789.000000	99.789456 
3788.000000	99.789065 
3787.000000	99.789157 
3786.000000	99.790593 
3785.000000	99.793334 
3784.000000	99.796400 
3783.000000	99.798724 
3782.000000	99.799936 
3781.000000	99.800269 
3780.000000	99.799885 
3779.000000	99.798531 
3778.000000	99.795970 
3777.000000	99.792584 
3776.000000	99.789157 
3775.000000	99.786352 
3774.000000	99.784634 
3773.000000	99.784318 
3772.000000	99.785346 
3771.000000	99.787003 
3770.000000	99.788117 
3769.000000	99.788044 
3768.000000	99.787307 
3767.000000	99.786732 
3766.000000	99.786449 
3765.000000	99.786316 
3764.000000	99.786741 
3763.000000	99.788503 
3762.000000	99.791679 
3761.000000	99.795124 
3760.000000	99.797418 
3759.000000	99.798068 
3758.000000	99.797584 
3757.000000	99.796493 
3756.000000	99.794596 
3755.000000	99.791661 
3754.000000	99.788289 
3753.000000	99.786003 
3752.000000	99.786261 
3751.000000	99.788500 
3750.000000	99.790036 
3749.000000	99.788873 
3748.000000	99.785077 
3747.000000	99.779830 
3746.000000	99.775100 
3745.000000	99.772763 
3744.000000	99.771933 
3743.000000	99.770895 
3742.000000	99.771027 
3741.000000	99.772809 
3740.000000	99.774140 
3739.000000	99.774447 
3738.000000	99.775294 
3737.000000	99.778172 
3736.000000	99.782627 
3735.000000	99.786317 
3734.000000	99.787395 
3733.000000	99.786430 
3732.000000	99.785742 
3731.000000	99.787172 
3730.000000	99.790668 
3729.000000	99.794404 
3728.000000	99.796423 
3727.000000	99.796598 
3726.000000	99.796655 
3725.000000	99.798144 
3724.000000	99.800567 
3723.000000	99.801771 
3722.000000	99.800364 
3721.000000	99.797252 
3720.000000	99.794569 
3719.000000	99.793340 
3718.000000	99.792696 
3717.000000	99.791220 
3716.000000	99.788349 
3715.000000	99.784571 
3714.000000	99.780708 
3713.000000	99.777461 
3712.000000	99.775495 
3711.000000	99.775416 
3710.000000	99.777468 
3709.000000	99.780955 
3708.000000	99.784256 
3707.000000	99.785913 
3706.000000	99.785484 
3705.000000	99.783626 
3704.000000	99.781619 
3703.000000	99.780644 
3702.000000	99.781082 
3701.000000	99.782422 
3700.000000	99.783958 
3699.000000	99.785210 
3698.000000	99.785726 
3697.000000	99.785096 
3696.000000	99.783409 
3695.000000	99.781440 
3694.000000	99.780149 
3693.000000	99.779895 
3692.000000	99.780266 
3691.000000	99.780490 
3690.000000	99.779981 
3689.000000	99.778717 
3688.000000	99.777301 
3687.000000	99.776571 
3686.000000	99.776792 
3685.000000	99.777337 
3684.000000	99.777282 
3683.000000	99.776240 
3682.000000	99.774487 
3681.000000	99.772543 
3680.000000	99.770701 
3679.000000	99.768992 
3678.000000	99.767474 
3677.000000	99.766306 
3676.000000	99.765430 
3675.000000	99.764446 
3674.000000	99.763463 
3673.000000	99.763094 
3672.000000	99.763307 
3671.000000	99.763547 
3670.000000	99.763397 
3669.000000	99.762758 
3668.000000	99.762001 
3667.000000	99.761453 
3666.000000	99.760843 
3665.000000	99.759843 
3664.000000	99.758567 
3663.000000	99.757319 
3662.000000	99.756145 
3661.000000	99.754798 
3660.000000	99.753161 
3659.000000	99.751549 
3658.000000	99.750461 
3657.000000	99.749983 
3656.000000	99.749542 
3655.000000	99.748530 
3654.000000	99.746969 
3653.000000	99.745302 
3652.000000	99.744003 
3651.000000	99.743383 
3650.000000	99.743191 
3649.000000	99.742584 
3648.000000	99.741197 
3647.000000	99.739566 
3646.000000	99.738325 
3645.000000	99.737644 
3644.000000	99.737382 
3643.000000	99.737293 
3642.000000	99.737123 
3641.000000	99.736716 
3640.000000	99.736167 
3639.000000	99.735827 
3638.000000	99.735989 
3637.000000	99.736525 
3636.000000	99.736850 
3635.000000	99.736311 
3634.000000	99.734680 
3633.000000	99.732332 
3632.000000	99.730046 
3631.000000	99.728554 
3630.000000	99.728128 
3629.000000	99.728114 
3628.000000	99.727559 
3627.000000	99.726934 
3626.000000	99.727303 
3625.000000	99.728513 
3624.000000	99.729687 
3623.000000	99.730329 
3622.000000	99.730503 
3621.000000	99.730468 
3620.000000	99.730277 
3619.000000	99.729786 
3618.000000	99.729155 
3617.000000	99.728962 
3616.000000	99.729469 
3615.000000	99.730189 
3614.000000	99.730329 
3613.000000	99.729464 
3612.000000	99.727807 
3611.000000	99.725982 
3610.000000	99.724598 
3609.000000	99.724018 
3608.000000	99.724267 
3607.000000	99.725080 
3606.000000	99.726192 
3605.000000	99.727473 
3604.000000	99.728783 
3603.000000	99.729875 
3602.000000	99.730462 
3601.000000	99.730522 
3600.000000	99.730499 
3599.000000	99.730947 
3598.000000	99.731969 
3597.000000	99.733102 
3596.000000	99.733769 
3595.000000	99.733780 
3594.000000	99.733446 
3593.000000	99.733311 
3592.000000	99.733771 
3591.000000	99.734790 
3590.000000	99.735891 
3589.000000	99.736388 
3588.000000	99.735794 
3587.000000	99.734296 
3586.000000	99.732797 
3585.000000	99.732162 
3584.000000	99.732494 
3583.000000	99.733273 
3582.000000	99.733816 
3581.000000	99.733743 
3580.000000	99.733137 
3579.000000	99.732370 
3578.000000	99.731784 
3577.000000	99.731529 
3576.000000	99.731649 
3575.000000	99.732158 
3574.000000	99.732947 
3573.000000	99.733711 
3572.000000	99.734098 
3571.000000	99.733945 
3570.000000	99.733408 
3569.000000	99.732926 
3568.000000	99.732925 
3567.000000	99.733452 
3566.000000	99.734204 
3565.000000	99.734876 
3564.000000	99.735343 
3563.000000	99.735571 
3562.000000	99.735565 
3561.000000	99.735396 
3560.000000	99.735217 
3559.000000	99.735180 
3558.000000	99.735327 
3557.000000	99.735589 
3556.000000	99.735894 
3555.000000	99.736245 
3554.000000	99.736646 
3553.000000	99.737000 
3552.000000	99.737148 
3551.000000	99.737023 
3550.000000	99.736720 
3549.000000	99.736429 
3548.000000	99.736313 
3547.000000	99.736428 
3546.000000	99.736738 
3545.000000	99.737176 
3544.000000	99.737708 
3543.000000	99.738271 
3542.000000	99.738654 
3541.000000	99.738618 
3540.000000	99.738203 
3539.000000	99.737804 
3538.000000	99.737772 
3537.000000	99.737996 
3536.000000	99.737994 
3535.000000	99.737445 
3534.000000	99.736485 
3533.000000	99.735569 
3532.000000	99.735080 
3531.000000	99.735112 
3530.000000	99.735520 
3529.000000	99.736051 
3528.000000	99.736480 
3527.000000	99.736681 
3526.000000	99.736618 
3525.000000	99.736342 
3524.000000	99.736005 
3523.000000	99.735809 
3522.000000	99.735861 
3521.000000	99.736062 
3520.000000	99.736168 
3519.000000	99.736033 
3518.000000	99.735728 
3517.000000	99.735444 
3516.000000	99.735291 
3515.000000	99.735246 
3514.000000	99.735243 
3513.000000	99.735255 
3512.000000	99.735261 
3511.000000	99.735176 
3510.000000	99.734905 
3509.000000	99.734452 
3508.000000	99.733937 
3507.000000	99.733497 
3506.000000	99.733168 
3505.000000	99.732892 
3504.000000	99.732617 
3503.000000	99.732394 
3502.000000	99.732324 
3501.000000	99.732421 
3500.000000	99.732587 
3499.000000	99.732675 
3498.000000	99.732605 
3497.000000	99.732396 
3496.000000	99.732131 
3495.000000	99.731905 
3494.000000	99.731742 
3493.000000	99.731606 
3492.000000	99.731451 
3491.000000	99.731267 
3490.000000	99.731074 
3489.000000	99.730896 
3488.000000	99.730736 
3487.000000	99.730579 
3486.000000	99.730411 
3485.000000	99.730229 
3484.000000	99.730036 
3483.000000	99.729832 
3482.000000	99.729618 
3481.000000	99.729393 
3480.000000	99.729163 
3479.000000	99.728935 
3478.000000	99.728715 
3477.000000	99.728500 
3476.000000	99.728284 
3475.000000	99.728061 
3474.000000	99.727828 
3473.000000	99.727592 
3472.000000	99.727360 
3471.000000	99.727135 
3470.000000	99.726913 
3469.000000	99.726688 
3468.000000	99.726456 
3467.000000	99.726214 
3466.000000	99.725961 
3465.000000	99.725699 
3464.000000	99.725430 
3463.000000	99.725161 
3462.000000	99.724897 
3461.000000	99.724637 
3460.000000	99.724376 
3459.000000	99.724107 
3458.000000	99.723824 
3457.000000	99.723527 
3456.000000	99.723218 
3455.000000	99.722904 
3454.000000	99.722586 
3453.000000	99.722268 
3452.000000	99.721948 
3451.000000	99.721628 
3450.000000	99.721310 
3449.000000	99.720997 
3448.000000	99.720684 
3447.000000	99.720368 
3446.000000	99.720043 
3445.000000	99.719711 
3444.000000	99.719377 
3443.000000	99.719047 
3442.000000	99.718722 
3441.000000	99.718401 
3440.000000	99.718082 
3439.000000	99.717764 
3438.000000	99.717451 
3437.000000	99.717147 
3436.000000	99.716850 
3435.000000	99.716552 
3434.000000	99.716273 
3433.000000	99.716056 
3432.000000	99.715919 
3431.000000	99.715806 
3430.000000	99.715625 
3429.000000	99.715312 
3428.000000	99.714906 
3427.000000	99.714539 
3426.000000	99.714316 
3425.000000	99.714244 
3424.000000	99.714225 
3423.000000	99.714162 
3422.000000	99.714037 
3421.000000	99.713860 
3420.000000	99.713549 
3419.000000	99.712981 
3418.000000	99.712197 
3417.000000	99.711473 
3416.000000	99.711058 
3415.000000	99.710909 
3414.000000	99.710734 
3413.000000	99.710337 
3412.000000	99.709852 
3411.000000	99.709610 
3410.000000	99.709819 
3409.000000	99.710329 
3408.000000	99.710655 
3407.000000	99.710309 
3406.000000	99.709197 
3405.000000	99.707733 
3404.000000	99.706558 
3403.000000	99.706125 
3402.000000	99.706598 
3401.000000	99.707925 
3400.000000	99.709793 
3399.000000	99.711602 
3398.000000	99.712760 
3397.000000	99.713090 
3396.000000	99.712859 
3395.000000	99.712369 
3394.000000	99.711779 
3393.000000	99.711367 
3392.000000	99.711592 
3391.000000	99.712583 
3390.000000	99.713738 
3389.000000	99.714204 
3388.000000	99.713698 
3387.000000	99.712594 
3386.000000	99.711295 
3385.000000	99.709807 
3384.000000	99.708082 
3383.000000	99.706480 
3382.000000	99.705539 
3381.000000	99.705384 
3380.000000	99.705586 
3379.000000	99.705667 
3378.000000	99.705651 
3377.000000	99.705972 
3376.000000	99.706890 
3375.000000	99.708124 
3374.000000	99.709069 
3373.000000	99.709264 
3372.000000	99.708634 
3371.000000	99.707455 
3370.000000	99.706286 
3369.000000	99.705798 
3368.000000	99.706353 
3367.000000	99.707623 
3366.000000	99.708757 
3365.000000	99.709173 
3364.000000	99.709105 
3363.000000	99.709254 
3362.000000	99.709966 
3361.000000	99.710899 
3360.000000	99.711387 
3359.000000	99.710998 
3358.000000	99.709806 
3357.000000	99.708315 
3356.000000	99.707113 
3355.000000	99.706439 
3354.000000	99.706108 
3353.000000	99.705941 
3352.000000	99.706148 
3351.000000	99.707075 
3350.000000	99.708670 
3349.000000	99.710405 
3348.000000	99.711720 
3347.000000	99.712394 
3346.000000	99.712482 
3345.000000	99.712176 
3344.000000	99.711789 
3343.000000	99.711593 
3342.000000	99.711546 
3341.000000	99.711354 
3340.000000	99.710890 
3339.000000	99.710441 
3338.000000	99.710386 
3337.000000	99.710751 
3336.000000	99.711208 
3335.000000	99.711433 
3334.000000	99.711395 
3333.000000	99.711284 
3332.000000	99.711268 
3331.000000	99.711358 
3330.000000	99.711459 
3329.000000	99.711519 
3328.000000	99.711595 
3327.000000	99.711770 
3326.000000	99.712019 
3325.000000	99.712218 
3324.000000	99.712291 
3323.000000	99.712294 
3322.000000	99.712330 
3321.000000	99.712415 
3320.000000	99.712481 
3319.000000	99.712485 
3318.000000	99.712455 
3317.000000	99.712441 
3316.000000	99.712469 
3315.000000	99.712522 
3314.000000	99.712556 
3313.000000	99.712552 
3312.000000	99.712519 
3311.000000	99.712474 
3310.000000	99.712423 
3309.000000	99.712354 
3308.000000	99.712247 
3307.000000	99.712098 
3306.000000	99.711947 
3305.000000	99.711846 
3304.000000	99.711798 
3303.000000	99.711751 
3302.000000	99.711670 
3301.000000	99.711580 
3300.000000	99.711558 
3299.000000	99.711658 
3298.000000	99.711883 
3297.000000	99.712166 
3296.000000	99.712367 
3295.000000	99.712352 
3294.000000	99.712149 
3293.000000	99.712006 
3292.000000	99.712181 
3291.000000	99.712656 
3290.000000	99.713115 
3289.000000	99.713242 
3288.000000	99.712973 
3287.000000	99.712459 
3286.000000	99.711891 
3285.000000	99.711403 
3284.000000	99.711094 
3283.000000	99.711003 
3282.000000	99.711054 
3281.000000	99.711040 
3280.000000	99.710729 
3279.000000	99.710036 
3278.000000	99.709179 
3277.000000	99.708632 
3276.000000	99.708756 
3275.000000	99.709489 
3274.000000	99.710382 
3273.000000	99.710978 
3272.000000	99.711127 
3271.000000	99.710907 
3270.000000	99.710418 
3269.000000	99.709785 
3268.000000	99.709277 
3267.000000	99.709248 
3266.000000	99.709861 
3265.000000	99.710937 
3264.000000	99.712052 
3263.000000	99.712836 
3262.000000	99.713185 
3261.000000	99.713239 
3260.000000	99.713194 
3259.000000	99.713092 
3258.000000	99.712837 
3257.000000	99.712400 
3256.000000	99.711944 
3255.000000	99.711689 
3254.000000	99.711705 
3253.000000	99.711917 
3252.000000	99.712243 
3251.000000	99.712637 
3250.000000	99.713014 
3249.000000	99.713233 
3248.000000	99.713228 
3247.000000	99.713060 
3246.000000	99.712842 
3245.000000	99.712677 
3244.000000	99.712687 
3243.000000	99.713014 
3242.000000	99.713702 
3241.000000	99.714578 
3240.000000	99.715292 
3239.000000	99.715560 
3238.000000	99.715337 
3237.000000	99.714813 
3236.000000	99.714292 
3235.000000	99.714002 
3234.000000	99.714020 
3233.000000	99.714314 
3232.000000	99.714806 
3231.000000	99.715415 
3230.000000	99.716049 
3229.000000	99.716575 
3228.000000	99.716865 
3227.000000	99.716868 
3226.000000	99.716641 
3225.000000	99.716338 
3224.000000	99.716156 
3223.000000	99.716236 
3222.000000	99.716569 
3221.000000	99.717045 
3220.000000	99.717583 
3219.000000	99.718168 
3218.000000	99.718739 
3217.000000	99.719138 
3216.000000	99.719238 
3215.000000	99.719103 
3214.000000	99.718968 
3213.000000	99.719024 
3212.000000	99.719274 
3211.000000	99.719614 
3210.000000	99.720010 
3209.000000	99.720527 
3208.000000	99.721169 
3207.000000	99.721774 
3206.000000	99.722118 
3205.000000	99.722186 
3204.000000	99.722305 
3203.000000	99.722896 
3202.000000	99.724044 
3201.000000	99.725359 
3200.000000	99.726327 
3199.000000	99.726740 
3198.000000	99.726725 
3197.000000	99.726564 
3196.000000	99.726604 
3195.000000	99.727111 
3194.000000	99.727913 
3193.000000	99.728380 
3192.000000	99.728085 
3191.000000	99.727394 
3190.000000	99.727127 
3189.000000	99.727618 
3188.000000	99.728492 
3187.000000	99.729259 
3186.000000	99.729787 
3185.000000	99.730047 
3184.000000	99.729823 
3183.000000	99.729018 
3182.000000	99.728021 
3181.000000	99.727427 
3180.000000	99.727447 
3179.000000	99.727838 
3178.000000	99.728284 
3177.000000	99.728606 
3176.000000	99.728664 
3175.000000	99.728402 
3174.000000	99.728090 
3173.000000	99.728242 
3172.000000	99.729062 
3171.000000	99.730122 
3170.000000	99.730748 
3169.000000	99.730741 
3168.000000	99.730598 
3167.000000	99.731013 
3166.000000	99.732227 
3165.000000	99.733856 
3164.000000	99.735198 
3163.000000	99.735789 
3162.000000	99.735650 
3161.000000	99.735164 
3160.000000	99.734761 
3159.000000	99.734632 
3158.000000	99.734679 
3157.000000	99.734637 
3156.000000	99.734313 
3155.000000	99.733755 
3154.000000	99.733237 
3153.000000	99.733052 
3152.000000	99.733270 
3151.000000	99.733701 
3150.000000	99.734050 
3149.000000	99.734164 
3148.000000	99.734130 
3147.000000	99.734136 
3146.000000	99.734255 
3145.000000	99.734381 
3144.000000	99.734397 
3143.000000	99.734323 
3142.000000	99.734276 
3141.000000	99.734334 
3140.000000	99.734469 
3139.000000	99.734606 
3138.000000	99.734703 
3137.000000	99.734769 
3136.000000	99.734823 
3135.000000	99.734871 
3134.000000	99.734914 
3133.000000	99.734950 
3132.000000	99.734978 
3131.000000	99.734996 
3130.000000	99.735001 
3129.000000	99.734994 
3128.000000	99.734976 
3127.000000	99.734950 
3126.000000	99.734921 
3125.000000	99.734890 
3124.000000	99.734854 
3123.000000	99.734808 
3122.000000	99.734753 
3121.000000	99.734696 
3120.000000	99.734651 
3119.000000	99.734624 
3118.000000	99.734616 
3117.000000	99.734618 
3116.000000	99.734624 
3115.000000	99.734631 
3114.000000	99.734642 
3113.000000	99.734662 
3112.000000	99.734690 
3111.000000	99.734725 
3110.000000	99.734764 
3109.000000	99.734804 
3108.000000	99.734844 
3107.000000	99.734879 
3106.000000	99.734909 
3105.000000	99.734936 
3104.000000	99.734964 
3103.000000	99.734996 
3102.000000	99.735035 
3101.000000	99.735082 
3100.000000	99.735130 
3099.000000	99.735175 
3098.000000	99.735211 
3097.000000	99.735238 
3096.000000	99.735262 
3095.000000	99.735289 
3094.000000	99.735323 
3093.000000	99.735364 
3092.000000	99.735410 
3091.000000	99.735459 
3090.000000	99.735508 
3089.000000	99.735560 
3088.000000	99.735616 
3087.000000	99.735678 
3086.000000	99.735745 
3085.000000	99.735814 
3084.000000	99.735878 
3083.000000	99.735932 
3082.000000	99.735975 
3081.000000	99.736012 
3080.000000	99.736053 
3079.000000	99.736104 
3078.000000	99.736166 
3077.000000	99.736236 
3076.000000	99.736311 
3075.000000	99.736389 
3074.000000	99.736475 
3073.000000	99.736575 
3072.000000	99.736690 
3071.000000	99.736822 
3070.000000	99.736967 
3069.000000	99.737117 
3068.000000	99.737248 
3067.000000	99.737313 
3066.000000	99.737300 
3065.000000	99.737300 
3064.000000	99.737457 
3063.000000	99.737808 
3062.000000	99.738234 
3061.000000	99.738597 
3060.000000	99.738856 
3059.000000	99.739068 
3058.000000	99.739342 
3057.000000	99.739762 
3056.000000	99.740308 
3055.000000	99.740848 
3054.000000	99.741292 
3053.000000	99.741710 
3052.000000	99.742258 
3051.000000	99.742963 
3050.000000	99.743640 
3049.000000	99.744028 
3048.000000	99.743986 
3047.000000	99.743584 
3046.000000	99.743094 
3045.000000	99.742878 
3044.000000	99.743177 
3043.000000	99.743961 
3042.000000	99.745005 
3041.000000	99.746023 
3040.000000	99.746815 
3039.000000	99.747369 
3038.000000	99.747896 
3037.000000	99.748680 
3036.000000	99.749808 
3035.000000	99.751093 
3034.000000	99.752297 
3033.000000	99.753336 
3032.000000	99.754246 
3031.000000	99.755047 
3030.000000	99.755731 
3029.000000	99.756318 
3028.000000	99.756866 
3027.000000	99.757444 
3026.000000	99.758125 
3025.000000	99.758964 
3024.000000	99.759939 
3023.000000	99.760945 
3022.000000	99.761870 
3021.000000	99.762679 
3020.000000	99.763414 
3019.000000	99.764146 
3018.000000	99.764935 
3017.000000	99.765798 
3016.000000	99.766709 
3015.000000	99.767622 
3014.000000	99.768503 
3013.000000	99.769352 
3012.000000	99.770182 
3011.000000	99.771002 
3010.000000	99.771810 
3009.000000	99.772612 
3008.000000	99.773423 
3007.000000	99.774249 
3006.000000	99.775086 
3005.000000	99.775924 
3004.000000	99.776739 
3003.000000	99.777515 
3002.000000	99.778251 
3001.000000	99.778959 
3000.000000	99.779654 
2999.000000	99.780345 
2998.000000	99.781034 
2997.000000	99.781716 
2996.000000	99.782379 
2995.000000	99.783018 
2994.000000	99.783636 
2993.000000	99.784234 
2992.000000	99.784797 
2991.000000	99.785310 
2990.000000	99.785780 
2989.000000	99.786242 
2988.000000	99.786711 
2987.000000	99.787170 
2986.000000	99.787597 
2985.000000	99.788002 
2984.000000	99.788426 
2983.000000	99.788900 
2982.000000	99.789405 
2981.000000	99.789890 
2980.000000	99.790328 
2979.000000	99.790741 
2978.000000	99.791170 
2977.000000	99.791638 
2976.000000	99.792129 
2975.000000	99.792580 
2974.000000	99.792918 
2973.000000	99.793112 
2972.000000	99.793208 
2971.000000	99.793292 
2970.000000	99.793438 
2969.000000	99.793672 
2968.000000	99.793992 
2967.000000	99.794374 
2966.000000	99.794776 
2965.000000	99.795156 
2964.000000	99.795510 
2963.000000	99.795870 
2962.000000	99.796255 
2961.000000	99.796634 
2960.000000	99.796959 
2959.000000	99.797212 
2958.000000	99.797429 
2957.000000	99.797664 
2956.000000	99.797921 
2955.000000	99.798047 
2954.000000	99.797783 
2953.000000	99.797044 
2952.000000	99.796249 
2951.000000	99.796126 
2950.000000	99.797054 
2949.000000	99.798741 
2948.000000	99.800360 
2947.000000	99.801312 
2946.000000	99.801595 
2945.000000	99.801556 
2944.000000	99.801512 
2943.000000	99.801580 
2942.000000	99.801745 
2941.000000	99.801878 
2940.000000	99.801746 
2939.000000	99.801188 
2938.000000	99.800318 
2937.000000	99.799512 
2936.000000	99.799176 
2935.000000	99.799557 
2934.000000	99.800689 
2933.000000	99.802342 
2932.000000	99.804077 
2931.000000	99.805487 
2930.000000	99.806407 
2929.000000	99.806885 
2928.000000	99.807013 
2927.000000	99.806930 
2926.000000	99.806892 
2925.000000	99.807052 
2924.000000	99.807149 
2923.000000	99.806711 
2922.000000	99.805669 
2921.000000	99.804509 
2920.000000	99.803621 
2919.000000	99.802782 
2918.000000	99.801589 
2917.000000	99.800252 
2916.000000	99.799561 
2915.000000	99.800058 
2914.000000	99.801544 
2913.000000	99.803385 
2912.000000	99.804995 
2911.000000	99.805925 
2910.000000	99.805813 
2909.000000	99.804611 
2908.000000	99.802750 
2907.000000	99.800927 
2906.000000	99.799638 
2905.000000	99.799012 
2904.000000	99.798875 
2903.000000	99.798733 
2902.000000	99.798013 
2901.000000	99.796624 
2900.000000	99.795141 
2899.000000	99.794132 
2898.000000	99.793459 
2897.000000	99.792598 
2896.000000	99.791591 
2895.000000	99.791183 
2894.000000	99.791862 
2893.000000	99.793187 
2892.000000	99.794183 
2891.000000	99.794277 
2890.000000	99.793628 
2889.000000	99.792773 
2888.000000	99.792200 
2887.000000	99.792127 
2886.000000	99.792434 
2885.000000	99.792755 
2884.000000	99.792743 
2883.000000	99.792331 
2882.000000	99.791722 
2881.000000	99.791185 
2880.000000	99.790884 
2879.000000	99.790861 
2878.000000	99.791076 
2877.000000	99.791407 
2876.000000	99.791639 
2875.000000	99.791540 
2874.000000	99.790971 
2873.000000	99.790000 
2872.000000	99.788932 
2871.000000	99.788184 
2870.000000	99.788018 
2869.000000	99.788376 
2868.000000	99.788884 
2867.000000	99.789110 
2866.000000	99.788870 
2865.000000	99.788327 
2864.000000	99.787815 
2863.000000	99.787498 
2862.000000	99.787194 
2861.000000	99.786595 
2860.000000	99.785711 
2859.000000	99.784993 
2858.000000	99.784881 
2857.000000	99.785249 
2856.000000	99.785451 
2855.000000	99.784999 
2854.000000	99.784011 
2853.000000	99.782908 
2852.000000	99.781850 
2851.000000	99.780680 
2850.000000	99.779365 
2849.000000	99.778207 
2848.000000	99.777546 
2847.000000	99.777416 
2846.000000	99.777528 
2845.000000	99.777463 
2844.000000	99.776869 
2843.000000	99.775710 
2842.000000	99.774427 
2841.000000	99.773621 
2840.000000	99.773354 
2839.000000	99.772890 
2838.000000	99.771406 
2837.000000	99.768939 
2836.000000	99.766480 
2835.000000	99.765048 
2834.000000	99.764848 
2833.000000	99.765341 
2832.000000	99.765861 
2831.000000	99.766119 
2830.000000	99.766228 
2829.000000	99.766424 
2828.000000	99.766786 
2827.000000	99.767190 
2826.000000	99.767491 
2825.000000	99.767639 
2824.000000	99.767538 
2823.000000	99.766986 
2822.000000	99.765958 
2821.000000	99.764863 
2820.000000	99.764304 
2819.000000	99.764519 
2818.000000	99.765185 
2817.000000	99.765739 
2816.000000	99.765794 
2815.000000	99.765270 
2814.000000	99.764353 
2813.000000	99.763401 
2812.000000	99.762672 
2811.000000	99.762048 
2810.000000	99.761203 
2809.000000	99.760166 
2808.000000	99.759482 
2807.000000	99.759591 
2806.000000	99.760252 
2805.000000	99.760774 
2804.000000	99.760827 
2803.000000	99.760740 
2802.000000	99.760947 
2801.000000	99.761394 
2800.000000	99.761623 
2799.000000	99.761311 
2798.000000	99.760566 
2797.000000	99.759809 
2796.000000	99.759396 
2795.000000	99.759358 
2794.000000	99.759440 
2793.000000	99.759366 
2792.000000	99.759063 
2791.000000	99.758665 
2790.000000	99.758419 
2789.000000	99.758590 
2788.000000	99.759291 
2787.000000	99.760289 
2786.000000	99.761042 
2785.000000	99.761162 
2784.000000	99.760785 
2783.000000	99.760438 
2782.000000	99.760474 
2781.000000	99.760796 
2780.000000	99.761140 
2779.000000	99.761391 
2778.000000	99.761533 
2777.000000	99.761539 
2776.000000	99.761480 
2775.000000	99.761529 
2774.000000	99.761705 
2773.000000	99.761829 
2772.000000	99.761852 
2771.000000	99.761964 
2770.000000	99.762224 
2769.000000	99.762405 
2768.000000	99.762471 
2767.000000	99.762903 
2766.000000	99.764114 
2765.000000	99.765700 
2764.000000	99.766720 
2763.000000	99.766677 
2762.000000	99.765863 
2761.000000	99.764926 
2760.000000	99.764500 
2759.000000	99.765069 
2758.000000	99.766609 
2757.000000	99.768252 
2756.000000	99.768901 
2755.000000	99.768405 
2754.000000	99.767619 
2753.000000	99.767239 
2752.000000	99.766996 
2751.000000	99.766290 
2750.000000	99.765131 
2749.000000	99.764037 
2748.000000	99.763251 
2747.000000	99.762487 
2746.000000	99.761420 
2745.000000	99.760141 
2744.000000	99.759101 
2743.000000	99.758768 
2742.000000	99.759339 
2741.000000	99.760591 
2740.000000	99.761956 
2739.000000	99.762865 
2738.000000	99.763142 
2737.000000	99.763085 
2736.000000	99.763132 
2735.000000	99.763427 
2734.000000	99.763684 
2733.000000	99.763520 
2732.000000	99.762893 
2731.000000	99.762119 
2730.000000	99.761481 
2729.000000	99.761000 
2728.000000	99.760708 
2727.000000	99.760868 
2726.000000	99.761598 
2725.000000	99.762422 
2724.000000	99.762605 
2723.000000	99.762021 
2722.000000	99.761397 
2721.000000	99.761523 
2720.000000	99.762417 
2719.000000	99.763406 
2718.000000	99.763846 
2717.000000	99.763648 
2716.000000	99.763213 
2715.000000	99.763104 
2714.000000	99.763680 
2713.000000	99.764863 
2712.000000	99.766124 
2711.000000	99.766892 
2710.000000	99.767055 
2709.000000	99.766995 
2708.000000	99.767092 
2707.000000	99.767258 
2706.000000	99.767090 
2705.000000	99.766411 
2704.000000	99.765470 
2703.000000	99.764700 
2702.000000	99.764338 
2701.000000	99.764317 
2700.000000	99.764440 
2699.000000	99.764542 
2698.000000	99.764542 
2697.000000	99.764427 
2696.000000	99.764240 
2695.000000	99.764079 
2694.000000	99.764036 
2693.000000	99.764104 
2692.000000	99.764177 
2691.000000	99.764138 
2690.000000	99.763975 
2689.000000	99.763776 
2688.000000	99.763641 
2687.000000	99.763591 
2686.000000	99.763569 
2685.000000	99.763497 
2684.000000	99.763352 
2683.000000	99.763162 
2682.000000	99.762975 
2681.000000	99.762823 
2680.000000	99.762710 
2679.000000	99.762629 
2678.000000	99.762551 
2677.000000	99.762437 
2676.000000	99.762267 
2675.000000	99.762092 
2674.000000	99.762004 
2673.000000	99.762026 
2672.000000	99.762068 
2671.000000	99.762020 
2670.000000	99.761865 
2669.000000	99.761661 
2668.000000	99.761432 
2667.000000	99.761164 
2666.000000	99.760910 
2665.000000	99.760826 
2664.000000	99.761037 
2663.000000	99.761511 
2662.000000	99.762060 
2661.000000	99.762468 
2660.000000	99.762615 
2659.000000	99.762513 
2658.000000	99.762300 
2657.000000	99.762157 
2656.000000	99.762224 
2655.000000	99.762552 
2654.000000	99.763067 
2653.000000	99.763529 
2652.000000	99.763625 
2651.000000	99.763204 
2650.000000	99.762479 
2649.000000	99.761916 
2648.000000	99.761832 
2647.000000	99.762205 
2646.000000	99.762853 
2645.000000	99.763671 
2644.000000	99.764568 
2643.000000	99.765377 
2642.000000	99.766027 
2641.000000	99.766688 
2640.000000	99.767559 
2639.000000	99.768540 
2638.000000	99.769345 
2637.000000	99.769866 
2636.000000	99.770136 
2635.000000	99.769964 
2634.000000	99.769062 
2633.000000	99.767656 
2632.000000	99.766600 
2631.000000	99.766536 
2630.000000	99.767205 
2629.000000	99.767763 
2628.000000	99.767726 
2627.000000	99.767371 
2626.000000	99.767222 
2625.000000	99.767451 
2624.000000	99.767874 
2623.000000	99.768294 
2622.000000	99.768681 
2621.000000	99.769094 
2620.000000	99.769534 
2619.000000	99.769846 
2618.000000	99.769736 
2617.000000	99.769009 
2616.000000	99.767882 
2615.000000	99.766969 
2614.000000	99.766784 
2613.000000	99.767292 
2612.000000	99.767995 
2611.000000	99.768469 
2610.000000	99.768733 
2609.000000	99.769061 
2608.000000	99.769567 
2607.000000	99.770053 
2606.000000	99.770237 
2605.000000	99.770047 
2604.000000	99.769673 
2603.000000	99.769322 
2602.000000	99.769006 
2601.000000	99.768667 
2600.000000	99.768430 
2599.000000	99.768552 
2598.000000	99.769070 
2597.000000	99.769634 
2596.000000	99.769787 
2595.000000	99.769341 
2594.000000	99.768425 
2593.000000	99.767274 
2592.000000	99.766195 
2591.000000	99.765585 
2590.000000	99.765682 
2589.000000	99.766242 
2588.000000	99.766661 
2587.000000	99.766555 
2586.000000	99.766004 
2585.000000	99.765171 
2584.000000	99.764039 
2583.000000	99.762710 
2582.000000	99.761679 
2581.000000	99.761444 
2580.000000	99.761937 
2579.000000	99.762576 
2578.000000	99.762848 
2577.000000	99.762728 
2576.000000	99.762587 
2575.000000	99.762876 
2574.000000	99.763776 
2573.000000	99.765000 
2572.000000	99.765945 
2571.000000	99.766170 
2570.000000	99.765655 
2569.000000	99.764649 
2568.000000	99.763514 
2567.000000	99.762745 
2566.000000	99.762794 
2565.000000	99.763646 
2564.000000	99.764708 
2563.000000	99.765333 
2562.000000	99.765264 
2561.000000	99.764410 
2560.000000	99.762658 
2559.000000	99.760356 
2558.000000	99.758613 
2557.000000	99.758302 
2556.000000	99.758966 
2555.000000	99.759381 
2554.000000	99.759399 
2553.000000	99.760227 
2552.000000	99.762611 
2551.000000	99.765693 
2550.000000	99.767956 
2549.000000	99.768837 
2548.000000	99.768744 
2547.000000	99.768081 
2546.000000	99.767001 
2545.000000	99.765878 
2544.000000	99.765312 
2543.000000	99.765564 
2542.000000	99.766388 
2541.000000	99.767381 
2540.000000	99.768158 
2539.000000	99.768279 
2538.000000	99.767426 
2537.000000	99.765751 
2536.000000	99.763799 
2535.000000	99.762162 
2534.000000	99.761363 
2533.000000	99.761829 
2532.000000	99.763508 
2531.000000	99.765532 
2530.000000	99.766869 
2529.000000	99.767453 
2528.000000	99.768132 
2527.000000	99.769417 
2526.000000	99.770770 
2525.000000	99.771350 
2524.000000	99.771105 
2523.000000	99.770724 
2522.000000	99.770769 
2521.000000	99.771204 
2520.000000	99.771668 
2519.000000	99.771855 
2518.000000	99.771672 
2517.000000	99.771247 
2516.000000	99.770813 
2515.000000	99.770502 
2514.000000	99.770276 
2513.000000	99.770062 
2512.000000	99.769847 
2511.000000	99.769614 
2510.000000	99.769335 
2509.000000	99.769117 
2508.000000	99.769194 
2507.000000	99.769641 
2506.000000	99.770215 
2505.000000	99.770559 
2504.000000	99.770590 
2503.000000	99.770474 
2502.000000	99.770412 
2501.000000	99.770467 
2500.000000	99.770597 
2499.000000	99.770753 
2498.000000	99.770902 
2497.000000	99.771015 
2496.000000	99.771093 
2495.000000	99.771156 
2494.000000	99.771213 
2493.000000	99.771256 
2492.000000	99.771281 
2491.000000	99.771286 
2490.000000	99.771271 
2489.000000	99.771238 
2488.000000	99.771192 
2487.000000	99.771132 
2486.000000	99.771057 
2485.000000	99.770969 
2484.000000	99.770881 
2483.000000	99.770807 
2482.000000	99.770754 
2481.000000	99.770717 
2480.000000	99.770686 
2479.000000	99.770651 
2478.000000	99.770609 
2477.000000	99.770563 
2476.000000	99.770516 
2475.000000	99.770471 
2474.000000	99.770427 
2473.000000	99.770382 
2472.000000	99.770334 
2471.000000	99.770279 
2470.000000	99.770215 
2469.000000	99.770142 
2468.000000	99.770058 
2467.000000	99.769963 
2466.000000	99.769853 
2465.000000	99.769729 
2464.000000	99.769595 
2463.000000	99.769455 
2462.000000	99.769314 
2461.000000	99.769172 
2460.000000	99.769008 
2459.000000	99.768796 
2458.000000	99.768539 
2457.000000	99.768292 
2456.000000	99.768112 
2455.000000	99.768008 
2454.000000	99.767924 
2453.000000	99.767799 
2452.000000	99.767615 
2451.000000	99.767378 
2450.000000	99.767089 
2449.000000	99.766753 
2448.000000	99.766432 
2447.000000	99.766240 
2446.000000	99.766270 
2445.000000	99.766537 
2444.000000	99.766980 
2443.000000	99.767488 
2442.000000	99.767906 
2441.000000	99.768086 
2440.000000	99.767988 
2439.000000	99.767750 
2438.000000	99.767597 
2437.000000	99.767651 
2436.000000	99.767844 
2435.000000	99.767957 
2434.000000	99.767740 
2433.000000	99.767045 
2432.000000	99.765973 
2431.000000	99.764960 
2430.000000	99.764515 
2429.000000	99.764819 
2428.000000	99.765639 
2427.000000	99.766585 
2426.000000	99.767424 
2425.000000	99.768017 
2424.000000	99.768130 
2423.000000	99.767583 
2422.000000	99.766567 
2421.000000	99.765660 
2420.000000	99.765357 
2419.000000	99.765669 
2418.000000	99.766263 
2417.000000	99.766876 
2416.000000	99.767471 
2415.000000	99.768048 
2414.000000	99.768496 
2413.000000	99.768731 
2412.000000	99.768867 
2411.000000	99.769137 
2410.000000	99.769626 
2409.000000	99.770161 
2408.000000	99.770547 
2407.000000	99.770847 
2406.000000	99.771305 
2405.000000	99.772017 
2404.000000	99.772772 
2403.000000	99.773257 
2402.000000	99.773360 
2401.000000	99.773197 
2400.000000	99.772938 
2399.000000	99.772719 
2398.000000	99.772660 
2397.000000	99.772821 
2396.000000	99.773136 
2395.000000	99.773470 
2394.000000	99.773788 
2393.000000	99.774165 
2392.000000	99.774623 
2391.000000	99.775075 
2390.000000	99.775469 
2389.000000	99.775895 
2388.000000	99.776448 
2387.000000	99.777070 
2386.000000	99.777618 
2385.000000	99.778027 
2384.000000	99.778366 
2383.000000	99.778757 
2382.000000	99.779291 
2381.000000	99.780001 
2380.000000	99.780845 
2379.000000	99.781693 
2378.000000	99.782374 
2377.000000	99.782796 
2376.000000	99.783007 
2375.000000	99.783135 
2374.000000	99.783303 
2373.000000	99.783589 
2372.000000	99.784025 
2371.000000	99.784601 
2370.000000	99.785250 
2369.000000	99.785835 
2368.000000	99.786213 
2367.000000	99.786332 
2366.000000	99.786281 
2365.000000	99.786281 
2364.000000	99.786481 
2363.000000	99.786858 
2362.000000	99.787305 
2361.000000	99.787776 
2360.000000	99.788305 
2359.000000	99.788902 
2358.000000	99.789457 
2357.000000	99.789848 
2356.000000	99.790050 
2355.000000	99.790134 
2354.000000	99.790214 
2353.000000	99.790337 
2352.000000	99.790497 
2351.000000	99.790670 
2350.000000	99.790878 
2349.000000	99.791185 
2348.000000	99.791609 
2347.000000	99.792094 
2346.000000	99.792491 
2345.000000	99.792687 
2344.000000	99.792709 
2343.000000	99.792694 
2342.000000	99.792787 
2341.000000	99.792977 
2340.000000	99.793169 
2339.000000	99.793241 
2338.000000	99.793138 
2337.000000	99.792915 
2336.000000	99.792688 
2335.000000	99.792552 
2334.000000	99.792533 
2333.000000	99.792620 
2332.000000	99.792771 
2331.000000	99.792880 
2330.000000	99.792746 
2329.000000	99.792357 
2328.000000	99.791888 
2327.000000	99.791791 
2326.000000	99.792230 
2325.000000	99.793000 
2324.000000	99.793471 
2323.000000	99.793106 
2322.000000	99.792010 
2321.000000	99.790859 
2320.000000	99.790432 
2319.000000	99.790839 
2318.000000	99.791598 
2317.000000	99.792164 
2316.000000	99.792305 
2315.000000	99.792162 
2314.000000	99.791837 
2313.000000	99.791596 
2312.000000	99.791563 
2311.000000	99.791970 
2310.000000	99.792828 
2309.000000	99.794255 
2308.000000	99.795924 
2307.000000	99.797143 
2306.000000	99.796958 
2305.000000	99.795188 
2304.000000	99.792389 
2303.000000	99.789348 
2302.000000	99.786458 
2301.000000	99.784112 
2300.000000	99.782884 
2299.000000	99.783409 
2298.000000	99.785579 
2297.000000	99.788726 
2296.000000	99.791947 
2295.000000	99.794572 
2294.000000	99.795861 
2293.000000	99.795170 
2292.000000	99.792515 
2291.000000	99.789172 
2290.000000	99.786969 
2289.000000	99.786748 
2288.000000	99.787486 
2287.000000	99.787241 
2286.000000	99.785050 
2285.000000	99.781645 
2284.000000	99.778448 
2283.000000	99.776092 
2282.000000	99.774265 
2281.000000	99.772607 
2280.000000	99.771293 
2279.000000	99.770738 
2278.000000	99.771097 
2277.000000	99.772013 
2276.000000	99.772760 
2275.000000	99.772809 
2274.000000	99.772354 
2273.000000	99.771979 
2272.000000	99.771524 
2271.000000	99.769831 
2270.000000	99.766257 
2269.000000	99.762195 
2268.000000	99.760110 
2267.000000	99.761066 
2266.000000	99.764139 
2265.000000	99.767658 
2264.000000	99.770246 
2263.000000	99.770937 
2262.000000	99.769627 
2261.000000	99.767954 
2260.000000	99.768370 
2259.000000	99.771378 
2258.000000	99.774643 
2257.000000	99.775584 
2256.000000	99.774139 
2255.000000	99.771956 
2254.000000	99.769793 
2253.000000	99.767105 
2252.000000	99.764047 
2251.000000	99.762245 
2250.000000	99.763016 
2249.000000	99.765950 
2248.000000	99.769527 
2247.000000	99.772541 
2246.000000	99.774601 
2245.000000	99.775715 
2244.000000	99.775874 
2243.000000	99.774873 
2242.000000	99.772456 
2241.000000	99.768912 
2240.000000	99.765437 
2239.000000	99.763332 
2238.000000	99.762802 
2237.000000	99.762842 
2236.000000	99.762307 
2235.000000	99.760848 
2234.000000	99.758823 
2233.000000	99.756872 
2232.000000	99.755796 
2231.000000	99.756505 
2230.000000	99.759678 
2229.000000	99.765206 
2228.000000	99.771742 
2227.000000	99.777022 
2226.000000	99.779262 
2225.000000	99.778464 
2224.000000	99.776175 
2223.000000	99.773745 
2222.000000	99.771214 
2221.000000	99.768390 
2220.000000	99.766250 
2219.000000	99.766430 
2218.000000	99.769536 
2217.000000	99.774601 
2216.000000	99.779911 
2215.000000	99.784006 
2214.000000	99.786049 
2213.000000	99.785861 
2212.000000	99.783942 
2211.000000	99.781276 
2210.000000	99.779032 
2209.000000	99.778192 
2208.000000	99.778973 
2207.000000	99.780397 
2206.000000	99.780904 
2205.000000	99.779833 
2204.000000	99.777942 
2203.000000	99.776431 
2202.000000	99.775814 
2201.000000	99.775972 
2200.000000	99.776670 
2199.000000	99.777529 
2198.000000	99.777983 
2197.000000	99.777922 
2196.000000	99.778131 
2195.000000	99.779433 
2194.000000	99.781665 
2193.000000	99.783865 
2192.000000	99.785184 
2191.000000	99.785526 
2190.000000	99.785237 
2189.000000	99.784730 
2188.000000	99.784370 
2187.000000	99.784364 
2186.000000	99.784672 
2185.000000	99.785112 
2184.000000	99.785524 
2183.000000	99.785831 
2182.000000	99.786006 
2181.000000	99.786077 
2180.000000	99.786129 
2179.000000	99.786218 
2178.000000	99.786302 
2177.000000	99.786317 
2176.000000	99.786259 
2175.000000	99.786158 
2174.000000	99.786049 
2173.000000	99.785974 
2172.000000	99.785956 
2171.000000	99.785996 
2170.000000	99.786081 
2169.000000	99.786190 
2168.000000	99.786305 
2167.000000	99.786412 
2166.000000	99.786504 
2165.000000	99.786581 
2164.000000	99.786661 
2163.000000	99.786763 
2162.000000	99.786897 
2161.000000	99.787050 
2160.000000	99.787199 
2159.000000	99.787324 
2158.000000	99.787412 
2157.000000	99.787455 
2156.000000	99.787446 
2155.000000	99.787383 
2154.000000	99.787253 
2153.000000	99.787036 
2152.000000	99.786726 
2151.000000	99.786354 
2150.000000	99.785973 
2149.000000	99.785624 
2148.000000	99.785320 
2147.000000	99.785041 
2146.000000	99.784754 
2145.000000	99.784425 
2144.000000	99.784040 
2143.000000	99.783617 
2142.000000	99.783192 
2141.000000	99.782790 
2140.000000	99.782421 
2139.000000	99.782079 
2138.000000	99.781757 
2137.000000	99.781442 
2136.000000	99.781119 
2135.000000	99.780780 
2134.000000	99.780426 
2133.000000	99.780055 
2132.000000	99.779652 
2131.000000	99.779208 
2130.000000	99.778714 
2129.000000	99.778154 
2128.000000	99.777525 
2127.000000	99.776850 
2126.000000	99.776174 
2125.000000	99.775526 
2124.000000	99.774935 
2123.000000	99.774510 
2122.000000	99.774404 
2121.000000	99.774551 
2120.000000	99.774513 
2119.000000	99.773900 
2118.000000	99.772836 
2117.000000	99.771764 
2116.000000	99.770842 
2115.000000	99.769902 
2114.000000	99.768918 
2113.000000	99.768133 
2112.000000	99.767615 
2111.000000	99.766964 
2110.000000	99.765688 
2109.000000	99.763841 
2108.000000	99.762227 
2107.000000	99.761847 
2106.000000	99.762807 
2105.000000	99.763652 
2104.000000	99.762535 
2103.000000	99.759394 
2102.000000	99.756591 
2101.000000	99.756463 
2100.000000	99.758747 
2099.000000	99.761136 
2098.000000	99.762050 
2097.000000	99.761997 
2096.000000	99.761975 
2095.000000	99.761606 
2094.000000	99.759409 
2093.000000	99.754617 
2092.000000	99.748512 
2091.000000	99.744028 
2090.000000	99.743710 
2089.000000	99.747615 
2088.000000	99.753070 
2087.000000	99.756977 
2086.000000	99.758192 
2085.000000	99.757462 
2084.000000	99.755926 
2083.000000	99.754469 
2082.000000	99.753996 
2081.000000	99.755201 
2080.000000	99.757896 
2079.000000	99.761331 
2078.000000	99.765228 
2077.000000	99.769875 
2076.000000	99.775209 
2075.000000	99.780546 
2074.000000	99.785168 
2073.000000	99.788458 
2072.000000	99.789501 
2071.000000	99.787591 
2070.000000	99.783636 
2069.000000	99.780277 
2068.000000	99.779672 
2067.000000	99.781377 
2066.000000	99.782941 
2065.000000	99.782411 
2064.000000	99.779995 
2063.000000	99.777407 
2062.000000	99.776061 
2061.000000	99.776276 
2060.000000	99.777737 
2059.000000	99.780146 
2058.000000	99.783278 
2057.000000	99.786541 
2056.000000	99.789132 
2055.000000	99.790734 
2054.000000	99.791740 
2053.000000	99.792653 
2052.000000	99.793576 
2051.000000	99.794504 
2050.000000	99.795622 
2049.000000	99.796780 
2048.000000	99.796940 
2047.000000	99.795051 
2046.000000	99.791455 
2045.000000	99.788054 
2044.000000	99.786726 
2043.000000	99.787746 
2042.000000	99.790039 
2041.000000	99.792341 
2040.000000	99.794118 
2039.000000	99.795325 
2038.000000	99.795952 
2037.000000	99.796086 
2036.000000	99.796043 
2035.000000	99.796158 
2034.000000	99.796412 
2033.000000	99.796452 
2032.000000	99.796019 
2031.000000	99.795252 
2030.000000	99.794582 
2029.000000	99.794363 
2028.000000	99.794588 
2027.000000	99.794963 
2026.000000	99.795249 
2025.000000	99.795516 
2024.000000	99.795966 
2023.000000	99.796574 
2022.000000	99.797054 
2021.000000	99.797175 
2020.000000	99.797021 
2019.000000	99.796956 
2018.000000	99.797284 
2017.000000	99.797964 
2016.000000	99.798710 
2015.000000	99.799269 
2014.000000	99.799662 
2013.000000	99.800088 
2012.000000	99.800722 
2011.000000	99.801507 
2010.000000	99.802194 
2009.000000	99.802666 
2008.000000	99.803117 
2007.000000	99.803726 
2006.000000	99.804323 
2005.000000	99.804642 
2004.000000	99.804734 
2003.000000	99.804920 
2002.000000	99.805312 
2001.000000	99.805623 
2000.000000	99.805517 
1999.000000	99.804979 
1998.000000	99.804340 
1997.000000	99.804045 
1996.000000	99.804322 
1995.000000	99.805073 
1994.000000	99.805933 
1993.000000	99.806545 
1992.000000	99.806808 
1991.000000	99.806836 
1990.000000	99.806757 
1989.000000	99.806613 
1988.000000	99.806501 
1987.000000	99.806551 
1986.000000	99.806667 
1985.000000	99.806445 
1984.000000	99.805587 
1983.000000	99.804394 
1982.000000	99.803646 
1981.000000	99.803763 
1980.000000	99.804295 
1979.000000	99.804465 
1978.000000	99.804140 
1977.000000	99.803906 
1976.000000	99.804273 
1975.000000	99.805139 
1974.000000	99.806069 
1973.000000	99.806840 
1972.000000	99.807410 
1971.000000	99.807416 
1970.000000	99.806034 
1969.000000	99.802797 
1968.000000	99.798573 
1967.000000	99.795335 
1966.000000	99.794322 
1965.000000	99.794973 
1964.000000	99.795688 
1963.000000	99.795636 
1962.000000	99.795203 
1961.000000	99.794664 
1960.000000	99.793376 
1959.000000	99.790843 
1958.000000	99.787971 
1957.000000	99.786366 
1956.000000	99.786510 
1955.000000	99.787455 
1954.000000	99.788160 
1953.000000	99.788400 
1952.000000	99.788144 
1951.000000	99.786886 
1950.000000	99.784347 
1949.000000	99.781403 
1948.000000	99.779470 
1947.000000	99.778814 
1946.000000	99.778008 
1945.000000	99.775373 
1944.000000	99.771015 
1943.000000	99.767331 
1942.000000	99.766946 
1941.000000	99.770184 
1940.000000	99.774869 
1939.000000	99.778513 
1938.000000	99.780421 
1937.000000	99.781527 
1936.000000	99.782686 
1935.000000	99.783423 
1934.000000	99.782686 
1933.000000	99.780557 
1932.000000	99.778584 
1931.000000	99.778173 
1930.000000	99.779231 
1929.000000	99.780543 
1928.000000	99.781083 
1927.000000	99.780621 
1926.000000	99.779321 
1925.000000	99.777453 
1924.000000	99.775526 
1923.000000	99.774390 
1922.000000	99.774480 
1921.000000	99.775305 
1920.000000	99.775985 
1919.000000	99.776138 
1918.000000	99.776049 
1917.000000	99.776050 
1916.000000	99.775925 
1915.000000	99.775155 
1914.000000	99.773621 
1913.000000	99.772009 
1912.000000	99.771266 
1911.000000	99.771632 
1910.000000	99.772403 
1909.000000	99.772676 
1908.000000	99.772377 
1907.000000	99.772161 
1906.000000	99.772406 
1905.000000	99.772808 
1904.000000	99.772891 
1903.000000	99.772570 
1902.000000	99.772048 
1901.000000	99.771511 
1900.000000	99.771027 
1899.000000	99.770620 
1898.000000	99.770291 
1897.000000	99.770013 
1896.000000	99.769709 
1895.000000	99.769310 
1894.000000	99.768852 
1893.000000	99.768440 
1892.000000	99.768144 
1891.000000	99.767948 
1890.000000	99.767769 
1889.000000	99.767529 
1888.000000	99.767244 
1887.000000	99.766997 
1886.000000	99.766839 
1885.000000	99.766769 
1884.000000	99.766776 
1883.000000	99.766885 
1882.000000	99.767136 
1881.000000	99.767512 
1880.000000	99.767953 
1879.000000	99.768431 
1878.000000	99.768960 
1877.000000	99.769526 
1876.000000	99.770057 
1875.000000	99.770425 
1874.000000	99.770488 
1873.000000	99.770198 
1872.000000	99.769744 
1871.000000	99.769480 
1870.000000	99.769593 
1869.000000	99.769860 
1868.000000	99.769946 
1867.000000	99.770002 
1866.000000	99.770425 
1865.000000	99.771138 
1864.000000	99.771539 
1863.000000	99.771182 
1862.000000	99.770295 
1861.000000	99.769693 
1860.000000	99.769962 
1859.000000	99.771046 
1858.000000	99.772375 
1857.000000	99.773326 
1856.000000	99.773624 
1855.000000	99.773458 
1854.000000	99.773338 
1853.000000	99.773623 
1852.000000	99.774168 
1851.000000	99.774611 
1850.000000	99.774882 
1849.000000	99.775393 
1848.000000	99.776560 
1847.000000	99.778260 
1846.000000	99.779799 
1845.000000	99.780404 
1844.000000	99.779896 
1843.000000	99.779082 
1842.000000	99.778957 
1841.000000	99.779533 
1840.000000	99.780098 
1839.000000	99.779942 
1838.000000	99.778743 
1837.000000	99.776709 
1836.000000	99.774395 
1835.000000	99.772566 
1834.000000	99.771894 
1833.000000	99.772430 
1832.000000	99.773320 
1831.000000	99.773228 
1830.000000	99.771550 
1829.000000	99.769460 
1828.000000	99.768581 
1827.000000	99.768946 
1826.000000	99.769578 
1825.000000	99.770099 
1824.000000	99.770807 
1823.000000	99.771532 
1822.000000	99.771311 
1821.000000	99.769689 
1820.000000	99.767779 
1819.000000	99.767226 
1818.000000	99.768394 
1817.000000	99.770078 
1816.000000	99.770948 
1815.000000	99.771113 
1814.000000	99.771523 
1813.000000	99.772559 
1812.000000	99.773803 
1811.000000	99.774843 
1810.000000	99.775957 
1809.000000	99.777355 
1808.000000	99.778341 
1807.000000	99.778001 
1806.000000	99.776317 
1805.000000	99.774297 
1804.000000	99.772999 
1803.000000	99.772438 
1802.000000	99.771570 
1801.000000	99.769480 
1800.000000	99.766755 
1799.000000	99.765071 
1798.000000	99.765402 
1797.000000	99.767229 
1796.000000	99.769320 
1795.000000	99.770930 
1794.000000	99.772026 
1793.000000	99.772590 
1792.000000	99.772352 
1791.000000	99.771456 
1790.000000	99.770641 
1789.000000	99.770300 
1788.000000	99.770383 
1787.000000	99.770812 
1786.000000	99.771502 
1785.000000	99.772121 
1784.000000	99.772251 
1783.000000	99.771860 
1782.000000	99.771215 
1781.000000	99.770509 
1780.000000	99.769861 
1779.000000	99.769424 
1778.000000	99.769421 
1777.000000	99.769821 
1776.000000	99.770260 
1775.000000	99.770314 
1774.000000	99.769870 
1773.000000	99.769267 
1772.000000	99.768986 
1771.000000	99.769153 
1770.000000	99.769524 
1769.000000	99.769804 
1768.000000	99.769936 
1767.000000	99.770073 
1766.000000	99.770379 
1765.000000	99.770865 
1764.000000	99.771402 
1763.000000	99.771822 
1762.000000	99.772049 
1761.000000	99.772178 
1760.000000	99.772384 
1759.000000	99.772715 
1758.000000	99.773123 
1757.000000	99.773528 
1756.000000	99.773863 
1755.000000	99.774099 
1754.000000	99.774265 
1753.000000	99.774431 
1752.000000	99.774677 
1751.000000	99.775005 
1750.000000	99.775314 
1749.000000	99.775532 
1748.000000	99.775672 
1747.000000	99.775804 
1746.000000	99.775964 
1745.000000	99.776138 
1744.000000	99.776308 
1743.000000	99.776462 
1742.000000	99.776605 
1741.000000	99.776743 
1740.000000	99.776868 
1739.000000	99.776961 
1738.000000	99.777025 
1737.000000	99.777074 
1736.000000	99.777119 
1735.000000	99.777194 
1734.000000	99.777291 
1733.000000	99.777362 
1732.000000	99.777403 
1731.000000	99.777389 
1730.000000	99.777308 
1729.000000	99.777182 
1728.000000	99.777038 
1727.000000	99.776882 
1726.000000	99.776703 
1725.000000	99.776499 
1724.000000	99.776284 
1723.000000	99.776052 
1722.000000	99.775783 
1721.000000	99.775466 
1720.000000	99.775132 
1719.000000	99.774835 
1718.000000	99.774562 
1717.000000	99.774213 
1716.000000	99.773767 
1715.000000	99.773288 
1714.000000	99.772788 
1713.000000	99.772237 
1712.000000	99.771639 
1711.000000	99.771048 
1710.000000	99.770504 
1709.000000	99.769986 
1708.000000	99.769443 
1707.000000	99.768844 
1706.000000	99.768175 
1705.000000	99.767446 
1704.000000	99.766694 
1703.000000	99.765948 
1702.000000	99.765210 
1701.000000	99.764464 
1700.000000	99.763695 
1699.000000	99.762920 
1698.000000	99.762166 
1697.000000	99.761424 
1696.000000	99.760673 
1695.000000	99.759898 
1694.000000	99.759105 
1693.000000	99.758315 
1692.000000	99.757543 
1691.000000	99.756791 
1690.000000	99.756045 
1689.000000	99.755294 
1688.000000	99.754559 
1687.000000	99.753865 
1686.000000	99.753220 
1685.000000	99.752603 
1684.000000	99.751959 
1683.000000	99.751283 
1682.000000	99.750628 
1681.000000	99.749982 
1680.000000	99.749323 
1679.000000	99.748657 
1678.000000	99.747995 
1677.000000	99.747346 
1676.000000	99.746720 
1675.000000	99.746122 
1674.000000	99.745555 
1673.000000	99.745033 
1672.000000	99.744560 
1671.000000	99.744132 
1670.000000	99.743730 
1669.000000	99.743307 
1668.000000	99.742854 
1667.000000	99.742376 
1666.000000	99.741835 
1665.000000	99.741227 
1664.000000	99.740652 
1663.000000	99.740231 
1662.000000	99.739955 
1661.000000	99.739722 
1660.000000	99.739533 
1659.000000	99.739450 
1658.000000	99.739439 
1657.000000	99.739348 
1656.000000	99.739086 
1655.000000	99.738797 
1654.000000	99.738860 
1653.000000	99.738888 
1652.000000	99.738506 
1651.000000	99.738541 
1650.000000	99.738629 
1649.000000	99.738416 
1648.000000	99.738041 
1647.000000	99.737732 
1646.000000	99.737630 
1645.000000	99.737899 
1644.000000	99.738308 
1643.000000	99.738513 
1642.000000	99.738402 
1641.000000	99.738014 
1640.000000	99.737634 
1639.000000	99.737578 
1638.000000	99.737982 
1637.000000	99.738817 
1636.000000	99.739785 
1635.000000	99.740463 
1634.000000	99.740838 
1633.000000	99.740848 
1632.000000	99.740203 
1631.000000	99.739118 
1630.000000	99.738054 
1629.000000	99.737299 
1628.000000	99.736972 
1627.000000	99.737292 
1626.000000	99.738367 
1625.000000	99.739909 
1624.000000	99.741419 
1623.000000	99.742394 
1622.000000	99.742713 
1621.000000	99.742610 
1620.000000	99.742268 
1619.000000	99.741791 
1618.000000	99.741440 
1617.000000	99.741368 
1616.000000	99.741640 
1615.000000	99.742723 
1614.000000	99.744580 
1613.000000	99.746551 
1612.000000	99.748195 
1611.000000	99.749295 
1610.000000	99.749614 
1609.000000	99.749164 
1608.000000	99.748565 
1607.000000	99.748568 
1606.000000	99.749253 
1605.000000	99.750105 
1604.000000	99.750885 
1603.000000	99.751672 
1602.000000	99.752475 
1601.000000	99.753215 
1600.000000	99.754019 
1599.000000	99.755172 
1598.000000	99.756661 
1597.000000	99.758055 
1596.000000	99.758943 
1595.000000	99.759417 
1594.000000	99.760002 
1593.000000	99.761080 
1592.000000	99.762484 
1591.000000	99.763597 
1590.000000	99.763897 
1589.000000	99.763525 
1588.000000	99.763312 
1587.000000	99.763997 
1586.000000	99.765520 
1585.000000	99.767109 
1584.000000	99.768194 
1583.000000	99.768811 
1582.000000	99.769058 
1581.000000	99.768950 
1580.000000	99.768491 
1579.000000	99.767644 
1578.000000	99.766284 
1577.000000	99.764649 
1576.000000	99.763522 
1575.000000	99.763782 
1574.000000	99.765325 
1573.000000	99.767062 
1572.000000	99.768359 
1571.000000	99.769304 
1570.000000	99.769977 
1569.000000	99.770224 
1568.000000	99.770266 
1567.000000	99.770270 
1566.000000	99.770040 
1565.000000	99.769518 
1564.000000	99.768868 
1563.000000	99.768261 
1562.000000	99.767671 
1561.000000	99.767072 
1560.000000	99.766898 
1559.000000	99.766969 
1558.000000	99.767212 
1557.000000	99.768595 
1556.000000	99.770111 
1555.000000	99.770905 
1554.000000	99.770907 
1553.000000	99.770390 
1552.000000	99.769824 
1551.000000	99.769442 
1550.000000	99.769264 
1549.000000	99.769207 
1548.000000	99.769118 
1547.000000	99.768863 
1546.000000	99.768366 
1545.000000	99.767753 
1544.000000	99.767355 
1543.000000	99.767491 
1542.000000	99.768193 
1541.000000	99.769137 
1540.000000	99.769660 
1539.000000	99.769697 
1538.000000	99.769855 
1537.000000	99.770279 
1536.000000	99.770775 
1535.000000	99.771213 
1534.000000	99.771401 
1533.000000	99.771182 
1532.000000	99.770797 
1531.000000	99.770536 
1530.000000	99.770391 
1529.000000	99.770291 
1528.000000	99.770237 
1527.000000	99.770337 
1526.000000	99.770667 
1525.000000	99.771138 
1524.000000	99.771575 
1523.000000	99.771893 
1522.000000	99.772123 
1521.000000	99.772271 
1520.000000	99.772345 
1519.000000	99.772322 
1518.000000	99.772126 
1517.000000	99.771843 
1516.000000	99.771666 
1515.000000	99.771715 
1514.000000	99.771946 
1513.000000	99.772272 
1512.000000	99.772638 
1511.000000	99.772926 
1510.000000	99.773061 
1509.000000	99.773105 
1508.000000	99.773309 
1507.000000	99.773820 
1506.000000	99.774410 
1505.000000	99.774813 
1504.000000	99.774997 
1503.000000	99.775099 
1502.000000	99.775266 
1501.000000	99.775507 
1500.000000	99.775704 
1499.000000	99.775751 
1498.000000	99.775649 
1497.000000	99.775504 
1496.000000	99.775419 
1495.000000	99.775473 
1494.000000	99.775702 
1493.000000	99.776046 
1492.000000	99.776438 
1491.000000	99.776832 
1490.000000	99.777168 
1489.000000	99.777429 
1488.000000	99.777672 
1487.000000	99.777939 
1486.000000	99.778195 
1485.000000	99.778331 
1484.000000	99.778322 
1483.000000	99.778298 
1482.000000	99.778406 
1481.000000	99.778661 
1480.000000	99.778943 
1479.000000	99.779165 
1478.000000	99.779336 
1477.000000	99.779498 
1476.000000	99.779682 
1475.000000	99.779989 
1474.000000	99.780566 
1473.000000	99.781346 
1472.000000	99.781942 
1471.000000	99.782149 
1470.000000	99.782144 
1469.000000	99.782136 
1468.000000	99.782165 
1467.000000	99.782162 
1466.000000	99.782104 
1465.000000	99.782075 
1464.000000	99.782243 
1463.000000	99.782629 
1462.000000	99.783039 
1461.000000	99.783291 
1460.000000	99.783341 
1459.000000	99.783218 
1458.000000	99.782886 
1457.000000	99.782213 
1456.000000	99.781510 
1455.000000	99.781320 
1454.000000	99.781439 
1453.000000	99.781641 
1452.000000	99.781998 
1451.000000	99.782556 
1450.000000	99.783203 
1449.000000	99.783749 
1448.000000	99.784059 
1447.000000	99.784228 
1446.000000	99.784279 
1445.000000	99.783847 
1444.000000	99.782760 
1443.000000	99.781415 
1442.000000	99.780737 
1441.000000	99.781279 
1440.000000	99.782824 
1439.000000	99.784813 
1438.000000	99.786990 
1437.000000	99.788928 
1436.000000	99.789566 
1435.000000	99.788850 
1434.000000	99.787776 
1433.000000	99.786962 
1432.000000	99.786325 
1431.000000	99.785444 
1430.000000	99.784082 
1429.000000	99.782537 
1428.000000	99.781059 
1427.000000	99.779850 
1426.000000	99.779308 
1425.000000	99.779884 
1424.000000	99.781539 
1423.000000	99.783197 
1422.000000	99.783928 
1421.000000	99.783796 
1420.000000	99.783628 
1419.000000	99.783805 
1418.000000	99.784279 
1417.000000	99.785107 
1416.000000	99.785569 
1415.000000	99.785226 
1414.000000	99.784776 
1413.000000	99.785202 
1412.000000	99.786667 
1411.000000	99.788286 
1410.000000	99.789161 
1409.000000	99.789257 
1408.000000	99.788978 
1407.000000	99.788888 
1406.000000	99.789521 
1405.000000	99.790918 
1404.000000	99.792704 
1403.000000	99.794485 
1402.000000	99.796356 
1401.000000	99.798468 
1400.000000	99.800276 
1399.000000	99.800854 
1398.000000	99.800369 
1397.000000	99.800001 
1396.000000	99.800236 
1395.000000	99.800748 
1394.000000	99.801350 
1393.000000	99.802375 
1392.000000	99.803915 
1391.000000	99.805503 
1390.000000	99.806837 
1389.000000	99.807832 
1388.000000	99.808115 
1387.000000	99.807328 
1386.000000	99.806154 
1385.000000	99.805770 
1384.000000	99.806342 
1383.000000	99.806897 
1382.000000	99.806573 
1381.000000	99.805593 
1380.000000	99.804909 
1379.000000	99.805219 
1378.000000	99.806382 
1377.000000	99.807595 
1376.000000	99.807849 
1375.000000	99.806496 
1374.000000	99.803866 
1373.000000	99.801452 
1372.000000	99.800504 
1371.000000	99.800917 
1370.000000	99.801766 
1369.000000	99.802214 
1368.000000	99.802159 
1367.000000	99.801983 
1366.000000	99.801978 
1365.000000	99.802087 
1364.000000	99.802027 
1363.000000	99.801514 
1362.000000	99.800629 
1361.000000	99.799884 
1360.000000	99.799767 
1359.000000	99.800439 
1358.000000	99.801737 
1357.000000	99.803228 
1356.000000	99.804389 
1355.000000	99.804863 
1354.000000	99.804672 
1353.000000	99.804221 
1352.000000	99.803925 
1351.000000	99.803895 
1350.000000	99.803888 
1349.000000	99.803572 
1348.000000	99.802899 
1347.000000	99.802077 
1346.000000	99.801366 
1345.000000	99.800906 
1344.000000	99.800709 
1343.000000	99.800743 
1342.000000	99.801033 
1341.000000	99.801641 
1340.000000	99.802489 
1339.000000	99.803266 
1338.000000	99.803690 
1337.000000	99.803841 
1336.000000	99.804026 
1335.000000	99.804303 
1334.000000	99.804375 
1333.000000	99.804126 
1332.000000	99.804038 
1331.000000	99.804703 
1330.000000	99.805989 
1329.000000	99.807154 
1328.000000	99.807786 
1327.000000	99.808051 
1326.000000	99.807937 
1325.000000	99.807020 
1324.000000	99.805342 
1323.000000	99.803911 
1322.000000	99.803761 
1321.000000	99.804805 
1320.000000	99.806086 
1319.000000	99.807009 
1318.000000	99.807754 
1317.000000	99.808381 
1316.000000	99.808331 
1315.000000	99.807213 
1314.000000	99.805464 
1313.000000	99.803844 
1312.000000	99.802656 
1311.000000	99.801882 
1310.000000	99.801677 
1309.000000	99.802129 
1308.000000	99.802727 
1307.000000	99.802667 
1306.000000	99.801745 
1305.000000	99.800569 
1304.000000	99.799908 
1303.000000	99.800120 
1302.000000	99.801155 
1301.000000	99.802686 
1300.000000	99.804215 
1299.000000	99.805391 
1298.000000	99.806325 
1297.000000	99.807333 
1296.000000	99.808348 
1295.000000	99.808884 
1294.000000	99.808629 
1293.000000	99.807729 
1292.000000	99.806450 
1291.000000	99.804932 
1290.000000	99.803439 
1289.000000	99.802527 
1288.000000	99.802589 
1287.000000	99.803264 
1286.000000	99.803523 
1285.000000	99.802532 
1284.000000	99.800421 
1283.000000	99.798179 
1282.000000	99.796740 
1281.000000	99.796214 
1280.000000	99.796215 
1279.000000	99.796626 
1278.000000	99.797500 
1277.000000	99.798286 
1276.000000	99.797939 
1275.000000	99.796338 
1274.000000	99.794993 
1273.000000	99.795538 
1272.000000	99.797757 
1271.000000	99.799901 
1270.000000	99.800889 
1269.000000	99.801252 
1268.000000	99.801768 
1267.000000	99.802220 
1266.000000	99.802086 
1265.000000	99.801609 
1264.000000	99.801352 
1263.000000	99.801113 
1262.000000	99.800072 
1261.000000	99.798016 
1260.000000	99.795952 
1259.000000	99.795272 
1258.000000	99.796395 
1257.000000	99.798323 
1256.000000	99.799619 
1255.000000	99.799889 
1254.000000	99.800188 
1253.000000	99.801777 
1252.000000	99.804777 
1251.000000	99.808373 
1250.000000	99.811810 
1249.000000	99.814359 
1248.000000	99.814662 
1247.000000	99.811397 
1246.000000	99.804902 
1245.000000	99.797175 
1244.000000	99.789780 
1243.000000	99.782759 
1242.000000	99.776221 
1241.000000	99.771879 
1240.000000	99.771642 
1239.000000	99.774966 
1238.000000	99.778816 
1237.000000	99.780645 
1236.000000	99.780627 
1235.000000	99.780574 
1234.000000	99.781292 
1233.000000	99.781604 
1232.000000	99.779822 
1231.000000	99.775618 
1230.000000	99.770406 
1229.000000	99.766329 
1228.000000	99.764899 
1227.000000	99.765999 
1226.000000	99.767468 
1225.000000	99.765997 
1224.000000	99.759499 
1223.000000	99.749127 
1222.000000	99.738470 
1221.000000	99.730117 
1220.000000	99.723473 
1219.000000	99.716444 
1218.000000	99.708327 
1217.000000	99.700004 
1216.000000	99.691859 
1215.000000	99.682867 
1214.000000	99.671886 
1213.000000	99.658839 
1212.000000	99.644495 
1211.000000	99.629978 
1210.000000	99.616670 
1209.000000	99.605634 
1208.000000	99.596534 
1207.000000	99.587612 
1206.000000	99.577244 
1205.000000	99.565312 
1204.000000	99.552890 
1203.000000	99.541127 
1202.000000	99.530773 
1201.000000	99.522173 
1200.000000	99.514936 
1199.000000	99.507617 
1198.000000	99.498328 
1197.000000	99.485974 
1196.000000	99.471008 
1195.000000	99.455202 
1194.000000	99.440461 
1193.000000	99.427447 
1192.000000	99.415097 
1191.000000	99.401598 
1190.000000	99.386108 
1189.000000	99.369659 
1188.000000	99.354443 
1187.000000	99.342296 
1186.000000	99.333529 
1185.000000	99.326643 
1184.000000	99.319020 
1183.000000	99.308557 
1182.000000	99.295429 
1181.000000	99.282147 
1180.000000	99.271226 
1179.000000	99.262640 
1178.000000	99.253992 
1177.000000	99.243183 
1176.000000	99.230182 
1175.000000	99.215809 
1174.000000	99.199643 
1173.000000	99.180276 
1172.000000	99.157776 
1171.000000	99.135002 
1170.000000	99.115738 
1169.000000	99.101599 
1168.000000	99.091004 
1167.000000	99.081084 
1166.000000	99.070621 
1165.000000	99.061176 
1164.000000	99.055502 
1163.000000	99.055121 
1162.000000	99.059539 
1161.000000	99.067462 
1160.000000	99.077694 
1159.000000	99.087861 
1158.000000	99.093084 
1157.000000	99.088058 
1156.000000	99.071554 
1155.000000	99.048539 
1154.000000	99.026824 
1153.000000	99.010631 
1152.000000	98.997967 
1151.000000	98.984347 
1150.000000	98.968032 
1149.000000	98.951062 
1148.000000	98.935949 
1147.000000	98.922660 
1146.000000	98.909219 
1145.000000	98.894324 
1144.000000	98.878352 
1143.000000	98.862080 
1142.000000	98.845559 
1141.000000	98.828746 
1140.000000	98.812420 
1139.000000	98.797481 
1138.000000	98.783432 
1137.000000	98.768510 
1136.000000	98.751648 
1135.000000	98.733713 
1134.000000	98.716224 
1133.000000	98.699101 
1132.000000	98.680519 
1131.000000	98.659501 
1130.000000	98.638158 
1129.000000	98.620108 
1128.000000	98.605862 
1127.000000	98.590578 
1126.000000	98.568131 
1125.000000	98.537939 
1124.000000	98.506648 
1123.000000	98.482113 
1122.000000	98.466364 
1121.000000	98.455276 
1120.000000	98.443599 
1119.000000	98.428689 
1118.000000	98.410064 
1117.000000	98.388353 
1116.000000	98.366044 
1115.000000	98.347178 
1114.000000	98.333901 
1113.000000	98.323660 
1112.000000	98.311418 
1111.000000	98.294768 
1110.000000	98.275909 
1109.000000	98.258944 
1108.000000	98.246366 
1107.000000	98.237797 
1106.000000	98.230586 
1105.000000	98.221242 
1104.000000	98.207611 
1103.000000	98.190721 
1102.000000	98.174012 
1101.000000	98.159959 
1100.000000	98.147846 
1099.000000	98.135705 
1098.000000	98.123850 
1097.000000	98.114709 
1096.000000	98.108828 
1095.000000	98.102950 
1094.000000	98.093710 
1093.000000	98.081980 
1092.000000	98.071227 
1091.000000	98.062042 
1090.000000	98.050987 
1089.000000	98.035526 
1088.000000	98.017804 
1087.000000	98.002383 
1086.000000	97.992107 
1085.000000	97.987471 
1084.000000	97.988082 
1083.000000	97.992382 
1082.000000	97.996794 
1081.000000	97.997346 
1080.000000	97.992235 
1079.000000	97.982186 
1078.000000	97.969038 
1077.000000	97.954757 
1076.000000	97.940890 
1075.000000	97.927496 
1074.000000	97.912844 
1073.000000	97.894762 
1072.000000	97.871783 
1071.000000	97.843273 
1070.000000	97.810311 
1069.000000	97.776841 
1068.000000	97.747421 
1067.000000	97.721996 
1066.000000	97.694842 
1065.000000	97.660959 
1064.000000	97.622026 
1063.000000	97.583924 
1062.000000	97.549736 
1061.000000	97.517681 
1060.000000	97.484977 
1059.000000	97.450919 
1058.000000	97.416371 
1057.000000	97.382545 
1056.000000	97.350261 
1055.000000	97.318596 
1054.000000	97.284368 
1053.000000	97.244560 
1052.000000	97.199152 
1051.000000	97.150495 
1050.000000	97.100776 
1049.000000	97.051541 
1048.000000	97.004336 
1047.000000	96.959905 
1046.000000	96.918126 
1045.000000	96.879818 
1044.000000	96.846015 
1043.000000	96.813850 
1042.000000	96.776893 
1041.000000	96.733076 
1040.000000	96.688984 
1039.000000	96.651711 
1038.000000	96.619326 
1037.000000	96.584882 
1036.000000	96.548175 
1035.000000	96.516903 
1034.000000	96.496097 
1033.000000	96.482624 
1032.000000	96.471054 
1031.000000	96.459869 
1030.000000	96.450397 
1029.000000	96.443992 
1028.000000	96.441979 
1027.000000	96.444797 
1026.000000	96.449750 
1025.000000	96.452524 
1024.000000	96.451734 
1023.000000	96.449496 
1022.000000	96.447708 
1021.000000	96.446867 
1020.000000	96.448121 
1019.000000	96.452435 
1018.000000	96.457361 
1017.000000	96.458527 
1016.000000	96.455150 
1015.000000	96.450832 
1014.000000	96.448362 
1013.000000	96.446908 
1012.000000	96.444738 
1011.000000	96.441316 
1010.000000	96.436372 
1009.000000	96.430504 
1008.000000	96.427367 
1007.000000	96.431525 
1006.000000	96.442943 
1005.000000	96.456818 
1004.000000	96.469994 
1003.000000	96.484526 
1002.000000	96.503489 
1001.000000	96.525961 
1000.000000	96.547583 
999.000000	 96.564249 
998.000000	 96.574847 
997.000000	 96.582777 
996.000000	 96.595211 
995.000000	 96.618013 
994.000000	 96.649966 
993.000000	 96.683582 
992.000000	 96.712494 
991.000000	 96.736453 
990.000000	 96.758710 
989.000000	 96.781058 
988.000000	 96.803121 
987.000000	 96.825323 
986.000000	 96.850795 
985.000000	 96.883648 
984.000000	 96.924889 
983.000000	 96.970053 
982.000000	 97.012306 
981.000000	 97.048933 
980.000000	 97.083578 
979.000000	 97.121525 
978.000000	 97.164692 
977.000000	 97.211964 
976.000000	 97.261599 
975.000000	 97.311312 
974.000000	 97.358650 
973.000000	 97.404122 
972.000000	 97.451917 
971.000000	 97.504784 
970.000000	 97.560114 
969.000000	 97.613647 
968.000000	 97.664546 
967.000000	 97.713382 
966.000000	 97.757659 
965.000000	 97.794109 
964.000000	 97.824466 
963.000000	 97.854767 
962.000000	 97.889106 
961.000000	 97.927535 
960.000000	 97.969478 
959.000000	 98.014661 
958.000000	 98.060066 
957.000000	 98.100104 
956.000000	 98.131647 
955.000000	 98.156706 
954.000000	 98.179330 
953.000000	 98.201798 
952.000000	 98.224459 
951.000000	 98.247204 
950.000000	 98.269913 
949.000000	 98.292595 
948.000000	 98.315266 
947.000000	 98.336461 
946.000000	 98.352427 
945.000000	 98.359919 
944.000000	 98.360293 
943.000000	 98.359693 
942.000000	 98.364710 
941.000000	 98.377884 
940.000000	 98.396201 
939.000000	 98.412670 
938.000000	 98.421184 
937.000000	 98.422534 
936.000000	 98.424935 
935.000000	 98.436163 
934.000000	 98.455664 
933.000000	 98.476635 
932.000000	 98.494602 
931.000000	 98.510654 
930.000000	 98.526769 
929.000000	 98.541715 
928.000000	 98.552497 
927.000000	 98.557373 
926.000000	 98.556985 
925.000000	 98.554829 
924.000000	 98.556908 
923.000000	 98.568057 
922.000000	 98.587172 
921.000000	 98.607456 
920.000000	 98.622019 
919.000000	 98.628211 
918.000000	 98.627430 
917.000000	 98.623489 
916.000000	 98.621294 
915.000000	 98.624289 
914.000000	 98.631992 
913.000000	 98.641730 
912.000000	 98.653181 
911.000000	 98.668986 
910.000000	 98.690705 
909.000000	 98.717094 
908.000000	 98.746929 
907.000000	 98.780306 
906.000000	 98.815548 
905.000000	 98.847689 
904.000000	 98.872682 
903.000000	 98.892233 
902.000000	 98.912884 
901.000000	 98.940528 
900.000000	 98.975901 
899.000000	 99.013927 
898.000000	 99.047196 
897.000000	 99.072028 
896.000000	 99.091611 
895.000000	 99.111955 
894.000000	 99.134890 
893.000000	 99.157464 
892.000000	 99.178595 
891.000000	 99.202471 
890.000000	 99.232662 
889.000000	 99.265475 
888.000000	 99.293018 
887.000000	 99.312005 
886.000000	 99.326236 
885.000000	 99.340548 
884.000000	 99.355648 
883.000000	 99.370138 
882.000000	 99.384311 
881.000000	 99.399302 
880.000000	 99.414456 
879.000000	 99.428725 
878.000000	 99.443819 
877.000000	 99.462346 
876.000000	 99.482319 
875.000000	 99.497248 
874.000000	 99.504086 
873.000000	 99.508575 
872.000000	 99.519635 
871.000000	 99.539363 
870.000000	 99.561636 
869.000000	 99.580325 
868.000000	 99.595461 
867.000000	 99.610342 
866.000000	 99.625727 
865.000000	 99.639267 
864.000000	 99.649220 
863.000000	 99.656426 
862.000000	 99.662904 
861.000000	 99.670472 
860.000000	 99.680890 
859.000000	 99.695073 
858.000000	 99.710879 
857.000000	 99.723117 
856.000000	 99.727867 
855.000000	 99.727392 
854.000000	 99.729432 
853.000000	 99.739918 
852.000000	 99.756782 
851.000000	 99.772429 
850.000000	 99.782075 
849.000000	 99.787636 
848.000000	 99.793296 
847.000000	 99.800179 
846.000000	 99.807064 
845.000000	 99.813528 
844.000000	 99.819041 
843.000000	 99.820517 
842.000000	 99.814792 
841.000000	 99.803421 
840.000000	 99.791574 
839.000000	 99.781882 
838.000000	 99.772574 
837.000000	 99.762177 
836.000000	 99.752379 
835.000000	 99.744851 
834.000000	 99.738837 
833.000000	 99.734271 
832.000000	 99.733999 
831.000000	 99.739418 
830.000000	 99.746290 
829.000000	 99.749318 
828.000000	 99.749990 
827.000000	 99.755107 
826.000000	 99.766344 
825.000000	 99.775386 
824.000000	 99.772780 
823.000000	 99.759920 
822.000000	 99.749047 
821.000000	 99.750712 
820.000000	 99.762955 
819.000000	 99.773931 
818.000000	 99.774465 
817.000000	 99.766523 
816.000000	 99.758390 
815.000000	 99.753082 
814.000000	 99.744974 
813.000000	 99.728290 
812.000000	 99.704380 
811.000000	 99.677313 
810.000000	 99.645202 
809.000000	 99.600753 
808.000000	 99.540289 
807.000000	 99.468420 
806.000000	 99.392720 
805.000000	 99.316746 
804.000000	 99.240877 
803.000000	 99.168305 
802.000000	 99.106569 
801.000000	 99.062255 
800.000000	 99.036003 
799.000000	 99.023855 
798.000000	 99.023032 
797.000000	 99.034906 
796.000000	 99.060809 
795.000000	 99.096072 
794.000000	 99.131019 
793.000000	 99.157881 
792.000000	 99.174488 
791.000000	 99.181909 
790.000000	 99.182334 
789.000000	 99.179534 
788.000000	 99.176683 
787.000000	 99.171430 
786.000000	 99.156572 
785.000000	 99.128521 
784.000000	 99.093134 
783.000000	 99.061176 
782.000000	 99.039834 
781.000000	 99.029852 
780.000000	 99.027673 
779.000000	 99.027942 
778.000000	 99.026975 
777.000000	 99.027157 
776.000000	 99.036011 
775.000000	 99.058065 
774.000000	 99.089153 
773.000000	 99.121001 
772.000000	 99.149602 
771.000000	 99.176536 
770.000000	 99.204147 
769.000000	 99.231771 
768.000000	 99.255168 
767.000000	 99.268820 
766.000000	 99.271559 
765.000000	 99.270897 
764.000000	 99.278006 
763.000000	 99.296105 
762.000000	 99.316642 
761.000000	 99.328591 
760.000000	 99.328415 
759.000000	 99.320256 
758.000000	 99.311713 
757.000000	 99.311238 
756.000000	 99.323583 
755.000000	 99.343511 
754.000000	 99.358170 
753.000000	 99.360833 
752.000000	 99.359179 
751.000000	 99.365645 
750.000000	 99.382524 
749.000000	 99.401568 
748.000000	 99.415904 
747.000000	 99.426463 
746.000000	 99.437147 
745.000000	 99.449172 
744.000000	 99.461430 
743.000000	 99.473121 
742.000000	 99.484913 
741.000000	 99.498969 
740.000000	 99.517302 
739.000000	 99.538567 
738.000000	 99.557766 
737.000000	 99.570797 
736.000000	 99.577683 
735.000000	 99.580230 
734.000000	 99.579720 
733.000000	 99.579804 
732.000000	 99.588106 
731.000000	 99.608884 
730.000000	 99.634911 
729.000000	 99.653128 
728.000000	 99.659032 
727.000000	 99.659455 
726.000000	 99.660996 
725.000000	 99.661764 
724.000000	 99.657123 
723.000000	 99.647742 
722.000000	 99.638802 
721.000000	 99.635260 
720.000000	 99.640165 
719.000000	 99.653785 
718.000000	 99.672111 
717.000000	 99.689030 
716.000000	 99.700874 
715.000000	 99.706588 
714.000000	 99.705442 
713.000000	 99.699773 
712.000000	 99.698781 
711.000000	 99.711638 
710.000000	 99.734495 
709.000000	 99.751300 
708.000000	 99.750818 
707.000000	 99.736990 
706.000000	 99.720592 
705.000000	 99.706784 
704.000000	 99.695468 
703.000000	 99.687611 
702.000000	 99.683928 
701.000000	 99.680020 
700.000000	 99.668538 
699.000000	 99.645720 
698.000000	 99.613880 
697.000000	 99.579922 
696.000000	 99.553241 
695.000000	 99.541646 
694.000000	 99.546367 
693.000000	 99.562742 
692.000000	 99.586153 
691.000000	 99.613866 
690.000000	 99.640718 
689.000000	 99.659631 
688.000000	 99.669846 
687.000000	 99.678613 
686.000000	 99.690712 
685.000000	 99.701967 
684.000000	 99.706712 
683.000000	 99.705414 
682.000000	 99.701555 
681.000000	 99.697026 
680.000000	 99.694177 
679.000000	 99.696480 
678.000000	 99.702825 
677.000000	 99.706773 
676.000000	 99.706027 
675.000000	 99.706170 
674.000000	 99.710609 
673.000000	 99.713653 
672.000000	 99.708599 
671.000000	 99.698119 
670.000000	 99.692253 
669.000000	 99.700589 
668.000000	 99.720162 
667.000000	 99.737157 
666.000000	 99.748685 
665.000000	 99.755809 
664.000000	 99.757891 
663.000000	 99.760180 
662.000000	 99.767395 
661.000000	 99.775863 
660.000000	 99.778598 
659.000000	 99.776176 
658.000000	 99.775490 
657.000000	 99.778800 
656.000000	 99.781451 
655.000000	 99.780684 
654.000000	 99.780587 
653.000000	 99.786168 
652.000000	 99.796909 
651.000000	 99.807539 
650.000000	 99.812223 

