4000.000000	99.851521 
3999.000000	99.853169 
3998.000000	99.853151 
3997.000000	99.852704 
3996.000000	99.852801 
3995.000000	99.853736 
3994.000000	99.855427 
3993.000000	99.857733 
3992.000000	99.860263 
3991.000000	99.862048 
3990.000000	99.861911 
3989.000000	99.859509 
3988.000000	99.855872 
3987.000000	99.852543 
3986.000000	99.850179 
3985.000000	99.848225 
3984.000000	99.846004 
3983.000000	99.843864 
3982.000000	99.842970 
3981.000000	99.843999 
3980.000000	99.846240 
3979.000000	99.848262 
3978.000000	99.849513 
3977.000000	99.851039 
3976.000000	99.854262 
3975.000000	99.858984 
3974.000000	99.862941 
3973.000000	99.863640 
3972.000000	99.860576 
3971.000000	99.855476 
3970.000000	99.850623 
3969.000000	99.847252 
3968.000000	99.845373 
3967.000000	99.844565 
3966.000000	99.844595 
3965.000000	99.845431 
3964.000000	99.846887 
3963.000000	99.848280 
3962.000000	99.848440 
3961.000000	99.846392 
3960.000000	99.842337 
3959.000000	99.837966 
3958.000000	99.835420 
3957.000000	99.835671 
3956.000000	99.837905 
3955.000000	99.840527 
3954.000000	99.842756 
3953.000000	99.845038 
3952.000000	99.847990 
3951.000000	99.851267 
3950.000000	99.853805 
3949.000000	99.855050 
3948.000000	99.855439 
3947.000000	99.855515 
3946.000000	99.855137 
3945.000000	99.853909 
3944.000000	99.852090 
3943.000000	99.850676 
3942.000000	99.850448 
3941.000000	99.851258 
3940.000000	99.852403 
3939.000000	99.853167 
3938.000000	99.852907 
3937.000000	99.851346 
3936.000000	99.848878 
3935.000000	99.846327 
3934.000000	99.844347 
3933.000000	99.843257 
3932.000000	99.843517 
3931.000000	99.845880 
3930.000000	99.850632 
3929.000000	99.856763 
3928.000000	99.862014 
3927.000000	99.864057 
3926.000000	99.862044 
3925.000000	99.857161 
3924.000000	99.851460 
3923.000000	99.846355 
3922.000000	99.842443 
3921.000000	99.839875 
3920.000000	99.838384 
3919.000000	99.837540 
3918.000000	99.837449 
3917.000000	99.838901 
3916.000000	99.842402 
3915.000000	99.847083 
3914.000000	99.850948 
3913.000000	99.852304 
3912.000000	99.850983 
3911.000000	99.848459 
3910.000000	99.846514 
3909.000000	99.845594 
3908.000000	99.844481 
3907.000000	99.841608 
3906.000000	99.836829 
3905.000000	99.832035 
3904.000000	99.829702 
3903.000000	99.830694 
3902.000000	99.834248 
3901.000000	99.839551 
3900.000000	99.845775 
3899.000000	99.851086 
3898.000000	99.853400 
3897.000000	99.852467 
3896.000000	99.850060 
3895.000000	99.848006 
3894.000000	99.846778 
3893.000000	99.846156 
3892.000000	99.846326 
3891.000000	99.847606 
3890.000000	99.849180 
3889.000000	99.849792 
3888.000000	99.849060 
3887.000000	99.847346 
3886.000000	99.845354 
3885.000000	99.843214 
3884.000000	99.839769 
3883.000000	99.834616 
3882.000000	99.830009 
3881.000000	99.829213 
3880.000000	99.832991 
3879.000000	99.838048 
3878.000000	99.840639 
3877.000000	99.840302 
3876.000000	99.838986 
3875.000000	99.838951 
3874.000000	99.840921 
3873.000000	99.843077 
3872.000000	99.843355 
3871.000000	99.842213 
3870.000000	99.841544 
3869.000000	99.841688 
3868.000000	99.841580 
3867.000000	99.841692 
3866.000000	99.843602 
3865.000000	99.847579 
3864.000000	99.852721 
3863.000000	99.857855 
3862.000000	99.861506 
3861.000000	99.862398 
3860.000000	99.860265 
3859.000000	99.856526 
3858.000000	99.853544 
3857.000000	99.852857 
3856.000000	99.853911 
3855.000000	99.854373 
3854.000000	99.852824 
3853.000000	99.851299 
3852.000000	99.850910 
3851.000000	99.850675 
3850.000000	99.851430 
3849.000000	99.852892 
3848.000000	99.852982 
3847.000000	99.850837 
3846.000000	99.847890 
3845.000000	99.846889 
3844.000000	99.849445 
3843.000000	99.854228 
3842.000000	99.857575 
3841.000000	99.856971 
3840.000000	99.853657 
3839.000000	99.851452 
3838.000000	99.852650 
3837.000000	99.855529 
3836.000000	99.856613 
3835.000000	99.854456 
3834.000000	99.850143 
3833.000000	99.845619 
3832.000000	99.842186 
3831.000000	99.839936 
3830.000000	99.838568 
3829.000000	99.838692 
3828.000000	99.841779 
3827.000000	99.848611 
3826.000000	99.857364 
3825.000000	99.863972 
3824.000000	99.865041 
3823.000000	99.860270 
3822.000000	99.852586 
3821.000000	99.846299 
3820.000000	99.842709 
3819.000000	99.840390 
3818.000000	99.840512 
3817.000000	99.844874 
3816.000000	99.851502 
3815.000000	99.855951 
3814.000000	99.856124 
3813.000000	99.854695 
3812.000000	99.855121 
3811.000000	99.857386 
3810.000000	99.858950 
3809.000000	99.857905 
3808.000000	99.854882 
3807.000000	99.852287 
3806.000000	99.851510 
3805.000000	99.852247 
3804.000000	99.854640 
3803.000000	99.858911 
3802.000000	99.862996 
3801.000000	99.863159 
3800.000000	99.857294 
3799.000000	99.848557 
3798.000000	99.843357 
3797.000000	99.844628 
3796.000000	99.849850 
3795.000000	99.854394 
3794.000000	99.855763 
3793.000000	99.854578 
3792.000000	99.852333 
3791.000000	99.849846 
3790.000000	99.847395 
3789.000000	99.844935 
3788.000000	99.842280 
3787.000000	99.839607 
3786.000000	99.837761 
3785.000000	99.837567 
3784.000000	99.838743 
3783.000000	99.840217 
3782.000000	99.841706 
3781.000000	99.844136 
3780.000000	99.848133 
3779.000000	99.852405 
3778.000000	99.854133 
3777.000000	99.851911 
3776.000000	99.847540 
3775.000000	99.844141 
3774.000000	99.843456 
3773.000000	99.845081 
3772.000000	99.847381 
3771.000000	99.848875 
3770.000000	99.849021 
3769.000000	99.848126 
3768.000000	99.846842 
3767.000000	99.845898 
3766.000000	99.845622 
3765.000000	99.845783 
3764.000000	99.846035 
3763.000000	99.846194 
3762.000000	99.845962 
3761.000000	99.844722 
3760.000000	99.842391 
3759.000000	99.840398 
3758.000000	99.840366 
3757.000000	99.842124 
3756.000000	99.844028 
3755.000000	99.844818 
3754.000000	99.844707 
3753.000000	99.844846 
3752.000000	99.845989 
3751.000000	99.847541 
3750.000000	99.847444 
3749.000000	99.843692 
3748.000000	99.836650 
3747.000000	99.828580 
3746.000000	99.822299 
3745.000000	99.820114 
3744.000000	99.821842 
3743.000000	99.825100 
3742.000000	99.829507 
3741.000000	99.836582 
3740.000000	99.845264 
3739.000000	99.851760 
3738.000000	99.852660 
3737.000000	99.848162 
3736.000000	99.842820 
3735.000000	99.841421 
3734.000000	99.844286 
3733.000000	99.848689 
3732.000000	99.852422 
3731.000000	99.853850 
3730.000000	99.851859 
3729.000000	99.846825 
3728.000000	99.840760 
3727.000000	99.835992 
3726.000000	99.833387 
3725.000000	99.832257 
3724.000000	99.832206 
3723.000000	99.833806 
3722.000000	99.836885 
3721.000000	99.839639 
3720.000000	99.840180 
3719.000000	99.838469 
3718.000000	99.836141 
3717.000000	99.834427 
3716.000000	99.832681 
3715.000000	99.829111 
3714.000000	99.822475 
3713.000000	99.813492 
3712.000000	99.804970 
3711.000000	99.799310 
3710.000000	99.795723 
3709.000000	99.792402 
3708.000000	99.789801 
3707.000000	99.789198 
3706.000000	99.790413 
3705.000000	99.792094 
3704.000000	99.793329 
3703.000000	99.794371 
3702.000000	99.795810 
3701.000000	99.797175 
3700.000000	99.797055 
3699.000000	99.794943 
3698.000000	99.792022 
3697.000000	99.789993 
3696.000000	99.789739 
3695.000000	99.790909 
3694.000000	99.792197 
3693.000000	99.792003 
3692.000000	99.789281 
3691.000000	99.784573 
3690.000000	99.780012 
3689.000000	99.777581 
3688.000000	99.777455 
3687.000000	99.779293 
3686.000000	99.783434 
3685.000000	99.788910 
3684.000000	99.792616 
3683.000000	99.791379 
3682.000000	99.784820 
3681.000000	99.776384 
3680.000000	99.770748 
3679.000000	99.769596 
3678.000000	99.770661 
3677.000000	99.770328 
3676.000000	99.766531 
3675.000000	99.759423 
3674.000000	99.749491 
3673.000000	99.739376 
3672.000000	99.733618 
3671.000000	99.733006 
3670.000000	99.734261 
3669.000000	99.733587 
3668.000000	99.729982 
3667.000000	99.726697 
3666.000000	99.726713 
3665.000000	99.728656 
3664.000000	99.728716 
3663.000000	99.724089 
3662.000000	99.714750 
3661.000000	99.703215 
3660.000000	99.693034 
3659.000000	99.687055 
3658.000000	99.686075 
3657.000000	99.688022 
3656.000000	99.688859 
3655.000000	99.685496 
3654.000000	99.678170 
3653.000000	99.669697 
3652.000000	99.663048 
3651.000000	99.659871 
3650.000000	99.659798 
3649.000000	99.659942 
3648.000000	99.656619 
3647.000000	99.649782 
3646.000000	99.643523 
3645.000000	99.641021 
3644.000000	99.641274 
3643.000000	99.640539 
3642.000000	99.635830 
3641.000000	99.627613 
3640.000000	99.619271 
3639.000000	99.613665 
3638.000000	99.610320 
3637.000000	99.606186 
3636.000000	99.599068 
3635.000000	99.589543 
3634.000000	99.579415 
3633.000000	99.569512 
3632.000000	99.560150 
3631.000000	99.553110 
3630.000000	99.550867 
3629.000000	99.552677 
3628.000000	99.552917 
3627.000000	99.547255 
3626.000000	99.538718 
3625.000000	99.532361 
3624.000000	99.529355 
3623.000000	99.528766 
3622.000000	99.530393 
3621.000000	99.535131 
3620.000000	99.543173 
3619.000000	99.552292 
3618.000000	99.559085 
3617.000000	99.562360 
3616.000000	99.564090 
3615.000000	99.566560 
3614.000000	99.570335 
3613.000000	99.575029 
3612.000000	99.580906 
3611.000000	99.589238 
3610.000000	99.600315 
3609.000000	99.611242 
3608.000000	99.617511 
3607.000000	99.617311 
3606.000000	99.613292 
3605.000000	99.609971 
3604.000000	99.610019 
3603.000000	99.612886 
3602.000000	99.616427 
3601.000000	99.619087 
3600.000000	99.620729 
3599.000000	99.622089 
3598.000000	99.624036 
3597.000000	99.627100 
3596.000000	99.631491 
3595.000000	99.637011 
3594.000000	99.642189 
3593.000000	99.644184 
3592.000000	99.640881 
3591.000000	99.632957 
3590.000000	99.623743 
3589.000000	99.617262 
3588.000000	99.615837 
3587.000000	99.618745 
3586.000000	99.623409 
3585.000000	99.628211 
3584.000000	99.632662 
3583.000000	99.635559 
3582.000000	99.635931 
3581.000000	99.634876 
3580.000000	99.634520 
3579.000000	99.635378 
3578.000000	99.635787 
3577.000000	99.633804 
3576.000000	99.628961 
3575.000000	99.622272 
3574.000000	99.615268 
3573.000000	99.609362 
3572.000000	99.605719 
3571.000000	99.605115 
3570.000000	99.607691 
3569.000000	99.612793 
3568.000000	99.618865 
3567.000000	99.623743 
3566.000000	99.625662 
3565.000000	99.624870 
3564.000000	99.623835 
3563.000000	99.624539 
3562.000000	99.626609 
3561.000000	99.628437 
3560.000000	99.628671 
3559.000000	99.626650 
3558.000000	99.622500 
3557.000000	99.617515 
3556.000000	99.614066 
3555.000000	99.614312 
3554.000000	99.618291 
3553.000000	99.623164 
3552.000000	99.624849 
3551.000000	99.621245 
3550.000000	99.613995 
3549.000000	99.607065 
3548.000000	99.603720 
3547.000000	99.604616 
3546.000000	99.608031 
3545.000000	99.611606 
3544.000000	99.614127 
3543.000000	99.615920 
3542.000000	99.617742 
3541.000000	99.619629 
3540.000000	99.620808 
3539.000000	99.620477 
3538.000000	99.618381 
3537.000000	99.614698 
3536.000000	99.609827 
3535.000000	99.604659 
3534.000000	99.600693 
3533.000000	99.598990 
3532.000000	99.598780 
3531.000000	99.597705 
3530.000000	99.594090 
3529.000000	99.588811 
3528.000000	99.584531 
3527.000000	99.583416 
3526.000000	99.585997 
3525.000000	99.591654 
3524.000000	99.598960 
3523.000000	99.605653 
3522.000000	99.609557 
3521.000000	99.610384 
3520.000000	99.610124 
3519.000000	99.611069 
3518.000000	99.613527 
3517.000000	99.615645 
3516.000000	99.615401 
3515.000000	99.612514 
3514.000000	99.608523 
3513.000000	99.605304 
3512.000000	99.603693 
3511.000000	99.603250 
3510.000000	99.602998 
3509.000000	99.602145 
3508.000000	99.600195 
3507.000000	99.596864 
3506.000000	99.592381 
3505.000000	99.587912 
3504.000000	99.585391 
3503.000000	99.586396 
3502.000000	99.591082 
3501.000000	99.598212 
3500.000000	99.605759 
3499.000000	99.611334 
3498.000000	99.612926 
3497.000000	99.610097 
3496.000000	99.604354 
3495.000000	99.597909 
3494.000000	99.592200 
3493.000000	99.587726 
3492.000000	99.584778 
3491.000000	99.583609 
3490.000000	99.583904 
3489.000000	99.584656 
3488.000000	99.584882 
3487.000000	99.584387 
3486.000000	99.583882 
3485.000000	99.584379 
3484.000000	99.586226 
3483.000000	99.588343 
3482.000000	99.588638 
3481.000000	99.585714 
3480.000000	99.580316 
3479.000000	99.574840 
3478.000000	99.571548 
3477.000000	99.571523 
3476.000000	99.574810 
3475.000000	99.580480 
3474.000000	99.586349 
3473.000000	99.589648 
3472.000000	99.588860 
3471.000000	99.584779 
3470.000000	99.579469 
3469.000000	99.574516 
3468.000000	99.570589 
3467.000000	99.568103 
3466.000000	99.567399 
3465.000000	99.568148 
3464.000000	99.569224 
3463.000000	99.569464 
3462.000000	99.568454 
3461.000000	99.566591 
3460.000000	99.564779 
3459.000000	99.564109 
3458.000000	99.565245 
3457.000000	99.567653 
3456.000000	99.569662 
3455.000000	99.569801 
3454.000000	99.568091 
3453.000000	99.565644 
3452.000000	99.563139 
3451.000000	99.560435 
3450.000000	99.557938 
3449.000000	99.557298 
3448.000000	99.559460 
3447.000000	99.562252 
3446.000000	99.561670 
3445.000000	99.556474 
3444.000000	99.550154 
3443.000000	99.547281 
3442.000000	99.548616 
3441.000000	99.550793 
3440.000000	99.550479 
3439.000000	99.547563 
3438.000000	99.544269 
3437.000000	99.542484 
3436.000000	99.542575 
3435.000000	99.543876 
3434.000000	99.545370 
3433.000000	99.546090 
3432.000000	99.545548 
3431.000000	99.543915 
3430.000000	99.541757 
3429.000000	99.539904 
3428.000000	99.539619 
3427.000000	99.542145 
3426.000000	99.547368 
3425.000000	99.553235 
3424.000000	99.557226 
3423.000000	99.558532 
3422.000000	99.558464 
3421.000000	99.558702 
3420.000000	99.559611 
3419.000000	99.560353 
3418.000000	99.560114 
3417.000000	99.558754 
3416.000000	99.556463 
3415.000000	99.553287 
3414.000000	99.549211 
3413.000000	99.544596 
3412.000000	99.540283 
3411.000000	99.537079 
3410.000000	99.535196 
3409.000000	99.534378 
3408.000000	99.534440 
3407.000000	99.535282 
3406.000000	99.536314 
3405.000000	99.536540 
3404.000000	99.535778 
3403.000000	99.535578 
3402.000000	99.538235 
3401.000000	99.544479 
3400.000000	99.552210 
3399.000000	99.557558 
3398.000000	99.557421 
3397.000000	99.551569 
3396.000000	99.542818 
3395.000000	99.535096 
3394.000000	99.530880 
3393.000000	99.530137 
3392.000000	99.531304 
3391.000000	99.532869 
3390.000000	99.533929 
3389.000000	99.533998 
3388.000000	99.533122 
3387.000000	99.532199 
3386.000000	99.532628 
3385.000000	99.535359 
3384.000000	99.540270 
3383.000000	99.546115 
3382.000000	99.550877 
3381.000000	99.552723 
3380.000000	99.551452 
3379.000000	99.548897 
3378.000000	99.547213 
3377.000000	99.546823 
3376.000000	99.546684 
3375.000000	99.546292 
3374.000000	99.546251 
3373.000000	99.546728 
3372.000000	99.546671 
3371.000000	99.545535 
3370.000000	99.544978 
3369.000000	99.547519 
3368.000000	99.553401 
3367.000000	99.559654 
3366.000000	99.562686 
3365.000000	99.561603 
3364.000000	99.558731 
3363.000000	99.557018 
3362.000000	99.557091 
3361.000000	99.557015 
3360.000000	99.555022 
3359.000000	99.552156 
3358.000000	99.551483 
3357.000000	99.554376 
3356.000000	99.558347 
3355.000000	99.559426 
3354.000000	99.556483 
3353.000000	99.552222 
3352.000000	99.549893 
3351.000000	99.549966 
3350.000000	99.550592 
3349.000000	99.550510 
3348.000000	99.550359 
3347.000000	99.551176 
3346.000000	99.552722 
3345.000000	99.553987 
3344.000000	99.554843 
3343.000000	99.556385 
3342.000000	99.559580 
3341.000000	99.564090 
3340.000000	99.568558 
3339.000000	99.571628 
3338.000000	99.572526 
3337.000000	99.571240 
3336.000000	99.568754 
3335.000000	99.566907 
3334.000000	99.567337 
3333.000000	99.570239 
3332.000000	99.574276 
3331.000000	99.577762 
3330.000000	99.579740 
3329.000000	99.579974 
3328.000000	99.578388 
3327.000000	99.575011 
3326.000000	99.570505 
3325.000000	99.566362 
3324.000000	99.564140 
3323.000000	99.564279 
3322.000000	99.565828 
3321.000000	99.567687 
3320.000000	99.570098 
3319.000000	99.574341 
3318.000000	99.580610 
3317.000000	99.586757 
3316.000000	99.590039 
3315.000000	99.590036 
3314.000000	99.589031 
3313.000000	99.589255 
3312.000000	99.590584 
3311.000000	99.591466 
3310.000000	99.591430 
3309.000000	99.591712 
3308.000000	99.593519 
3307.000000	99.596562 
3306.000000	99.599511 
3305.000000	99.601364 
3304.000000	99.602123 
3303.000000	99.602565 
3302.000000	99.603589 
3301.000000	99.605275 
3300.000000	99.606159 
3299.000000	99.603867 
3298.000000	99.597254 
3297.000000	99.588171 
3296.000000	99.580693 
3295.000000	99.578215 
3294.000000	99.581227 
3293.000000	99.587690 
3292.000000	99.595129 
3291.000000	99.602161 
3290.000000	99.608355 
3289.000000	99.613153 
3288.000000	99.615361 
3287.000000	99.613959 
3286.000000	99.609632 
3285.000000	99.605333 
3284.000000	99.604597 
3283.000000	99.608629 
3282.000000	99.615110 
3281.000000	99.620219 
3280.000000	99.621825 
3279.000000	99.620520 
3278.000000	99.618096 
3277.000000	99.615873 
3276.000000	99.614369 
3275.000000	99.613458 
3274.000000	99.612286 
3273.000000	99.609841 
3272.000000	99.606314 
3271.000000	99.603352 
3270.000000	99.602240 
3269.000000	99.602370 
3268.000000	99.602453 
3267.000000	99.602764 
3266.000000	99.604809 
3265.000000	99.608692 
3264.000000	99.612284 
3263.000000	99.613807 
3262.000000	99.614178 
3261.000000	99.615676 
3260.000000	99.618963 
3259.000000	99.622678 
3258.000000	99.625726 
3257.000000	99.628495 
3256.000000	99.631361 
3255.000000	99.633281 
3254.000000	99.633018 
3253.000000	99.631198 
3252.000000	99.629974 
3251.000000	99.630575 
3250.000000	99.632154 
3249.000000	99.633358 
3248.000000	99.634260 
3247.000000	99.635965 
3246.000000	99.638576 
3245.000000	99.640308 
3244.000000	99.638894 
3243.000000	99.633670 
3242.000000	99.626233 
3241.000000	99.619314 
3240.000000	99.615063 
3239.000000	99.614107 
3238.000000	99.615923 
3237.000000	99.619808 
3236.000000	99.625121 
3235.000000	99.630619 
3234.000000	99.634362 
3233.000000	99.635040 
3232.000000	99.633261 
3231.000000	99.630915 
3230.000000	99.629382 
3229.000000	99.629008 
3228.000000	99.630147 
3227.000000	99.633503 
3226.000000	99.638896 
3225.000000	99.644528 
3224.000000	99.648276 
3223.000000	99.649416 
3222.000000	99.648614 
3221.000000	99.646768 
3220.000000	99.644638 
3219.000000	99.643260 
3218.000000	99.643655 
3217.000000	99.645837 
3216.000000	99.648655 
3215.000000	99.650909 
3214.000000	99.652374 
3213.000000	99.653648 
3212.000000	99.655211 
3211.000000	99.656644 
3210.000000	99.656658 
3209.000000	99.654151 
3208.000000	99.649705 
3207.000000	99.645860 
3206.000000	99.645171 
3205.000000	99.647684 
3204.000000	99.650735 
3203.000000	99.651613 
3202.000000	99.650162 
3201.000000	99.648465 
3200.000000	99.648313 
3199.000000	99.649668 
3198.000000	99.651646 
3197.000000	99.654127 
3196.000000	99.657545 
3195.000000	99.661332 
3194.000000	99.663661 
3193.000000	99.663343 
3192.000000	99.661441 
3191.000000	99.660328 
3190.000000	99.661290 
3189.000000	99.663547 
3188.000000	99.665421 
3187.000000	99.665901 
3186.000000	99.665314 
3185.000000	99.665161 
3184.000000	99.667066 
3183.000000	99.670888 
3182.000000	99.673884 
3181.000000	99.672888 
3180.000000	99.667806 
3179.000000	99.662156 
3178.000000	99.659715 
3177.000000	99.661404 
3176.000000	99.665722 
3175.000000	99.670789 
3174.000000	99.674879 
3173.000000	99.676260 
3172.000000	99.674458 
3171.000000	99.671549 
3170.000000	99.670605 
3169.000000	99.672453 
3168.000000	99.674956 
3167.000000	99.675831 
3166.000000	99.675236 
3165.000000	99.675090 
3164.000000	99.676556 
3163.000000	99.678928 
3162.000000	99.680770 
3161.000000	99.681548 
3160.000000	99.681854 
3159.000000	99.682210 
3158.000000	99.682209 
3157.000000	99.681287 
3156.000000	99.680023 
3155.000000	99.679655 
3154.000000	99.680045 
3153.000000	99.679246 
3152.000000	99.675995 
3151.000000	99.671916 
3150.000000	99.670011 
3149.000000	99.671251 
3148.000000	99.673818 
3147.000000	99.675729 
3146.000000	99.677131 
3145.000000	99.679691 
3144.000000	99.684361 
3143.000000	99.689996 
3142.000000	99.693830 
3141.000000	99.693522 
3140.000000	99.689462 
3139.000000	99.684975 
3138.000000	99.683437 
3137.000000	99.685073 
3136.000000	99.687292 
3135.000000	99.688047 
3134.000000	99.687748 
3133.000000	99.687692 
3132.000000	99.687909 
3131.000000	99.687522 
3130.000000	99.686518 
3129.000000	99.686050 
3128.000000	99.687111 
3127.000000	99.689693 
3126.000000	99.693331 
3125.000000	99.697788 
3124.000000	99.702706 
3123.000000	99.706790 
3122.000000	99.708067 
3121.000000	99.705570 
3120.000000	99.700744 
3119.000000	99.696575 
3118.000000	99.694882 
3117.000000	99.694810 
3116.000000	99.694405 
3115.000000	99.693252 
3114.000000	99.692823 
3113.000000	99.694462 
3112.000000	99.697933 
3111.000000	99.702030 
3110.000000	99.705682 
3109.000000	99.707962 
3108.000000	99.707779 
3107.000000	99.704616 
3106.000000	99.699879 
3105.000000	99.696916 
3104.000000	99.698763 
3103.000000	99.705284 
3102.000000	99.712735 
3101.000000	99.716964 
3100.000000	99.717283 
3099.000000	99.716429 
3098.000000	99.716597 
3097.000000	99.716872 
3096.000000	99.715592 
3095.000000	99.714076 
3094.000000	99.715890 
3093.000000	99.722237 
3092.000000	99.729720 
3091.000000	99.733361 
3090.000000	99.731061 
3089.000000	99.724751 
3088.000000	99.718095 
3087.000000	99.713681 
3086.000000	99.711729 
3085.000000	99.710859 
3084.000000	99.710207 
3083.000000	99.710742 
3082.000000	99.713903 
3081.000000	99.719022 
3080.000000	99.723302 
3079.000000	99.724935 
3078.000000	99.725269 
3077.000000	99.727081 
3076.000000	99.731282 
3075.000000	99.736081 
3074.000000	99.738964 
3073.000000	99.738703 
3072.000000	99.735808 
3071.000000	99.731887 
3070.000000	99.728709 
3069.000000	99.727379 
3068.000000	99.728070 
3067.000000	99.730368 
3066.000000	99.733574 
3065.000000	99.736636 
3064.000000	99.738317 
3063.000000	99.737833 
3062.000000	99.735149 
3061.000000	99.730698 
3060.000000	99.725395 
3059.000000	99.721054 
3058.000000	99.719835 
3057.000000	99.722372 
3056.000000	99.726609 
3055.000000	99.729261 
3054.000000	99.728676 
3053.000000	99.726159 
3052.000000	99.724614 
3051.000000	99.725889 
3050.000000	99.729056 
3049.000000	99.731209 
3048.000000	99.730457 
3047.000000	99.728226 
3046.000000	99.727923 
3045.000000	99.731054 
3044.000000	99.735418 
3043.000000	99.737876 
3042.000000	99.738224 
3041.000000	99.739253 
3040.000000	99.742986 
3039.000000	99.747847 
3038.000000	99.750059 
3037.000000	99.747486 
3036.000000	99.741750 
3035.000000	99.736651 
3034.000000	99.734849 
3033.000000	99.736175 
3032.000000	99.738955 
3031.000000	99.742281 
3030.000000	99.746383 
3029.000000	99.751056 
3028.000000	99.754740 
3027.000000	99.755709 
3026.000000	99.753920 
3025.000000	99.751397 
3024.000000	99.750776 
3023.000000	99.753199 
3022.000000	99.757110 
3021.000000	99.759196 
3020.000000	99.757298 
3019.000000	99.752733 
3018.000000	99.749083 
3017.000000	99.748494 
3016.000000	99.750063 
3015.000000	99.752456 
3014.000000	99.756776 
3013.000000	99.765072 
3012.000000	99.776168 
3011.000000	99.784860 
3010.000000	99.786510 
3009.000000	99.781933 
3008.000000	99.776712 
3007.000000	99.775661 
3006.000000	99.778563 
3005.000000	99.781641 
3004.000000	99.782509 
3003.000000	99.782599 
3002.000000	99.784560 
3001.000000	99.788527 
3000.000000	99.792140 
2999.000000	99.793727 
2998.000000	99.793888 
2997.000000	99.793682 
2996.000000	99.792722 
2995.000000	99.790182 
2994.000000	99.786974 
2993.000000	99.785611 
2992.000000	99.787771 
2991.000000	99.792585 
2990.000000	99.797357 
2989.000000	99.799632 
2988.000000	99.798842 
2987.000000	99.796586 
2986.000000	99.795404 
2985.000000	99.796723 
2984.000000	99.799650 
2983.000000	99.801829 
2982.000000	99.801591 
2981.000000	99.799385 
2980.000000	99.797356 
2979.000000	99.797603 
2978.000000	99.800569 
2977.000000	99.804798 
2976.000000	99.808264 
2975.000000	99.810088 
2974.000000	99.810913 
2973.000000	99.811723 
2972.000000	99.812708 
2971.000000	99.813476 
2970.000000	99.813978 
2969.000000	99.814744 
2968.000000	99.816205 
2967.000000	99.818081 
2966.000000	99.819619 
2965.000000	99.820454 
2964.000000	99.821164 
2963.000000	99.822652 
2962.000000	99.824813 
2961.000000	99.826201 
2960.000000	99.825608 
2959.000000	99.823763 
2958.000000	99.822704 
2957.000000	99.823397 
2956.000000	99.824737 
2955.000000	99.825086 
2954.000000	99.824001 
2953.000000	99.822081 
2952.000000	99.819874 
2951.000000	99.817636 
2950.000000	99.815737 
2949.000000	99.814653 
2948.000000	99.814754 
2947.000000	99.816337 
2946.000000	99.819393 
2945.000000	99.823002 
2944.000000	99.825578 
2943.000000	99.826374 
2942.000000	99.826365 
2941.000000	99.827122 
2940.000000	99.829311 
2939.000000	99.832861 
2938.000000	99.837763 
2937.000000	99.843453 
2936.000000	99.847863 
2935.000000	99.848813 
2934.000000	99.846886 
2933.000000	99.845677 
2932.000000	99.848218 
2931.000000	99.853757 
2930.000000	99.858792 
2929.000000	99.860883 
2928.000000	99.860599 
2927.000000	99.859884 
2926.000000	99.859616 
2925.000000	99.859367 
2924.000000	99.858937 
2923.000000	99.858961 
2922.000000	99.859693 
2921.000000	99.859991 
2920.000000	99.858360 
2919.000000	99.854804 
2918.000000	99.850822 
2917.000000	99.847496 
2916.000000	99.844406 
2915.000000	99.840797 
2914.000000	99.837031 
2913.000000	99.834089 
2912.000000	99.832118 
2911.000000	99.830517 
2910.000000	99.829458 
2909.000000	99.830343 
2908.000000	99.834157 
2907.000000	99.839763 
2906.000000	99.844357 
2905.000000	99.845668 
2904.000000	99.843611 
2903.000000	99.840032 
2902.000000	99.837098 
2901.000000	99.835871 
2900.000000	99.835998 
2899.000000	99.836302 
2898.000000	99.835562 
2897.000000	99.833029 
2896.000000	99.828874 
2895.000000	99.824447 
2894.000000	99.821774 
2893.000000	99.822068 
2892.000000	99.824443 
2891.000000	99.826401 
2890.000000	99.826095 
2889.000000	99.824320 
2888.000000	99.823973 
2887.000000	99.827139 
2886.000000	99.832672 
2885.000000	99.836887 
2884.000000	99.836762 
2883.000000	99.832335 
2882.000000	99.826069 
2881.000000	99.820535 
2880.000000	99.817118 
2879.000000	99.816251 
2878.000000	99.817776 
2877.000000	99.820864 
2876.000000	99.824255 
2875.000000	99.826950 
2874.000000	99.828398 
2873.000000	99.828088 
2872.000000	99.825640 
2871.000000	99.821568 
2870.000000	99.817379 
2869.000000	99.814499 
2868.000000	99.813380 
2867.000000	99.813827 
2866.000000	99.815644 
2865.000000	99.818422 
2864.000000	99.821075 
2863.000000	99.822317 
2862.000000	99.821797 
2861.000000	99.820519 
2860.000000	99.820047 
2859.000000	99.821323 
2858.000000	99.824041 
2857.000000	99.827007 
2856.000000	99.829059 
2855.000000	99.829636 
2854.000000	99.828562 
2853.000000	99.825817 
2852.000000	99.821953 
2851.000000	99.818235 
2850.000000	99.815525 
2849.000000	99.813223 
2848.000000	99.810327 
2847.000000	99.807497 
2846.000000	99.806719 
2845.000000	99.808475 
2844.000000	99.810544 
2843.000000	99.810598 
2842.000000	99.809012 
2841.000000	99.807847 
2840.000000	99.807731 
2839.000000	99.807200 
2838.000000	99.804947 
2837.000000	99.801369 
2836.000000	99.797722 
2835.000000	99.794893 
2834.000000	99.793355 
2833.000000	99.793252 
2832.000000	99.793857 
2831.000000	99.793665 
2830.000000	99.791843 
2829.000000	99.789362 
2828.000000	99.788184 
2827.000000	99.789351 
2826.000000	99.792152 
2825.000000	99.794981 
2824.000000	99.796780 
2823.000000	99.797760 
2822.000000	99.798911 
2821.000000	99.800779 
2820.000000	99.802704 
2819.000000	99.803346 
2818.000000	99.801934 
2817.000000	99.798815 
2816.000000	99.794876 
2815.000000	99.790880 
2814.000000	99.787540 
2813.000000	99.785724 
2812.000000	99.785969 
2811.000000	99.787690 
2810.000000	99.789231 
2809.000000	99.789056 
2808.000000	99.787007 
2807.000000	99.784432 
2806.000000	99.783126 
2805.000000	99.784193 
2804.000000	99.787675 
2803.000000	99.792741 
2802.000000	99.797781 
2801.000000	99.800638 
2800.000000	99.799748 
2799.000000	99.795690 
2798.000000	99.791347 
2797.000000	99.789823 
2796.000000	99.791879 
2795.000000	99.795492 
2794.000000	99.797893 
2793.000000	99.797955 
2792.000000	99.796722 
2791.000000	99.795913 
2790.000000	99.796070 
2789.000000	99.796183 
2788.000000	99.795079 
2787.000000	99.792905 
2786.000000	99.790914 
2785.000000	99.789970 
2784.000000	99.789881 
2783.000000	99.790339 
2782.000000	99.791722 
2781.000000	99.794285 
2780.000000	99.797030 
2779.000000	99.798290 
2778.000000	99.797515 
2777.000000	99.795794 
2776.000000	99.794475 
2775.000000	99.793881 
2774.000000	99.793750 
2773.000000	99.794327 
2772.000000	99.796223 
2771.000000	99.799129 
2770.000000	99.801291 
2769.000000	99.800856 
2768.000000	99.797825 
2767.000000	99.794385 
2766.000000	99.793045 
2765.000000	99.794566 
2764.000000	99.797878 
2763.000000	99.801624 
2762.000000	99.805121 
2761.000000	99.807836 
2760.000000	99.808928 
2759.000000	99.807939 
2758.000000	99.805449 
2757.000000	99.802386 
2756.000000	99.799095 
2755.000000	99.795804 
2754.000000	99.793602 
2753.000000	99.793873 
2752.000000	99.796519 
2751.000000	99.799547 
2750.000000	99.800774 
2749.000000	99.799523 
2748.000000	99.796631 
2747.000000	99.793499 
2746.000000	99.791378 
2745.000000	99.790800 
2744.000000	99.791071 
2743.000000	99.790796 
2742.000000	99.789467 
2741.000000	99.788243 
2740.000000	99.788615 
2739.000000	99.790613 
2738.000000	99.792926 
2737.000000	99.794517 
2736.000000	99.795348 
2735.000000	99.795493 
2734.000000	99.794483 
2733.000000	99.792125 
2732.000000	99.789541 
2731.000000	99.788593 
2730.000000	99.790051 
2729.000000	99.792706 
2728.000000	99.794659 
2727.000000	99.795434 
2726.000000	99.796416 
2725.000000	99.799002 
2724.000000	99.802686 
2723.000000	99.805526 
2722.000000	99.806365 
2721.000000	99.805817 
2720.000000	99.804765 
2719.000000	99.802807 
2718.000000	99.799107 
2717.000000	99.794451 
2716.000000	99.791266 
2715.000000	99.791246 
2714.000000	99.793698 
2713.000000	99.796641 
2712.000000	99.798923 
2711.000000	99.800649 
2710.000000	99.802019 
2709.000000	99.802705 
2708.000000	99.802486 
2707.000000	99.801789 
2706.000000	99.801123 
2705.000000	99.800310 
2704.000000	99.798801 
2703.000000	99.796846 
2702.000000	99.795904 
2701.000000	99.797413 
2700.000000	99.801070 
2699.000000	99.804745 
2698.000000	99.806470 
2697.000000	99.806316 
2696.000000	99.805880 
2695.000000	99.805973 
2694.000000	99.805516 
2693.000000	99.803080 
2692.000000	99.799046 
2691.000000	99.795664 
2690.000000	99.795023 
2689.000000	99.797268 
2688.000000	99.800787 
2687.000000	99.803833 
2686.000000	99.805846 
2685.000000	99.807164 
2684.000000	99.807543 
2683.000000	99.805588 
2682.000000	99.800561 
2681.000000	99.794577 
2680.000000	99.791557 
2679.000000	99.793112 
2678.000000	99.796529 
2677.000000	99.798099 
2676.000000	99.797609 
2675.000000	99.797841 
2674.000000	99.799981 
2673.000000	99.801774 
2672.000000	99.800919 
2671.000000	99.798417 
2670.000000	99.797106 
2669.000000	99.797908 
2668.000000	99.799048 
2667.000000	99.798656 
2666.000000	99.796818 
2665.000000	99.795042 
2664.000000	99.794555 
2663.000000	99.795355 
2662.000000	99.796516 
2661.000000	99.797282 
2660.000000	99.797820 
2659.000000	99.798476 
2658.000000	99.798371 
2657.000000	99.795748 
2656.000000	99.790306 
2655.000000	99.784361 
2654.000000	99.780892 
2653.000000	99.781073 
2652.000000	99.784284 
2651.000000	99.789258 
2650.000000	99.793808 
2649.000000	99.794634 
2648.000000	99.789824 
2647.000000	99.781717 
2646.000000	99.775460 
2645.000000	99.774232 
2644.000000	99.777100 
2643.000000	99.781471 
2642.000000	99.785710 
2641.000000	99.788916 
2640.000000	99.790325 
2639.000000	99.790432 
2638.000000	99.791273 
2637.000000	99.793964 
2636.000000	99.796732 
2635.000000	99.796939 
2634.000000	99.794704 
2633.000000	99.793325 
2632.000000	99.796103 
2631.000000	99.803378 
2630.000000	99.812317 
2629.000000	99.818856 
2628.000000	99.820234 
2627.000000	99.816586 
2626.000000	99.810307 
2625.000000	99.803812 
2624.000000	99.798212 
2623.000000	99.793933 
2622.000000	99.791213 
2621.000000	99.789165 
2620.000000	99.785527 
2619.000000	99.778830 
2618.000000	99.770575 
2617.000000	99.764215 
2616.000000	99.762045 
2615.000000	99.763665 
2614.000000	99.766998 
2613.000000	99.769967 
2612.000000	99.771693 
2611.000000	99.773144 
2610.000000	99.776409 
2609.000000	99.782351 
2608.000000	99.789042 
2607.000000	99.793362 
2606.000000	99.794153 
2605.000000	99.793217 
2604.000000	99.793435 
2603.000000	99.796432 
2602.000000	99.801582 
2601.000000	99.806364 
2600.000000	99.808105 
2599.000000	99.806450 
2598.000000	99.803947 
2597.000000	99.803221 
2596.000000	99.803879 
2595.000000	99.803319 
2594.000000	99.800327 
2593.000000	99.796379 
2592.000000	99.793268 
2591.000000	99.791017 
2590.000000	99.788860 
2589.000000	99.787104 
2588.000000	99.787061 
2587.000000	99.789612 
2586.000000	99.794325 
2585.000000	99.799486 
2584.000000	99.802831 
2583.000000	99.803016 
2582.000000	99.800794 
2581.000000	99.798119 
2580.000000	99.795874 
2579.000000	99.793255 
2578.000000	99.789626 
2577.000000	99.785850 
2576.000000	99.783117 
2575.000000	99.781454 
2574.000000	99.780438 
2573.000000	99.780755 
2572.000000	99.783784 
2571.000000	99.789577 
2570.000000	99.795971 
2569.000000	99.799898 
2568.000000	99.799582 
2567.000000	99.795937 
2566.000000	99.792225 
2565.000000	99.791778 
2564.000000	99.795350 
2563.000000	99.800780 
2562.000000	99.805370 
2561.000000	99.807940 
2560.000000	99.808411 
2559.000000	99.806696 
2558.000000	99.803273 
2557.000000	99.799992 
2556.000000	99.798694 
2555.000000	99.799254 
2554.000000	99.800478 
2553.000000	99.802705 
2552.000000	99.807570 
2551.000000	99.814601 
2550.000000	99.819792 
2549.000000	99.818949 
2548.000000	99.811830 
2547.000000	99.802308 
2546.000000	99.795261 
2545.000000	99.793849 
2544.000000	99.798317 
2543.000000	99.805819 
2542.000000	99.811965 
2541.000000	99.814118 
2540.000000	99.813249 
2539.000000	99.811721 
2538.000000	99.809970 
2537.000000	99.806913 
2536.000000	99.803244 
2535.000000	99.801982 
2534.000000	99.804779 
2533.000000	99.809237 
2532.000000	99.811351 
2531.000000	99.810034 
2530.000000	99.808191 
2529.000000	99.809694 
2528.000000	99.816129 
2527.000000	99.825912 
2526.000000	99.835186 
2525.000000	99.839434 
2524.000000	99.835774 
2523.000000	99.825299 
2522.000000	99.813253 
2521.000000	99.805734 
2520.000000	99.804975 
2519.000000	99.807672 
2518.000000	99.808483 
2517.000000	99.805342 
2516.000000	99.800984 
2515.000000	99.799525 
2514.000000	99.802709 
2513.000000	99.809687 
2512.000000	99.818677 
2511.000000	99.827357 
2510.000000	99.832865 
2509.000000	99.833649 
2508.000000	99.831201 
2507.000000	99.828316 
2506.000000	99.825871 
2505.000000	99.823129 
2504.000000	99.820668 
2503.000000	99.820146 
2502.000000	99.820582 
2501.000000	99.817926 
2500.000000	99.810252 
2499.000000	99.801376 
2498.000000	99.797193 
2497.000000	99.799701 
2496.000000	99.806373 
2495.000000	99.813843 
2494.000000	99.819890 
2493.000000	99.822933 
2492.000000	99.822508 
2491.000000	99.820301 
2490.000000	99.818528 
2489.000000	99.817119 
2488.000000	99.814318 
2487.000000	99.810160 
2486.000000	99.807349 
2485.000000	99.808108 
2484.000000	99.811726 
2483.000000	99.815894 
2482.000000	99.819160 
2481.000000	99.821348 
2480.000000	99.822594 
2479.000000	99.822877 
2478.000000	99.822230 
2477.000000	99.821070 
2476.000000	99.820335 
2475.000000	99.820773 
2474.000000	99.821602 
2473.000000	99.820593 
2472.000000	99.816466 
2471.000000	99.810648 
2470.000000	99.805740 
2469.000000	99.803133 
2468.000000	99.803420 
2467.000000	99.807819 
2466.000000	99.816634 
2465.000000	99.826517 
2464.000000	99.831999 
2463.000000	99.830568 
2462.000000	99.824507 
2461.000000	99.817388 
2460.000000	99.810827 
2459.000000	99.805366 
2458.000000	99.802279 
2457.000000	99.802789 
2456.000000	99.806471 
2455.000000	99.811340 
2454.000000	99.814623 
2453.000000	99.813366 
2452.000000	99.806491 
2451.000000	99.797480 
2450.000000	99.793097 
2449.000000	99.797442 
2448.000000	99.807977 
2447.000000	99.818472 
2446.000000	99.824699 
2445.000000	99.826155 
2444.000000	99.824105 
2443.000000	99.820332 
2442.000000	99.817086 
2441.000000	99.815853 
2440.000000	99.815868 
2439.000000	99.815328 
2438.000000	99.814275 
2437.000000	99.815184 
2436.000000	99.820383 
2435.000000	99.829458 
2434.000000	99.838996 
2433.000000	99.844522 
2432.000000	99.843518 
2431.000000	99.837513 
2430.000000	99.830719 
2429.000000	99.825922 
2428.000000	99.822502 
2427.000000	99.819240 
2426.000000	99.817478 
2425.000000	99.819309 
2424.000000	99.823362 
2423.000000	99.825037 
2422.000000	99.821605 
2421.000000	99.815356 
2420.000000	99.810953 
2419.000000	99.811075 
2418.000000	99.815282 
2417.000000	99.821484 
2416.000000	99.827127 
2415.000000	99.830071 
2414.000000	99.830167 
2413.000000	99.829878 
2412.000000	99.831824 
2411.000000	99.835266 
2410.000000	99.836216 
2409.000000	99.831885 
2408.000000	99.824389 
2407.000000	99.818882 
2406.000000	99.818242 
2405.000000	99.820776 
2404.000000	99.823414 
2403.000000	99.825717 
2402.000000	99.829445 
2401.000000	99.834977 
2400.000000	99.839786 
2399.000000	99.840572 
2398.000000	99.835817 
2397.000000	99.826438 
2396.000000	99.815578 
2395.000000	99.808081 
2394.000000	99.808141 
2393.000000	99.815618 
2392.000000	99.825276 
2391.000000	99.831025 
2390.000000	99.830899 
2389.000000	99.827505 
2388.000000	99.824595 
2387.000000	99.824355 
2386.000000	99.827108 
2385.000000	99.831719 
2384.000000	99.836124 
2383.000000	99.839004 
2382.000000	99.841594 
2381.000000	99.846832 
2380.000000	99.856011 
2379.000000	99.866706 
2378.000000	99.874396 
2377.000000	99.875575 
2376.000000	99.869472 
2375.000000	99.858457 
2374.000000	99.847837 
2373.000000	99.843752 
2372.000000	99.848422 
2371.000000	99.857083 
2370.000000	99.861825 
2369.000000	99.859610 
2368.000000	99.855160 
2367.000000	99.854630 
2366.000000	99.857688 
2365.000000	99.857614 
2364.000000	99.849144 
2363.000000	99.835384 
2362.000000	99.825348 
2361.000000	99.825106 
2360.000000	99.833073 
2359.000000	99.841779 
2358.000000	99.844500 
2357.000000	99.840325 
2356.000000	99.833330 
2355.000000	99.829548 
2354.000000	99.832320 
2353.000000	99.840236 
2352.000000	99.848222 
2351.000000	99.851458 
2350.000000	99.849418 
2349.000000	99.843942 
2348.000000	99.837815 
2347.000000	99.833286 
2346.000000	99.830917 
2345.000000	99.829921 
2344.000000	99.828744 
2343.000000	99.827959 
2342.000000	99.828058 
2341.000000	99.828471 
2340.000000	99.828597 
2339.000000	99.827936 
2338.000000	99.826477 
2337.000000	99.824280 
2336.000000	99.822092 
2335.000000	99.820906 
2334.000000	99.820520 
2333.000000	99.819343 
2332.000000	99.817010 
2331.000000	99.815856 
2330.000000	99.818796 
2329.000000	99.822634 
2328.000000	99.819949 
2327.000000	99.807043 
2326.000000	99.789319 
2325.000000	99.777402 
2324.000000	99.776401 
2323.000000	99.783352 
2322.000000	99.791227 
2321.000000	99.796760 
2320.000000	99.801103 
2319.000000	99.805506 
2318.000000	99.809040 
2317.000000	99.810066 
2316.000000	99.809424 
2315.000000	99.809548 
2314.000000	99.812136 
2313.000000	99.816300 
2312.000000	99.820297 
2311.000000	99.823807 
2310.000000	99.828334 
2309.000000	99.835070 
2308.000000	99.842706 
2307.000000	99.847673 
2306.000000	99.846365 
2305.000000	99.838412 
2304.000000	99.827772 
2303.000000	99.820489 
2302.000000	99.819869 
2301.000000	99.824015 
2300.000000	99.828572 
2299.000000	99.831293 
2298.000000	99.832595 
2297.000000	99.831999 
2296.000000	99.826738 
2295.000000	99.815446 
2294.000000	99.801633 
2293.000000	99.791452 
2292.000000	99.787680 
2291.000000	99.787550 
2290.000000	99.786280 
2289.000000	99.782032 
2288.000000	99.776900 
2287.000000	99.774019 
2286.000000	99.773794 
2285.000000	99.773096 
2284.000000	99.768606 
2283.000000	99.761441 
2282.000000	99.757316 
2281.000000	99.760820 
2280.000000	99.770195 
2279.000000	99.779462 
2278.000000	99.785141 
2277.000000	99.788460 
2276.000000	99.790941 
2275.000000	99.790997 
2274.000000	99.787345 
2273.000000	99.783736 
2272.000000	99.786804 
2271.000000	99.798684 
2270.000000	99.813782 
2269.000000	99.823601 
2268.000000	99.823545 
2267.000000	99.814870 
2266.000000	99.802411 
2265.000000	99.792062 
2264.000000	99.788494 
2263.000000	99.791994 
2262.000000	99.797303 
2261.000000	99.798171 
2260.000000	99.794315 
2259.000000	99.792483 
2258.000000	99.799323 
2257.000000	99.814159 
2256.000000	99.829720 
2255.000000	99.838808 
2254.000000	99.839046 
2253.000000	99.832514 
2252.000000	99.823341 
2251.000000	99.815729 
2250.000000	99.812462 
2249.000000	99.814038 
2248.000000	99.819078 
2247.000000	99.825200 
2246.000000	99.829355 
2245.000000	99.828896 
2244.000000	99.823824 
2243.000000	99.817070 
2242.000000	99.811228 
2241.000000	99.806111 
2240.000000	99.800924 
2239.000000	99.797004 
2238.000000	99.795518 
2237.000000	99.793825 
2236.000000	99.788329 
2235.000000	99.781298 
2234.000000	99.780860 
2233.000000	99.792429 
2232.000000	99.812521 
2231.000000	99.832188 
2230.000000	99.844067 
2229.000000	99.845593 
2228.000000	99.838983 
2227.000000	99.830043 
2226.000000	99.824490 
2225.000000	99.823626 
2224.000000	99.825509 
2223.000000	99.830682 
2222.000000	99.842212 
2221.000000	99.857697 
2220.000000	99.866457 
2219.000000	99.860040 
2218.000000	99.843017 
2217.000000	99.828316 
2216.000000	99.823105 
2215.000000	99.824093 
2214.000000	99.825479 
2213.000000	99.825408 
2212.000000	99.823961 
2211.000000	99.820756 
2210.000000	99.817282 
2209.000000	99.817461 
2208.000000	99.822688 
2207.000000	99.829231 
2206.000000	99.833554 
2205.000000	99.837648 
2204.000000	99.845366 
2203.000000	99.854975 
2202.000000	99.859595 
2201.000000	99.855413 
2200.000000	99.846022 
2199.000000	99.837382 
2198.000000	99.831546 
2197.000000	99.827434 
2196.000000	99.824876 
2195.000000	99.824011 
2194.000000	99.821725 
2193.000000	99.813582 
2192.000000	99.800908 
2191.000000	99.791812 
2190.000000	99.791691 
2189.000000	99.795131 
2188.000000	99.791405 
2187.000000	99.777054 
2186.000000	99.758993 
2185.000000	99.745834 
2184.000000	99.740777 
2183.000000	99.743367 
2182.000000	99.752727 
2181.000000	99.766466 
2180.000000	99.780960 
2179.000000	99.795701 
2178.000000	99.813472 
2177.000000	99.833516 
2176.000000	99.848828 
2175.000000	99.854164 
2174.000000	99.853408 
2173.000000	99.854740 
2172.000000	99.860980 
2171.000000	99.868448 
2170.000000	99.872193 
2169.000000	99.867835 
2168.000000	99.852021 
2167.000000	99.828129 
2166.000000	99.810101 
2165.000000	99.811522 
2164.000000	99.827931 
2163.000000	99.837974 
2162.000000	99.827701 
2161.000000	99.809358 
2160.000000	99.810012 
2159.000000	99.841841 
2158.000000	99.888554 
2157.000000	99.922448 
2156.000000	99.929737 
2155.000000	99.916905 
2154.000000	99.899404 
2153.000000	99.889084 
2152.000000	99.888685 
2151.000000	99.893898 
2150.000000	99.899079 
2149.000000	99.901007 
2148.000000	99.898499 
2147.000000	99.890788 
2146.000000	99.878362 
2145.000000	99.865149 
2144.000000	99.857480 
2143.000000	99.859005 
2142.000000	99.866892 
2141.000000	99.874331 
2140.000000	99.877476 
2139.000000	99.879111 
2138.000000	99.884728 
2137.000000	99.896099 
2136.000000	99.909983 
2135.000000	99.921943 
2134.000000	99.928787 
2133.000000	99.927780 
2132.000000	99.917292 
2131.000000	99.899887 
2130.000000	99.882284 
2129.000000	99.869815 
2128.000000	99.861898 
2127.000000	99.855022 
2126.000000	99.849037 
2125.000000	99.847422 
2124.000000	99.851113 
2123.000000	99.854915 
2122.000000	99.851828 
2121.000000	99.840108 
2120.000000	99.825120 
2119.000000	99.814641 
2118.000000	99.812822 
2117.000000	99.818072 
2116.000000	99.825944 
2115.000000	99.833527 
2114.000000	99.840340 
2113.000000	99.845409 
2112.000000	99.846068 
2111.000000	99.841755 
2110.000000	99.837357 
2109.000000	99.839109 
2108.000000	99.846750 
2107.000000	99.853170 
2106.000000	99.853404 
2105.000000	99.851072 
2104.000000	99.853197 
2103.000000	99.860463 
2102.000000	99.865878 
2101.000000	99.862709 
2100.000000	99.851143 
2099.000000	99.837282 
2098.000000	99.828572 
2097.000000	99.830644 
2096.000000	99.844772 
2095.000000	99.865456 
2094.000000	99.881986 
2093.000000	99.885693 
2092.000000	99.876466 
2091.000000	99.861192 
2090.000000	99.846630 
2089.000000	99.835305 
2088.000000	99.827363 
2087.000000	99.823490 
2086.000000	99.824422 
2085.000000	99.829037 
2084.000000	99.834743 
2083.000000	99.839351 
2082.000000	99.841690 
2081.000000	99.841677 
2080.000000	99.841435 
2079.000000	99.844903 
2078.000000	99.853512 
2077.000000	99.862406 
2076.000000	99.863987 
2075.000000	99.856021 
2074.000000	99.843860 
2073.000000	99.834158 
2072.000000	99.829246 
2071.000000	99.828732 
2070.000000	99.832583 
2069.000000	99.838888 
2068.000000	99.841603 
2067.000000	99.835944 
2066.000000	99.825851 
2065.000000	99.821522 
2064.000000	99.828120 
2063.000000	99.840687 
2062.000000	99.851501 
2061.000000	99.858121 
2060.000000	99.861866 
2059.000000	99.862146 
2058.000000	99.856782 
2057.000000	99.846876 
2056.000000	99.837164 
2055.000000	99.830808 
2054.000000	99.826539 
2053.000000	99.821751 
2052.000000	99.816370 
2051.000000	99.813056 
2050.000000	99.815776 
2049.000000	99.828803 
2048.000000	99.853919 
2047.000000	99.885917 
2046.000000	99.912395 
2045.000000	99.921641 
2044.000000	99.912106 
2043.000000	99.892876 
2042.000000	99.875303 
2041.000000	99.865892 
2040.000000	99.865577 
2039.000000	99.871576 
2038.000000	99.878373 
2037.000000	99.880539 
2036.000000	99.878559 
2035.000000	99.880192 
2034.000000	99.892097 
2033.000000	99.910754 
2032.000000	99.925572 
2031.000000	99.930576 
2030.000000	99.928337 
2029.000000	99.922467 
2028.000000	99.912021 
2027.000000	99.896367 
2026.000000	99.881858 
2025.000000	99.878411 
2024.000000	99.888800 
2023.000000	99.904174 
2022.000000	99.911279 
2021.000000	99.903730 
2020.000000	99.887324 
2019.000000	99.875201 
2018.000000	99.876897 
2017.000000	99.889807 
2016.000000	99.901638 
2015.000000	99.903082 
2014.000000	99.896628 
2013.000000	99.891736 
2012.000000	99.893139 
2011.000000	99.896228 
2010.000000	99.894190 
2009.000000	99.887429 
2008.000000	99.883972 
2007.000000	99.890354 
2006.000000	99.903076 
2005.000000	99.910198 
2004.000000	99.902223 
2003.000000	99.881218 
2002.000000	99.859026 
2001.000000	99.846802 
2000.000000	99.846259 
1999.000000	99.851056 
1998.000000	99.855339 
1997.000000	99.858870 
1996.000000	99.864271 
1995.000000	99.871836 
1994.000000	99.878499 
1993.000000	99.880933 
1992.000000	99.878645 
1991.000000	99.874299 
1990.000000	99.871906 
1989.000000	99.874824 
1988.000000	99.883842 
1987.000000	99.895407 
1986.000000	99.902195 
1985.000000	99.898022 
1984.000000	99.883981 
1983.000000	99.868842 
1982.000000	99.861718 
1981.000000	99.864117 
1980.000000	99.870376 
1979.000000	99.875779 
1978.000000	99.881995 
1977.000000	99.893230 
1976.000000	99.908922 
1975.000000	99.922691 
1974.000000	99.927390 
1973.000000	99.919569 
1972.000000	99.901054 
1971.000000	99.878802 
1970.000000	99.862835 
1969.000000	99.861371 
1968.000000	99.875044 
1967.000000	99.894900 
1966.000000	99.907065 
1965.000000	99.901754 
1964.000000	99.880518 
1963.000000	99.856413 
1962.000000	99.845865 
1961.000000	99.856055 
1960.000000	99.878442 
1959.000000	99.896366 
1958.000000	99.898844 
1957.000000	99.886710 
1956.000000	99.868715 
1955.000000	99.855337 
1954.000000	99.854670 
1953.000000	99.868414 
1952.000000	99.889487 
1951.000000	99.906554 
1950.000000	99.913117 
1949.000000	99.911200 
1948.000000	99.905869 
1947.000000	99.898947 
1946.000000	99.890144 
1945.000000	99.881326 
1944.000000	99.875749 
1943.000000	99.873907 
1942.000000	99.873700 
1941.000000	99.874962 
1940.000000	99.879655 
1939.000000	99.886441 
1938.000000	99.889219 
1937.000000	99.884021 
1936.000000	99.875774 
1935.000000	99.874167 
1934.000000	99.881960 
1933.000000	99.890290 
1932.000000	99.887913 
1931.000000	99.874129 
1930.000000	99.859900 
1929.000000	99.855854 
1928.000000	99.861308 
1927.000000	99.866710 
1926.000000	99.865506 
1925.000000	99.860569 
1924.000000	99.858978 
1923.000000	99.862918 
1922.000000	99.867584 
1921.000000	99.867413 
1920.000000	99.861148 
1919.000000	99.851011 
1918.000000	99.840469 
1917.000000	99.832887 
1916.000000	99.830072 
1915.000000	99.831497 
1914.000000	99.835199 
1913.000000	99.839425 
1912.000000	99.843293 
1911.000000	99.845955 
1910.000000	99.845685 
1909.000000	99.841049 
1908.000000	99.833550 
1907.000000	99.827943 
1906.000000	99.828748 
1905.000000	99.835616 
1904.000000	99.842504 
1903.000000	99.843070 
1902.000000	99.837207 
1901.000000	99.831162 
1900.000000	99.830495 
1899.000000	99.834299 
1898.000000	99.837765 
1897.000000	99.838559 
1896.000000	99.838161 
1895.000000	99.837643 
1894.000000	99.835551 
1893.000000	99.831364 
1892.000000	99.828191 
1891.000000	99.830058 
1890.000000	99.837396 
1889.000000	99.846041 
1888.000000	99.851025 
1887.000000	99.850227 
1886.000000	99.844419 
1885.000000	99.836582 
1884.000000	99.830643 
1883.000000	99.828311 
1882.000000	99.827713 
1881.000000	99.826606 
1880.000000	99.825826 
1879.000000	99.827405 
1878.000000	99.830040 
1877.000000	99.829324 
1876.000000	99.823084 
1875.000000	99.814215 
1874.000000	99.807087 
1873.000000	99.802879 
1872.000000	99.800129 
1871.000000	99.799015 
1870.000000	99.803142 
1869.000000	99.815266 
1868.000000	99.831352 
1867.000000	99.843008 
1866.000000	99.845800 
1865.000000	99.842082 
1864.000000	99.837521 
1863.000000	99.835978 
1862.000000	99.836848 
1861.000000	99.837081 
1860.000000	99.834926 
1859.000000	99.830697 
1858.000000	99.825007 
1857.000000	99.818622 
1856.000000	99.813859 
1855.000000	99.813592 
1854.000000	99.817954 
1853.000000	99.823290 
1852.000000	99.825728 
1851.000000	99.824781 
1850.000000	99.822682 
1849.000000	99.821459 
1848.000000	99.821355 
1847.000000	99.821444 
1846.000000	99.820982 
1845.000000	99.820365 
1844.000000	99.820788 
1843.000000	99.822255 
1842.000000	99.822827 
1841.000000	99.820846 
1840.000000	99.817572 
1839.000000	99.816754 
1838.000000	99.820576 
1837.000000	99.826708 
1836.000000	99.831366 
1835.000000	99.834156 
1834.000000	99.837179 
1833.000000	99.840260 
1832.000000	99.839862 
1831.000000	99.833302 
1830.000000	99.823791 
1829.000000	99.818858 
1828.000000	99.822323 
1827.000000	99.830906 
1826.000000	99.838028 
1825.000000	99.838996 
1824.000000	99.834416 
1823.000000	99.828628 
1822.000000	99.824748 
1821.000000	99.822914 
1820.000000	99.822189 
1819.000000	99.822077 
1818.000000	99.822294 
1817.000000	99.822107 
1816.000000	99.820756 
1815.000000	99.818340 
1814.000000	99.815702 
1813.000000	99.813901 
1812.000000	99.813652 
1811.000000	99.814648 
1810.000000	99.815621 
1809.000000	99.815691 
1808.000000	99.815305 
1807.000000	99.815036 
1806.000000	99.814068 
1805.000000	99.811194 
1804.000000	99.807364 
1803.000000	99.805809 
1802.000000	99.808557 
1801.000000	99.813573 
1800.000000	99.816666 
1799.000000	99.816008 
1798.000000	99.812927 
1797.000000	99.809099 
1796.000000	99.805088 
1795.000000	99.800799 
1794.000000	99.796225 
1793.000000	99.792616 
1792.000000	99.793012 
1791.000000	99.799315 
1790.000000	99.808910 
1789.000000	99.816176 
1788.000000	99.817232 
1787.000000	99.813181 
1786.000000	99.808993 
1785.000000	99.808789 
1784.000000	99.812259 
1783.000000	99.816067 
1782.000000	99.816993 
1781.000000	99.813891 
1780.000000	99.808805 
1779.000000	99.806002 
1778.000000	99.808257 
1777.000000	99.814159 
1776.000000	99.819984 
1775.000000	99.823024 
1774.000000	99.822207 
1773.000000	99.816705 
1772.000000	99.807123 
1771.000000	99.797822 
1770.000000	99.793644 
1769.000000	99.794787 
1768.000000	99.797914 
1767.000000	99.801206 
1766.000000	99.805719 
1765.000000	99.811449 
1764.000000	99.814953 
1763.000000	99.812565 
1762.000000	99.805414 
1761.000000	99.799225 
1760.000000	99.797767 
1759.000000	99.800120 
1758.000000	99.804176 
1757.000000	99.808845 
1756.000000	99.813076 
1755.000000	99.815518 
1754.000000	99.815796 
1753.000000	99.814871 
1752.000000	99.814668 
1751.000000	99.816771 
1750.000000	99.820278 
1749.000000	99.821752 
1748.000000	99.818599 
1747.000000	99.812252 
1746.000000	99.806975 
1745.000000	99.805652 
1744.000000	99.807121 
1743.000000	99.808199 
1742.000000	99.807798 
1741.000000	99.807638 
1740.000000	99.808850 
1739.000000	99.809837 
1738.000000	99.808677 
1737.000000	99.805424 
1736.000000	99.801236 
1735.000000	99.797809 
1734.000000	99.796583 
1733.000000	99.796875 
1732.000000	99.797574 
1731.000000	99.797991 
1730.000000	99.797320 
1729.000000	99.795681 
1728.000000	99.794493 
1727.000000	99.795694 
1726.000000	99.799914 
1725.000000	99.805262 
1724.000000	99.807709 
1723.000000	99.804284 
1722.000000	99.796005 
1721.000000	99.786458 
1720.000000	99.779214 
1719.000000	99.777521 
1718.000000	99.783536 
1717.000000	99.793670 
1716.000000	99.800457 
1715.000000	99.801163 
1714.000000	99.798272 
1713.000000	99.794893 
1712.000000	99.792240 
1711.000000	99.789871 
1710.000000	99.787714 
1709.000000	99.786723 
1708.000000	99.787553 
1707.000000	99.789477 
1706.000000	99.791601 
1705.000000	99.793981 
1704.000000	99.796816 
1703.000000	99.799210 
1702.000000	99.799512 
1701.000000	99.797665 
1700.000000	99.796150 
1699.000000	99.795570 
1698.000000	99.792637 
1697.000000	99.784637 
1696.000000	99.775110 
1695.000000	99.771537 
1694.000000	99.775333 
1693.000000	99.780806 
1692.000000	99.783150 
1691.000000	99.782224 
1690.000000	99.780138 
1689.000000	99.777760 
1688.000000	99.774555 
1687.000000	99.770901 
1686.000000	99.769013 
1685.000000	99.772104 
1684.000000	99.778238 
1683.000000	99.779729 
1682.000000	99.776094 
1681.000000	99.771637 
1680.000000	99.767962 
1679.000000	99.766048 
1678.000000	99.766297 
1677.000000	99.768544 
1676.000000	99.772019 
1675.000000	99.775104 
1674.000000	99.776524 
1673.000000	99.776854 
1672.000000	99.776796 
1671.000000	99.775952 
1670.000000	99.773324 
1669.000000	99.768728 
1668.000000	99.764745 
1667.000000	99.764305 
1666.000000	99.767155 
1665.000000	99.771024 
1664.000000	99.774136 
1663.000000	99.775674 
1662.000000	99.774721 
1661.000000	99.771129 
1660.000000	99.766852 
1659.000000	99.764703 
1658.000000	99.766349 
1657.000000	99.770978 
1656.000000	99.775987 
1655.000000	99.778755 
1654.000000	99.777540 
1653.000000	99.770252 
1652.000000	99.759250 
1651.000000	99.752792 
1650.000000	99.751345 
1649.000000	99.750896 
1648.000000	99.751063 
1647.000000	99.751827 
1646.000000	99.751534 
1645.000000	99.749680 
1644.000000	99.748148 
1643.000000	99.747600 
1642.000000	99.747179 
1641.000000	99.745553 
1640.000000	99.742243 
1639.000000	99.738803 
1638.000000	99.737706 
1637.000000	99.739535 
1636.000000	99.741044 
1635.000000	99.738650 
1634.000000	99.735865 
1633.000000	99.737621 
1632.000000	99.742519 
1631.000000	99.747072 
1630.000000	99.749582 
1629.000000	99.750170 
1628.000000	99.749292 
1627.000000	99.747009 
1626.000000	99.743615 
1625.000000	99.739882 
1624.000000	99.736949 
1623.000000	99.736303 
1622.000000	99.738758 
1621.000000	99.743525 
1620.000000	99.748341 
1619.000000	99.750508 
1618.000000	99.748432 
1617.000000	99.743010 
1616.000000	99.737406 
1615.000000	99.734511 
1614.000000	99.734962 
1613.000000	99.737723 
1612.000000	99.741750 
1611.000000	99.746560 
1610.000000	99.751859 
1609.000000	99.757176 
1608.000000	99.761534 
1607.000000	99.763692 
1606.000000	99.763064 
1605.000000	99.760485 
1604.000000	99.757765 
1603.000000	99.756385 
1602.000000	99.756685 
1601.000000	99.758116 
1600.000000	99.760275 
1599.000000	99.763330 
1598.000000	99.767127 
1597.000000	99.770292 
1596.000000	99.770895 
1595.000000	99.768349 
1594.000000	99.764334 
1593.000000	99.761406 
1592.000000	99.761035 
1591.000000	99.763223 
1590.000000	99.767069 
1589.000000	99.771238 
1588.000000	99.774643 
1587.000000	99.777211 
1586.000000	99.779617 
1585.000000	99.781921 
1584.000000	99.783285 
1583.000000	99.783210 
1582.000000	99.782594 
1581.000000	99.782808 
1580.000000	99.783802 
1579.000000	99.784262 
1578.000000	99.783680 
1577.000000	99.783652 
1576.000000	99.785472 
1575.000000	99.787417 
1574.000000	99.787557 
1573.000000	99.785532 
1572.000000	99.781933 
1571.000000	99.779637 
1570.000000	99.783870 
1569.000000	99.796291 
1568.000000	99.811749 
1567.000000	99.823695 
1566.000000	99.828297 
1565.000000	99.825045 
1564.000000	99.816965 
1563.000000	99.807771 
1562.000000	99.798746 
1561.000000	99.789851 
1560.000000	99.784595 
1559.000000	99.791027 
1558.000000	99.802312 
1557.000000	99.810054 
1556.000000	99.816701 
1555.000000	99.822014 
1554.000000	99.824654 
1553.000000	99.823829 
1552.000000	99.819692 
1551.000000	99.814273 
1550.000000	99.811200 
1549.000000	99.812421 
1548.000000	99.815731 
1547.000000	99.817892 
1546.000000	99.818482 
1545.000000	99.820041 
1544.000000	99.823576 
1543.000000	99.825449 
1542.000000	99.821463 
1541.000000	99.812555 
1540.000000	99.805305 
1539.000000	99.803682 
1538.000000	99.806379 
1537.000000	99.810355 
1536.000000	99.812926 
1535.000000	99.814078 
1534.000000	99.815589 
1533.000000	99.817828 
1532.000000	99.819335 
1531.000000	99.819879 
1530.000000	99.820242 
1529.000000	99.820284 
1528.000000	99.818878 
1527.000000	99.815067 
1526.000000	99.810040 
1525.000000	99.806623 
1524.000000	99.805957 
1523.000000	99.806553 
1522.000000	99.807110 
1521.000000	99.807756 
1520.000000	99.809104 
1519.000000	99.811329 
1518.000000	99.813835 
1517.000000	99.816160 
1516.000000	99.817405 
1515.000000	99.816333 
1514.000000	99.812817 
1513.000000	99.808306 
1512.000000	99.805740 
1511.000000	99.807663 
1510.000000	99.814006 
1509.000000	99.822951 
1508.000000	99.831902 
1507.000000	99.835385 
1506.000000	99.827766 
1505.000000	99.816548 
1504.000000	99.811107 
1503.000000	99.809758 
1502.000000	99.808940 
1501.000000	99.807700 
1500.000000	99.807086 
1499.000000	99.808386 
1498.000000	99.810810 
1497.000000	99.810911 
1496.000000	99.806036 
1495.000000	99.798824 
1494.000000	99.794091 
1493.000000	99.793115 
1492.000000	99.793498 
1491.000000	99.792100 
1490.000000	99.788410 
1489.000000	99.785365 
1488.000000	99.785635 
1487.000000	99.788499 
1486.000000	99.791743 
1485.000000	99.794689 
1484.000000	99.798156 
1483.000000	99.802044 
1482.000000	99.804723 
1481.000000	99.804968 
1480.000000	99.803364 
1479.000000	99.801127 
1478.000000	99.798677 
1477.000000	99.796572 
1476.000000	99.795889 
1475.000000	99.796389 
1474.000000	99.795409 
1473.000000	99.790949 
1472.000000	99.785464 
1471.000000	99.783474 
1470.000000	99.785764 
1469.000000	99.789601 
1468.000000	99.793070 
1467.000000	99.796255 
1466.000000	99.799025 
1465.000000	99.800039 
1464.000000	99.799410 
1463.000000	99.799610 
1462.000000	99.801500 
1461.000000	99.802205 
1460.000000	99.798545 
1459.000000	99.790574 
1458.000000	99.782500 
1457.000000	99.778649 
1456.000000	99.779096 
1455.000000	99.783120 
1454.000000	99.789775 
1453.000000	99.796276 
1452.000000	99.799387 
1451.000000	99.797189 
1450.000000	99.790741 
1449.000000	99.783180 
1448.000000	99.777531 
1447.000000	99.775211 
1446.000000	99.775374 
1445.000000	99.776076 
1444.000000	99.775686 
1443.000000	99.773882 
1442.000000	99.771764 
1441.000000	99.770111 
1440.000000	99.767900 
1439.000000	99.763278 
1438.000000	99.756289 
1437.000000	99.750770 
1436.000000	99.751397 
1435.000000	99.757986 
1434.000000	99.766227 
1433.000000	99.772226 
1432.000000	99.774321 
1431.000000	99.773177 
1430.000000	99.770938 
1429.000000	99.769395 
1428.000000	99.768762 
1427.000000	99.768309 
1426.000000	99.767544 
1425.000000	99.767383 
1424.000000	99.769617 
1423.000000	99.774326 
1422.000000	99.779128 
1421.000000	99.781327 
1420.000000	99.780441 
1419.000000	99.778939 
1418.000000	99.778573 
1417.000000	99.777795 
1416.000000	99.774907 
1415.000000	99.771031 
1414.000000	99.769061 
1413.000000	99.770108 
1412.000000	99.772001 
1411.000000	99.772381 
1410.000000	99.772066 
1409.000000	99.773772 
1408.000000	99.778321 
1407.000000	99.783707 
1406.000000	99.787215 
1405.000000	99.787851 
1404.000000	99.786890 
1403.000000	99.786155 
1402.000000	99.785910 
1401.000000	99.784820 
1400.000000	99.782253 
1399.000000	99.780077 
1398.000000	99.780956 
1397.000000	99.784976 
1396.000000	99.789446 
1395.000000	99.791719 
1394.000000	99.791645 
1393.000000	99.791204 
1392.000000	99.791763 
1391.000000	99.793138 
1390.000000	99.795039 
1389.000000	99.797822 
1388.000000	99.801835 
1387.000000	99.806410 
1386.000000	99.809747 
1385.000000	99.810115 
1384.000000	99.807188 
1383.000000	99.802783 
1382.000000	99.800045 
1381.000000	99.800627 
1380.000000	99.803329 
1379.000000	99.806109 
1378.000000	99.808196 
1377.000000	99.809626 
1376.000000	99.810032 
1375.000000	99.809140 
1374.000000	99.807524 
1373.000000	99.805652 
1372.000000	99.802926 
1371.000000	99.798835 
1370.000000	99.794654 
1369.000000	99.792945 
1368.000000	99.794754 
1367.000000	99.798175 
1366.000000	99.800382 
1365.000000	99.800102 
1364.000000	99.798250 
1363.000000	99.797048 
1362.000000	99.798042 
1361.000000	99.800682 
1360.000000	99.803293 
1359.000000	99.804976 
1358.000000	99.805920 
1357.000000	99.806075 
1356.000000	99.804547 
1355.000000	99.801179 
1354.000000	99.797857 
1353.000000	99.796957 
1352.000000	99.798879 
1351.000000	99.802094 
1350.000000	99.804759 
1349.000000	99.805506 
1348.000000	99.803693 
1347.000000	99.800281 
1346.000000	99.797800 
1345.000000	99.797833 
1344.000000	99.798952 
1343.000000	99.798621 
1342.000000	99.796702 
1341.000000	99.795430 
1340.000000	99.795882 
1339.000000	99.796278 
1338.000000	99.794934 
1337.000000	99.792917 
1336.000000	99.792386 
1335.000000	99.794031 
1334.000000	99.796782 
1333.000000	99.798682 
1332.000000	99.797777 
1331.000000	99.793490 
1330.000000	99.787751 
1329.000000	99.783762 
1328.000000	99.783202 
1327.000000	99.785488 
1326.000000	99.789524 
1325.000000	99.794503 
1324.000000	99.798568 
1323.000000	99.798836 
1322.000000	99.794573 
1321.000000	99.789235 
1320.000000	99.787425 
1319.000000	99.789856 
1318.000000	99.792840 
1317.000000	99.793145 
1316.000000	99.791673 
1315.000000	99.791556 
1314.000000	99.793954 
1313.000000	99.796830 
1312.000000	99.797616 
1311.000000	99.796132 
1310.000000	99.794355 
1309.000000	99.793858 
1308.000000	99.794268 
1307.000000	99.794224 
1306.000000	99.793190 
1305.000000	99.791838 
1304.000000	99.790927 
1303.000000	99.790277 
1302.000000	99.788772 
1301.000000	99.785205 
1300.000000	99.779528 
1299.000000	99.773668 
1298.000000	99.770569 
1297.000000	99.771586 
1296.000000	99.774926 
1295.000000	99.777251 
1294.000000	99.776745 
1293.000000	99.774197 
1292.000000	99.771530 
1291.000000	99.770152 
1290.000000	99.770417 
1289.000000	99.771566 
1288.000000	99.772028 
1287.000000	99.770707 
1286.000000	99.768220 
1285.000000	99.766105 
1284.000000	99.764732 
1283.000000	99.762843 
1282.000000	99.759365 
1281.000000	99.754885 
1280.000000	99.751069 
1279.000000	99.749352 
1278.000000	99.750275 
1277.000000	99.753063 
1276.000000	99.755446 
1275.000000	99.755046 
1274.000000	99.751841 
1273.000000	99.748542 
1272.000000	99.747720 
1271.000000	99.749210 
1270.000000	99.751099 
1269.000000	99.752406 
1268.000000	99.753464 
1267.000000	99.754311 
1266.000000	99.754463 
1265.000000	99.754311 
1264.000000	99.755021 
1263.000000	99.756396 
1262.000000	99.756157 
1261.000000	99.752389 
1260.000000	99.745928 
1259.000000	99.739317 
1258.000000	99.733987 
1257.000000	99.729635 
1256.000000	99.725992 
1255.000000	99.723643 
1254.000000	99.722734 
1253.000000	99.722193 
1252.000000	99.721100 
1251.000000	99.719980 
1250.000000	99.719652 
1249.000000	99.719260 
1248.000000	99.716769 
1247.000000	99.711552 
1246.000000	99.705424 
1245.000000	99.700575 
1244.000000	99.697218 
1243.000000	99.693863 
1242.000000	99.689461 
1241.000000	99.684651 
1240.000000	99.681036 
1239.000000	99.679625 
1238.000000	99.679813 
1237.000000	99.679643 
1236.000000	99.677260 
1235.000000	99.672435 
1234.000000	99.666612 
1233.000000	99.661320 
1232.000000	99.656743 
1231.000000	99.652012 
1230.000000	99.646575 
1229.000000	99.640907 
1228.000000	99.635802 
1227.000000	99.630955 
1226.000000	99.624289 
1225.000000	99.613207 
1224.000000	99.597278 
1223.000000	99.579535 
1222.000000	99.564079 
1221.000000	99.552014 
1220.000000	99.540638 
1219.000000	99.526975 
1218.000000	99.511075 
1217.000000	99.495072 
1216.000000	99.480021 
1215.000000	99.465073 
1214.000000	99.449377 
1213.000000	99.433251 
1212.000000	99.417081 
1211.000000	99.400159 
1210.000000	99.381509 
1209.000000	99.361559 
1208.000000	99.342291 
1207.000000	99.325521 
1206.000000	99.311115 
1205.000000	99.296956 
1204.000000	99.280711 
1203.000000	99.261779 
1202.000000	99.241735 
1201.000000	99.223032 
1200.000000	99.207245 
1199.000000	99.194282 
1198.000000	99.182839 
1197.000000	99.171304 
1196.000000	99.158272 
1195.000000	99.142737 
1194.000000	99.124566 
1193.000000	99.105009 
1192.000000	99.086162 
1191.000000	99.069345 
1190.000000	99.054065 
1189.000000	99.038844 
1188.000000	99.022658 
1187.000000	99.005094 
1186.000000	98.985797 
1185.000000	98.964949 
1184.000000	98.944161 
1183.000000	98.925638 
1182.000000	98.910030 
1181.000000	98.895790 
1180.000000	98.880651 
1179.000000	98.862905 
1178.000000	98.841554 
1177.000000	98.816916 
1176.000000	98.791500 
1175.000000	98.768671 
1174.000000	98.749291 
1173.000000	98.730513 
1172.000000	98.708582 
1171.000000	98.682010 
1170.000000	98.651961 
1169.000000	98.621149 
1168.000000	98.592997 
1167.000000	98.570000 
1166.000000	98.551608 
1165.000000	98.535180 
1164.000000	98.520317 
1163.000000	98.510734 
1162.000000	98.510401 
1161.000000	98.519056 
1160.000000	98.532675 
1159.000000	98.546560 
1158.000000	98.556411 
1157.000000	98.558477 
1156.000000	98.551671 
1155.000000	98.539158 
1154.000000	98.525535 
1153.000000	98.512367 
1152.000000	98.498146 
1151.000000	98.481871 
1150.000000	98.464170 
1149.000000	98.445141 
1148.000000	98.424002 
1147.000000	98.401661 
1146.000000	98.381049 
1145.000000	98.363372 
1144.000000	98.345815 
1143.000000	98.324731 
1142.000000	98.300159 
1141.000000	98.275590 
1140.000000	98.253677 
1139.000000	98.233599 
1138.000000	98.212629 
1137.000000	98.189130 
1136.000000	98.163526 
1135.000000	98.137081 
1134.000000	98.110664 
1133.000000	98.084622 
1132.000000	98.058987 
1131.000000	98.033311 
1130.000000	98.007098 
1129.000000	97.981188 
1128.000000	97.957728 
1127.000000	97.937064 
1126.000000	97.915126 
1125.000000	97.886337 
1124.000000	97.849903 
1123.000000	97.811323 
1122.000000	97.776590 
1121.000000	97.746570 
1120.000000	97.718448 
1119.000000	97.690821 
1118.000000	97.665020 
1117.000000	97.642116 
1116.000000	97.620772 
1115.000000	97.598262 
1114.000000	97.572499 
1113.000000	97.543153 
1112.000000	97.511731 
1111.000000	97.480636 
1110.000000	97.451552 
1109.000000	97.424580 
1108.000000	97.398792 
1107.000000	97.372878 
1106.000000	97.345306 
1105.000000	97.315085 
1104.000000	97.282995 
1103.000000	97.251364 
1102.000000	97.222308 
1101.000000	97.196721 
1100.000000	97.174582 
1099.000000	97.154783 
1098.000000	97.134911 
1097.000000	97.113027 
1096.000000	97.089813 
1095.000000	97.067322 
1094.000000	97.045659 
1093.000000	97.023062 
1092.000000	96.999461 
1091.000000	96.977440 
1090.000000	96.958705 
1089.000000	96.941760 
1088.000000	96.924185 
1087.000000	96.905345 
1086.000000	96.885868 
1085.000000	96.866353 
1084.000000	96.847912 
1083.000000	96.832534 
1082.000000	96.821517 
1081.000000	96.814161 
1080.000000	96.808299 
1079.000000	96.801181 
1078.000000	96.790196 
1077.000000	96.774447 
1076.000000	96.755445 
1075.000000	96.734720 
1074.000000	96.711395 
1073.000000	96.684300 
1072.000000	96.655493 
1071.000000	96.628407 
1070.000000	96.602672 
1069.000000	96.574398 
1068.000000	96.542179 
1067.000000	96.509215 
1066.000000	96.478259 
1065.000000	96.447686 
1064.000000	96.414218 
1063.000000	96.376799 
1062.000000	96.336462 
1061.000000	96.295184 
1060.000000	96.256388 
1059.000000	96.223823 
1058.000000	96.197970 
1057.000000	96.175431 
1056.000000	96.152728 
1055.000000	96.128348 
1054.000000	96.100489 
1053.000000	96.066244 
1052.000000	96.024941 
1051.000000	95.979768 
1050.000000	95.934302 
1049.000000	95.889700 
1048.000000	95.845973 
1047.000000	95.802280 
1046.000000	95.755104 
1045.000000	95.700638 
1044.000000	95.640796 
1043.000000	95.583117 
1042.000000	95.532510 
1041.000000	95.486024 
1040.000000	95.437674 
1039.000000	95.385272 
1038.000000	95.330593 
1037.000000	95.276375 
1036.000000	95.225912 
1035.000000	95.182624 
1034.000000	95.146942 
1033.000000	95.115632 
1032.000000	95.086165 
1031.000000	95.059350 
1030.000000	95.035983 
1029.000000	95.013916 
1028.000000	94.990832 
1027.000000	94.967487 
1026.000000	94.945863 
1025.000000	94.926193 
1024.000000	94.907966 
1023.000000	94.891946 
1022.000000	94.879029 
1021.000000	94.868265 
1020.000000	94.857435 
1019.000000	94.844655 
1018.000000	94.829054 
1017.000000	94.811393 
1016.000000	94.794134 
1015.000000	94.779142 
1014.000000	94.765493 
1013.000000	94.751441 
1012.000000	94.737514 
1011.000000	94.724709 
1010.000000	94.710767 
1009.000000	94.692394 
1008.000000	94.670935 
1007.000000	94.651535 
1006.000000	94.636512 
1005.000000	94.624010 
1004.000000	94.613629 
1003.000000	94.608274 
1002.000000	94.608896 
1001.000000	94.612007 
1000.000000	94.614389 
999.000000	 94.616353 
998.000000	 94.618619 
997.000000	 94.619943 
996.000000	 94.619967 
995.000000	 94.620858 
994.000000	 94.623821 
993.000000	 94.626934 
992.000000	 94.628469 
991.000000	 94.629872 
990.000000	 94.633908 
989.000000	 94.642050 
988.000000	 94.654377 
987.000000	 94.669277 
986.000000	 94.683004 
985.000000	 94.693165 
984.000000	 94.703258 
983.000000	 94.719862 
982.000000	 94.744303 
981.000000	 94.771040 
980.000000	 94.795439 
979.000000	 94.819185 
978.000000	 94.846713 
977.000000	 94.880206 
976.000000	 94.919391 
975.000000	 94.962025 
974.000000	 95.003021 
973.000000	 95.037506 
972.000000	 95.066830 
971.000000	 95.097758 
970.000000	 95.133860 
969.000000	 95.171854 
968.000000	 95.208503 
967.000000	 95.246120 
966.000000	 95.287669 
965.000000	 95.330585 
964.000000	 95.370091 
963.000000	 95.406076 
962.000000	 95.442389 
961.000000	 95.480865 
960.000000	 95.519861 
959.000000	 95.557713 
958.000000	 95.594303 
957.000000	 95.629492 
956.000000	 95.662544 
955.000000	 95.693185 
954.000000	 95.721860 
953.000000	 95.749233 
952.000000	 95.775949 
951.000000	 95.801719 
950.000000	 95.824484 
949.000000	 95.842782 
948.000000	 95.859451 
947.000000	 95.879632 
946.000000	 95.903474 
945.000000	 95.924369 
944.000000	 95.937331 
943.000000	 95.946108 
942.000000	 95.958343 
941.000000	 95.975725 
940.000000	 95.992921 
939.000000	 96.005031 
938.000000	 96.012278 
937.000000	 96.017694 
936.000000	 96.023655 
935.000000	 96.031214 
934.000000	 96.040409 
933.000000	 96.050746 
932.000000	 96.062615 
931.000000	 96.077304 
930.000000	 96.094009 
929.000000	 96.108488 
928.000000	 96.117582 
927.000000	 96.124069 
926.000000	 96.133704 
925.000000	 96.147684 
924.000000	 96.161407 
923.000000	 96.171035 
922.000000	 96.177761 
921.000000	 96.184212 
920.000000	 96.189792 
919.000000	 96.192385 
918.000000	 96.193019 
917.000000	 96.195697 
916.000000	 96.202339 
915.000000	 96.210181 
914.000000	 96.215734 
913.000000	 96.220447 
912.000000	 96.230255 
911.000000	 96.248764 
910.000000	 96.272684 
909.000000	 96.296143 
908.000000	 96.318549 
907.000000	 96.345254 
906.000000	 96.380372 
905.000000	 96.422042 
904.000000	 96.465618 
903.000000	 96.508300 
902.000000	 96.548951 
901.000000	 96.586800 
900.000000	 96.623779 
899.000000	 96.666029 
898.000000	 96.718642 
897.000000	 96.778708 
896.000000	 96.836667 
895.000000	 96.885129 
894.000000	 96.924311 
893.000000	 96.959025 
892.000000	 96.993577 
891.000000	 97.030609 
890.000000	 97.071238 
889.000000	 97.113434 
888.000000	 97.152227 
887.000000	 97.184570 
886.000000	 97.213407 
885.000000	 97.244459 
884.000000	 97.279315 
883.000000	 97.314036 
882.000000	 97.344610 
881.000000	 97.371536 
880.000000	 97.398209 
879.000000	 97.426445 
878.000000	 97.454919 
877.000000	 97.481710 
876.000000	 97.507850 
875.000000	 97.537675 
874.000000	 97.574405 
873.000000	 97.615299 
872.000000	 97.653462 
871.000000	 97.685692 
870.000000	 97.716046 
869.000000	 97.749256 
868.000000	 97.783374 
867.000000	 97.812988 
866.000000	 97.838063 
865.000000	 97.864414 
864.000000	 97.895428 
863.000000	 97.928537 
862.000000	 97.961098 
861.000000	 97.994448 
860.000000	 98.028990 
859.000000	 98.059506 
858.000000	 98.079967 
857.000000	 98.091409 
856.000000	 98.101817 
855.000000	 98.119304 
854.000000	 98.146823 
853.000000	 98.180884 
852.000000	 98.212842 
851.000000	 98.233958 
850.000000	 98.242915 
849.000000	 98.247141 
848.000000	 98.254032 
847.000000	 98.262526 
846.000000	 98.265979 
845.000000	 98.261314 
844.000000	 98.251780 
843.000000	 98.242136 
842.000000	 98.234974 
841.000000	 98.231031 
840.000000	 98.229107 
839.000000	 98.225033 
838.000000	 98.213729 
837.000000	 98.193600 
836.000000	 98.167750 
835.000000	 98.141141 
834.000000	 98.117826 
833.000000	 98.099681 
832.000000	 98.085567 
831.000000	 98.072610 
830.000000	 98.060979 
829.000000	 98.056257 
828.000000	 98.063140 
827.000000	 98.077300 
826.000000	 98.088821 
825.000000	 98.094648 
824.000000	 98.101333 
823.000000	 98.113388 
822.000000	 98.126590 
821.000000	 98.136995 
820.000000	 98.148754 
819.000000	 98.166205 
818.000000	 98.183224 
817.000000	 98.187720 
816.000000	 98.175425 
815.000000	 98.153665 
814.000000	 98.131115 
813.000000	 98.108378 
812.000000	 98.079834 
811.000000	 98.039856 
810.000000	 97.984281 
809.000000	 97.909904 
808.000000	 97.817457 
807.000000	 97.713716 
806.000000	 97.606292 
805.000000	 97.496742 
804.000000	 97.382789 
803.000000	 97.266965 
802.000000	 97.158518 
801.000000	 97.066200 
800.000000	 96.993610 
799.000000	 96.942499 
798.000000	 96.915629 
797.000000	 96.913293 
796.000000	 96.929718 
795.000000	 96.956163 
794.000000	 96.986798 
793.000000	 97.019400 
792.000000	 97.051595 
791.000000	 97.080105 
790.000000	 97.103941 
789.000000	 97.124166 
788.000000	 97.138563 
787.000000	 97.140206 
786.000000	 97.124434 
785.000000	 97.094222 
784.000000	 97.055157 
783.000000	 97.008273 
782.000000	 96.953187 
781.000000	 96.896894 
780.000000	 96.852816 
779.000000	 96.828956 
778.000000	 96.821246 
777.000000	 96.821216 
776.000000	 96.826813 
775.000000	 96.842959 
774.000000	 96.874625 
773.000000	 96.922335 
772.000000	 96.981513 
771.000000	 97.042669 
770.000000	 97.094717 
769.000000	 97.131901 
768.000000	 97.156361 
767.000000	 97.172560 
766.000000	 97.182275 
765.000000	 97.187210 
764.000000	 97.192407 
763.000000	 97.202155 
762.000000	 97.214222 
761.000000	 97.222572 
760.000000	 97.225242 
759.000000	 97.226322 
758.000000	 97.231366 
757.000000	 97.244074 
756.000000	 97.265844 
755.000000	 97.294231 
754.000000	 97.322370 
753.000000	 97.343736 
752.000000	 97.357231 
751.000000	 97.365144 
750.000000	 97.368577 
749.000000	 97.369246 
748.000000	 97.373580 
747.000000	 97.388496 
746.000000	 97.412714 
745.000000	 97.438331 
744.000000	 97.462066 
743.000000	 97.488665 
742.000000	 97.521132 
741.000000	 97.553986 
740.000000	 97.580368 
739.000000	 97.601293 
738.000000	 97.623201 
737.000000	 97.649211 
736.000000	 97.676970 
735.000000	 97.702621 
734.000000	 97.722620 
733.000000	 97.733679 
732.000000	 97.735773 
731.000000	 97.734694 
730.000000	 97.737176 
729.000000	 97.743159 
728.000000	 97.746839 
727.000000	 97.746064 
726.000000	 97.747263 
725.000000	 97.759817 
724.000000	 97.787619 
723.000000	 97.826445 
722.000000	 97.866948 
721.000000	 97.899537 
720.000000	 97.919378 
719.000000	 97.928770 
718.000000	 97.933485 
717.000000	 97.936323 
716.000000	 97.935937 
715.000000	 97.931985 
714.000000	 97.929031 
713.000000	 97.934085 
712.000000	 97.950922 
711.000000	 97.976407 
710.000000	 98.000966 
709.000000	 98.013607 
708.000000	 98.009529 
707.000000	 97.993806 
706.000000	 97.975823 
705.000000	 97.960336 
704.000000	 97.946317 
703.000000	 97.932524 
702.000000	 97.918129 
701.000000	 97.896629 
700.000000	 97.855625 
699.000000	 97.788107 
698.000000	 97.702442 
697.000000	 97.618745 
696.000000	 97.557214 
695.000000	 97.530233 
694.000000	 97.539650 
693.000000	 97.575779 
692.000000	 97.620738 
691.000000	 97.658359 
690.000000	 97.682666 
689.000000	 97.696933 
688.000000	 97.708271 
687.000000	 97.725338 
686.000000	 97.755101 
685.000000	 97.794292 
684.000000	 97.827128 
683.000000	 97.839613 
682.000000	 97.835568 
681.000000	 97.832086 
680.000000	 97.839494 
679.000000	 97.853159 
678.000000	 97.866071 
677.000000	 97.880249 
676.000000	 97.901303 
675.000000	 97.927910 
674.000000	 97.954077 
673.000000	 97.977308 
672.000000	 97.997590 
671.000000	 98.011695 
670.000000	 98.014142 
669.000000	 98.000145 
668.000000	 97.965845 
667.000000	 97.928092 
666.000000	 97.917332 
665.000000	 97.933501 
664.000000	 97.963904 
663.000000	 98.001072 
662.000000	 98.034544 
661.000000	 98.049795 
660.000000	 98.037691 
659.000000	 98.005253 
658.000000	 97.976849 
657.000000	 97.977554 
656.000000	 98.011945 
655.000000	 98.060144 
654.000000	 98.095514 
653.000000	 98.106365 
652.000000	 98.099731 
651.000000	 98.090815 
650.000000	 98.091835 

