4000.000000	99.802000 
3999.000000	99.801877 
3998.000000	99.802051 
3997.000000	99.802434 
3996.000000	99.802630 
3995.000000	99.802372 
3994.000000	99.801855 
3993.000000	99.801571 
3992.000000	99.801783 
3991.000000	99.802188 
3990.000000	99.802132 
3989.000000	99.801204 
3988.000000	99.799573 
3987.000000	99.797931 
3986.000000	99.796971 
3985.000000	99.796988 
3984.000000	99.797843 
3983.000000	99.799122 
3982.000000	99.800428 
3981.000000	99.801582 
3980.000000	99.802560 
3979.000000	99.803328 
3978.000000	99.803788 
3977.000000	99.803838 
3976.000000	99.803429 
3975.000000	99.802561 
3974.000000	99.801311 
3973.000000	99.799927 
3972.000000	99.798848 
3971.000000	99.798472 
3970.000000	99.798880 
3969.000000	99.799736 
3968.000000	99.800460 
3967.000000	99.800598 
3966.000000	99.800088 
3965.000000	99.799250 
3964.000000	99.798581 
3963.000000	99.798400 
3962.000000	99.798642 
3961.000000	99.798926 
3960.000000	99.798855 
3959.000000	99.798310 
3958.000000	99.797498 
3957.000000	99.796765 
3956.000000	99.796321 
3955.000000	99.796114 
3954.000000	99.795932 
3953.000000	99.795588 
3952.000000	99.795059 
3951.000000	99.794461 
3950.000000	99.793941 
3949.000000	99.793562 
3948.000000	99.793281 
3947.000000	99.793021 
3946.000000	99.792746 
3945.000000	99.792462 
3944.000000	99.792169 
3943.000000	99.791847 
3942.000000	99.791489 
3941.000000	99.791119 
3940.000000	99.790756 
3939.000000	99.790400 
3938.000000	99.790039 
3937.000000	99.789676 
3936.000000	99.789316 
3935.000000	99.788965 
3934.000000	99.788630 
3933.000000	99.788318 
3932.000000	99.788028 
3931.000000	99.787754 
3930.000000	99.787486 
3929.000000	99.787218 
3928.000000	99.786945 
3927.000000	99.786671 
3926.000000	99.786402 
3925.000000	99.786147 
3924.000000	99.785914 
3923.000000	99.785704 
3922.000000	99.785512 
3921.000000	99.785332 
3920.000000	99.785159 
3919.000000	99.784997 
3918.000000	99.784851 
3917.000000	99.784726 
3916.000000	99.784618 
3915.000000	99.784526 
3914.000000	99.784443 
3913.000000	99.784370 
3912.000000	99.784304 
3911.000000	99.784239 
3910.000000	99.784172 
3909.000000	99.784104 
3908.000000	99.784039 
3907.000000	99.783978 
3906.000000	99.783923 
3905.000000	99.783871 
3904.000000	99.783825 
3903.000000	99.783787 
3902.000000	99.783764 
3901.000000	99.783752 
3900.000000	99.783743 
3899.000000	99.783724 
3898.000000	99.783686 
3897.000000	99.783626 
3896.000000	99.783553 
3895.000000	99.783479 
3894.000000	99.783412 
3893.000000	99.783358 
3892.000000	99.783315 
3891.000000	99.783283 
3890.000000	99.783261 
3889.000000	99.783237 
3888.000000	99.783233 
3887.000000	99.783289 
3886.000000	99.783360 
3885.000000	99.783330 
3884.000000	99.783170 
3883.000000	99.783028 
3882.000000	99.783043 
3881.000000	99.783176 
3880.000000	99.783255 
3879.000000	99.783207 
3878.000000	99.783219 
3877.000000	99.783539 
3876.000000	99.784095 
3875.000000	99.784449 
3874.000000	99.784265 
3873.000000	99.783764 
3872.000000	99.783506 
3871.000000	99.783642 
3870.000000	99.783657 
3869.000000	99.783089 
3868.000000	99.782352 
3867.000000	99.782292 
3866.000000	99.783132 
3865.000000	99.784431 
3864.000000	99.785795 
3863.000000	99.787139 
3862.000000	99.788204 
3861.000000	99.788237 
3860.000000	99.786613 
3859.000000	99.783555 
3858.000000	99.780032 
3857.000000	99.777180 
3856.000000	99.775838 
3855.000000	99.776360 
3854.000000	99.777877 
3853.000000	99.778594 
3852.000000	99.778828 
3851.000000	99.780549 
3850.000000	99.783734 
3849.000000	99.786620 
3848.000000	99.787997 
3847.000000	99.787979 
3846.000000	99.787427 
3845.000000	99.787177 
3844.000000	99.787555 
3843.000000	99.788309 
3842.000000	99.788957 
3841.000000	99.789292 
3840.000000	99.789531 
3839.000000	99.789922 
3838.000000	99.790154 
3837.000000	99.789599 
3836.000000	99.788148 
3835.000000	99.786424 
3834.000000	99.785155 
3833.000000	99.784690 
3832.000000	99.785038 
3831.000000	99.785966 
3830.000000	99.787188 
3829.000000	99.788425 
3828.000000	99.789200 
3827.000000	99.788908 
3826.000000	99.787366 
3825.000000	99.785247 
3824.000000	99.783764 
3823.000000	99.783791 
3822.000000	99.784974 
3821.000000	99.785751 
3820.000000	99.785356 
3819.000000	99.784978 
3818.000000	99.785699 
3817.000000	99.786915 
3816.000000	99.787052 
3815.000000	99.785287 
3814.000000	99.782706 
3813.000000	99.780788 
3812.000000	99.779240 
3811.000000	99.776814 
3810.000000	99.773500 
3809.000000	99.770913 
3808.000000	99.770473 
3807.000000	99.771641 
3806.000000	99.772752 
3805.000000	99.773557 
3804.000000	99.775136 
3803.000000	99.777816 
3802.000000	99.780307 
3801.000000	99.780646 
3800.000000	99.778708 
3799.000000	99.776732 
3798.000000	99.776352 
3797.000000	99.777101 
3796.000000	99.777759 
3795.000000	99.777903 
3794.000000	99.778133 
3793.000000	99.779030 
3792.000000	99.780351 
3791.000000	99.781334 
3790.000000	99.781510 
3789.000000	99.781085 
3788.000000	99.780803 
3787.000000	99.781587 
3786.000000	99.783999 
3785.000000	99.787681 
3784.000000	99.791435 
3783.000000	99.794110 
3782.000000	99.795245 
3781.000000	99.794869 
3780.000000	99.793041 
3779.000000	99.789943 
3778.000000	99.786424 
3777.000000	99.783803 
3776.000000	99.782800 
3775.000000	99.783037 
3774.000000	99.783551 
3773.000000	99.783696 
3772.000000	99.783290 
3771.000000	99.782117 
3770.000000	99.779882 
3769.000000	99.777048 
3768.000000	99.775122 
3767.000000	99.775418 
3766.000000	99.777850 
3765.000000	99.781156 
3764.000000	99.784155 
3763.000000	99.786577 
3762.000000	99.788526 
3761.000000	99.789730 
3760.000000	99.789711 
3759.000000	99.788434 
3758.000000	99.786491 
3757.000000	99.784578 
3756.000000	99.782932 
3755.000000	99.781501 
3754.000000	99.780252 
3753.000000	99.779364 
3752.000000	99.779084 
3751.000000	99.778902 
3750.000000	99.777653 
3749.000000	99.775030 
3748.000000	99.772107 
3747.000000	99.770157 
3746.000000	99.769354 
3745.000000	99.768553 
3744.000000	99.766248 
3743.000000	99.763219 
3742.000000	99.762476 
3741.000000	99.764540 
3740.000000	99.766621 
3739.000000	99.766555 
3738.000000	99.764774 
3737.000000	99.763233 
3736.000000	99.763497 
3735.000000	99.765728 
3734.000000	99.768905 
3733.000000	99.771471 
3732.000000	99.772229 
3731.000000	99.771011 
3730.000000	99.768641 
3729.000000	99.766264 
3728.000000	99.764843 
3727.000000	99.765176 
3726.000000	99.767548 
3725.000000	99.771172 
3724.000000	99.774352 
3723.000000	99.775494 
3722.000000	99.774309 
3721.000000	99.772085 
3720.000000	99.770518 
3719.000000	99.770036 
3718.000000	99.769490 
3717.000000	99.767464 
3716.000000	99.763554 
3715.000000	99.758443 
3714.000000	99.753167 
3713.000000	99.748673 
3712.000000	99.745867 
3711.000000	99.745495 
3710.000000	99.747439 
3709.000000	99.750117 
3708.000000	99.751334 
3707.000000	99.749951 
3706.000000	99.746470 
3705.000000	99.742623 
3704.000000	99.740317 
3703.000000	99.740406 
3702.000000	99.742054 
3701.000000	99.743390 
3700.000000	99.743264 
3699.000000	99.741899 
3698.000000	99.740035 
3697.000000	99.738159 
3696.000000	99.736564 
3695.000000	99.735608 
3694.000000	99.735396 
3693.000000	99.735322 
3692.000000	99.734575 
3691.000000	99.733273 
3690.000000	99.732484 
3689.000000	99.732597 
3688.000000	99.732475 
3687.000000	99.731315 
3686.000000	99.729911 
3685.000000	99.729009 
3684.000000	99.728030 
3683.000000	99.726278 
3682.000000	99.723981 
3681.000000	99.721577 
3680.000000	99.718687 
3679.000000	99.714629 
3678.000000	99.709852 
3677.000000	99.706167 
3676.000000	99.704504 
3675.000000	99.702776 
3674.000000	99.698980 
3673.000000	99.694165 
3672.000000	99.690286 
3671.000000	99.688184 
3670.000000	99.687157 
3669.000000	99.685657 
3668.000000	99.683372 
3667.000000	99.681046 
3666.000000	99.678782 
3665.000000	99.676093 
3664.000000	99.672829 
3663.000000	99.669475 
3662.000000	99.666498 
3661.000000	99.663832 
3660.000000	99.661037 
3659.000000	99.657661 
3658.000000	99.653213 
3657.000000	99.647136 
3656.000000	99.639575 
3655.000000	99.632209 
3654.000000	99.627329 
3653.000000	99.625576 
3652.000000	99.625286 
3651.000000	99.623848 
3650.000000	99.619676 
3649.000000	99.613713 
3648.000000	99.608582 
3647.000000	99.605444 
3646.000000	99.603596 
3645.000000	99.602551 
3644.000000	99.602352 
3643.000000	99.602710 
3642.000000	99.602755 
3641.000000	99.601694 
3640.000000	99.599614 
3639.000000	99.597403 
3638.000000	99.595724 
3637.000000	99.594238 
3636.000000	99.591834 
3635.000000	99.587527 
3634.000000	99.581416 
3633.000000	99.574912 
3632.000000	99.569935 
3631.000000	99.567580 
3630.000000	99.566916 
3629.000000	99.564853 
3628.000000	99.559778 
3627.000000	99.555030 
3626.000000	99.554716 
3625.000000	99.558881 
3624.000000	99.564128 
3623.000000	99.566647 
3622.000000	99.564788 
3621.000000	99.559807 
3620.000000	99.555018 
3619.000000	99.553509 
3618.000000	99.556108 
3617.000000	99.561630 
3616.000000	99.568263 
3615.000000	99.574224 
3614.000000	99.577750 
3613.000000	99.577675 
3612.000000	99.574559 
3611.000000	99.570907 
3610.000000	99.569778 
3609.000000	99.572695 
3608.000000	99.578521 
3607.000000	99.584557 
3606.000000	99.588774 
3605.000000	99.590805 
3604.000000	99.591433 
3603.000000	99.591820 
3602.000000	99.592961 
3601.000000	99.595414 
3600.000000	99.599239 
3599.000000	99.604043 
3598.000000	99.609083 
3597.000000	99.613318 
3596.000000	99.615614 
3595.000000	99.615377 
3594.000000	99.613366 
3593.000000	99.611613 
3592.000000	99.612071 
3591.000000	99.615092 
3590.000000	99.619001 
3589.000000	99.621057 
3588.000000	99.619517 
3587.000000	99.615335 
3586.000000	99.611329 
3585.000000	99.609394 
3584.000000	99.609371 
3583.000000	99.610097 
3582.000000	99.610555 
3581.000000	99.610473 
3580.000000	99.610180 
3579.000000	99.610032 
3578.000000	99.610099 
3577.000000	99.610316 
3576.000000	99.610714 
3575.000000	99.611317 
3574.000000	99.611929 
3573.000000	99.612184 
3572.000000	99.611825 
3571.000000	99.610836 
3570.000000	99.609303 
3569.000000	99.607409 
3568.000000	99.605722 
3567.000000	99.605211 
3566.000000	99.606387 
3565.000000	99.608527 
3564.000000	99.610175 
3563.000000	99.610411 
3562.000000	99.609369 
3561.000000	99.607836 
3560.000000	99.606549 
3559.000000	99.605703 
3558.000000	99.605077 
3557.000000	99.604461 
3556.000000	99.603847 
3555.000000	99.603337 
3554.000000	99.602974 
3553.000000	99.602675 
3552.000000	99.602294 
3551.000000	99.601736 
3550.000000	99.601025 
3549.000000	99.600300 
3548.000000	99.599722 
3547.000000	99.599354 
3546.000000	99.599163 
3545.000000	99.599063 
3544.000000	99.598949 
3543.000000	99.598734 
3542.000000	99.598380 
3541.000000	99.597933 
3540.000000	99.597499 
3539.000000	99.597169 
3538.000000	99.596934 
3537.000000	99.596650 
3536.000000	99.596143 
3535.000000	99.595367 
3534.000000	99.594483 
3533.000000	99.593766 
3532.000000	99.593370 
3531.000000	99.593187 
3530.000000	99.592916 
3529.000000	99.592338 
3528.000000	99.591552 
3527.000000	99.590923 
3526.000000	99.590761 
3525.000000	99.591088 
3524.000000	99.591646 
3523.000000	99.592108 
3522.000000	99.592310 
3521.000000	99.592261 
3520.000000	99.592002 
3519.000000	99.591532 
3518.000000	99.590831 
3517.000000	99.589943 
3516.000000	99.589029 
3515.000000	99.588312 
3514.000000	99.587953 
3513.000000	99.587939 
3512.000000	99.588081 
3511.000000	99.588141 
3510.000000	99.587978 
3509.000000	99.587581 
3508.000000	99.587009 
3507.000000	99.586350 
3506.000000	99.585674 
3505.000000	99.584936 
3504.000000	99.583987 
3503.000000	99.582819 
3502.000000	99.581778 
3501.000000	99.581322 
3500.000000	99.581545 
3499.000000	99.582035 
3498.000000	99.582196 
3497.000000	99.581810 
3496.000000	99.581134 
3495.000000	99.580584 
3494.000000	99.580307 
3493.000000	99.580092 
3492.000000	99.579637 
3491.000000	99.578835 
3490.000000	99.577831 
3489.000000	99.576890 
3488.000000	99.576160 
3487.000000	99.575562 
3486.000000	99.574903 
3485.000000	99.574090 
3484.000000	99.573199 
3483.000000	99.572363 
3482.000000	99.571625 
3481.000000	99.570920 
3480.000000	99.570172 
3479.000000	99.569393 
3478.000000	99.568664 
3477.000000	99.568032 
3476.000000	99.567438 
3475.000000	99.566749 
3474.000000	99.565884 
3473.000000	99.564884 
3472.000000	99.563877 
3471.000000	99.562988 
3470.000000	99.562247 
3469.000000	99.561603 
3468.000000	99.560979 
3467.000000	99.560316 
3466.000000	99.559602 
3465.000000	99.558870 
3464.000000	99.558160 
3463.000000	99.557478 
3462.000000	99.556800 
3461.000000	99.556104 
3460.000000	99.555388 
3459.000000	99.554660 
3458.000000	99.553925 
3457.000000	99.553184 
3456.000000	99.552438 
3455.000000	99.551691 
3454.000000	99.550947 
3453.000000	99.550211 
3452.000000	99.549489 
3451.000000	99.548782 
3450.000000	99.548090 
3449.000000	99.547411 
3448.000000	99.546739 
3447.000000	99.546068 
3446.000000	99.545394 
3445.000000	99.544716 
3444.000000	99.544043 
3443.000000	99.543381 
3442.000000	99.542732 
3441.000000	99.542094 
3440.000000	99.541462 
3439.000000	99.540834 
3438.000000	99.540206 
3437.000000	99.539581 
3436.000000	99.538964 
3435.000000	99.538364 
3434.000000	99.537793 
3433.000000	99.537261 
3432.000000	99.536768 
3431.000000	99.536302 
3430.000000	99.535845 
3429.000000	99.535378 
3428.000000	99.534891 
3427.000000	99.534382 
3426.000000	99.533866 
3425.000000	99.533372 
3424.000000	99.532928 
3423.000000	99.532547 
3422.000000	99.532204 
3421.000000	99.531854 
3420.000000	99.531456 
3419.000000	99.530989 
3418.000000	99.530477 
3417.000000	99.529974 
3416.000000	99.529521 
3415.000000	99.529116 
3414.000000	99.528745 
3413.000000	99.528444 
3412.000000	99.528251 
3411.000000	99.528136 
3410.000000	99.528017 
3409.000000	99.527869 
3408.000000	99.527742 
3407.000000	99.527665 
3406.000000	99.527578 
3405.000000	99.527394 
3404.000000	99.527103 
3403.000000	99.526805 
3402.000000	99.526627 
3401.000000	99.526621 
3400.000000	99.526726 
3399.000000	99.526810 
3398.000000	99.526775 
3397.000000	99.526646 
3396.000000	99.526575 
3395.000000	99.526696 
3394.000000	99.526975 
3393.000000	99.527211 
3392.000000	99.527216 
3391.000000	99.526916 
3390.000000	99.526364 
3389.000000	99.525751 
3388.000000	99.525324 
3387.000000	99.525189 
3386.000000	99.525183 
3385.000000	99.525061 
3384.000000	99.524839 
3383.000000	99.524778 
3382.000000	99.524997 
3381.000000	99.525228 
3380.000000	99.525052 
3379.000000	99.524316 
3378.000000	99.523319 
3377.000000	99.522623 
3376.000000	99.522624 
3375.000000	99.523308 
3374.000000	99.524288 
3373.000000	99.525090 
3372.000000	99.525454 
3371.000000	99.525374 
3370.000000	99.524997 
3369.000000	99.524625 
3368.000000	99.524677 
3367.000000	99.525402 
3366.000000	99.526535 
3365.000000	99.527439 
3364.000000	99.527679 
3363.000000	99.527304 
3362.000000	99.526531 
3361.000000	99.525405 
3360.000000	99.523838 
3359.000000	99.521825 
3358.000000	99.519653 
3357.000000	99.517984 
3356.000000	99.517624 
3355.000000	99.518920 
3354.000000	99.521306 
3353.000000	99.523658 
3352.000000	99.525197 
3351.000000	99.525899 
3350.000000	99.526131 
3349.000000	99.526284 
3348.000000	99.526703 
3347.000000	99.527484 
3346.000000	99.528165 
3345.000000	99.527976 
3344.000000	99.526653 
3343.000000	99.524762 
3342.000000	99.523093 
3341.000000	99.521988 
3340.000000	99.521492 
3339.000000	99.521773 
3338.000000	99.523004 
3337.000000	99.524968 
3336.000000	99.527051 
3335.000000	99.528683 
3334.000000	99.529707 
3333.000000	99.530453 
3332.000000	99.531530 
3331.000000	99.533291 
3330.000000	99.535380 
3329.000000	99.537042 
3328.000000	99.537977 
3327.000000	99.538513 
3326.000000	99.538827 
3325.000000	99.538529 
3324.000000	99.537442 
3323.000000	99.536355 
3322.000000	99.536386 
3321.000000	99.537664 
3320.000000	99.539136 
3319.000000	99.539679 
3318.000000	99.539164 
3317.000000	99.538297 
3316.000000	99.537824 
3315.000000	99.537956 
3314.000000	99.538470 
3313.000000	99.539079 
3312.000000	99.539684 
3311.000000	99.540353 
3310.000000	99.541090 
3309.000000	99.541712 
3308.000000	99.542045 
3307.000000	99.542248 
3306.000000	99.542709 
3305.000000	99.543522 
3304.000000	99.544215 
3303.000000	99.544220 
3302.000000	99.543547 
3301.000000	99.542845 
3300.000000	99.542754 
3299.000000	99.543247 
3298.000000	99.543732 
3297.000000	99.543696 
3296.000000	99.543237 
3295.000000	99.542942 
3294.000000	99.543288 
3293.000000	99.544239 
3292.000000	99.545366 
3291.000000	99.546286 
3290.000000	99.546911 
3289.000000	99.547320 
3288.000000	99.547593 
3287.000000	99.547838 
3286.000000	99.548229 
3285.000000	99.548885 
3284.000000	99.549739 
3283.000000	99.550593 
3282.000000	99.551246 
3281.000000	99.551483 
3280.000000	99.551059 
3279.000000	99.549879 
3278.000000	99.548337 
3277.000000	99.547255 
3276.000000	99.547257 
3275.000000	99.548208 
3274.000000	99.549344 
3273.000000	99.549994 
3272.000000	99.550057 
3271.000000	99.549792 
3270.000000	99.549399 
3269.000000	99.549052 
3268.000000	99.549192 
3267.000000	99.550352 
3266.000000	99.552532 
3265.000000	99.554972 
3264.000000	99.556795 
3263.000000	99.557905 
3262.000000	99.559003 
3261.000000	99.560725 
3260.000000	99.562855 
3259.000000	99.564466 
3258.000000	99.564824 
3257.000000	99.564033 
3256.000000	99.562915 
3255.000000	99.562364 
3254.000000	99.562756 
3253.000000	99.563865 
3252.000000	99.565154 
3251.000000	99.566155 
3250.000000	99.566693 
3249.000000	99.566877 
3248.000000	99.566922 
3247.000000	99.566946 
3246.000000	99.566942 
3245.000000	99.566968 
3244.000000	99.567333 
3243.000000	99.568496 
3242.000000	99.570687 
3241.000000	99.573549 
3240.000000	99.576088 
3239.000000	99.577220 
3238.000000	99.576508 
3237.000000	99.574491 
3236.000000	99.572385 
3235.000000	99.571129 
3234.000000	99.570816 
3233.000000	99.571094 
3232.000000	99.571865 
3231.000000	99.573304 
3230.000000	99.575282 
3229.000000	99.577144 
3228.000000	99.578264 
3227.000000	99.578573 
3226.000000	99.578347 
3225.000000	99.577746 
3224.000000	99.576859 
3223.000000	99.576037 
3222.000000	99.575799 
3221.000000	99.576400 
3220.000000	99.577665 
3219.000000	99.579252 
3218.000000	99.580822 
3217.000000	99.581979 
3216.000000	99.582418 
3215.000000	99.582303 
3214.000000	99.582276 
3213.000000	99.582888 
3212.000000	99.584157 
3211.000000	99.585814 
3210.000000	99.587767 
3209.000000	99.590014 
3208.000000	99.592156 
3207.000000	99.593402 
3206.000000	99.593277 
3205.000000	99.592148 
3204.000000	99.590995 
3203.000000	99.590601 
3202.000000	99.591100 
3201.000000	99.592256 
3200.000000	99.593843 
3199.000000	99.595586 
3198.000000	99.596948 
3197.000000	99.597427 
3196.000000	99.597133 
3195.000000	99.596805 
3194.000000	99.596944 
3193.000000	99.597208 
3192.000000	99.597014 
3191.000000	99.596571 
3190.000000	99.596847 
3189.000000	99.598446 
3188.000000	99.600864 
3187.000000	99.602844 
3186.000000	99.603410 
3185.000000	99.602337 
3184.000000	99.600080 
3183.000000	99.597669 
3182.000000	99.596251 
3181.000000	99.596306 
3180.000000	99.597312 
3179.000000	99.598327 
3178.000000	99.598993 
3177.000000	99.599578 
3176.000000	99.600171 
3175.000000	99.600456 
3174.000000	99.600386 
3173.000000	99.600503 
3172.000000	99.601260 
3171.000000	99.602435 
3170.000000	99.603612 
3169.000000	99.604933 
3168.000000	99.606860 
3167.000000	99.609277 
3166.000000	99.611318 
3165.000000	99.612246 
3164.000000	99.612138 
3163.000000	99.611634 
3162.000000	99.611257 
3161.000000	99.611153 
3160.000000	99.611331 
3159.000000	99.611751 
3158.000000	99.612160 
3157.000000	99.612176 
3156.000000	99.611696 
3155.000000	99.611071 
3154.000000	99.610752 
3153.000000	99.610802 
3152.000000	99.610961 
3151.000000	99.611112 
3150.000000	99.611495 
3149.000000	99.612399 
3148.000000	99.613811 
3147.000000	99.615417 
3146.000000	99.616774 
3145.000000	99.617420 
3144.000000	99.617028 
3143.000000	99.615780 
3142.000000	99.614636 
3141.000000	99.614694 
3140.000000	99.616260 
3139.000000	99.618600 
3138.000000	99.620518 
3137.000000	99.621363 
3136.000000	99.621291 
3135.000000	99.620887 
3134.000000	99.620714 
3133.000000	99.621056 
3132.000000	99.621923 
3131.000000	99.623149 
3130.000000	99.624497 
3129.000000	99.625681 
3128.000000	99.626406 
3127.000000	99.626559 
3126.000000	99.626442 
3125.000000	99.626647 
3124.000000	99.627484 
3123.000000	99.628573 
3122.000000	99.629214 
3121.000000	99.629221 
3120.000000	99.629218 
3119.000000	99.629954 
3118.000000	99.631377 
3117.000000	99.632578 
3116.000000	99.632770 
3115.000000	99.632082 
3114.000000	99.631179 
3113.000000	99.630231 
3112.000000	99.628679 
3111.000000	99.626148 
3110.000000	99.623202 
3109.000000	99.620813 
3108.000000	99.619400 
3107.000000	99.618817 
3106.000000	99.619066 
3105.000000	99.620435 
3104.000000	99.622914 
3103.000000	99.625959 
3102.000000	99.628978 
3101.000000	99.631763 
3100.000000	99.634338 
3099.000000	99.636650 
3098.000000	99.638491 
3097.000000	99.639515 
3096.000000	99.639326 
3095.000000	99.637924 
3094.000000	99.636189 
3093.000000	99.635404 
3092.000000	99.635928 
3091.000000	99.636693 
3090.000000	99.636350 
3089.000000	99.634828 
3088.000000	99.633448 
3087.000000	99.633483 
3086.000000	99.634894 
3085.000000	99.636476 
3084.000000	99.637068 
3083.000000	99.636535 
3082.000000	99.635686 
3081.000000	99.635392 
3080.000000	99.635788 
3079.000000	99.636359 
3078.000000	99.636669 
3077.000000	99.636796 
3076.000000	99.636999 
3075.000000	99.637269 
3074.000000	99.637499 
3073.000000	99.637922 
3072.000000	99.639032 
3071.000000	99.640997 
3070.000000	99.643326 
3069.000000	99.645184 
3068.000000	99.645953 
3067.000000	99.645498 
3066.000000	99.644183 
3065.000000	99.642761 
3064.000000	99.642072 
3063.000000	99.642618 
3062.000000	99.644354 
3061.000000	99.646829 
3060.000000	99.649479 
3059.000000	99.651821 
3058.000000	99.653457 
3057.000000	99.654124 
3056.000000	99.653884 
3055.000000	99.653271 
3054.000000	99.653057 
3053.000000	99.653680 
3052.000000	99.654892 
3051.000000	99.656061 
3050.000000	99.656806 
3049.000000	99.657137 
3048.000000	99.656925 
3047.000000	99.655652 
3046.000000	99.653105 
3045.000000	99.650116 
3044.000000	99.648128 
3043.000000	99.647891 
3042.000000	99.648962 
3041.000000	99.650378 
3040.000000	99.651572 
3039.000000	99.652544 
3038.000000	99.653419 
3037.000000	99.654206 
3036.000000	99.654893 
3035.000000	99.655512 
3034.000000	99.656108 
3033.000000	99.656768 
3032.000000	99.657616 
3031.000000	99.658674 
3030.000000	99.659724 
3029.000000	99.660409 
3028.000000	99.660481 
3027.000000	99.659982 
3026.000000	99.659267 
3025.000000	99.658849 
3024.000000	99.659054 
3023.000000	99.659732 
3022.000000	99.660391 
3021.000000	99.660688 
3020.000000	99.660746 
3019.000000	99.660937 
3018.000000	99.661460 
3017.000000	99.662210 
3016.000000	99.662974 
3015.000000	99.663594 
3014.000000	99.663978 
3013.000000	99.664098 
3012.000000	99.664016 
3011.000000	99.663867 
3010.000000	99.663797 
3009.000000	99.663910 
3008.000000	99.664258 
3007.000000	99.664832 
3006.000000	99.665537 
3005.000000	99.666217 
3004.000000	99.666735 
3003.000000	99.667056 
3002.000000	99.667232 
3001.000000	99.667360 
3000.000000	99.667533 
2999.000000	99.667803 
2998.000000	99.668174 
2997.000000	99.668608 
2996.000000	99.669042 
2995.000000	99.669443 
2994.000000	99.669808 
2993.000000	99.670109 
2992.000000	99.670287 
2991.000000	99.670314 
2990.000000	99.670258 
2989.000000	99.670240 
2988.000000	99.670306 
2987.000000	99.670412 
2986.000000	99.670515 
2985.000000	99.670647 
2984.000000	99.670866 
2983.000000	99.671157 
2982.000000	99.671419 
2981.000000	99.671565 
2980.000000	99.671620 
2979.000000	99.671692 
2978.000000	99.671844 
2977.000000	99.672036 
2976.000000	99.672215 
2975.000000	99.672395 
2974.000000	99.672609 
2973.000000	99.672796 
2972.000000	99.672833 
2971.000000	99.672675 
2970.000000	99.672417 
2969.000000	99.672216 
2968.000000	99.672159 
2967.000000	99.672232 
2966.000000	99.672355 
2965.000000	99.672458 
2964.000000	99.672534 
2963.000000	99.672648 
2962.000000	99.672853 
2961.000000	99.673088 
2960.000000	99.673168 
2959.000000	99.672965 
2958.000000	99.672553 
2957.000000	99.672165 
2956.000000	99.671939 
2955.000000	99.671772 
2954.000000	99.671461 
2953.000000	99.671002 
2952.000000	99.670699 
2951.000000	99.670847 
2950.000000	99.671435 
2949.000000	99.672142 
2948.000000	99.672597 
2947.000000	99.672672 
2946.000000	99.672490 
2945.000000	99.672295 
2944.000000	99.672273 
2943.000000	99.672481 
2942.000000	99.672863 
2941.000000	99.673277 
2940.000000	99.673546 
2939.000000	99.673553 
2938.000000	99.673293 
2937.000000	99.672880 
2936.000000	99.672513 
2935.000000	99.672416 
2934.000000	99.672698 
2933.000000	99.673217 
2932.000000	99.673634 
2931.000000	99.673696 
2930.000000	99.673417 
2929.000000	99.672962 
2928.000000	99.672433 
2927.000000	99.671895 
2926.000000	99.671566 
2925.000000	99.671732 
2924.000000	99.672438 
2923.000000	99.673448 
2922.000000	99.674481 
2921.000000	99.675362 
2920.000000	99.675944 
2919.000000	99.676116 
2918.000000	99.675988 
2917.000000	99.675895 
2916.000000	99.676085 
2915.000000	99.676501 
2914.000000	99.676979 
2913.000000	99.677530 
2912.000000	99.678251 
2911.000000	99.679055 
2910.000000	99.679674 
2909.000000	99.679959 
2908.000000	99.679995 
2907.000000	99.679929 
2906.000000	99.679834 
2905.000000	99.679826 
2904.000000	99.680148 
2903.000000	99.680926 
2902.000000	99.681944 
2901.000000	99.682773 
2900.000000	99.683202 
2899.000000	99.683406 
2898.000000	99.683655 
2897.000000	99.683993 
2896.000000	99.684299 
2895.000000	99.684552 
2894.000000	99.684882 
2893.000000	99.685354 
2892.000000	99.685827 
2891.000000	99.686102 
2890.000000	99.686151 
2889.000000	99.686119 
2888.000000	99.686180 
2887.000000	99.686419 
2886.000000	99.686801 
2885.000000	99.687216 
2884.000000	99.687541 
2883.000000	99.687721 
2882.000000	99.687790 
2881.000000	99.687819 
2880.000000	99.687874 
2879.000000	99.687982 
2878.000000	99.688135 
2877.000000	99.688304 
2876.000000	99.688451 
2875.000000	99.688545 
2874.000000	99.688584 
2873.000000	99.688597 
2872.000000	99.688635 
2871.000000	99.688723 
2870.000000	99.688856 
2869.000000	99.689009 
2868.000000	99.689157 
2867.000000	99.689282 
2866.000000	99.689381 
2865.000000	99.689459 
2864.000000	99.689525 
2863.000000	99.689579 
2862.000000	99.689616 
2861.000000	99.689640 
2860.000000	99.689660 
2859.000000	99.689687 
2858.000000	99.689726 
2857.000000	99.689774 
2856.000000	99.689829 
2855.000000	99.689881 
2854.000000	99.689927 
2853.000000	99.689963 
2852.000000	99.689995 
2851.000000	99.690029 
2850.000000	99.690072 
2849.000000	99.690132 
2848.000000	99.690208 
2847.000000	99.690296 
2846.000000	99.690383 
2845.000000	99.690458 
2844.000000	99.690517 
2843.000000	99.690567 
2842.000000	99.690621 
2841.000000	99.690692 
2840.000000	99.690783 
2839.000000	99.690889 
2838.000000	99.691004 
2837.000000	99.691123 
2836.000000	99.691245 
2835.000000	99.691370 
2834.000000	99.691507 
2833.000000	99.691668 
2832.000000	99.691859 
2831.000000	99.692067 
2830.000000	99.692267 
2829.000000	99.692455 
2828.000000	99.692652 
2827.000000	99.692882 
2826.000000	99.693147 
2825.000000	99.693420 
2824.000000	99.693669 
2823.000000	99.693884 
2822.000000	99.694080 
2821.000000	99.694285 
2820.000000	99.694540 
2819.000000	99.694882 
2818.000000	99.695300 
2817.000000	99.695724 
2816.000000	99.696093 
2815.000000	99.696393 
2814.000000	99.696602 
2813.000000	99.696663 
2812.000000	99.696573 
2811.000000	99.696437 
2810.000000	99.696364 
2809.000000	99.696358 
2808.000000	99.696402 
2807.000000	99.696602 
2806.000000	99.697090 
2805.000000	99.697759 
2804.000000	99.698266 
2803.000000	99.698365 
2802.000000	99.698186 
2801.000000	99.698103 
2800.000000	99.698342 
2799.000000	99.698854 
2798.000000	99.699498 
2797.000000	99.700208 
2796.000000	99.700926 
2795.000000	99.701475 
2794.000000	99.701681 
2793.000000	99.701570 
2792.000000	99.701333 
2791.000000	99.701122 
2790.000000	99.701047 
2789.000000	99.701384 
2788.000000	99.702479 
2787.000000	99.704292 
2786.000000	99.706133 
2785.000000	99.707260 
2784.000000	99.707590 
2783.000000	99.707542 
2782.000000	99.707282 
2781.000000	99.706570 
2780.000000	99.705469 
2779.000000	99.704638 
2778.000000	99.704648 
2777.000000	99.705352 
2776.000000	99.706151 
2775.000000	99.706657 
2774.000000	99.706831 
2773.000000	99.706697 
2772.000000	99.706359 
2771.000000	99.706157 
2770.000000	99.706373 
2769.000000	99.706880 
2768.000000	99.707442 
2767.000000	99.708270 
2766.000000	99.709694 
2765.000000	99.711320 
2764.000000	99.712153 
2763.000000	99.711831 
2762.000000	99.711216 
2761.000000	99.711420 
2760.000000	99.712533 
2759.000000	99.713789 
2758.000000	99.714697 
2757.000000	99.715418 
2756.000000	99.716183 
2755.000000	99.716912 
2754.000000	99.717468 
2753.000000	99.717794 
2752.000000	99.717771 
2751.000000	99.717304 
2750.000000	99.716680 
2749.000000	99.716390 
2748.000000	99.716397 
2747.000000	99.716032 
2746.000000	99.714861 
2745.000000	99.713372 
2744.000000	99.712514 
2743.000000	99.712653 
2742.000000	99.713390 
2741.000000	99.714145 
2740.000000	99.714700 
2739.000000	99.715093 
2738.000000	99.715353 
2737.000000	99.715555 
2736.000000	99.715883 
2735.000000	99.716413 
2734.000000	99.716920 
2733.000000	99.717137 
2732.000000	99.717120 
2731.000000	99.717181 
2730.000000	99.717478 
2729.000000	99.717868 
2728.000000	99.718167 
2727.000000	99.718377 
2726.000000	99.718559 
2725.000000	99.718678 
2724.000000	99.718674 
2723.000000	99.718616 
2722.000000	99.718644 
2721.000000	99.718782 
2720.000000	99.718925 
2719.000000	99.718976 
2718.000000	99.718940 
2717.000000	99.718872 
2716.000000	99.718813 
2715.000000	99.718774 
2714.000000	99.718750 
2713.000000	99.718731 
2712.000000	99.718709 
2711.000000	99.718676 
2710.000000	99.718627 
2709.000000	99.718565 
2708.000000	99.718498 
2707.000000	99.718429 
2706.000000	99.718357 
2705.000000	99.718281 
2704.000000	99.718199 
2703.000000	99.718112 
2702.000000	99.718017 
2701.000000	99.717911 
2700.000000	99.717796 
2699.000000	99.717671 
2698.000000	99.717539 
2697.000000	99.717396 
2696.000000	99.717250 
2695.000000	99.717113 
2694.000000	99.716988 
2693.000000	99.716869 
2692.000000	99.716744 
2691.000000	99.716606 
2690.000000	99.716456 
2689.000000	99.716291 
2688.000000	99.716117 
2687.000000	99.715950 
2686.000000	99.715798 
2685.000000	99.715635 
2684.000000	99.715425 
2683.000000	99.715162 
2682.000000	99.714887 
2681.000000	99.714638 
2680.000000	99.714411 
2679.000000	99.714182 
2678.000000	99.713942 
2677.000000	99.713709 
2676.000000	99.713495 
2675.000000	99.713295 
2674.000000	99.713100 
2673.000000	99.712912 
2672.000000	99.712739 
2671.000000	99.712562 
2670.000000	99.712339 
2669.000000	99.712073 
2668.000000	99.711830 
2667.000000	99.711664 
2666.000000	99.711561 
2665.000000	99.711484 
2664.000000	99.711437 
2663.000000	99.711421 
2662.000000	99.711361 
2661.000000	99.711184 
2660.000000	99.710961 
2659.000000	99.710828 
2658.000000	99.710773 
2657.000000	99.710634 
2656.000000	99.710357 
2655.000000	99.710099 
2654.000000	99.710007 
2653.000000	99.710003 
2652.000000	99.709899 
2651.000000	99.709679 
2650.000000	99.709523 
2649.000000	99.709529 
2648.000000	99.709557 
2647.000000	99.709416 
2646.000000	99.709107 
2645.000000	99.708847 
2644.000000	99.708879 
2643.000000	99.709269 
2642.000000	99.709788 
2641.000000	99.710024 
2640.000000	99.709754 
2639.000000	99.709206 
2638.000000	99.708866 
2637.000000	99.708905 
2636.000000	99.708979 
2635.000000	99.708678 
2634.000000	99.708043 
2633.000000	99.707521 
2632.000000	99.707461 
2631.000000	99.707898 
2630.000000	99.708683 
2629.000000	99.709608 
2628.000000	99.710431 
2627.000000	99.710984 
2626.000000	99.711383 
2625.000000	99.711994 
2624.000000	99.713034 
2623.000000	99.714195 
2622.000000	99.714837 
2621.000000	99.714669 
2620.000000	99.714149 
2619.000000	99.714059 
2618.000000	99.714577 
2617.000000	99.715030 
2616.000000	99.714680 
2615.000000	99.713581 
2614.000000	99.712507 
2613.000000	99.712141 
2612.000000	99.712573 
2611.000000	99.713510 
2610.000000	99.714553 
2609.000000	99.715295 
2608.000000	99.715536 
2607.000000	99.715625 
2606.000000	99.716287 
2605.000000	99.717796 
2604.000000	99.719478 
2603.000000	99.720367 
2602.000000	99.720239 
2601.000000	99.719660 
2600.000000	99.719151 
2599.000000	99.718705 
2598.000000	99.718198 
2597.000000	99.717764 
2596.000000	99.717465 
2595.000000	99.716943 
2594.000000	99.715848 
2593.000000	99.714579 
2592.000000	99.714189 
2591.000000	99.715386 
2590.000000	99.717932 
2589.000000	99.720927 
2588.000000	99.723482 
2587.000000	99.725032 
2586.000000	99.725190 
2585.000000	99.723851 
2584.000000	99.721548 
2583.000000	99.719347 
2582.000000	99.718048 
2581.000000	99.717670 
2580.000000	99.717780 
2579.000000	99.718081 
2578.000000	99.718487 
2577.000000	99.718933 
2576.000000	99.719454 
2575.000000	99.720282 
2574.000000	99.721498 
2573.000000	99.722705 
2572.000000	99.723429 
2571.000000	99.723744 
2570.000000	99.724074 
2569.000000	99.724448 
2568.000000	99.724430 
2567.000000	99.723851 
2566.000000	99.723190 
2565.000000	99.723061 
2564.000000	99.723605 
2563.000000	99.724581 
2562.000000	99.725691 
2561.000000	99.726635 
2560.000000	99.727153 
2559.000000	99.727349 
2558.000000	99.727774 
2557.000000	99.728836 
2556.000000	99.730256 
2555.000000	99.731375 
2554.000000	99.731956 
2553.000000	99.732311 
2552.000000	99.732712 
2551.000000	99.733068 
2550.000000	99.733278 
2549.000000	99.733504 
2548.000000	99.733898 
2547.000000	99.734335 
2546.000000	99.734638 
2545.000000	99.734868 
2544.000000	99.735149 
2543.000000	99.735429 
2542.000000	99.735607 
2541.000000	99.735798 
2540.000000	99.736240 
2539.000000	99.736927 
2538.000000	99.737529 
2537.000000	99.737730 
2536.000000	99.737485 
2535.000000	99.736998 
2534.000000	99.736603 
2533.000000	99.736708 
2532.000000	99.737659 
2531.000000	99.739442 
2530.000000	99.741448 
2529.000000	99.742854 
2528.000000	99.743398 
2527.000000	99.743526 
2526.000000	99.743737 
2525.000000	99.743919 
2524.000000	99.743673 
2523.000000	99.743028 
2522.000000	99.742476 
2521.000000	99.742395 
2520.000000	99.742748 
2519.000000	99.743282 
2518.000000	99.743747 
2517.000000	99.743916 
2516.000000	99.743664 
2515.000000	99.743162 
2514.000000	99.742784 
2513.000000	99.742685 
2512.000000	99.742587 
2511.000000	99.742145 
2510.000000	99.741453 
2509.000000	99.741032 
2508.000000	99.741313 
2507.000000	99.742198 
2506.000000	99.743072 
2505.000000	99.743222 
2504.000000	99.742351 
2503.000000	99.740816 
2502.000000	99.739481 
2501.000000	99.739102 
2500.000000	99.739849 
2499.000000	99.741352 
2498.000000	99.743094 
2497.000000	99.744778 
2496.000000	99.746291 
2495.000000	99.747415 
2494.000000	99.747705 
2493.000000	99.746830 
2492.000000	99.745027 
2491.000000	99.743113 
2490.000000	99.741881 
2489.000000	99.741468 
2488.000000	99.741421 
2487.000000	99.741236 
2486.000000	99.740787 
2485.000000	99.740277 
2484.000000	99.739984 
2483.000000	99.740064 
2482.000000	99.740440 
2481.000000	99.740780 
2480.000000	99.740723 
2479.000000	99.740201 
2478.000000	99.739449 
2477.000000	99.738729 
2476.000000	99.738154 
2475.000000	99.737826 
2474.000000	99.737862 
2473.000000	99.738166 
2472.000000	99.738374 
2471.000000	99.738228 
2470.000000	99.737887 
2469.000000	99.737663 
2468.000000	99.737542 
2467.000000	99.737226 
2466.000000	99.736615 
2465.000000	99.735998 
2464.000000	99.735681 
2463.000000	99.735634 
2462.000000	99.735612 
2461.000000	99.735459 
2460.000000	99.735206 
2459.000000	99.734914 
2458.000000	99.734595 
2457.000000	99.734249 
2456.000000	99.733883 
2455.000000	99.733484 
2454.000000	99.733048 
2453.000000	99.732610 
2452.000000	99.732219 
2451.000000	99.731888 
2450.000000	99.731592 
2449.000000	99.731304 
2448.000000	99.731041 
2447.000000	99.730841 
2446.000000	99.730673 
2445.000000	99.730449 
2444.000000	99.730162 
2443.000000	99.729913 
2442.000000	99.729783 
2441.000000	99.729707 
2440.000000	99.729527 
2439.000000	99.729178 
2438.000000	99.728737 
2437.000000	99.728300 
2436.000000	99.727880 
2435.000000	99.727474 
2434.000000	99.727092 
2433.000000	99.726625 
2432.000000	99.725854 
2431.000000	99.724759 
2430.000000	99.723747 
2429.000000	99.723301 
2428.000000	99.723473 
2427.000000	99.723933 
2426.000000	99.724452 
2425.000000	99.725011 
2424.000000	99.725372 
2423.000000	99.725004 
2422.000000	99.723695 
2421.000000	99.722071 
2420.000000	99.721060 
2419.000000	99.720816 
2418.000000	99.720847 
2417.000000	99.721084 
2416.000000	99.722035 
2415.000000	99.723713 
2414.000000	99.725223 
2413.000000	99.725858 
2412.000000	99.725895 
2411.000000	99.725749 
2410.000000	99.724930 
2409.000000	99.722814 
2408.000000	99.720220 
2407.000000	99.719154 
2406.000000	99.720591 
2405.000000	99.723266 
2404.000000	99.724982 
2403.000000	99.724857 
2402.000000	99.723660 
2401.000000	99.722448 
2400.000000	99.721613 
2399.000000	99.721157 
2398.000000	99.721055 
2397.000000	99.721085 
2396.000000	99.720974 
2395.000000	99.721166 
2394.000000	99.722847 
2393.000000	99.726572 
2392.000000	99.731135 
2391.000000	99.734454 
2390.000000	99.735659 
2389.000000	99.735681 
2388.000000	99.735867 
2387.000000	99.736698 
2386.000000	99.738121 
2385.000000	99.740302 
2384.000000	99.743230 
2383.000000	99.746033 
2382.000000	99.747637 
2381.000000	99.748016 
2380.000000	99.747950 
2379.000000	99.747428 
2378.000000	99.745309 
2377.000000	99.741157 
2376.000000	99.736613 
2375.000000	99.734040 
2374.000000	99.734098 
2373.000000	99.735570 
2372.000000	99.737304 
2371.000000	99.739402 
2370.000000	99.742079 
2369.000000	99.744297 
2368.000000	99.744551 
2367.000000	99.742580 
2366.000000	99.739677 
2365.000000	99.737457 
2364.000000	99.736662 
2363.000000	99.737073 
2362.000000	99.737956 
2361.000000	99.738424 
2360.000000	99.737997 
2359.000000	99.737153 
2358.000000	99.736709 
2357.000000	99.736801 
2356.000000	99.736736 
2355.000000	99.735835 
2354.000000	99.734302 
2353.000000	99.732836 
2352.000000	99.731963 
2351.000000	99.731755 
2350.000000	99.732182 
2349.000000	99.733307 
2348.000000	99.734892 
2347.000000	99.736310 
2346.000000	99.736802 
2345.000000	99.736160 
2344.000000	99.735019 
2343.000000	99.734178 
2342.000000	99.733995 
2341.000000	99.734213 
2340.000000	99.734527 
2339.000000	99.734791 
2338.000000	99.734925 
2337.000000	99.734906 
2336.000000	99.734748 
2335.000000	99.734514 
2334.000000	99.734197 
2333.000000	99.733891 
2332.000000	99.733770 
2331.000000	99.733951 
2330.000000	99.734134 
2329.000000	99.734206 
2328.000000	99.734370 
2327.000000	99.735189 
2326.000000	99.736532 
2325.000000	99.737574 
2324.000000	99.737624 
2323.000000	99.737065 
2322.000000	99.737101 
2321.000000	99.738296 
2320.000000	99.740067 
2319.000000	99.741472 
2318.000000	99.742187 
2317.000000	99.742469 
2316.000000	99.742336 
2315.000000	99.741704 
2314.000000	99.740630 
2313.000000	99.739624 
2312.000000	99.739076 
2311.000000	99.739566 
2310.000000	99.741576 
2309.000000	99.744988 
2308.000000	99.748019 
2307.000000	99.748487 
2306.000000	99.745812 
2305.000000	99.741675 
2304.000000	99.738154 
2303.000000	99.735966 
2302.000000	99.734538 
2301.000000	99.733493 
2300.000000	99.732905 
2299.000000	99.732766 
2298.000000	99.732651 
2297.000000	99.732426 
2296.000000	99.732380 
2295.000000	99.732728 
2294.000000	99.733013 
2293.000000	99.732630 
2292.000000	99.731694 
2291.000000	99.731209 
2290.000000	99.732071 
2289.000000	99.733986 
2288.000000	99.735516 
2287.000000	99.735496 
2286.000000	99.734221 
2285.000000	99.732948 
2284.000000	99.732198 
2283.000000	99.731068 
2282.000000	99.728589 
2281.000000	99.725196 
2280.000000	99.722377 
2279.000000	99.721082 
2278.000000	99.721162 
2277.000000	99.722059 
2276.000000	99.723369 
2275.000000	99.724676 
2274.000000	99.725458 
2273.000000	99.725417 
2272.000000	99.724586 
2271.000000	99.723180 
2270.000000	99.721778 
2269.000000	99.721612 
2268.000000	99.723876 
2267.000000	99.728390 
2266.000000	99.733112 
2265.000000	99.735698 
2264.000000	99.735305 
2263.000000	99.732854 
2262.000000	99.730233 
2261.000000	99.729019 
2260.000000	99.729612 
2259.000000	99.731109 
2258.000000	99.732182 
2257.000000	99.732447 
2256.000000	99.732681 
2255.000000	99.733395 
2254.000000	99.733781 
2253.000000	99.732758 
2252.000000	99.730738 
2251.000000	99.729661 
2250.000000	99.731227 
2249.000000	99.735452 
2248.000000	99.740510 
2247.000000	99.743773 
2246.000000	99.743532 
2245.000000	99.740196 
2244.000000	99.736107 
2243.000000	99.733552 
2242.000000	99.732959 
2241.000000	99.733252 
2240.000000	99.733264 
2239.000000	99.732339 
2238.000000	99.730169 
2237.000000	99.727023 
2236.000000	99.723963 
2235.000000	99.722004 
2234.000000	99.721131 
2233.000000	99.720762 
2232.000000	99.720888 
2231.000000	99.721957 
2230.000000	99.724036 
2229.000000	99.727101 
2228.000000	99.731686 
2227.000000	99.738060 
2226.000000	99.744695 
2225.000000	99.748654 
2224.000000	99.748338 
2223.000000	99.745035 
2222.000000	99.741818 
2221.000000	99.741159 
2220.000000	99.743357 
2219.000000	99.746944 
2218.000000	99.750080 
2217.000000	99.751830 
2216.000000	99.752306 
2215.000000	99.751809 
2214.000000	99.750480 
2213.000000	99.748823 
2212.000000	99.747877 
2211.000000	99.748368 
2210.000000	99.750025 
2209.000000	99.752055 
2208.000000	99.753949 
2207.000000	99.755452 
2206.000000	99.756199 
2205.000000	99.755950 
2204.000000	99.755061 
2203.000000	99.754163 
2202.000000	99.753561 
2201.000000	99.753323 
2200.000000	99.753543 
2199.000000	99.754075 
2198.000000	99.754351 
2197.000000	99.754075 
2196.000000	99.753963 
2195.000000	99.755072 
2194.000000	99.757480 
2193.000000	99.760202 
2192.000000	99.762348 
2191.000000	99.763770 
2190.000000	99.764447 
2189.000000	99.764167 
2188.000000	99.763245 
2187.000000	99.762969 
2186.000000	99.764582 
2185.000000	99.768064 
2184.000000	99.772041 
2183.000000	99.774827 
2182.000000	99.775321 
2181.000000	99.773416 
2180.000000	99.770481 
2179.000000	99.768788 
2178.000000	99.769575 
2177.000000	99.771849 
2176.000000	99.773504 
2175.000000	99.773517 
2174.000000	99.772332 
2173.000000	99.770602 
2172.000000	99.768561 
2171.000000	99.766575 
2170.000000	99.765607 
2169.000000	99.766945 
2168.000000	99.771350 
2167.000000	99.777956 
2166.000000	99.783956 
2165.000000	99.786629 
2164.000000	99.786364 
2163.000000	99.786736 
2162.000000	99.790763 
2161.000000	99.797850 
2160.000000	99.804886 
2159.000000	99.809214 
2158.000000	99.809646 
2157.000000	99.806384 
2156.000000	99.801664 
2155.000000	99.798721 
2154.000000	99.798462 
2153.000000	99.798477 
2152.000000	99.796335 
2151.000000	99.792653 
2150.000000	99.789868 
2149.000000	99.789298 
2148.000000	99.790677 
2147.000000	99.793295 
2146.000000	99.795986 
2145.000000	99.796923 
2144.000000	99.795096 
2143.000000	99.791486 
2142.000000	99.787703 
2141.000000	99.784161 
2140.000000	99.780886 
2139.000000	99.778990 
2138.000000	99.779502 
2137.000000	99.781314 
2136.000000	99.781878 
2135.000000	99.780127 
2134.000000	99.777509 
2133.000000	99.776040 
2132.000000	99.776172 
2131.000000	99.776570 
2130.000000	99.775354 
2129.000000	99.771686 
2128.000000	99.766559 
2127.000000	99.762166 
2126.000000	99.759932 
2125.000000	99.759444 
2124.000000	99.759394 
2123.000000	99.759257 
2122.000000	99.759348 
2121.000000	99.759484 
2120.000000	99.758809 
2119.000000	99.756993 
2118.000000	99.754761 
2117.000000	99.752901 
2116.000000	99.751432 
2115.000000	99.750046 
2114.000000	99.748814 
2113.000000	99.748121 
2112.000000	99.748043 
2111.000000	99.748048 
2110.000000	99.747359 
2109.000000	99.745482 
2108.000000	99.742533 
2107.000000	99.739255 
2106.000000	99.736570 
2105.000000	99.734899 
2104.000000	99.734018 
2103.000000	99.733526 
2102.000000	99.733190 
2101.000000	99.732702 
2100.000000	99.731604 
2099.000000	99.729799 
2098.000000	99.727887 
2097.000000	99.726743 
2096.000000	99.726809 
2095.000000	99.727747 
2094.000000	99.728547 
2093.000000	99.728318 
2092.000000	99.727492 
2091.000000	99.727899 
2090.000000	99.730707 
2089.000000	99.734332 
2088.000000	99.735593 
2087.000000	99.733279 
2086.000000	99.729487 
2085.000000	99.727138 
2084.000000	99.726952 
2083.000000	99.727767 
2082.000000	99.728581 
2081.000000	99.729368 
2080.000000	99.730416 
2079.000000	99.732007 
2078.000000	99.734481 
2077.000000	99.737878 
2076.000000	99.741673 
2075.000000	99.745260 
2074.000000	99.748332 
2073.000000	99.750558 
2072.000000	99.751480 
2071.000000	99.751122 
2070.000000	99.750236 
2069.000000	99.749519 
2068.000000	99.749042 
2067.000000	99.748849 
2066.000000	99.749425 
2065.000000	99.751035 
2064.000000	99.753389 
2063.000000	99.756428 
2062.000000	99.760766 
2061.000000	99.766539 
2060.000000	99.772247 
2059.000000	99.775825 
2058.000000	99.776446 
2057.000000	99.774835 
2056.000000	99.772393 
2055.000000	99.770470 
2054.000000	99.770080 
2053.000000	99.771487 
2052.000000	99.774025 
2051.000000	99.776715 
2050.000000	99.779068 
2049.000000	99.780979 
2048.000000	99.782070 
2047.000000	99.781897 
2046.000000	99.780810 
2045.000000	99.779961 
2044.000000	99.780165 
2043.000000	99.781079 
2042.000000	99.781827 
2041.000000	99.782159 
2040.000000	99.782750 
2039.000000	99.784356 
2038.000000	99.786970 
2037.000000	99.789738 
2036.000000	99.791661 
2035.000000	99.792498 
2034.000000	99.792849 
2033.000000	99.793295 
2032.000000	99.793585 
2031.000000	99.793140 
2030.000000	99.792041 
2029.000000	99.790987 
2028.000000	99.790372 
2027.000000	99.789912 
2026.000000	99.789331 
2025.000000	99.788967 
2024.000000	99.789331 
2023.000000	99.790283 
2022.000000	99.790947 
2021.000000	99.790586 
2020.000000	99.789302 
2019.000000	99.787960 
2018.000000	99.787385 
2017.000000	99.787580 
2016.000000	99.787776 
2015.000000	99.787307 
2014.000000	99.786366 
2013.000000	99.785728 
2012.000000	99.785857 
2011.000000	99.786423 
2010.000000	99.786758 
2009.000000	99.786866 
2008.000000	99.787726 
2007.000000	99.790110 
2006.000000	99.793070 
2005.000000	99.794568 
2004.000000	99.793965 
2003.000000	99.792782 
2002.000000	99.792358 
2001.000000	99.791718 
2000.000000	99.789050 
1999.000000	99.784535 
1998.000000	99.780493 
1997.000000	99.778879 
1996.000000	99.779814 
1995.000000	99.782529 
1994.000000	99.786207 
1993.000000	99.789262 
1992.000000	99.789300 
1991.000000	99.785257 
1990.000000	99.778897 
1989.000000	99.773298 
1988.000000	99.770324 
1987.000000	99.770056 
1986.000000	99.771456 
1985.000000	99.772778 
1984.000000	99.772502 
1983.000000	99.771023 
1982.000000	99.770299 
1981.000000	99.770543 
1980.000000	99.768681 
1979.000000	99.762515 
1978.000000	99.755460 
1977.000000	99.753608 
1976.000000	99.758133 
1975.000000	99.764525 
1974.000000	99.769565 
1973.000000	99.775537 
1972.000000	99.785923 
1971.000000	99.799763 
1970.000000	99.811968 
1969.000000	99.818011 
1968.000000	99.816910 
1967.000000	99.810593 
1966.000000	99.801771 
1965.000000	99.792301 
1964.000000	99.783159 
1963.000000	99.775382 
1962.000000	99.770249 
1961.000000	99.768069 
1960.000000	99.767538 
1959.000000	99.767289 
1958.000000	99.767427 
1957.000000	99.768494 
1956.000000	99.769622 
1955.000000	99.769139 
1954.000000	99.766703 
1953.000000	99.763435 
1952.000000	99.759996 
1951.000000	99.756086 
1950.000000	99.752243 
1949.000000	99.750359 
1948.000000	99.751392 
1947.000000	99.753539 
1946.000000	99.753567 
1945.000000	99.749639 
1944.000000	99.742553 
1943.000000	99.734885 
1942.000000	99.729223 
1941.000000	99.726558 
1940.000000	99.726275 
1939.000000	99.727776 
1938.000000	99.731500 
1937.000000	99.737638 
1936.000000	99.744240 
1935.000000	99.747897 
1934.000000	99.746868 
1933.000000	99.742893 
1932.000000	99.739583 
1931.000000	99.738855 
1930.000000	99.739439 
1929.000000	99.738688 
1928.000000	99.735525 
1927.000000	99.731249 
1926.000000	99.727891 
1925.000000	99.726286 
1924.000000	99.725777 
1923.000000	99.725419 
1922.000000	99.725031 
1921.000000	99.724998 
1920.000000	99.725270 
1919.000000	99.725130 
1918.000000	99.724098 
1917.000000	99.722591 
1916.000000	99.721256 
1915.000000	99.720057 
1914.000000	99.718658 
1913.000000	99.717284 
1912.000000	99.716522 
1911.000000	99.716405 
1910.000000	99.716254 
1909.000000	99.715591 
1908.000000	99.714849 
1907.000000	99.714763 
1906.000000	99.715367 
1905.000000	99.715999 
1904.000000	99.716000 
1903.000000	99.715278 
1902.000000	99.714232 
1901.000000	99.713379 
1900.000000	99.712987 
1899.000000	99.712989 
1898.000000	99.713112 
1897.000000	99.713082 
1896.000000	99.712696 
1895.000000	99.711851 
1894.000000	99.710673 
1893.000000	99.709640 
1892.000000	99.709354 
1891.000000	99.710020 
1890.000000	99.711114 
1889.000000	99.711801 
1888.000000	99.711814 
1887.000000	99.711612 
1886.000000	99.711667 
1885.000000	99.712034 
1884.000000	99.712597 
1883.000000	99.713378 
1882.000000	99.714325 
1881.000000	99.714988 
1880.000000	99.714863 
1879.000000	99.714093 
1878.000000	99.713553 
1877.000000	99.714038 
1876.000000	99.715334 
1875.000000	99.716269 
1874.000000	99.715837 
1873.000000	99.714054 
1872.000000	99.711745 
1871.000000	99.709742 
1870.000000	99.708521 
1869.000000	99.708434 
1868.000000	99.709651 
1867.000000	99.711641 
1866.000000	99.713045 
1865.000000	99.712604 
1864.000000	99.710191 
1863.000000	99.706959 
1862.000000	99.704473 
1861.000000	99.703715 
1860.000000	99.704787 
1859.000000	99.707123 
1858.000000	99.709728 
1857.000000	99.711622 
1856.000000	99.712579 
1855.000000	99.713290 
1854.000000	99.714452 
1853.000000	99.715852 
1852.000000	99.716687 
1851.000000	99.716688 
1850.000000	99.716436 
1849.000000	99.716855 
1848.000000	99.718414 
1847.000000	99.720794 
1846.000000	99.722985 
1845.000000	99.723796 
1844.000000	99.722888 
1843.000000	99.721458 
1842.000000	99.721017 
1841.000000	99.721652 
1840.000000	99.722450 
1839.000000	99.722682 
1838.000000	99.722298 
1837.000000	99.721675 
1836.000000	99.721045 
1835.000000	99.720458 
1834.000000	99.720147 
1833.000000	99.720558 
1832.000000	99.721916 
1831.000000	99.723780 
1830.000000	99.725089 
1829.000000	99.725186 
1828.000000	99.724357 
1827.000000	99.723054 
1826.000000	99.721564 
1825.000000	99.720509 
1824.000000	99.720545 
1823.000000	99.721447 
1822.000000	99.722109 
1821.000000	99.721822 
1820.000000	99.721146 
1819.000000	99.721116 
1818.000000	99.721961 
1817.000000	99.723029 
1816.000000	99.723748 
1815.000000	99.724246 
1814.000000	99.724851 
1813.000000	99.725508 
1812.000000	99.726004 
1811.000000	99.726417 
1810.000000	99.727075 
1809.000000	99.727940 
1808.000000	99.728487 
1807.000000	99.728279 
1806.000000	99.727305 
1805.000000	99.725938 
1804.000000	99.724782 
1803.000000	99.724345 
1802.000000	99.724575 
1801.000000	99.724739 
1800.000000	99.724250 
1799.000000	99.723433 
1798.000000	99.723091 
1797.000000	99.723468 
1796.000000	99.724183 
1795.000000	99.724864 
1794.000000	99.725443 
1793.000000	99.725872 
1792.000000	99.725989 
1791.000000	99.725870 
1790.000000	99.725820 
1789.000000	99.725781 
1788.000000	99.725527 
1787.000000	99.725272 
1786.000000	99.725572 
1785.000000	99.726512 
1784.000000	99.727367 
1783.000000	99.727501 
1782.000000	99.727044 
1781.000000	99.726547 
1780.000000	99.726364 
1779.000000	99.726345 
1778.000000	99.726211 
1777.000000	99.725745 
1776.000000	99.724792 
1775.000000	99.723351 
1774.000000	99.721832 
1773.000000	99.721155 
1772.000000	99.721949 
1771.000000	99.723709 
1770.000000	99.725235 
1769.000000	99.725885 
1768.000000	99.725878 
1767.000000	99.725838 
1766.000000	99.726162 
1765.000000	99.726749 
1764.000000	99.727316 
1763.000000	99.727749 
1762.000000	99.728083 
1761.000000	99.728324 
1760.000000	99.728480 
1759.000000	99.728572 
1758.000000	99.728752 
1757.000000	99.729114 
1756.000000	99.729489 
1755.000000	99.729614 
1754.000000	99.729451 
1753.000000	99.729291 
1752.000000	99.729528 
1751.000000	99.730092 
1750.000000	99.730406 
1749.000000	99.730173 
1748.000000	99.729632 
1747.000000	99.729181 
1746.000000	99.728915 
1745.000000	99.728689 
1744.000000	99.728448 
1743.000000	99.728308 
1742.000000	99.728464 
1741.000000	99.729016 
1740.000000	99.729843 
1739.000000	99.730620 
1738.000000	99.731131 
1737.000000	99.731305 
1736.000000	99.731054 
1735.000000	99.730288 
1734.000000	99.728979 
1733.000000	99.727655 
1732.000000	99.727115 
1731.000000	99.727296 
1730.000000	99.727655 
1729.000000	99.727621 
1728.000000	99.726943 
1727.000000	99.725865 
1726.000000	99.724884 
1725.000000	99.724285 
1724.000000	99.723908 
1723.000000	99.723376 
1722.000000	99.722572 
1721.000000	99.721627 
1720.000000	99.720618 
1719.000000	99.719493 
1718.000000	99.718202 
1717.000000	99.716914 
1716.000000	99.715969 
1715.000000	99.715444 
1714.000000	99.715112 
1713.000000	99.714736 
1712.000000	99.714186 
1711.000000	99.713462 
1710.000000	99.712639 
1709.000000	99.711786 
1708.000000	99.710976 
1707.000000	99.710200 
1706.000000	99.709239 
1705.000000	99.707839 
1704.000000	99.706162 
1703.000000	99.704700 
1702.000000	99.703803 
1701.000000	99.703491 
1700.000000	99.702946 
1699.000000	99.701795 
1698.000000	99.700843 
1697.000000	99.700160 
1696.000000	99.699139 
1695.000000	99.697378 
1694.000000	99.695290 
1693.000000	99.693337 
1692.000000	99.691501 
1691.000000	99.689856 
1690.000000	99.688534 
1689.000000	99.687389 
1688.000000	99.686216 
1687.000000	99.684975 
1686.000000	99.683688 
1685.000000	99.682372 
1684.000000	99.680572 
1683.000000	99.678549 
1682.000000	99.677281 
1681.000000	99.676282 
1680.000000	99.674946 
1679.000000	99.673328 
1678.000000	99.671550 
1677.000000	99.669573 
1676.000000	99.667500 
1675.000000	99.665681 
1674.000000	99.664407 
1673.000000	99.663644 
1672.000000	99.663065 
1671.000000	99.662563 
1670.000000	99.662209 
1669.000000	99.661575 
1668.000000	99.660370 
1667.000000	99.658685 
1666.000000	99.656562 
1665.000000	99.654242 
1664.000000	99.652372 
1663.000000	99.651567 
1662.000000	99.651677 
1661.000000	99.651904 
1660.000000	99.651818 
1659.000000	99.651352 
1658.000000	99.650358 
1657.000000	99.648497 
1656.000000	99.645741 
1655.000000	99.642641 
1654.000000	99.640304 
1653.000000	99.638207 
1652.000000	99.636232 
1651.000000	99.636852 
1650.000000	99.638662 
1649.000000	99.639831 
1648.000000	99.639862 
1647.000000	99.638594 
1646.000000	99.637005 
1645.000000	99.636751 
1644.000000	99.637382 
1643.000000	99.637519 
1642.000000	99.636925 
1641.000000	99.635894 
1640.000000	99.634718 
1639.000000	99.633813 
1638.000000	99.634005 
1637.000000	99.636160 
1636.000000	99.639660 
1635.000000	99.642453 
1634.000000	99.644189 
1633.000000	99.645408 
1632.000000	99.645239 
1631.000000	99.643320 
1630.000000	99.640648 
1629.000000	99.638798 
1628.000000	99.638481 
1627.000000	99.639123 
1626.000000	99.639926 
1625.000000	99.640774 
1624.000000	99.642118 
1623.000000	99.644029 
1622.000000	99.646137 
1621.000000	99.648169 
1620.000000	99.649937 
1619.000000	99.651290 
1618.000000	99.652495 
1617.000000	99.653958 
1616.000000	99.655925 
1615.000000	99.658837 
1614.000000	99.662468 
1613.000000	99.665980 
1612.000000	99.668861 
1611.000000	99.670799 
1610.000000	99.671532 
1609.000000	99.671494 
1608.000000	99.672059 
1607.000000	99.674343 
1606.000000	99.677946 
1605.000000	99.681367 
1604.000000	99.683766 
1603.000000	99.685428 
1602.000000	99.686973 
1601.000000	99.688414 
1600.000000	99.689126 
1599.000000	99.688776 
1598.000000	99.688091 
1597.000000	99.688476 
1596.000000	99.690763 
1595.000000	99.694476 
1594.000000	99.698304 
1593.000000	99.701291 
1592.000000	99.703439 
1591.000000	99.705260 
1590.000000	99.707169 
1589.000000	99.709268 
1588.000000	99.711523 
1587.000000	99.713827 
1586.000000	99.715902 
1585.000000	99.717329 
1584.000000	99.718009 
1583.000000	99.718297 
1582.000000	99.718419 
1581.000000	99.718389 
1580.000000	99.718178 
1579.000000	99.717847 
1578.000000	99.717640 
1577.000000	99.718030 
1576.000000	99.718976 
1575.000000	99.719941 
1574.000000	99.720697 
1573.000000	99.721213 
1572.000000	99.721704 
1571.000000	99.722586 
1570.000000	99.723943 
1569.000000	99.725260 
1568.000000	99.726123 
1567.000000	99.726462 
1566.000000	99.726379 
1565.000000	99.726216 
1564.000000	99.726291 
1563.000000	99.726599 
1562.000000	99.727000 
1561.000000	99.727483 
1560.000000	99.728222 
1559.000000	99.728622 
1558.000000	99.728284 
1557.000000	99.728260 
1556.000000	99.728694 
1555.000000	99.729243 
1554.000000	99.729748 
1553.000000	99.730096 
1552.000000	99.730264 
1551.000000	99.730291 
1550.000000	99.730327 
1549.000000	99.730549 
1548.000000	99.730948 
1547.000000	99.731326 
1546.000000	99.731478 
1545.000000	99.731386 
1544.000000	99.731258 
1543.000000	99.731375 
1542.000000	99.731868 
1541.000000	99.732719 
1540.000000	99.733687 
1539.000000	99.734441 
1538.000000	99.734985 
1537.000000	99.735471 
1536.000000	99.736002 
1535.000000	99.736642 
1534.000000	99.737307 
1533.000000	99.737805 
1532.000000	99.738163 
1531.000000	99.738564 
1530.000000	99.739051 
1529.000000	99.739549 
1528.000000	99.740001 
1527.000000	99.740450 
1526.000000	99.740967 
1525.000000	99.741576 
1524.000000	99.742302 
1523.000000	99.743251 
1522.000000	99.744519 
1521.000000	99.745801 
1520.000000	99.746624 
1519.000000	99.746871 
1518.000000	99.746658 
1517.000000	99.746306 
1516.000000	99.746219 
1515.000000	99.746586 
1514.000000	99.747290 
1513.000000	99.748190 
1512.000000	99.749259 
1511.000000	99.750367 
1510.000000	99.751288 
1509.000000	99.751907 
1508.000000	99.752469 
1507.000000	99.753237 
1506.000000	99.753987 
1505.000000	99.754536 
1504.000000	99.754870 
1503.000000	99.755123 
1502.000000	99.755630 
1501.000000	99.756503 
1500.000000	99.757442 
1499.000000	99.758102 
1498.000000	99.758487 
1497.000000	99.758784 
1496.000000	99.758886 
1495.000000	99.758770 
1494.000000	99.758739 
1493.000000	99.758898 
1492.000000	99.759070 
1491.000000	99.759039 
1490.000000	99.758863 
1489.000000	99.758970 
1488.000000	99.759557 
1487.000000	99.760153 
1486.000000	99.760245 
1485.000000	99.759764 
1484.000000	99.759174 
1483.000000	99.759003 
1482.000000	99.759236 
1481.000000	99.759399 
1480.000000	99.759123 
1479.000000	99.758523 
1478.000000	99.757827 
1477.000000	99.757051 
1476.000000	99.756146 
1475.000000	99.755293 
1474.000000	99.754758 
1473.000000	99.754548 
1472.000000	99.754441 
1471.000000	99.754296 
1470.000000	99.754079 
1469.000000	99.753725 
1468.000000	99.753209 
1467.000000	99.752602 
1466.000000	99.752010 
1465.000000	99.751461 
1464.000000	99.750908 
1463.000000	99.750336 
1462.000000	99.749788 
1461.000000	99.749296 
1460.000000	99.748855 
1459.000000	99.748423 
1458.000000	99.747938 
1457.000000	99.747342 
1456.000000	99.746671 
1455.000000	99.746047 
1454.000000	99.745515 
1453.000000	99.745111 
1452.000000	99.744877 
1451.000000	99.744730 
1450.000000	99.744461 
1449.000000	99.743892 
1448.000000	99.742996 
1447.000000	99.742015 
1446.000000	99.741283 
1445.000000	99.740941 
1444.000000	99.740936 
1443.000000	99.741060 
1442.000000	99.741105 
1441.000000	99.740984 
1440.000000	99.740732 
1439.000000	99.740409 
1438.000000	99.740129 
1437.000000	99.740025 
1436.000000	99.739970 
1435.000000	99.739749 
1434.000000	99.739188 
1433.000000	99.738212 
1432.000000	99.737061 
1431.000000	99.736083 
1430.000000	99.735360 
1429.000000	99.734884 
1428.000000	99.734741 
1427.000000	99.734998 
1426.000000	99.735381 
1425.000000	99.735450 
1424.000000	99.735224 
1423.000000	99.735182 
1422.000000	99.735753 
1421.000000	99.736862 
1420.000000	99.738121 
1419.000000	99.739002 
1418.000000	99.739590 
1417.000000	99.740510 
1416.000000	99.741356 
1415.000000	99.741281 
1414.000000	99.740402 
1413.000000	99.739824 
1412.000000	99.740553 
1411.000000	99.742390 
1410.000000	99.744179 
1409.000000	99.745142 
1408.000000	99.745462 
1407.000000	99.745889 
1406.000000	99.746969 
1405.000000	99.748604 
1404.000000	99.750525 
1403.000000	99.752652 
1402.000000	99.755004 
1401.000000	99.757433 
1400.000000	99.759602 
1399.000000	99.761255 
1398.000000	99.762494 
1397.000000	99.763437 
1396.000000	99.763824 
1395.000000	99.763664 
1394.000000	99.763777 
1393.000000	99.764983 
1392.000000	99.767067 
1391.000000	99.769064 
1390.000000	99.770299 
1389.000000	99.770798 
1388.000000	99.771015 
1387.000000	99.771436 
1386.000000	99.772310 
1385.000000	99.773588 
1384.000000	99.775051 
1383.000000	99.776453 
1382.000000	99.777645 
1381.000000	99.778614 
1380.000000	99.779413 
1379.000000	99.780089 
1378.000000	99.780677 
1377.000000	99.781228 
1376.000000	99.781787 
1375.000000	99.782394 
1374.000000	99.783091 
1373.000000	99.783912 
1372.000000	99.784826 
1371.000000	99.785739 
1370.000000	99.786551 
1369.000000	99.787218 
1368.000000	99.787769 
1367.000000	99.788269 
1366.000000	99.788788 
1365.000000	99.789360 
1364.000000	99.789987 
1363.000000	99.790637 
1362.000000	99.791245 
1361.000000	99.791771 
1360.000000	99.792233 
1359.000000	99.792701 
1358.000000	99.793229 
1357.000000	99.793793 
1356.000000	99.794296 
1355.000000	99.794668 
1354.000000	99.794946 
1353.000000	99.795240 
1352.000000	99.795579 
1351.000000	99.795870 
1350.000000	99.796049 
1349.000000	99.796224 
1348.000000	99.796571 
1347.000000	99.797078 
1346.000000	99.797524 
1345.000000	99.797734 
1344.000000	99.797746 
1343.000000	99.797691 
1342.000000	99.797703 
1341.000000	99.797980 
1340.000000	99.798731 
1339.000000	99.799823 
1338.000000	99.800733 
1337.000000	99.801165 
1336.000000	99.801447 
1335.000000	99.802102 
1334.000000	99.803050 
1333.000000	99.803622 
1332.000000	99.803422 
1331.000000	99.802723 
1330.000000	99.801967 
1329.000000	99.801333 
1328.000000	99.800971 
1327.000000	99.801085 
1326.000000	99.801518 
1325.000000	99.801804 
1324.000000	99.801895 
1323.000000	99.802257 
1322.000000	99.803042 
1321.000000	99.803705 
1320.000000	99.803762 
1319.000000	99.803402 
1318.000000	99.803009 
1317.000000	99.802542 
1316.000000	99.801907 
1315.000000	99.801527 
1314.000000	99.801902 
1313.000000	99.802794 
1312.000000	99.803399 
1311.000000	99.803292 
1310.000000	99.802725 
1309.000000	99.802096 
1308.000000	99.801517 
1307.000000	99.800882 
1306.000000	99.800064 
1305.000000	99.799087 
1304.000000	99.798356 
1303.000000	99.798529 
1302.000000	99.799834 
1301.000000	99.801517 
1300.000000	99.802414 
1299.000000	99.802182 
1298.000000	99.801690 
1297.000000	99.802093 
1296.000000	99.803640 
1295.000000	99.805486 
1294.000000	99.806469 
1293.000000	99.805932 
1292.000000	99.804004 
1291.000000	99.801507 
1290.000000	99.799562 
1289.000000	99.799094 
1288.000000	99.800392 
1287.000000	99.802788 
1286.000000	99.804764 
1285.000000	99.804945 
1284.000000	99.803321 
1283.000000	99.801293 
1282.000000	99.800174 
1281.000000	99.799975 
1280.000000	99.800034 
1279.000000	99.800165 
1278.000000	99.800384 
1277.000000	99.800120 
1276.000000	99.798881 
1275.000000	99.797399 
1274.000000	99.796782 
1273.000000	99.796691 
1272.000000	99.795903 
1271.000000	99.794807 
1270.000000	99.795475 
1269.000000	99.798559 
1268.000000	99.801824 
1267.000000	99.802858 
1266.000000	99.802006 
1265.000000	99.801482 
1264.000000	99.802495 
1263.000000	99.804380 
1262.000000	99.805858 
1261.000000	99.806029 
1260.000000	99.804680 
1259.000000	99.802468 
1258.000000	99.800352 
1257.000000	99.798419 
1256.000000	99.796084 
1255.000000	99.794007 
1254.000000	99.794572 
1253.000000	99.799243 
1252.000000	99.806038 
1251.000000	99.810809 
1250.000000	99.810908 
1249.000000	99.807067 
1248.000000	99.802295 
1247.000000	99.799542 
1246.000000	99.799535 
1245.000000	99.799999 
1244.000000	99.797678 
1243.000000	99.792057 
1242.000000	99.786484 
1241.000000	99.784566 
1240.000000	99.786119 
1239.000000	99.787831 
1238.000000	99.787207 
1237.000000	99.784365 
1236.000000	99.780429 
1235.000000	99.775977 
1234.000000	99.771352 
1233.000000	99.766960 
1232.000000	99.762525 
1231.000000	99.756932 
1230.000000	99.749499 
1229.000000	99.740972 
1228.000000	99.732835 
1227.000000	99.725906 
1226.000000	99.719742 
1225.000000	99.713006 
1224.000000	99.704221 
1223.000000	99.692496 
1222.000000	99.677897 
1221.000000	99.661399 
1220.000000	99.644691 
1219.000000	99.629672 
1218.000000	99.617112 
1217.000000	99.605352 
1216.000000	99.591011 
1215.000000	99.571631 
1214.000000	99.547315 
1213.000000	99.519624 
1212.000000	99.489840 
1211.000000	99.459305 
1210.000000	99.430546 
1209.000000	99.406240 
1208.000000	99.386476 
1207.000000	99.367970 
1206.000000	99.346853 
1205.000000	99.322228 
1204.000000	99.296646 
1203.000000	99.273312 
1202.000000	99.253111 
1201.000000	99.234243 
1200.000000	99.214275 
1199.000000	99.192228 
1198.000000	99.168995 
1197.000000	99.146100 
1196.000000	99.124007 
1195.000000	99.101438 
1194.000000	99.076499 
1193.000000	99.048699 
1192.000000	99.019493 
1191.000000	98.990393 
1190.000000	98.961138 
1189.000000	98.930859 
1188.000000	98.900714 
1187.000000	98.873641 
1186.000000	98.850877 
1185.000000	98.830042 
1184.000000	98.807532 
1183.000000	98.781869 
1182.000000	98.754112 
1181.000000	98.726051 
1180.000000	98.698784 
1179.000000	98.672067 
1178.000000	98.644199 
1177.000000	98.613410 
1176.000000	98.580040 
1175.000000	98.546166 
1174.000000	98.512236 
1173.000000	98.475788 
1172.000000	98.435199 
1171.000000	98.393300 
1170.000000	98.354902 
1169.000000	98.321311 
1168.000000	98.289628 
1167.000000	98.257611 
1166.000000	98.227508 
1165.000000	98.204590 
1164.000000	98.193145 
1163.000000	98.194070 
1162.000000	98.204987 
1161.000000	98.221937 
1160.000000	98.241087 
1159.000000	98.258778 
1158.000000	98.270337 
1157.000000	98.270332 
1156.000000	98.255497 
1155.000000	98.227781 
1154.000000	98.193794 
1153.000000	98.160317 
1152.000000	98.129999 
1151.000000	98.101154 
1150.000000	98.070998 
1149.000000	98.038771 
1148.000000	98.006146 
1147.000000	97.975130 
1146.000000	97.945816 
1145.000000	97.916124 
1144.000000	97.883328 
1143.000000	97.845782 
1142.000000	97.804132 
1141.000000	97.761768 
1140.000000	97.723388 
1139.000000	97.691432 
1138.000000	97.663450 
1137.000000	97.633940 
1136.000000	97.598981 
1135.000000	97.558544 
1134.000000	97.514953 
1133.000000	97.470549 
1132.000000	97.426772 
1131.000000	97.383996 
1130.000000	97.341776 
1129.000000	97.299984 
1128.000000	97.259232 
1127.000000	97.219005 
1126.000000	97.176495 
1125.000000	97.129702 
1124.000000	97.081192 
1123.000000	97.035901 
1122.000000	96.994916 
1121.000000	96.954369 
1120.000000	96.911250 
1119.000000	96.867413 
1118.000000	96.826347 
1117.000000	96.788371 
1116.000000	96.750682 
1115.000000	96.710646 
1114.000000	96.668026 
1113.000000	96.625401 
1112.000000	96.586813 
1111.000000	96.554104 
1110.000000	96.524091 
1109.000000	96.491457 
1108.000000	96.454980 
1107.000000	96.418507 
1106.000000	96.385255 
1105.000000	96.353789 
1104.000000	96.320516 
1103.000000	96.283780 
1102.000000	96.244633 
1101.000000	96.205804 
1100.000000	96.170642 
1099.000000	96.141029 
1098.000000	96.115534 
1097.000000	96.091066 
1096.000000	96.066121 
1095.000000	96.040466 
1094.000000	96.012858 
1093.000000	95.982238 
1092.000000	95.950397 
1091.000000	95.920022 
1090.000000	95.890777 
1089.000000	95.861034 
1088.000000	95.832585 
1087.000000	95.809105 
1086.000000	95.790348 
1085.000000	95.772784 
1084.000000	95.755901 
1083.000000	95.742393 
1082.000000	95.731419 
1081.000000	95.717114 
1080.000000	95.695145 
1079.000000	95.666074 
1078.000000	95.631590 
1077.000000	95.592879 
1076.000000	95.554188 
1075.000000	95.521972 
1074.000000	95.496964 
1073.000000	95.471206 
1072.000000	95.435646 
1071.000000	95.387139 
1070.000000	95.327003 
1069.000000	95.257714 
1068.000000	95.183456 
1067.000000	95.109403 
1066.000000	95.036884 
1065.000000	94.962414 
1064.000000	94.884003 
1063.000000	94.804802 
1062.000000	94.728149 
1061.000000	94.652890 
1060.000000	94.576432 
1059.000000	94.498976 
1058.000000	94.422127 
1057.000000	94.346532 
1056.000000	94.273123 
1055.000000	94.203176 
1054.000000	94.134571 
1053.000000	94.061287 
1052.000000	93.979355 
1051.000000	93.890566 
1050.000000	93.798038 
1049.000000	93.701681 
1048.000000	93.600832 
1047.000000	93.497811 
1046.000000	93.395952 
1045.000000	93.296349 
1044.000000	93.197550 
1043.000000	93.096214 
1042.000000	92.988879 
1041.000000	92.876796 
1040.000000	92.768188 
1039.000000	92.671247 
1038.000000	92.585605 
1037.000000	92.505351 
1036.000000	92.428936 
1035.000000	92.359579 
1034.000000	92.297128 
1033.000000	92.237762 
1032.000000	92.182305 
1031.000000	92.136735 
1030.000000	92.102967 
1029.000000	92.076481 
1028.000000	92.054454 
1027.000000	92.038576 
1026.000000	92.027548 
1025.000000	92.014447 
1024.000000	91.995178 
1023.000000	91.973755 
1022.000000	91.956169 
1021.000000	91.943696 
1020.000000	91.933965 
1019.000000	91.923798 
1018.000000	91.909770 
1017.000000	91.890977 
1016.000000	91.872111 
1015.000000	91.858762 
1014.000000	91.849195 
1013.000000	91.835952 
1012.000000	91.815706 
1011.000000	91.792195 
1010.000000	91.769921 
1009.000000	91.751151 
1008.000000	91.738606 
1007.000000	91.733968 
1006.000000	91.733419 
1005.000000	91.731689 
1004.000000	91.731042 
1003.000000	91.739369 
1002.000000	91.759059 
1001.000000	91.784613 
1000.000000	91.811245 
999.000000	 91.838667 
998.000000	 91.866434 
997.000000	 91.893640 
996.000000	 91.923899 
995.000000	 91.962562 
994.000000	 92.007635 
993.000000	 92.050762 
992.000000	 92.088403 
991.000000	 92.124704 
990.000000	 92.162508 
989.000000	 92.199938 
988.000000	 92.237947 
987.000000	 92.283198 
986.000000	 92.340168 
985.000000	 92.406589 
984.000000	 92.478841 
983.000000	 92.555898 
982.000000	 92.636238 
981.000000	 92.717245 
980.000000	 92.800016 
979.000000	 92.889432 
978.000000	 92.987719 
977.000000	 93.092652 
976.000000	 93.202314 
975.000000	 93.315756 
974.000000	 93.428806 
973.000000	 93.536187 
972.000000	 93.639302 
971.000000	 93.745947 
970.000000	 93.860542 
969.000000	 93.979506 
968.000000	 94.097059 
967.000000	 94.210520 
966.000000	 94.319382 
965.000000	 94.424558 
964.000000	 94.529275 
963.000000	 94.635809 
962.000000	 94.740931 
961.000000	 94.839372 
960.000000	 94.931230 
959.000000	 95.020417 
958.000000	 95.106521 
957.000000	 95.185104 
956.000000	 95.256472 
955.000000	 95.326848 
954.000000	 95.399073 
953.000000	 95.468712 
952.000000	 95.531690 
951.000000	 95.589397 
950.000000	 95.643467 
949.000000	 95.691592 
948.000000	 95.732198 
947.000000	 95.768351 
946.000000	 95.803385 
945.000000	 95.836652 
944.000000	 95.867176 
943.000000	 95.897912 
942.000000	 95.932534 
941.000000	 95.970012 
940.000000	 96.005041 
939.000000	 96.032528 
938.000000	 96.051257 
937.000000	 96.065883 
936.000000	 96.085434 
935.000000	 96.115946 
934.000000	 96.153682 
933.000000	 96.189418 
932.000000	 96.219709 
931.000000	 96.249323 
930.000000	 96.282096 
929.000000	 96.315123 
928.000000	 96.344027 
927.000000	 96.368787 
926.000000	 96.391711 
925.000000	 96.414184 
924.000000	 96.438040 
923.000000	 96.465627 
922.000000	 96.495327 
921.000000	 96.520880 
920.000000	 96.538049 
919.000000	 96.548533 
918.000000	 96.555167 
917.000000	 96.557914 
916.000000	 96.558030 
915.000000	 96.561579 
914.000000	 96.573872 
913.000000	 96.593559 
912.000000	 96.617195 
911.000000	 96.647583 
910.000000	 96.692665 
909.000000	 96.756963 
908.000000	 96.837538 
907.000000	 96.927140 
906.000000	 97.018226 
905.000000	 97.105029 
904.000000	 97.185425 
903.000000	 97.261979 
902.000000	 97.339693 
901.000000	 97.421749 
900.000000	 97.507449 
899.000000	 97.593501 
898.000000	 97.676288 
897.000000	 97.753171 
896.000000	 97.822729 
895.000000	 97.884914 
894.000000	 97.941467 
893.000000	 97.995553 
892.000000	 98.049918 
891.000000	 98.105401 
890.000000	 98.162112 
889.000000	 98.221497 
888.000000	 98.284889 
887.000000	 98.349808 
886.000000	 98.410954 
885.000000	 98.466431 
884.000000	 98.519819 
883.000000	 98.573640 
882.000000	 98.623910 
881.000000	 98.664812 
880.000000	 98.696506 
879.000000	 98.724586 
878.000000	 98.753864 
877.000000	 98.786799 
876.000000	 98.825689 
875.000000	 98.870496 
874.000000	 98.915707 
873.000000	 98.955823 
872.000000	 98.993969 
871.000000	 99.038919 
870.000000	 99.092838 
869.000000	 99.148181 
868.000000	 99.198334 
867.000000	 99.244810 
866.000000	 99.290772 
865.000000	 99.333102 
864.000000	 99.366306 
863.000000	 99.391457 
862.000000	 99.415881 
861.000000	 99.444631 
860.000000	 99.476590 
859.000000	 99.508770 
858.000000	 99.539933 
857.000000	 99.568868 
856.000000	 99.593218 
855.000000	 99.613109 
854.000000	 99.633814 
853.000000	 99.660893 
852.000000	 99.692335 
851.000000	 99.718595 
850.000000	 99.732223 
849.000000	 99.735890 
848.000000	 99.739216 
847.000000	 99.748551 
846.000000	 99.761664 
845.000000	 99.771960 
844.000000	 99.775236 
843.000000	 99.771839 
842.000000	 99.765047 
841.000000	 99.758555 
840.000000	 99.752952 
839.000000	 99.742972 
838.000000	 99.721122 
837.000000	 99.687192 
836.000000	 99.652239 
835.000000	 99.629319 
834.000000	 99.621066 
833.000000	 99.620396 
832.000000	 99.622305 
831.000000	 99.628736 
830.000000	 99.640410 
829.000000	 99.650511 
828.000000	 99.651730 
827.000000	 99.646255 
826.000000	 99.642894 
825.000000	 99.645173 
824.000000	 99.647964 
823.000000	 99.646657 
822.000000	 99.644528 
821.000000	 99.648345 
820.000000	 99.659608 
819.000000	 99.672665 
818.000000	 99.680337 
817.000000	 99.679749 
816.000000	 99.672548 
815.000000	 99.660415 
814.000000	 99.641680 
813.000000	 99.612541 
812.000000	 99.569951 
811.000000	 99.511127 
810.000000	 99.430703 
809.000000	 99.321568 
808.000000	 99.181079 
807.000000	 99.016116 
806.000000	 98.840152 
805.000000	 98.664988 
804.000000	 98.496809 
803.000000	 98.339446 
802.000000	 98.198320 
801.000000	 98.079893 
800.000000	 97.988567 
799.000000	 97.925849 
798.000000	 97.893215 
797.000000	 97.893786 
796.000000	 97.927043 
795.000000	 97.981185 
794.000000	 98.036724 
793.000000	 98.082332 
792.000000	 98.122749 
791.000000	 98.166302 
790.000000	 98.209378 
789.000000	 98.239305 
788.000000	 98.248880 
787.000000	 98.240501 
786.000000	 98.217815 
785.000000	 98.180990 
784.000000	 98.130626 
783.000000	 98.070064 
782.000000	 98.003139 
781.000000	 97.935381 
780.000000	 97.878077 
779.000000	 97.844884 
778.000000	 97.842293 
777.000000	 97.867488 
776.000000	 97.914878 
775.000000	 97.978244 
774.000000	 98.046915 
773.000000	 98.109117 
772.000000	 98.162827 
771.000000	 98.216927 
770.000000	 98.277840 
769.000000	 98.339418 
768.000000	 98.388930 
767.000000	 98.419277 
766.000000	 98.433226 
765.000000	 98.439673 
764.000000	 98.448243 
763.000000	 98.463850 
762.000000	 98.483261 
761.000000	 98.499240 
760.000000	 98.510174 
759.000000	 98.523346 
758.000000	 98.547077 
757.000000	 98.581585 
756.000000	 98.618166 
755.000000	 98.644772 
754.000000	 98.652882 
753.000000	 98.643632 
752.000000	 98.629452 
751.000000	 98.626673 
750.000000	 98.643543 
749.000000	 98.675858 
748.000000	 98.714359 
747.000000	 98.754201 
746.000000	 98.796799 
745.000000	 98.845058 
744.000000	 98.898392 
743.000000	 98.951548 
742.000000	 98.998666 
741.000000	 99.039739 
740.000000	 99.081437 
739.000000	 99.129167 
738.000000	 99.179758 
737.000000	 99.224344 
736.000000	 99.256319 
735.000000	 99.273884 
734.000000	 99.278980 
733.000000	 99.279661 
732.000000	 99.290768 
731.000000	 99.323229 
730.000000	 99.370715 
729.000000	 99.413538 
728.000000	 99.437736 
727.000000	 99.444970 
726.000000	 99.444172 
725.000000	 99.441566 
724.000000	 99.441512 
723.000000	 99.449125 
722.000000	 99.466306 
721.000000	 99.489668 
720.000000	 99.516513 
719.000000	 99.548633 
718.000000	 99.586468 
717.000000	 99.623984 
716.000000	 99.653031 
715.000000	 99.669253 
714.000000	 99.671872 
713.000000	 99.662822 
712.000000	 99.649728 
711.000000	 99.644287 
710.000000	 99.651514 
709.000000	 99.663200 
708.000000	 99.666409 
707.000000	 99.656448 
706.000000	 99.638454 
705.000000	 99.619466 
704.000000	 99.602714 
703.000000	 99.586361 
702.000000	 99.563105 
701.000000	 99.523076 
700.000000	 99.461589 
699.000000	 99.384047 
698.000000	 99.301651 
697.000000	 99.224319 
696.000000	 99.159978 
695.000000	 99.117155 
694.000000	 99.103594 
693.000000	 99.122484 
692.000000	 99.170353 
691.000000	 99.236351 
690.000000	 99.304289 
689.000000	 99.360511 
688.000000	 99.401956 
687.000000	 99.433080 
686.000000	 99.454569 
685.000000	 99.461364 
684.000000	 99.453828 
683.000000	 99.444327 
682.000000	 99.448659 
681.000000	 99.473638 
680.000000	 99.513159 
679.000000	 99.552400 
678.000000	 99.577124 
677.000000	 99.585208 
676.000000	 99.589914 
675.000000	 99.604731 
674.000000	 99.625787 
673.000000	 99.638104 
672.000000	 99.638342 
671.000000	 99.640823 
670.000000	 99.660098 
669.000000	 99.694836 
668.000000	 99.720848 
667.000000	 99.721996 
666.000000	 99.714804 
665.000000	 99.710903 
664.000000	 99.710620 
663.000000	 99.720160 
662.000000	 99.741881 
661.000000	 99.764254 
660.000000	 99.771392 
659.000000	 99.760017 
658.000000	 99.740055 
657.000000	 99.723377 
656.000000	 99.718060 
655.000000	 99.728162 
654.000000	 99.749162 
653.000000	 99.768705 
652.000000	 99.780761 
651.000000	 99.793843 
650.000000	 99.816989 

