4000.000000	99.600453 
3999.000000	99.599233 
3998.000000	99.598455 
3997.000000	99.599348 
3996.000000	99.601576 
3995.000000	99.603701 
3994.000000	99.604865 
3993.000000	99.605530 
3992.000000	99.606424 
3991.000000	99.607181 
3990.000000	99.606518 
3989.000000	99.603676 
3988.000000	99.599408 
3987.000000	99.595535 
3986.000000	99.593668 
3985.000000	99.594248 
3984.000000	99.596549 
3983.000000	99.599650 
3982.000000	99.603415 
3981.000000	99.608372 
3980.000000	99.614444 
3979.000000	99.620055 
3978.000000	99.622937 
3977.000000	99.622000 
3976.000000	99.618198 
3975.000000	99.613415 
3974.000000	99.608774 
3973.000000	99.604348 
3972.000000	99.600405 
3971.000000	99.598363 
3970.000000	99.600068 
3969.000000	99.605739 
3968.000000	99.612869 
3967.000000	99.617587 
3966.000000	99.617460 
3965.000000	99.613165 
3964.000000	99.607665 
3963.000000	99.604117 
3962.000000	99.604047 
3961.000000	99.606586 
3960.000000	99.608920 
3959.000000	99.608073 
3958.000000	99.603548 
3957.000000	99.598065 
3956.000000	99.595239 
3955.000000	99.596207 
3954.000000	99.598919 
3953.000000	99.600586 
3952.000000	99.600122 
3951.000000	99.598469 
3950.000000	99.596895 
3949.000000	99.595574 
3948.000000	99.594052 
3947.000000	99.592763 
3946.000000	99.593085 
3945.000000	99.595617 
3944.000000	99.598950 
3943.000000	99.600726 
3942.000000	99.600053 
3941.000000	99.598388 
3940.000000	99.597378 
3939.000000	99.596819 
3938.000000	99.595688 
3937.000000	99.593729 
3936.000000	99.591632 
3935.000000	99.590213 
3934.000000	99.590236 
3933.000000	99.592589 
3932.000000	99.597280 
3931.000000	99.602747 
3930.000000	99.606814 
3929.000000	99.608277 
3928.000000	99.607413 
3927.000000	99.604793 
3926.000000	99.600707 
3925.000000	99.596186 
3924.000000	99.593532 
3923.000000	99.594113 
3922.000000	99.596028 
3921.000000	99.596177 
3920.000000	99.594144 
3919.000000	99.591907 
3918.000000	99.590566 
3917.000000	99.589586 
3916.000000	99.589171 
3915.000000	99.590758 
3914.000000	99.594419 
3913.000000	99.597808 
3912.000000	99.598588 
3911.000000	99.596125 
3910.000000	99.591984 
3909.000000	99.588628 
3908.000000	99.588176 
3907.000000	99.590959 
3906.000000	99.594977 
3905.000000	99.597138 
3904.000000	99.595983 
3903.000000	99.593565 
3902.000000	99.592684 
3901.000000	99.592734 
3900.000000	99.591012 
3899.000000	99.587171 
3898.000000	99.583414 
3897.000000	99.580800 
3896.000000	99.578357 
3895.000000	99.576512 
3894.000000	99.578975 
3893.000000	99.587789 
3892.000000	99.598515 
3891.000000	99.603884 
3890.000000	99.604276 
3889.000000	99.605107 
3888.000000	99.607402 
3887.000000	99.608312 
3886.000000	99.605882 
3885.000000	99.601398 
3884.000000	99.599317 
3883.000000	99.600308 
3882.000000	99.599952 
3881.000000	99.596072 
3880.000000	99.591085 
3879.000000	99.589411 
3878.000000	99.593230 
3877.000000	99.598898 
3876.000000	99.601219 
3875.000000	99.598342 
3874.000000	99.592627 
3873.000000	99.588981 
3872.000000	99.588629 
3871.000000	99.586679 
3870.000000	99.579805 
3869.000000	99.574039 
3868.000000	99.578499 
3867.000000	99.590166 
3866.000000	99.597994 
3865.000000	99.598760 
3864.000000	99.597560 
3863.000000	99.597832 
3862.000000	99.598209 
3861.000000	99.596071 
3860.000000	99.591493 
3859.000000	99.584806 
3858.000000	99.575822 
3857.000000	99.566029 
3856.000000	99.560693 
3855.000000	99.565095 
3854.000000	99.573418 
3853.000000	99.572508 
3852.000000	99.569584 
3851.000000	99.578813 
3850.000000	99.592502 
3849.000000	99.599651 
3848.000000	99.600637 
3847.000000	99.599781 
3846.000000	99.599069 
3845.000000	99.598483 
3844.000000	99.597890 
3843.000000	99.597262 
3842.000000	99.597053 
3841.000000	99.597273 
3840.000000	99.597839 
3839.000000	99.598748 
3838.000000	99.599584 
3837.000000	99.599475 
3836.000000	99.598724 
3835.000000	99.598186 
3834.000000	99.598134 
3833.000000	99.598624 
3832.000000	99.599729 
3831.000000	99.601431 
3830.000000	99.603567 
3829.000000	99.605030 
3828.000000	99.604062 
3827.000000	99.599815 
3826.000000	99.594552 
3825.000000	99.592606 
3824.000000	99.595911 
3823.000000	99.601620 
3822.000000	99.604296 
3821.000000	99.599554 
3820.000000	99.593159 
3819.000000	99.594976 
3818.000000	99.601333 
3817.000000	99.602588 
3816.000000	99.596679 
3815.000000	99.590320 
3814.000000	99.590829 
3813.000000	99.595030 
3812.000000	99.594642 
3811.000000	99.589325 
3810.000000	99.585267 
3809.000000	99.586607 
3808.000000	99.591104 
3807.000000	99.593398 
3806.000000	99.593389 
3805.000000	99.595924 
3804.000000	99.600352 
3803.000000	99.601085 
3802.000000	99.595294 
3801.000000	99.584629 
3800.000000	99.577600 
3799.000000	99.578797 
3798.000000	99.580896 
3797.000000	99.578275 
3796.000000	99.573578 
3795.000000	99.572210 
3794.000000	99.575823 
3793.000000	99.581642 
3792.000000	99.586932 
3791.000000	99.591250 
3790.000000	99.594472 
3789.000000	99.596368 
3788.000000	99.597937 
3787.000000	99.601023 
3786.000000	99.605875 
3785.000000	99.610720 
3784.000000	99.614355 
3783.000000	99.617161 
3782.000000	99.618895 
3781.000000	99.617736 
3780.000000	99.612490 
3779.000000	99.604282 
3778.000000	99.596479 
3777.000000	99.591168 
3776.000000	99.587227 
3775.000000	99.583635 
3774.000000	99.582553 
3773.000000	99.586418 
3772.000000	99.593623 
3771.000000	99.598764 
3770.000000	99.598160 
3769.000000	99.594248 
3768.000000	99.592290 
3767.000000	99.592944 
3766.000000	99.592723 
3765.000000	99.590460 
3764.000000	99.589533 
3763.000000	99.593143 
3762.000000	99.599889 
3761.000000	99.606442 
3760.000000	99.611351 
3759.000000	99.613551 
3758.000000	99.612151 
3757.000000	99.608209 
3756.000000	99.604530 
3755.000000	99.602586 
3754.000000	99.601797 
3753.000000	99.602405 
3752.000000	99.605070 
3751.000000	99.605667 
3750.000000	99.598207 
3749.000000	99.585956 
3748.000000	99.577669 
3747.000000	99.575267 
3746.000000	99.575341 
3745.000000	99.574814 
3744.000000	99.571637 
3743.000000	99.572710 
3742.000000	99.582187 
3741.000000	99.587919 
3740.000000	99.583499 
3739.000000	99.577037 
3738.000000	99.577017 
3737.000000	99.583001 
3736.000000	99.589592 
3735.000000	99.594615 
3734.000000	99.598775 
3733.000000	99.600633 
3732.000000	99.598919 
3731.000000	99.597297 
3730.000000	99.599645 
3729.000000	99.604094 
3728.000000	99.606524 
3727.000000	99.607042 
3726.000000	99.609131 
3725.000000	99.614262 
3724.000000	99.618819 
3723.000000	99.618321 
3722.000000	99.612904 
3721.000000	99.606653 
3720.000000	99.603302 
3719.000000	99.602820 
3718.000000	99.602526 
3717.000000	99.600147 
3716.000000	99.595367 
3715.000000	99.588733 
3714.000000	99.581421 
3713.000000	99.575823 
3712.000000	99.573208 
3711.000000	99.572387 
3710.000000	99.572943 
3709.000000	99.574982 
3708.000000	99.576754 
3707.000000	99.576203 
3706.000000	99.573216 
3705.000000	99.569603 
3704.000000	99.567812 
3703.000000	99.569752 
3702.000000	99.575133 
3701.000000	99.581663 
3700.000000	99.587677 
3699.000000	99.591736 
3698.000000	99.591530 
3697.000000	99.586640 
3696.000000	99.580385 
3695.000000	99.576885 
3694.000000	99.577060 
3693.000000	99.579117 
3692.000000	99.581695 
3691.000000	99.583857 
3690.000000	99.583429 
3689.000000	99.578650 
3688.000000	99.573390 
3687.000000	99.574856 
3686.000000	99.583207 
3685.000000	99.590687 
3684.000000	99.591675 
3683.000000	99.587567 
3682.000000	99.582475 
3681.000000	99.577978 
3680.000000	99.573319 
3679.000000	99.569508 
3678.000000	99.568048 
3677.000000	99.567480 
3676.000000	99.563149 
3675.000000	99.554764 
3674.000000	99.553467 
3673.000000	99.564180 
3672.000000	99.576160 
3671.000000	99.581911 
3670.000000	99.581577 
3669.000000	99.576823 
3668.000000	99.571563 
3667.000000	99.567119 
3666.000000	99.562651 
3665.000000	99.559950 
3664.000000	99.561167 
3663.000000	99.565390 
3662.000000	99.569407 
3661.000000	99.570984 
3660.000000	99.570819 
3659.000000	99.571380 
3658.000000	99.573354 
3657.000000	99.574323 
3656.000000	99.571647 
3655.000000	99.568409 
3654.000000	99.569333 
3653.000000	99.573176 
3652.000000	99.576386 
3651.000000	99.577679 
3650.000000	99.574433 
3649.000000	99.563072 
3648.000000	99.547627 
3647.000000	99.537544 
3646.000000	99.537064 
3645.000000	99.542891 
3644.000000	99.549452 
3643.000000	99.553358 
3642.000000	99.554572 
3641.000000	99.554749 
3640.000000	99.555454 
3639.000000	99.557543 
3638.000000	99.561665 
3637.000000	99.568150 
3636.000000	99.574987 
3635.000000	99.578050 
3634.000000	99.574998 
3633.000000	99.568331 
3632.000000	99.562597 
3631.000000	99.560276 
3630.000000	99.560490 
3629.000000	99.557421 
3628.000000	99.548529 
3627.000000	99.542650 
3626.000000	99.543731 
3625.000000	99.546530 
3624.000000	99.548738 
3623.000000	99.551391 
3622.000000	99.554471 
3621.000000	99.556645 
3620.000000	99.557124 
3619.000000	99.556331 
3618.000000	99.556695 
3617.000000	99.561091 
3616.000000	99.568388 
3615.000000	99.573853 
3614.000000	99.573372 
3613.000000	99.566451 
3612.000000	99.556501 
3611.000000	99.547858 
3610.000000	99.542753 
3609.000000	99.541428 
3608.000000	99.543026 
3607.000000	99.546495 
3606.000000	99.551086 
3605.000000	99.556011 
3604.000000	99.560717 
3603.000000	99.564981 
3602.000000	99.568125 
3601.000000	99.569706 
3600.000000	99.570882 
3599.000000	99.573407 
3598.000000	99.576963 
3597.000000	99.579570 
3596.000000	99.579272 
3595.000000	99.575472 
3594.000000	99.569649 
3593.000000	99.565701 
3592.000000	99.567476 
3591.000000	99.575721 
3590.000000	99.587038 
3589.000000	99.594999 
3588.000000	99.593313 
3587.000000	99.581996 
3586.000000	99.569456 
3585.000000	99.563632 
3584.000000	99.564477 
3583.000000	99.567272 
3582.000000	99.567888 
3581.000000	99.564918 
3580.000000	99.559461 
3579.000000	99.553732 
3578.000000	99.549132 
3577.000000	99.546016 
3576.000000	99.544640 
3575.000000	99.545335 
3574.000000	99.547831 
3573.000000	99.551063 
3572.000000	99.554157 
3571.000000	99.556891 
3570.000000	99.558973 
3569.000000	99.559262 
3568.000000	99.556695 
3567.000000	99.552570 
3566.000000	99.551219 
3565.000000	99.555632 
3564.000000	99.563019 
3563.000000	99.568093 
3562.000000	99.568558 
3561.000000	99.565830 
3560.000000	99.562550 
3559.000000	99.560520 
3558.000000	99.560298 
3557.000000	99.561608 
3556.000000	99.563889 
3555.000000	99.566232 
3554.000000	99.567346 
3553.000000	99.566244 
3552.000000	99.563366 
3551.000000	99.560404 
3550.000000	99.558426 
3549.000000	99.556886 
3548.000000	99.555068 
3547.000000	99.553468 
3546.000000	99.553219 
3545.000000	99.554915 
3544.000000	99.558210 
3543.000000	99.561956 
3542.000000	99.564788 
3541.000000	99.565917 
3540.000000	99.565695 
3539.000000	99.565078 
3538.000000	99.564541 
3537.000000	99.563655 
3536.000000	99.561695 
3535.000000	99.558494 
3534.000000	99.554436 
3533.000000	99.550445 
3532.000000	99.547978 
3531.000000	99.548494 
3530.000000	99.552043 
3529.000000	99.557003 
3528.000000	99.561689 
3527.000000	99.565693 
3526.000000	99.568903 
3525.000000	99.570125 
3524.000000	99.568144 
3523.000000	99.563924 
3522.000000	99.560409 
3521.000000	99.559703 
3520.000000	99.561273 
3519.000000	99.563189 
3518.000000	99.564210 
3517.000000	99.564252 
3516.000000	99.563569 
3515.000000	99.562612 
3514.000000	99.562432 
3513.000000	99.564118 
3512.000000	99.567283 
3511.000000	99.569949 
3510.000000	99.570542 
3509.000000	99.569764 
3508.000000	99.569774 
3507.000000	99.571359 
3506.000000	99.572333 
3505.000000	99.569227 
3504.000000	99.560761 
3503.000000	99.550133 
3502.000000	99.543633 
3501.000000	99.546042 
3500.000000	99.556618 
3499.000000	99.569268 
3498.000000	99.576709 
3497.000000	99.575511 
3496.000000	99.568242 
3495.000000	99.560727 
3494.000000	99.556959 
3493.000000	99.556478 
3492.000000	99.556221 
3491.000000	99.554266 
3490.000000	99.551582 
3489.000000	99.550551 
3488.000000	99.552354 
3487.000000	99.555927 
3486.000000	99.559052 
3485.000000	99.560276 
3484.000000	99.559928 
3483.000000	99.559550 
3482.000000	99.560062 
3481.000000	99.560615 
3480.000000	99.559720 
3479.000000	99.557600 
3478.000000	99.556553 
3477.000000	99.558253 
3476.000000	99.561159 
3475.000000	99.561610 
3474.000000	99.557876 
3473.000000	99.552154 
3472.000000	99.548137 
3471.000000	99.547485 
3470.000000	99.549272 
3469.000000	99.551886 
3468.000000	99.554248 
3467.000000	99.555536 
3466.000000	99.555092 
3465.000000	99.553039 
3464.000000	99.550373 
3463.000000	99.547996 
3462.000000	99.545870 
3461.000000	99.543385 
3460.000000	99.540356 
3459.000000	99.537517 
3458.000000	99.536108 
3457.000000	99.536898 
3456.000000	99.539379 
3455.000000	99.542026 
3454.000000	99.543609 
3453.000000	99.544371 
3452.000000	99.545748 
3451.000000	99.548901 
3450.000000	99.553426 
3449.000000	99.557427 
3448.000000	99.558758 
3447.000000	99.556565 
3446.000000	99.552194 
3445.000000	99.548508 
3444.000000	99.547726 
3443.000000	99.549574 
3442.000000	99.551491 
3441.000000	99.551018 
3440.000000	99.548052 
3439.000000	99.544380 
3438.000000	99.541287 
3437.000000	99.538380 
3436.000000	99.535034 
3435.000000	99.532293 
3434.000000	99.532305 
3433.000000	99.535901 
3432.000000	99.541357 
3431.000000	99.545857 
3430.000000	99.547738 
3429.000000	99.547215 
3428.000000	99.545447 
3427.000000	99.543401 
3426.000000	99.541707 
3425.000000	99.541052 
3424.000000	99.542079 
3423.000000	99.544602 
3422.000000	99.547206 
3421.000000	99.548104 
3420.000000	99.546559 
3419.000000	99.543437 
3418.000000	99.540395 
3417.000000	99.538645 
3416.000000	99.538240 
3415.000000	99.538144 
3414.000000	99.537033 
3413.000000	99.534485 
3412.000000	99.531590 
3411.000000	99.530206 
3410.000000	99.531458 
3409.000000	99.534903 
3408.000000	99.538919 
3407.000000	99.541633 
3406.000000	99.541740 
3405.000000	99.539114 
3404.000000	99.535078 
3403.000000	99.531905 
3402.000000	99.531537 
3401.000000	99.534246 
3400.000000	99.538261 
3399.000000	99.540947 
3398.000000	99.540936 
3397.000000	99.539327 
3396.000000	99.538520 
3395.000000	99.539787 
3394.000000	99.542346 
3393.000000	99.544694 
3392.000000	99.546184 
3391.000000	99.547046 
3390.000000	99.547594 
3389.000000	99.548019 
3388.000000	99.548498 
3387.000000	99.548746 
3386.000000	99.547784 
3385.000000	99.544985 
3384.000000	99.541261 
3383.000000	99.538446 
3382.000000	99.537296 
3381.000000	99.536706 
3380.000000	99.535053 
3379.000000	99.532044 
3378.000000	99.529141 
3377.000000	99.528419 
3376.000000	99.530897 
3375.000000	99.535598 
3374.000000	99.540181 
3373.000000	99.542708 
3372.000000	99.542843 
3371.000000	99.541339 
3370.000000	99.538920 
3369.000000	99.536211 
3368.000000	99.534348 
3367.000000	99.534506 
3366.000000	99.536420 
3365.000000	99.538037 
3364.000000	99.537275 
3363.000000	99.533971 
3362.000000	99.529842 
3361.000000	99.526752 
3360.000000	99.525267 
3359.000000	99.524771 
3358.000000	99.524722 
3357.000000	99.525622 
3356.000000	99.528450 
3355.000000	99.532945 
3354.000000	99.536944 
3353.000000	99.538224 
3352.000000	99.536999 
3351.000000	99.535844 
3350.000000	99.536919 
3349.000000	99.539883 
3348.000000	99.542813 
3347.000000	99.544465 
3346.000000	99.545090 
3345.000000	99.545574 
3344.000000	99.546409 
3343.000000	99.547175 
3342.000000	99.546581 
3341.000000	99.543526 
3340.000000	99.538745 
3339.000000	99.534924 
3338.000000	99.534262 
3337.000000	99.536054 
3336.000000	99.537561 
3335.000000	99.537269 
3334.000000	99.536292 
3333.000000	99.536412 
3332.000000	99.537796 
3331.000000	99.539248 
3330.000000	99.540012 
3329.000000	99.540512 
3328.000000	99.541463 
3327.000000	99.542816 
3326.000000	99.543668 
3325.000000	99.543143 
3324.000000	99.541541 
3323.000000	99.540605 
3322.000000	99.542082 
3321.000000	99.545537 
3320.000000	99.547932 
3319.000000	99.546153 
3318.000000	99.540222 
3317.000000	99.533646 
3316.000000	99.530413 
3315.000000	99.531638 
3314.000000	99.535016 
3313.000000	99.537223 
3312.000000	99.536735 
3311.000000	99.534608 
3310.000000	99.532858 
3309.000000	99.532400 
3308.000000	99.532743 
3307.000000	99.533367 
3306.000000	99.534598 
3305.000000	99.536639 
3304.000000	99.538399 
3303.000000	99.538343 
3302.000000	99.536609 
3301.000000	99.535366 
3300.000000	99.536419 
3299.000000	99.539026 
3298.000000	99.540707 
3297.000000	99.540026 
3296.000000	99.537965 
3295.000000	99.536698 
3294.000000	99.537718 
3293.000000	99.541194 
3292.000000	99.546289 
3291.000000	99.551487 
3290.000000	99.555000 
3289.000000	99.555693 
3288.000000	99.553981 
3287.000000	99.551596 
3286.000000	99.550232 
3285.000000	99.550336 
3284.000000	99.551173 
3283.000000	99.551805 
3282.000000	99.551793 
3281.000000	99.550975 
3280.000000	99.548960 
3279.000000	99.545364 
3278.000000	99.540623 
3277.000000	99.536169 
3276.000000	99.533425 
3275.000000	99.532731 
3274.000000	99.533340 
3273.000000	99.534103 
3272.000000	99.533826 
3271.000000	99.531504 
3270.000000	99.527129 
3269.000000	99.522467 
3268.000000	99.520327 
3267.000000	99.522527 
3266.000000	99.528570 
3265.000000	99.536298 
3264.000000	99.543466 
3263.000000	99.548742 
3262.000000	99.551912 
3261.000000	99.553607 
3260.000000	99.554531 
3259.000000	99.554674 
3258.000000	99.553435 
3257.000000	99.550537 
3256.000000	99.546511 
3255.000000	99.542355 
3254.000000	99.539277 
3253.000000	99.538773 
3252.000000	99.541880 
3251.000000	99.547640 
3250.000000	99.553020 
3249.000000	99.555392 
3248.000000	99.554888 
3247.000000	99.553596 
3246.000000	99.552717 
3245.000000	99.551487 
3244.000000	99.549037 
3243.000000	99.546395 
3242.000000	99.546075 
3241.000000	99.549837 
3240.000000	99.556747 
3239.000000	99.563124 
3238.000000	99.564780 
3237.000000	99.560281 
3236.000000	99.552425 
3235.000000	99.546044 
3234.000000	99.544035 
3233.000000	99.545710 
3232.000000	99.548731 
3231.000000	99.551719 
3230.000000	99.554556 
3229.000000	99.556869 
3228.000000	99.557213 
3227.000000	99.554009 
3226.000000	99.547210 
3225.000000	99.539123 
3224.000000	99.533445 
3223.000000	99.532785 
3222.000000	99.536591 
3221.000000	99.541596 
3220.000000	99.544516 
3219.000000	99.544262 
3218.000000	99.541771 
3217.000000	99.538589 
3216.000000	99.536148 
3215.000000	99.535626 
3214.000000	99.537323 
3213.000000	99.540146 
3212.000000	99.542639 
3211.000000	99.544806 
3210.000000	99.548159 
3209.000000	99.553454 
3208.000000	99.558936 
3207.000000	99.561638 
3206.000000	99.560462 
3205.000000	99.557508 
3204.000000	99.556139 
3203.000000	99.557970 
3202.000000	99.561953 
3201.000000	99.565998 
3200.000000	99.568877 
3199.000000	99.570441 
3198.000000	99.570805 
3197.000000	99.570174 
3196.000000	99.569343 
3195.000000	99.569343 
3194.000000	99.570096 
3193.000000	99.570039 
3192.000000	99.567834 
3191.000000	99.564249 
3190.000000	99.561658 
3189.000000	99.561591 
3188.000000	99.563234 
3187.000000	99.564409 
3186.000000	99.563629 
3185.000000	99.561103 
3184.000000	99.558254 
3183.000000	99.556579 
3182.000000	99.556610 
3181.000000	99.557484 
3180.000000	99.557568 
3179.000000	99.555827 
3178.000000	99.552637 
3177.000000	99.549191 
3176.000000	99.546292 
3175.000000	99.544117 
3174.000000	99.543110 
3173.000000	99.544496 
3172.000000	99.549125 
3171.000000	99.555684 
3170.000000	99.560737 
3169.000000	99.561426 
3168.000000	99.558364 
3167.000000	99.555341 
3166.000000	99.555827 
3165.000000	99.559960 
3164.000000	99.565065 
3163.000000	99.568559 
3162.000000	99.569818 
3161.000000	99.569684 
3160.000000	99.569237 
3159.000000	99.569278 
3158.000000	99.570139 
3157.000000	99.571329 
3156.000000	99.571629 
3155.000000	99.570133 
3154.000000	99.567388 
3153.000000	99.565350 
3152.000000	99.565960 
3151.000000	99.569356 
3150.000000	99.573268 
3149.000000	99.574633 
3148.000000	99.572438 
3147.000000	99.568916 
3146.000000	99.567317 
3145.000000	99.568492 
3144.000000	99.570400 
3143.000000	99.571103 
3142.000000	99.571189 
3141.000000	99.572479 
3140.000000	99.575110 
3139.000000	99.577145 
3138.000000	99.577065 
3137.000000	99.575585 
3136.000000	99.574530 
3135.000000	99.574570 
3134.000000	99.574734 
3133.000000	99.573951 
3132.000000	99.572467 
3131.000000	99.571492 
3130.000000	99.571604 
3129.000000	99.571838 
3128.000000	99.570644 
3127.000000	99.567774 
3126.000000	99.564874 
3125.000000	99.563973 
3124.000000	99.565526 
3123.000000	99.568048 
3122.000000	99.569451 
3121.000000	99.568680 
3120.000000	99.566401 
3119.000000	99.564378 
3118.000000	99.563949 
3117.000000	99.564783 
3116.000000	99.565295 
3115.000000	99.564541 
3114.000000	99.563273 
3113.000000	99.562731 
3112.000000	99.562907 
3111.000000	99.562820 
3110.000000	99.562169 
3109.000000	99.561607 
3108.000000	99.561284 
3107.000000	99.560240 
3106.000000	99.557906 
3105.000000	99.555517 
3104.000000	99.555292 
3103.000000	99.558443 
3102.000000	99.564375 
3101.000000	99.571362 
3100.000000	99.577237 
3099.000000	99.579826 
3098.000000	99.578141 
3097.000000	99.573806 
3096.000000	99.570475 
3095.000000	99.570814 
3094.000000	99.574143 
3093.000000	99.577477 
3092.000000	99.578484 
3091.000000	99.576869 
3090.000000	99.573444 
3089.000000	99.569272 
3088.000000	99.566006 
3087.000000	99.565699 
3086.000000	99.568948 
3085.000000	99.573602 
3084.000000	99.576411 
3083.000000	99.576049 
3082.000000	99.573888 
3081.000000	99.571999 
3080.000000	99.571340 
3079.000000	99.571913 
3078.000000	99.573390 
3077.000000	99.574770 
3076.000000	99.574412 
3075.000000	99.571647 
3074.000000	99.568092 
3073.000000	99.566469 
3072.000000	99.568141 
3071.000000	99.572376 
3070.000000	99.577503 
3069.000000	99.581647 
3068.000000	99.582532 
3067.000000	99.578398 
3066.000000	99.570252 
3065.000000	99.562345 
3064.000000	99.558963 
3063.000000	99.560513 
3062.000000	99.563493 
3061.000000	99.564417 
3060.000000	99.563356 
3059.000000	99.563475 
3058.000000	99.567392 
3057.000000	99.574240 
3056.000000	99.580331 
3055.000000	99.582655 
3054.000000	99.581493 
3053.000000	99.579501 
3052.000000	99.578752 
3051.000000	99.579312 
3050.000000	99.580329 
3049.000000	99.581123 
3048.000000	99.580634 
3047.000000	99.577135 
3046.000000	99.570111 
3045.000000	99.562186 
3044.000000	99.557611 
3043.000000	99.558264 
3042.000000	99.561943 
3041.000000	99.564971 
3040.000000	99.565820 
3039.000000	99.565694 
3038.000000	99.566329 
3037.000000	99.568161 
3036.000000	99.570532 
3035.000000	99.572878 
3034.000000	99.575221 
3033.000000	99.577669 
3032.000000	99.579797 
3031.000000	99.580879 
3030.000000	99.580683 
3029.000000	99.579627 
3028.000000	99.578053 
3027.000000	99.575909 
3026.000000	99.573552 
3025.000000	99.572276 
3024.000000	99.573076 
3023.000000	99.574897 
3022.000000	99.575058 
3021.000000	99.571903 
3020.000000	99.566689 
3019.000000	99.562588 
3018.000000	99.562067 
3017.000000	99.565172 
3016.000000	99.569713 
3015.000000	99.572863 
3014.000000	99.573057 
3013.000000	99.570749 
3012.000000	99.567228 
3011.000000	99.562960 
3010.000000	99.557812 
3009.000000	99.552784 
3008.000000	99.550280 
3007.000000	99.552008 
3006.000000	99.557150 
3005.000000	99.563040 
3004.000000	99.566957 
3003.000000	99.566940 
3002.000000	99.562211 
3001.000000	99.554311 
3000.000000	99.547208 
2999.000000	99.544435 
2998.000000	99.545767 
2997.000000	99.547893 
2996.000000	99.548621 
2995.000000	99.549133 
2994.000000	99.551345 
2993.000000	99.554305 
2992.000000	99.554799 
2991.000000	99.551339 
2990.000000	99.546195 
2989.000000	99.542837 
2988.000000	99.542058 
2987.000000	99.541565 
2986.000000	99.539320 
2985.000000	99.536399 
2984.000000	99.535815 
2983.000000	99.538910 
2982.000000	99.543863 
2981.000000	99.547927 
2980.000000	99.550266 
2979.000000	99.551849 
2978.000000	99.553199 
2977.000000	99.553481 
2976.000000	99.551923 
2975.000000	99.549127 
2974.000000	99.546455 
2973.000000	99.544689 
2972.000000	99.543752 
2971.000000	99.543321 
2970.000000	99.543176 
2969.000000	99.543148 
2968.000000	99.543235 
2967.000000	99.543757 
2966.000000	99.545083 
2965.000000	99.547208 
2964.000000	99.549759 
2963.000000	99.552339 
2962.000000	99.554604 
2961.000000	99.556087 
2960.000000	99.556361 
2959.000000	99.555681 
2958.000000	99.555315 
2957.000000	99.556706 
2956.000000	99.559759 
2955.000000	99.562047 
2954.000000	99.560607 
2953.000000	99.555392 
2952.000000	99.550608 
2951.000000	99.551393 
2950.000000	99.558597 
2949.000000	99.567512 
2948.000000	99.572459 
2947.000000	99.572137 
2946.000000	99.569828 
2945.000000	99.568948 
2944.000000	99.569823 
2943.000000	99.570904 
2942.000000	99.571568 
2941.000000	99.572440 
2940.000000	99.573612 
2939.000000	99.573988 
2938.000000	99.572731 
2937.000000	99.570667 
2936.000000	99.569849 
2935.000000	99.571953 
2934.000000	99.577030 
2933.000000	99.583309 
2932.000000	99.588040 
2931.000000	99.589157 
2930.000000	99.586680 
2929.000000	99.582599 
2928.000000	99.579316 
2927.000000	99.578243 
2926.000000	99.579516 
2925.000000	99.582167 
2924.000000	99.584373 
2923.000000	99.584386 
2922.000000	99.581956 
2921.000000	99.578493 
2920.000000	99.575348 
2919.000000	99.572438 
2918.000000	99.569147 
2917.000000	99.565999 
2916.000000	99.564486 
2915.000000	99.565427 
2914.000000	99.568403 
2913.000000	99.572592 
2912.000000	99.577079 
2911.000000	99.580295 
2910.000000	99.580568 
2909.000000	99.578002 
2908.000000	99.574945 
2907.000000	99.573717 
2906.000000	99.574409 
2905.000000	99.575420 
2904.000000	99.575358 
2903.000000	99.573476 
2902.000000	99.569170 
2901.000000	99.562653 
2900.000000	99.556167 
2899.000000	99.552916 
2898.000000	99.553846 
2897.000000	99.556543 
2896.000000	99.558009 
2895.000000	99.558003 
2894.000000	99.558715 
2893.000000	99.561482 
2892.000000	99.564848 
2891.000000	99.566155 
2890.000000	99.564469 
2889.000000	99.561533 
2888.000000	99.560055 
2887.000000	99.561339 
2886.000000	99.564453 
2885.000000	99.567257 
2884.000000	99.568070 
2883.000000	99.566635 
2882.000000	99.564019 
2881.000000	99.561862 
2880.000000	99.561576 
2879.000000	99.563827 
2878.000000	99.568376 
2877.000000	99.574081 
2876.000000	99.578961 
2875.000000	99.580704 
2874.000000	99.577990 
2873.000000	99.571968 
2872.000000	99.566186 
2871.000000	99.564295 
2870.000000	99.567320 
2869.000000	99.573065 
2868.000000	99.578222 
2867.000000	99.581104 
2866.000000	99.582621 
2865.000000	99.584984 
2864.000000	99.589400 
2863.000000	99.594611 
2862.000000	99.597517 
2861.000000	99.595706 
2860.000000	99.589972 
2859.000000	99.584282 
2858.000000	99.582702 
2857.000000	99.586005 
2856.000000	99.591285 
2855.000000	99.594944 
2854.000000	99.595750 
2853.000000	99.594903 
2852.000000	99.593769 
2851.000000	99.592513 
2850.000000	99.591074 
2849.000000	99.590440 
2848.000000	99.591937 
2847.000000	99.595313 
2846.000000	99.598262 
2845.000000	99.598190 
2844.000000	99.594452 
2843.000000	99.588991 
2842.000000	99.585062 
2841.000000	99.585006 
2840.000000	99.588526 
2839.000000	99.592831 
2838.000000	99.594729 
2837.000000	99.592863 
2836.000000	99.588185 
2835.000000	99.582911 
2834.000000	99.579476 
2833.000000	99.579704 
2832.000000	99.583543 
2831.000000	99.588481 
2830.000000	99.591353 
2829.000000	99.591349 
2828.000000	99.590535 
2827.000000	99.590935 
2826.000000	99.591994 
2825.000000	99.591620 
2824.000000	99.589089 
2823.000000	99.586058 
2822.000000	99.584970 
2821.000000	99.587092 
2820.000000	99.591758 
2819.000000	99.596835 
2818.000000	99.600098 
2817.000000	99.600704 
2816.000000	99.599370 
2815.000000	99.597072 
2814.000000	99.594173 
2813.000000	99.591039 
2812.000000	99.588524 
2811.000000	99.586947 
2810.000000	99.585332 
2809.000000	99.582804 
2808.000000	99.580308 
2807.000000	99.579721 
2806.000000	99.581423 
2805.000000	99.583935 
2804.000000	99.586046 
2803.000000	99.588092 
2802.000000	99.590820 
2801.000000	99.593929 
2800.000000	99.596240 
2799.000000	99.596747 
2798.000000	99.595256 
2797.000000	99.592603 
2796.000000	99.590415 
2795.000000	99.589898 
2794.000000	99.590525 
2793.000000	99.590422 
2792.000000	99.588347 
2791.000000	99.584949 
2790.000000	99.582095 
2789.000000	99.581470 
2788.000000	99.583682 
2787.000000	99.587844 
2786.000000	99.591877 
2785.000000	99.594038 
2784.000000	99.594461 
2783.000000	99.594567 
2782.000000	99.594961 
2781.000000	99.594875 
2780.000000	99.593809 
2779.000000	99.592462 
2778.000000	99.591473 
2777.000000	99.590387 
2776.000000	99.588688 
2775.000000	99.586864 
2774.000000	99.585474 
2773.000000	99.583963 
2772.000000	99.581595 
2771.000000	99.579117 
2770.000000	99.578395 
2769.000000	99.580569 
2768.000000	99.585318 
2767.000000	99.591464 
2766.000000	99.597256 
2765.000000	99.600505 
2764.000000	99.599919 
2763.000000	99.596687 
2762.000000	99.593825 
2761.000000	99.593597 
2760.000000	99.595999 
2759.000000	99.599557 
2758.000000	99.602673 
2757.000000	99.604186 
2756.000000	99.603787 
2755.000000	99.602403 
2754.000000	99.601409 
2753.000000	99.600946 
2752.000000	99.599683 
2751.000000	99.596722 
2750.000000	99.593049 
2749.000000	99.590396 
2748.000000	99.589209 
2747.000000	99.588562 
2746.000000	99.587782 
2745.000000	99.587264 
2744.000000	99.587615 
2743.000000	99.588793 
2742.000000	99.590386 
2741.000000	99.592196 
2740.000000	99.594112 
2739.000000	99.595705 
2738.000000	99.596470 
2737.000000	99.596446 
2736.000000	99.596237 
2735.000000	99.596278 
2734.000000	99.596291 
2733.000000	99.595602 
2732.000000	99.593877 
2731.000000	99.591442 
2730.000000	99.589066 
2729.000000	99.587679 
2728.000000	99.588116 
2727.000000	99.590634 
2726.000000	99.594398 
2725.000000	99.597708 
2724.000000	99.599177 
2723.000000	99.598771 
2722.000000	99.597608 
2721.000000	99.596805 
2720.000000	99.596641 
2719.000000	99.596689 
2718.000000	99.596440 
2717.000000	99.595778 
2716.000000	99.595154 
2715.000000	99.595474 
2714.000000	99.597505 
2713.000000	99.600986 
2712.000000	99.604305 
2711.000000	99.605488 
2710.000000	99.603972 
2709.000000	99.601438 
2708.000000	99.600496 
2707.000000	99.602152 
2706.000000	99.604584 
2705.000000	99.604763 
2704.000000	99.601376 
2703.000000	99.595975 
2702.000000	99.591292 
2701.000000	99.588865 
2700.000000	99.588536 
2699.000000	99.589639 
2698.000000	99.591763 
2697.000000	99.594296 
2696.000000	99.596159 
2695.000000	99.596746 
2694.000000	99.596798 
2693.000000	99.597502 
2692.000000	99.598574 
2691.000000	99.597995 
2690.000000	99.594330 
2689.000000	99.589060 
2688.000000	99.585785 
2687.000000	99.586728 
2686.000000	99.590408 
2685.000000	99.593204 
2684.000000	99.593031 
2683.000000	99.591026 
2682.000000	99.589734 
2681.000000	99.590339 
2680.000000	99.592007 
2679.000000	99.593356 
2678.000000	99.593890 
2677.000000	99.594078 
2676.000000	99.594668 
2675.000000	99.596049 
2674.000000	99.597815 
2673.000000	99.598760 
2672.000000	99.597780 
2671.000000	99.595101 
2670.000000	99.592219 
2669.000000	99.590214 
2668.000000	99.588577 
2667.000000	99.586386 
2666.000000	99.584314 
2665.000000	99.584447 
2664.000000	99.587882 
2663.000000	99.593318 
2662.000000	99.598432 
2661.000000	99.601908 
2660.000000	99.603531 
2659.000000	99.603123 
2658.000000	99.600597 
2657.000000	99.596968 
2656.000000	99.594166 
2655.000000	99.593340 
2654.000000	99.593728 
2653.000000	99.593414 
2652.000000	99.591039 
2651.000000	99.586975 
2650.000000	99.583274 
2649.000000	99.582094 
2648.000000	99.583452 
2647.000000	99.584812 
2646.000000	99.583853 
2645.000000	99.581450 
2644.000000	99.580587 
2643.000000	99.582290 
2642.000000	99.584287 
2641.000000	99.584390 
2640.000000	99.583691 
2639.000000	99.585159 
2638.000000	99.590064 
2637.000000	99.596830 
2636.000000	99.602420 
2635.000000	99.603809 
2634.000000	99.599476 
2633.000000	99.591361 
2632.000000	99.584605 
2631.000000	99.583202 
2630.000000	99.585989 
2629.000000	99.588523 
2628.000000	99.588595 
2627.000000	99.587932 
2626.000000	99.588549 
2625.000000	99.589866 
2624.000000	99.590282 
2623.000000	99.589648 
2622.000000	99.588978 
2621.000000	99.588998 
2620.000000	99.589958 
2619.000000	99.591698 
2618.000000	99.593028 
2617.000000	99.592279 
2616.000000	99.589547 
2615.000000	99.587325 
2614.000000	99.587816 
2613.000000	99.590453 
2612.000000	99.593021 
2611.000000	99.594248 
2610.000000	99.594233 
2609.000000	99.593417 
2608.000000	99.592676 
2607.000000	99.593789 
2606.000000	99.598089 
2605.000000	99.604484 
2604.000000	99.609797 
2603.000000	99.611299 
2602.000000	99.608586 
2601.000000	99.603554 
2600.000000	99.599259 
2599.000000	99.598161 
2598.000000	99.600401 
2597.000000	99.603740 
2596.000000	99.605558 
2595.000000	99.604508 
2594.000000	99.600296 
2593.000000	99.593467 
2592.000000	99.586485 
2591.000000	99.583508 
2590.000000	99.586967 
2589.000000	99.594714 
2588.000000	99.602050 
2587.000000	99.606050 
2586.000000	99.606344 
2585.000000	99.602614 
2584.000000	99.594318 
2583.000000	99.583533 
2582.000000	99.575460 
2581.000000	99.574141 
2580.000000	99.578462 
2579.000000	99.583518 
2578.000000	99.585299 
2577.000000	99.583440 
2576.000000	99.580374 
2575.000000	99.578999 
2574.000000	99.580734 
2573.000000	99.584708 
2572.000000	99.588548 
2571.000000	99.590256 
2570.000000	99.589440 
2569.000000	99.587074 
2568.000000	99.584741 
2567.000000	99.584063 
2566.000000	99.585844 
2565.000000	99.589189 
2564.000000	99.592071 
2563.000000	99.593175 
2562.000000	99.592759 
2561.000000	99.591739 
2560.000000	99.590942 
2559.000000	99.591414 
2558.000000	99.593888 
2557.000000	99.596904 
2556.000000	99.596974 
2555.000000	99.592624 
2554.000000	99.587643 
2553.000000	99.588085 
2552.000000	99.595517 
2551.000000	99.604877 
2550.000000	99.609673 
2549.000000	99.607913 
2548.000000	99.602108 
2547.000000	99.595151 
2546.000000	99.588257 
2545.000000	99.582392 
2544.000000	99.579346 
2543.000000	99.580302 
2542.000000	99.584309 
2541.000000	99.589010 
2540.000000	99.592396 
2539.000000	99.593330 
2538.000000	99.591103 
2537.000000	99.585655 
2536.000000	99.578361 
2535.000000	99.571815 
2534.000000	99.568262 
2533.000000	99.568235 
2532.000000	99.570681 
2531.000000	99.574199 
2530.000000	99.578086 
2529.000000	99.582402 
2528.000000	99.587294 
2527.000000	99.592469 
2526.000000	99.597528 
2525.000000	99.602671 
2524.000000	99.608565 
2523.000000	99.615093 
2522.000000	99.620508 
2521.000000	99.622468 
2520.000000	99.620158 
2519.000000	99.615180 
2518.000000	99.610206 
2517.000000	99.606799 
2516.000000	99.604496 
2515.000000	99.601987 
2514.000000	99.599064 
2513.000000	99.596998 
2512.000000	99.596515 
2511.000000	99.595880 
2510.000000	99.592414 
2509.000000	99.586572 
2508.000000	99.583093 
2507.000000	99.586292 
2506.000000	99.594471 
2505.000000	99.600695 
2504.000000	99.599679 
2503.000000	99.592733 
2502.000000	99.585398 
2501.000000	99.581695 
2500.000000	99.581934 
2499.000000	99.585043 
2498.000000	99.590796 
2497.000000	99.599010 
2496.000000	99.607810 
2495.000000	99.613839 
2494.000000	99.614190 
2493.000000	99.607910 
2492.000000	99.596296 
2491.000000	99.582691 
2490.000000	99.571724 
2489.000000	99.566965 
2488.000000	99.567772 
2487.000000	99.569099 
2486.000000	99.566439 
2485.000000	99.561629 
2484.000000	99.562067 
2483.000000	99.572563 
2482.000000	99.588785 
2481.000000	99.600517 
2480.000000	99.601439 
2479.000000	99.594300 
2478.000000	99.586594 
2477.000000	99.583179 
2476.000000	99.583799 
2475.000000	99.585864 
2474.000000	99.587543 
2473.000000	99.588634 
2472.000000	99.590254 
2471.000000	99.594136 
2470.000000	99.601067 
2469.000000	99.609190 
2468.000000	99.614319 
2467.000000	99.612872 
2466.000000	99.605115 
2465.000000	99.595586 
2464.000000	99.589858 
2463.000000	99.590157 
2462.000000	99.593793 
2461.000000	99.595986 
2460.000000	99.594359 
2459.000000	99.590640 
2458.000000	99.588281 
2457.000000	99.588946 
2456.000000	99.591324 
2455.000000	99.592701 
2454.000000	99.591298 
2453.000000	99.587504 
2452.000000	99.583365 
2451.000000	99.580957 
2450.000000	99.581009 
2449.000000	99.582825 
2448.000000	99.585158 
2447.000000	99.587068 
2446.000000	99.588505 
2445.000000	99.590603 
2444.000000	99.594951 
2443.000000	99.601696 
2442.000000	99.608560 
2441.000000	99.612590 
2440.000000	99.612870 
2439.000000	99.610693 
2438.000000	99.607370 
2437.000000	99.603142 
2436.000000	99.598201 
2435.000000	99.593144 
2434.000000	99.587851 
2433.000000	99.581462 
2432.000000	99.574425 
2431.000000	99.569191 
2430.000000	99.567572 
2429.000000	99.568567 
2428.000000	99.570508 
2427.000000	99.574348 
2426.000000	99.582295 
2425.000000	99.592864 
2424.000000	99.599708 
2423.000000	99.597184 
2422.000000	99.586389 
2421.000000	99.574539 
2420.000000	99.568530 
2419.000000	99.569876 
2418.000000	99.575440 
2417.000000	99.581545 
2416.000000	99.586482 
2415.000000	99.589817 
2414.000000	99.590987 
2413.000000	99.589607 
2412.000000	99.586672 
2411.000000	99.584297 
2410.000000	99.583895 
2409.000000	99.585132 
2408.000000	99.586930 
2407.000000	99.588897 
2406.000000	99.591232 
2405.000000	99.593592 
2404.000000	99.594796 
2403.000000	99.593830 
2402.000000	99.590854 
2401.000000	99.587100 
2400.000000	99.583864 
2399.000000	99.581602 
2398.000000	99.579988 
2397.000000	99.578844 
2396.000000	99.578805 
2395.000000	99.580694 
2394.000000	99.584243 
2393.000000	99.587897 
2392.000000	99.590234 
2391.000000	99.591469 
2390.000000	99.593283 
2389.000000	99.597136 
2388.000000	99.602683 
2387.000000	99.607817 
2386.000000	99.610445 
2385.000000	99.610459 
2384.000000	99.609942 
2383.000000	99.611243 
2382.000000	99.614965 
2381.000000	99.619799 
2380.000000	99.623593 
2379.000000	99.624035 
2378.000000	99.619316 
2377.000000	99.610133 
2376.000000	99.601247 
2375.000000	99.598681 
2374.000000	99.603773 
2373.000000	99.611407 
2372.000000	99.616211 
2371.000000	99.619181 
2370.000000	99.625119 
2369.000000	99.633973 
2368.000000	99.638377 
2367.000000	99.631478 
2366.000000	99.615358 
2365.000000	99.600420 
2364.000000	99.596885 
2363.000000	99.606185 
2362.000000	99.620256 
2361.000000	99.629062 
2360.000000	99.628825 
2359.000000	99.624083 
2358.000000	99.621347 
2357.000000	99.622534 
2356.000000	99.625480 
2355.000000	99.627004 
2354.000000	99.624493 
2353.000000	99.617256 
2352.000000	99.609098 
2351.000000	99.606593 
2350.000000	99.612486 
2349.000000	99.623869 
2348.000000	99.634840 
2347.000000	99.639947 
2346.000000	99.636627 
2345.000000	99.626714 
2344.000000	99.616395 
2343.000000	99.611244 
2342.000000	99.612923 
2341.000000	99.618843 
2340.000000	99.624273 
2339.000000	99.626489 
2338.000000	99.626564 
2337.000000	99.627849 
2336.000000	99.632020 
2335.000000	99.636989 
2334.000000	99.638986 
2333.000000	99.636593 
2332.000000	99.631851 
2331.000000	99.627103 
2330.000000	99.621916 
2329.000000	99.615963 
2328.000000	99.611399 
2327.000000	99.610803 
2326.000000	99.613156 
2325.000000	99.613982 
2324.000000	99.611265 
2323.000000	99.608100 
2322.000000	99.610101 
2321.000000	99.618961 
2320.000000	99.630503 
2319.000000	99.638565 
2318.000000	99.639585 
2317.000000	99.634302 
2316.000000	99.625934 
2315.000000	99.618234 
2314.000000	99.613618 
2313.000000	99.612420 
2312.000000	99.613294 
2311.000000	99.615151 
2310.000000	99.618283 
2309.000000	99.623001 
2308.000000	99.627334 
2307.000000	99.627359 
2306.000000	99.621079 
2305.000000	99.611020 
2304.000000	99.602077 
2303.000000	99.596830 
2302.000000	99.594381 
2301.000000	99.593035 
2300.000000	99.592153 
2299.000000	99.591217 
2298.000000	99.589570 
2297.000000	99.588522 
2296.000000	99.591504 
2295.000000	99.599630 
2294.000000	99.608206 
2293.000000	99.610311 
2292.000000	99.604140 
2291.000000	99.594557 
2290.000000	99.587457 
2289.000000	99.584687 
2288.000000	99.584907 
2287.000000	99.586638 
2286.000000	99.588826 
2285.000000	99.590013 
2284.000000	99.588973 
2283.000000	99.585540 
2282.000000	99.579731 
2281.000000	99.571134 
2280.000000	99.560799 
2279.000000	99.552941 
2278.000000	99.552583 
2277.000000	99.560701 
2276.000000	99.572452 
2275.000000	99.580654 
2274.000000	99.580759 
2273.000000	99.573019 
2272.000000	99.561011 
2271.000000	99.548778 
2270.000000	99.539417 
2269.000000	99.535583 
2268.000000	99.539718 
2267.000000	99.552179 
2266.000000	99.568976 
2265.000000	99.582837 
2264.000000	99.588080 
2263.000000	99.585159 
2262.000000	99.580741 
2261.000000	99.582844 
2260.000000	99.594078 
2259.000000	99.608101 
2258.000000	99.613689 
2257.000000	99.604498 
2256.000000	99.585060 
2255.000000	99.566064 
2254.000000	99.554662 
2253.000000	99.551220 
2252.000000	99.553948 
2251.000000	99.562376 
2250.000000	99.575154 
2249.000000	99.588013 
2248.000000	99.596640 
2247.000000	99.599868 
2246.000000	99.598283 
2245.000000	99.591682 
2244.000000	99.580280 
2243.000000	99.567412 
2242.000000	99.558385 
2241.000000	99.556012 
2240.000000	99.558114 
2239.000000	99.559553 
2238.000000	99.556248 
2237.000000	99.547575 
2236.000000	99.535654 
2235.000000	99.522851 
2234.000000	99.510782 
2233.000000	99.501987 
2232.000000	99.500597 
2231.000000	99.508986 
2230.000000	99.524350 
2229.000000	99.541101 
2228.000000	99.556556 
2227.000000	99.571194 
2226.000000	99.582927 
2225.000000	99.585452 
2224.000000	99.575239 
2223.000000	99.557842 
2222.000000	99.544316 
2221.000000	99.541928 
2220.000000	99.549657 
2219.000000	99.561462 
2218.000000	99.572039 
2217.000000	99.580156 
2216.000000	99.588207 
2215.000000	99.598394 
2214.000000	99.608586 
2213.000000	99.612644 
2212.000000	99.605970 
2211.000000	99.590724 
2210.000000	99.575501 
2209.000000	99.569791 
2208.000000	99.576891 
2207.000000	99.590124 
2206.000000	99.596634 
2205.000000	99.587616 
2204.000000	99.565793 
2203.000000	99.542049 
2202.000000	99.526084 
2201.000000	99.521790 
2200.000000	99.528301 
2199.000000	99.540257 
2198.000000	99.547717 
2197.000000	99.542453 
2196.000000	99.527380 
2195.000000	99.515846 
2194.000000	99.518757 
2193.000000	99.534263 
2192.000000	99.550753 
2191.000000	99.556995 
2190.000000	99.548840 
2189.000000	99.531075 
2188.000000	99.515451 
2187.000000	99.513112 
2186.000000	99.525844 
2185.000000	99.546028 
2184.000000	99.565367 
2183.000000	99.580039 
2182.000000	99.587377 
2181.000000	99.584739 
2180.000000	99.575180 
2179.000000	99.567993 
2178.000000	99.568824 
2177.000000	99.572900 
2176.000000	99.571517 
2175.000000	99.561769 
2174.000000	99.546822 
2173.000000	99.531002 
2172.000000	99.518759 
2171.000000	99.514595 
2170.000000	99.519407 
2169.000000	99.529054 
2168.000000	99.539550 
2167.000000	99.550451 
2166.000000	99.560197 
2165.000000	99.563176 
2164.000000	99.556895 
2163.000000	99.548148 
2162.000000	99.546314 
2161.000000	99.553189 
2160.000000	99.563686 
2159.000000	99.572753 
2158.000000	99.576443 
2157.000000	99.571261 
2156.000000	99.559240 
2155.000000	99.549090 
2154.000000	99.546602 
2153.000000	99.547767 
2152.000000	99.546285 
2151.000000	99.544356 
2150.000000	99.550426 
2149.000000	99.568239 
2148.000000	99.592333 
2147.000000	99.612197 
2146.000000	99.617703 
2145.000000	99.605081 
2144.000000	99.582737 
2143.000000	99.567105 
2142.000000	99.567140 
2141.000000	99.575463 
2140.000000	99.579317 
2139.000000	99.576368 
2138.000000	99.573211 
2137.000000	99.572180 
2136.000000	99.568770 
2135.000000	99.561899 
2134.000000	99.558198 
2133.000000	99.563261 
2132.000000	99.573930 
2131.000000	99.581671 
2130.000000	99.580307 
2129.000000	99.569863 
2128.000000	99.556021 
2127.000000	99.545929 
2126.000000	99.541930 
2125.000000	99.539823 
2124.000000	99.535899 
2123.000000	99.534057 
2122.000000	99.541338 
2121.000000	99.556831 
2120.000000	99.570363 
2119.000000	99.573584 
2118.000000	99.568084 
2117.000000	99.561069 
2116.000000	99.557275 
2115.000000	99.557654 
2114.000000	99.562363 
2113.000000	99.570801 
2112.000000	99.579547 
2111.000000	99.583312 
2110.000000	99.578805 
2109.000000	99.567566 
2108.000000	99.555508 
2107.000000	99.548966 
2106.000000	99.549083 
2105.000000	99.549757 
2104.000000	99.543428 
2103.000000	99.529807 
2102.000000	99.517004 
2101.000000	99.513231 
2100.000000	99.519066 
2099.000000	99.528613 
2098.000000	99.536255 
2097.000000	99.540753 
2096.000000	99.543858 
2095.000000	99.546062 
2094.000000	99.544007 
2093.000000	99.533452 
2092.000000	99.516134 
2091.000000	99.501824 
2090.000000	99.500196 
2089.000000	99.510340 
2088.000000	99.521400 
2087.000000	99.524648 
2086.000000	99.521847 
2085.000000	99.520526 
2084.000000	99.524205 
2083.000000	99.529902 
2082.000000	99.533483 
2081.000000	99.534419 
2080.000000	99.535263 
2079.000000	99.538219 
2078.000000	99.543101 
2077.000000	99.548437 
2076.000000	99.554115 
2075.000000	99.561614 
2074.000000	99.570714 
2073.000000	99.577551 
2072.000000	99.578031 
2071.000000	99.572417 
2070.000000	99.564442 
2069.000000	99.556799 
2068.000000	99.549993 
2067.000000	99.544716 
2066.000000	99.541937 
2065.000000	99.540460 
2064.000000	99.537979 
2063.000000	99.535418 
2062.000000	99.536928 
2061.000000	99.544494 
2060.000000	99.555425 
2059.000000	99.566126 
2058.000000	99.575140 
2057.000000	99.580902 
2056.000000	99.579819 
2055.000000	99.569561 
2054.000000	99.553267 
2053.000000	99.538782 
2052.000000	99.533700 
2051.000000	99.540656 
2050.000000	99.554613 
2049.000000	99.563815 
2048.000000	99.557942 
2047.000000	99.538338 
2046.000000	99.517444 
2045.000000	99.506758 
2044.000000	99.507816 
2043.000000	99.515184 
2042.000000	99.523566 
2041.000000	99.529515 
2040.000000	99.530910 
2039.000000	99.529255 
2038.000000	99.530135 
2037.000000	99.537155 
2036.000000	99.546147 
2035.000000	99.548819 
2034.000000	99.541803 
2033.000000	99.529412 
2032.000000	99.518010 
2031.000000	99.510672 
2030.000000	99.507642 
2029.000000	99.508602 
2028.000000	99.512437 
2027.000000	99.516536 
2026.000000	99.518692 
2025.000000	99.520123 
2024.000000	99.524252 
2023.000000	99.530101 
2022.000000	99.528434 
2021.000000	99.509783 
2020.000000	99.478933 
2019.000000	99.456477 
2018.000000	99.460419 
2017.000000	99.486422 
2016.000000	99.511502 
2015.000000	99.518186 
2014.000000	99.508636 
2013.000000	99.495851 
2012.000000	99.489357 
2011.000000	99.491805 
2010.000000	99.503201 
2009.000000	99.522033 
2008.000000	99.543412 
2007.000000	99.560442 
2006.000000	99.568251 
2005.000000	99.566434 
2004.000000	99.558639 
2003.000000	99.550228 
2002.000000	99.544975 
2001.000000	99.542824 
2000.000000	99.541172 
1999.000000	99.537965 
1998.000000	99.533165 
1997.000000	99.528617 
1996.000000	99.527833 
1995.000000	99.534441 
1994.000000	99.548016 
1993.000000	99.561178 
1992.000000	99.564212 
1991.000000	99.554633 
1990.000000	99.540037 
1989.000000	99.531271 
1988.000000	99.534518 
1987.000000	99.547731 
1986.000000	99.561235 
1985.000000	99.563784 
1984.000000	99.552974 
1983.000000	99.539586 
1982.000000	99.536955 
1981.000000	99.545170 
1980.000000	99.550570 
1979.000000	99.542250 
1978.000000	99.524240 
1977.000000	99.508166 
1976.000000	99.498695 
1975.000000	99.492907 
1974.000000	99.490727 
1973.000000	99.497889 
1972.000000	99.518004 
1971.000000	99.545851 
1970.000000	99.569044 
1969.000000	99.575535 
1968.000000	99.562465 
1967.000000	99.540272 
1966.000000	99.525088 
1965.000000	99.524170 
1964.000000	99.530914 
1963.000000	99.534727 
1962.000000	99.531822 
1961.000000	99.525388 
1960.000000	99.519678 
1959.000000	99.517620 
1958.000000	99.521422 
1957.000000	99.530263 
1956.000000	99.538428 
1955.000000	99.540191 
1954.000000	99.536391 
1953.000000	99.532568 
1952.000000	99.530455 
1951.000000	99.525760 
1950.000000	99.515609 
1949.000000	99.504619 
1948.000000	99.501005 
1947.000000	99.507209 
1946.000000	99.515745 
1945.000000	99.514732 
1944.000000	99.498617 
1943.000000	99.475457 
1942.000000	99.462273 
1941.000000	99.468789 
1940.000000	99.487454 
1939.000000	99.502965 
1938.000000	99.508522 
1937.000000	99.510134 
1936.000000	99.515794 
1935.000000	99.524088 
1934.000000	99.527674 
1933.000000	99.525869 
1932.000000	99.527580 
1931.000000	99.540241 
1930.000000	99.559383 
1929.000000	99.572695 
1928.000000	99.573440 
1927.000000	99.566040 
1926.000000	99.559192 
1925.000000	99.556743 
1924.000000	99.556714 
1923.000000	99.556839 
1922.000000	99.557613 
1921.000000	99.559719 
1920.000000	99.560708 
1919.000000	99.555812 
1918.000000	99.542656 
1917.000000	99.525497 
1916.000000	99.512359 
1915.000000	99.507496 
1914.000000	99.509410 
1913.000000	99.514986 
1912.000000	99.522813 
1911.000000	99.532058 
1910.000000	99.539130 
1909.000000	99.539606 
1908.000000	99.534723 
1907.000000	99.531559 
1906.000000	99.535508 
1905.000000	99.544317 
1904.000000	99.551018 
1903.000000	99.551122 
1902.000000	99.544810 
1901.000000	99.535099 
1900.000000	99.526197 
1899.000000	99.521708 
1898.000000	99.522637 
1897.000000	99.526920 
1896.000000	99.531659 
1895.000000	99.535361 
1894.000000	99.537319 
1893.000000	99.537268 
1892.000000	99.536682 
1891.000000	99.537704 
1890.000000	99.538967 
1889.000000	99.535454 
1888.000000	99.525778 
1887.000000	99.515674 
1886.000000	99.511525 
1885.000000	99.513874 
1884.000000	99.519129 
1883.000000	99.525417 
1882.000000	99.532876 
1881.000000	99.539782 
1880.000000	99.543450 
1879.000000	99.544685 
1878.000000	99.547941 
1877.000000	99.555888 
1876.000000	99.565724 
1875.000000	99.572076 
1874.000000	99.571625 
1873.000000	99.564652 
1872.000000	99.554390 
1871.000000	99.545095 
1870.000000	99.539038 
1869.000000	99.534585 
1868.000000	99.529811 
1867.000000	99.526658 
1866.000000	99.526955 
1865.000000	99.527468 
1864.000000	99.522698 
1863.000000	99.511807 
1862.000000	99.500932 
1861.000000	99.497752 
1860.000000	99.505034 
1859.000000	99.519731 
1858.000000	99.535678 
1857.000000	99.546447 
1856.000000	99.548992 
1855.000000	99.546222 
1854.000000	99.543894 
1853.000000	99.544186 
1852.000000	99.544499 
1851.000000	99.542158 
1850.000000	99.538951 
1849.000000	99.539538 
1848.000000	99.545576 
1847.000000	99.553466 
1846.000000	99.557860 
1845.000000	99.556652 
1844.000000	99.553011 
1843.000000	99.552207 
1842.000000	99.555130 
1841.000000	99.557691 
1840.000000	99.555916 
1839.000000	99.549195 
1838.000000	99.540846 
1837.000000	99.535586 
1836.000000	99.535891 
1835.000000	99.540541 
1834.000000	99.545847 
1833.000000	99.548588 
1832.000000	99.547758 
1831.000000	99.543893 
1830.000000	99.538801 
1829.000000	99.535410 
1828.000000	99.535163 
1827.000000	99.536675 
1826.000000	99.538003 
1825.000000	99.538366 
1824.000000	99.537913 
1823.000000	99.536695 
1822.000000	99.533917 
1821.000000	99.529450 
1820.000000	99.525654 
1819.000000	99.526210 
1818.000000	99.532389 
1817.000000	99.540302 
1816.000000	99.544761 
1815.000000	99.545382 
1814.000000	99.545679 
1813.000000	99.548041 
1812.000000	99.551567 
1811.000000	99.555221 
1810.000000	99.559614 
1809.000000	99.563516 
1808.000000	99.563511 
1807.000000	99.558245 
1806.000000	99.550013 
1805.000000	99.542207 
1804.000000	99.537132 
1803.000000	99.535548 
1802.000000	99.535772 
1801.000000	99.534435 
1800.000000	99.530363 
1799.000000	99.527509 
1798.000000	99.530564 
1797.000000	99.538580 
1796.000000	99.546575 
1795.000000	99.551201 
1794.000000	99.552257 
1793.000000	99.549852 
1792.000000	99.543407 
1791.000000	99.535527 
1790.000000	99.530509 
1789.000000	99.528764 
1788.000000	99.528503 
1787.000000	99.529991 
1786.000000	99.535323 
1785.000000	99.543688 
1784.000000	99.550325 
1783.000000	99.551790 
1782.000000	99.548601 
1781.000000	99.543616 
1780.000000	99.538354 
1779.000000	99.532986 
1778.000000	99.529100 
1777.000000	99.529291 
1776.000000	99.534193 
1775.000000	99.540373 
1774.000000	99.543528 
1773.000000	99.543550 
1772.000000	99.543837 
1771.000000	99.545730 
1770.000000	99.546774 
1769.000000	99.544709 
1768.000000	99.540690 
1767.000000	99.537833 
1766.000000	99.537688 
1765.000000	99.539176 
1764.000000	99.540216 
1763.000000	99.539564 
1762.000000	99.537386 
1761.000000	99.535185 
1760.000000	99.533781 
1759.000000	99.533393 
1758.000000	99.535276 
1757.000000	99.540969 
1756.000000	99.549104 
1755.000000	99.554761 
1754.000000	99.554943 
1753.000000	99.551791 
1752.000000	99.549433 
1751.000000	99.547781 
1750.000000	99.543503 
1749.000000	99.536815 
1748.000000	99.532437 
1747.000000	99.533390 
1746.000000	99.537444 
1745.000000	99.541040 
1744.000000	99.542516 
1743.000000	99.542491 
1742.000000	99.542787 
1741.000000	99.544515 
1740.000000	99.547062 
1739.000000	99.549467 
1738.000000	99.551301 
1737.000000	99.551985 
1736.000000	99.551402 
1735.000000	99.551973 
1734.000000	99.553965 
1733.000000	99.554911 
1732.000000	99.553933 
1731.000000	99.550499 
1730.000000	99.545259 
1729.000000	99.540541 
1728.000000	99.538214 
1727.000000	99.538318 
1726.000000	99.540052 
1725.000000	99.542986 
1724.000000	99.545507 
1723.000000	99.546034 
1722.000000	99.545063 
1721.000000	99.544149 
1720.000000	99.544591 
1719.000000	99.547564 
1718.000000	99.552496 
1717.000000	99.554638 
1716.000000	99.551547 
1715.000000	99.547739 
1714.000000	99.547069 
1713.000000	99.547766 
1712.000000	99.546638 
1711.000000	99.544083 
1710.000000	99.542817 
1709.000000	99.543748 
1708.000000	99.545434 
1707.000000	99.546595 
1706.000000	99.547469 
1705.000000	99.547183 
1704.000000	99.544789 
1703.000000	99.541547 
1702.000000	99.540367 
1701.000000	99.541761 
1700.000000	99.538228 
1699.000000	99.529668 
1698.000000	99.525258 
1697.000000	99.526444 
1696.000000	99.528772 
1695.000000	99.528029 
1694.000000	99.524470 
1693.000000	99.520574 
1692.000000	99.517051 
1691.000000	99.515072 
1690.000000	99.515159 
1689.000000	99.516178 
1688.000000	99.517160 
1687.000000	99.517754 
1686.000000	99.519614 
1685.000000	99.523648 
1684.000000	99.524821 
1683.000000	99.521760 
1682.000000	99.517302 
1681.000000	99.512503 
1680.000000	99.509856 
1679.000000	99.510088 
1678.000000	99.510515 
1677.000000	99.509408 
1676.000000	99.508574 
1675.000000	99.509888 
1674.000000	99.512582 
1673.000000	99.516323 
1672.000000	99.520963 
1671.000000	99.525291 
1670.000000	99.525799 
1669.000000	99.520743 
1668.000000	99.514462 
1667.000000	99.509936 
1666.000000	99.505645 
1665.000000	99.500440 
1664.000000	99.496314 
1663.000000	99.496533 
1662.000000	99.499919 
1661.000000	99.502533 
1660.000000	99.504218 
1659.000000	99.507534 
1658.000000	99.513117 
1657.000000	99.518079 
1656.000000	99.519117 
1655.000000	99.514627 
1654.000000	99.507745 
1653.000000	99.501813 
1652.000000	99.500455 
1651.000000	99.504115 
1650.000000	99.507731 
1649.000000	99.508546 
1648.000000	99.506923 
1647.000000	99.503078 
1646.000000	99.498550 
1645.000000	99.496476 
1644.000000	99.497875 
1643.000000	99.501645 
1642.000000	99.505475 
1641.000000	99.507856 
1640.000000	99.509107 
1639.000000	99.510160 
1638.000000	99.511802 
1637.000000	99.515260 
1636.000000	99.521047 
1635.000000	99.526131 
1634.000000	99.527069 
1633.000000	99.523294 
1632.000000	99.516253 
1631.000000	99.508841 
1630.000000	99.503623 
1629.000000	99.501548 
1628.000000	99.502442 
1627.000000	99.505182 
1626.000000	99.507327 
1625.000000	99.507131 
1624.000000	99.505687 
1623.000000	99.505809 
1622.000000	99.508455 
1621.000000	99.512081 
1620.000000	99.515151 
1619.000000	99.516933 
1618.000000	99.517531 
1617.000000	99.517171 
1616.000000	99.517778 
1615.000000	99.521243 
1614.000000	99.525850 
1613.000000	99.529614 
1612.000000	99.533481 
1611.000000	99.538328 
1610.000000	99.541406 
1609.000000	99.539635 
1608.000000	99.534526 
1607.000000	99.530158 
1606.000000	99.527888 
1605.000000	99.527068 
1604.000000	99.527949 
1603.000000	99.530810 
1602.000000	99.534741 
1601.000000	99.538466 
1600.000000	99.541423 
1599.000000	99.543086 
1598.000000	99.542851 
1597.000000	99.541308 
1596.000000	99.540020 
1595.000000	99.539544 
1594.000000	99.538743 
1593.000000	99.537195 
1592.000000	99.536718 
1591.000000	99.538867 
1590.000000	99.542167 
1589.000000	99.543976 
1588.000000	99.544127 
1587.000000	99.544655 
1586.000000	99.546478 
1585.000000	99.548499 
1584.000000	99.550217 
1583.000000	99.551363 
1582.000000	99.550552 
1581.000000	99.547076 
1580.000000	99.542316 
1579.000000	99.537624 
1578.000000	99.533329 
1577.000000	99.530277 
1576.000000	99.529297 
1575.000000	99.530148 
1574.000000	99.531107 
1573.000000	99.531087 
1572.000000	99.531090 
1571.000000	99.533209 
1570.000000	99.536693 
1569.000000	99.538684 
1568.000000	99.539225 
1567.000000	99.538855 
1566.000000	99.537320 
1565.000000	99.535129 
1564.000000	99.533832 
1563.000000	99.532843 
1562.000000	99.531115 
1561.000000	99.528804 
1560.000000	99.530702 
1559.000000	99.532472 
1558.000000	99.532030 
1557.000000	99.534303 
1556.000000	99.537349 
1555.000000	99.538706 
1554.000000	99.537269 
1553.000000	99.533898 
1552.000000	99.530145 
1551.000000	99.526341 
1550.000000	99.523528 
1549.000000	99.522941 
1548.000000	99.524130 
1547.000000	99.524468 
1546.000000	99.521110 
1545.000000	99.514031 
1544.000000	99.507419 
1543.000000	99.506452 
1542.000000	99.512517 
1541.000000	99.521776 
1540.000000	99.527882 
1539.000000	99.530064 
1538.000000	99.531180 
1537.000000	99.532067 
1536.000000	99.532710 
1535.000000	99.534003 
1534.000000	99.534999 
1533.000000	99.532955 
1532.000000	99.528598 
1531.000000	99.525640 
1530.000000	99.525763 
1529.000000	99.526981 
1528.000000	99.526417 
1527.000000	99.524550 
1526.000000	99.524444 
1525.000000	99.527188 
1524.000000	99.531380 
1523.000000	99.537090 
1522.000000	99.545436 
1521.000000	99.552425 
1520.000000	99.552063 
1519.000000	99.543896 
1518.000000	99.532092 
1517.000000	99.522457 
1516.000000	99.518587 
1515.000000	99.518859 
1514.000000	99.519864 
1513.000000	99.520742 
1512.000000	99.521577 
1511.000000	99.521493 
1510.000000	99.520514 
1509.000000	99.520358 
1508.000000	99.525008 
1507.000000	99.536047 
1506.000000	99.548036 
1505.000000	99.552625 
1504.000000	99.550486 
1503.000000	99.546979 
1502.000000	99.544650 
1501.000000	99.543366 
1500.000000	99.540892 
1499.000000	99.535628 
1498.000000	99.529466 
1497.000000	99.525694 
1496.000000	99.524730 
1495.000000	99.526980 
1494.000000	99.533760 
1493.000000	99.544288 
1492.000000	99.555574 
1491.000000	99.563966 
1490.000000	99.566705 
1489.000000	99.563599 
1488.000000	99.556426 
1487.000000	99.548563 
1486.000000	99.542315 
1485.000000	99.536685 
1484.000000	99.531308 
1483.000000	99.527966 
1482.000000	99.528874 
1481.000000	99.533117 
1480.000000	99.536732 
1479.000000	99.537450 
1478.000000	99.536304 
1477.000000	99.534605 
1476.000000	99.532313 
1475.000000	99.530797 
1474.000000	99.532614 
1473.000000	99.537666 
1472.000000	99.542038 
1471.000000	99.543527 
1470.000000	99.543724 
1469.000000	99.543737 
1468.000000	99.542896 
1467.000000	99.540902 
1466.000000	99.538956 
1465.000000	99.538871 
1464.000000	99.541279 
1463.000000	99.544777 
1462.000000	99.548090 
1461.000000	99.550502 
1460.000000	99.551104 
1459.000000	99.548375 
1458.000000	99.541617 
1457.000000	99.532303 
1456.000000	99.524439 
1455.000000	99.520625 
1454.000000	99.520610 
1453.000000	99.524468 
1452.000000	99.531999 
1451.000000	99.540523 
1450.000000	99.545962 
1449.000000	99.545705 
1448.000000	99.540481 
1447.000000	99.534985 
1446.000000	99.533242 
1445.000000	99.535577 
1444.000000	99.539730 
1443.000000	99.543172 
1442.000000	99.545240 
1441.000000	99.546373 
1440.000000	99.546568 
1439.000000	99.545477 
1438.000000	99.544796 
1437.000000	99.545947 
1436.000000	99.546584 
1435.000000	99.544316 
1434.000000	99.540707 
1433.000000	99.537927 
1432.000000	99.536068 
1431.000000	99.533479 
1430.000000	99.529811 
1429.000000	99.527131 
1428.000000	99.526247 
1427.000000	99.526130 
1426.000000	99.526010 
1425.000000	99.527411 
1424.000000	99.531251 
1423.000000	99.534457 
1422.000000	99.533730 
1421.000000	99.529456 
1420.000000	99.524501 
1419.000000	99.520326 
1418.000000	99.518055 
1417.000000	99.518317 
1416.000000	99.519129 
1415.000000	99.518734 
1414.000000	99.517589 
1413.000000	99.517263 
1412.000000	99.518088 
1411.000000	99.518168 
1410.000000	99.516084 
1409.000000	99.512561 
1408.000000	99.509011 
1407.000000	99.506964 
1406.000000	99.507335 
1405.000000	99.509904 
1404.000000	99.513256 
1403.000000	99.516177 
1402.000000	99.519669 
1401.000000	99.525179 
1400.000000	99.531508 
1399.000000	99.535003 
1398.000000	99.534199 
1397.000000	99.530792 
1396.000000	99.525882 
1395.000000	99.519911 
1394.000000	99.515489 
1393.000000	99.516592 
1392.000000	99.523203 
1391.000000	99.530896 
1390.000000	99.535717 
1389.000000	99.536975 
1388.000000	99.536000 
1387.000000	99.533965 
1386.000000	99.531702 
1385.000000	99.530108 
1384.000000	99.529418 
1383.000000	99.528563 
1382.000000	99.526514 
1381.000000	99.523746 
1380.000000	99.522134 
1379.000000	99.523119 
1378.000000	99.526220 
1377.000000	99.529715 
1376.000000	99.532346 
1375.000000	99.534025 
1374.000000	99.535450 
1373.000000	99.537569 
1372.000000	99.540434 
1371.000000	99.543000 
1370.000000	99.543640 
1369.000000	99.541584 
1368.000000	99.537833 
1367.000000	99.534191 
1366.000000	99.532046 
1365.000000	99.531888 
1364.000000	99.533370 
1363.000000	99.535361 
1362.000000	99.536385 
1361.000000	99.535594 
1360.000000	99.533709 
1359.000000	99.532885 
1358.000000	99.534930 
1357.000000	99.539413 
1356.000000	99.543754 
1355.000000	99.545743 
1354.000000	99.545807 
1353.000000	99.545758 
1352.000000	99.545854 
1351.000000	99.545129 
1350.000000	99.543466 
1349.000000	99.542544 
1348.000000	99.543478 
1347.000000	99.544662 
1346.000000	99.543828 
1345.000000	99.541193 
1344.000000	99.538985 
1343.000000	99.538418 
1342.000000	99.538945 
1341.000000	99.540141 
1340.000000	99.542382 
1339.000000	99.545213 
1338.000000	99.547031 
1337.000000	99.547327 
1336.000000	99.547427 
1335.000000	99.548327 
1334.000000	99.549237 
1333.000000	99.548899 
1332.000000	99.547327 
1331.000000	99.545443 
1330.000000	99.543826 
1329.000000	99.542790 
1328.000000	99.542860 
1327.000000	99.544124 
1326.000000	99.545454 
1325.000000	99.545749 
1324.000000	99.545269 
1323.000000	99.544797 
1322.000000	99.544327 
1321.000000	99.543584 
1320.000000	99.543467 
1319.000000	99.545513 
1318.000000	99.549455 
1317.000000	99.552356 
1316.000000	99.551303 
1315.000000	99.546622 
1314.000000	99.541718 
1313.000000	99.539574 
1312.000000	99.539872 
1311.000000	99.540063 
1310.000000	99.538685 
1309.000000	99.536711 
1308.000000	99.535765 
1307.000000	99.536119 
1306.000000	99.536713 
1305.000000	99.536810 
1304.000000	99.536812 
1303.000000	99.537536 
1302.000000	99.539187 
1301.000000	99.541014 
1300.000000	99.541914 
1299.000000	99.541589 
1298.000000	99.541192 
1297.000000	99.542278 
1296.000000	99.544937 
1295.000000	99.547342 
1294.000000	99.547484 
1293.000000	99.544954 
1292.000000	99.540813 
1291.000000	99.536555 
1290.000000	99.533725 
1289.000000	99.533656 
1288.000000	99.536379 
1287.000000	99.539836 
1286.000000	99.541205 
1285.000000	99.539326 
1284.000000	99.535309 
1283.000000	99.530884 
1282.000000	99.526896 
1281.000000	99.523446 
1280.000000	99.520736 
1279.000000	99.519038 
1278.000000	99.518193 
1277.000000	99.517796 
1276.000000	99.517829 
1275.000000	99.518531 
1274.000000	99.519524 
1273.000000	99.519659 
1272.000000	99.518160 
1271.000000	99.515741 
1270.000000	99.514114 
1269.000000	99.514267 
1268.000000	99.515555 
1267.000000	99.516494 
1266.000000	99.516188 
1265.000000	99.514829 
1264.000000	99.513089 
1263.000000	99.511335 
1262.000000	99.509347 
1261.000000	99.506682 
1260.000000	99.503545 
1259.000000	99.501137 
1258.000000	99.500559 
1257.000000	99.501343 
1256.000000	99.501943 
1255.000000	99.502057 
1254.000000	99.503420 
1253.000000	99.507298 
1252.000000	99.512074 
1251.000000	99.514708 
1250.000000	99.514243 
1249.000000	99.512419 
1248.000000	99.510956 
1247.000000	99.509762 
1246.000000	99.507957 
1245.000000	99.504942 
1244.000000	99.500042 
1243.000000	99.492927 
1242.000000	99.485316 
1241.000000	99.480650 
1240.000000	99.480693 
1239.000000	99.483345 
1238.000000	99.484966 
1237.000000	99.484207 
1236.000000	99.482536 
1235.000000	99.481811 
1234.000000	99.482561 
1233.000000	99.483953 
1232.000000	99.484000 
1231.000000	99.480256 
1230.000000	99.472168 
1229.000000	99.463024 
1228.000000	99.458035 
1227.000000	99.459504 
1226.000000	99.464343 
1225.000000	99.467002 
1224.000000	99.464547 
1223.000000	99.458466 
1222.000000	99.452030 
1221.000000	99.446967 
1220.000000	99.443018 
1219.000000	99.439754 
1218.000000	99.437402 
1217.000000	99.435642 
1216.000000	99.432768 
1215.000000	99.427097 
1214.000000	99.418777 
1213.000000	99.409286 
1212.000000	99.399588 
1211.000000	99.390063 
1210.000000	99.381886 
1209.000000	99.376646 
1208.000000	99.374057 
1207.000000	99.371511 
1206.000000	99.366782 
1205.000000	99.360192 
1204.000000	99.353359 
1203.000000	99.346997 
1202.000000	99.341064 
1201.000000	99.336097 
1200.000000	99.332799 
1199.000000	99.330602 
1198.000000	99.327930 
1197.000000	99.323799 
1196.000000	99.318009 
1195.000000	99.310003 
1194.000000	99.299032 
1193.000000	99.285868 
1192.000000	99.273155 
1191.000000	99.263193 
1190.000000	99.255820 
1189.000000	99.249032 
1188.000000	99.241347 
1187.000000	99.233105 
1186.000000	99.225713 
1185.000000	99.220023 
1184.000000	99.215376 
1183.000000	99.210087 
1182.000000	99.203032 
1181.000000	99.194785 
1180.000000	99.186871 
1179.000000	99.179829 
1178.000000	99.172581 
1177.000000	99.163995 
1176.000000	99.154403 
1175.000000	99.144847 
1174.000000	99.135232 
1173.000000	99.124276 
1172.000000	99.111495 
1171.000000	99.098320 
1170.000000	99.086598 
1169.000000	99.076424 
1168.000000	99.066238 
1167.000000	99.055112 
1166.000000	99.044508 
1165.000000	99.037583 
1164.000000	99.036810 
1163.000000	99.042138 
1162.000000	99.051161 
1161.000000	99.061052 
1160.000000	99.070338 
1159.000000	99.078550 
1158.000000	99.084122 
1157.000000	99.083374 
1156.000000	99.072871 
1155.000000	99.053640 
1154.000000	99.032506 
1153.000000	99.017778 
1152.000000	99.012688 
1151.000000	99.013000 
1150.000000	99.011308 
1149.000000	99.003795 
1148.000000	98.992792 
1147.000000	98.983094 
1146.000000	98.976431 
1145.000000	98.969925 
1144.000000	98.959668 
1143.000000	98.945086 
1142.000000	98.929594 
1141.000000	98.917505 
1140.000000	98.910781 
1139.000000	98.908190 
1138.000000	98.906525 
1137.000000	98.902564 
1136.000000	98.894818 
1135.000000	98.884134 
1134.000000	98.872353 
1133.000000	98.860115 
1132.000000	98.846631 
1131.000000	98.832127 
1130.000000	98.819576 
1129.000000	98.812390 
1128.000000	98.810013 
1127.000000	98.806881 
1126.000000	98.796909 
1125.000000	98.779259 
1124.000000	98.759346 
1123.000000	98.744097 
1122.000000	98.736167 
1121.000000	98.732448 
1120.000000	98.727713 
1119.000000	98.719336 
1118.000000	98.708665 
1117.000000	98.698542 
1116.000000	98.690329 
1115.000000	98.683504 
1114.000000	98.677365 
1113.000000	98.672170 
1112.000000	98.668331 
1111.000000	98.664797 
1110.000000	98.658791 
1109.000000	98.647873 
1108.000000	98.632851 
1107.000000	98.618447 
1106.000000	98.609679 
1105.000000	98.606667 
1104.000000	98.603998 
1103.000000	98.596422 
1102.000000	98.584435 
1101.000000	98.572946 
1100.000000	98.564991 
1099.000000	98.559440 
1098.000000	98.554577 
1097.000000	98.551054 
1096.000000	98.549691 
1095.000000	98.548502 
1094.000000	98.544558 
1093.000000	98.537722 
1092.000000	98.530103 
1091.000000	98.522415 
1090.000000	98.513465 
1089.000000	98.503279 
1088.000000	98.494129 
1087.000000	98.487556 
1086.000000	98.482441 
1085.000000	98.477297 
1084.000000	98.472929 
1083.000000	98.471195 
1082.000000	98.471756 
1081.000000	98.471309 
1080.000000	98.465888 
1079.000000	98.453617 
1078.000000	98.436123 
1077.000000	98.418056 
1076.000000	98.404479 
1075.000000	98.397461 
1074.000000	98.394771 
1073.000000	98.391950 
1072.000000	98.385398 
1071.000000	98.373685 
1070.000000	98.357231 
1069.000000	98.337693 
1068.000000	98.317177 
1067.000000	98.297184 
1066.000000	98.278162 
1065.000000	98.260247 
1064.000000	98.243998 
1063.000000	98.229746 
1062.000000	98.216351 
1061.000000	98.201279 
1060.000000	98.182386 
1059.000000	98.159866 
1058.000000	98.136455 
1057.000000	98.115291 
1056.000000	98.097187 
1055.000000	98.080215 
1054.000000	98.062288 
1053.000000	98.043715 
1052.000000	98.026472 
1051.000000	98.011310 
1050.000000	97.996634 
1049.000000	97.980056 
1048.000000	97.960001 
1047.000000	97.936436 
1046.000000	97.911590 
1045.000000	97.889122 
1044.000000	97.870439 
1043.000000	97.852292 
1042.000000	97.830670 
1041.000000	97.807091 
1040.000000	97.787765 
1039.000000	97.775505 
1038.000000	97.765909 
1037.000000	97.753671 
1036.000000	97.739486 
1035.000000	97.727560 
1034.000000	97.718792 
1033.000000	97.710373 
1032.000000	97.701124 
1031.000000	97.693490 
1030.000000	97.690157 
1029.000000	97.691434 
1028.000000	97.696047 
1027.000000	97.702113 
1026.000000	97.707129 
1025.000000	97.709061 
1024.000000	97.707851 
1023.000000	97.704817 
1022.000000	97.701031 
1021.000000	97.697508 
1020.000000	97.695863 
1019.000000	97.696697 
1018.000000	97.697912 
1017.000000	97.696797 
1016.000000	97.693561 
1015.000000	97.690820 
1014.000000	97.689825 
1013.000000	97.689148 
1012.000000	97.687056 
1011.000000	97.683355 
1010.000000	97.678873 
1009.000000	97.674897 
1008.000000	97.673267 
1007.000000	97.675398 
1006.000000	97.680851 
1005.000000	97.687930 
1004.000000	97.695557 
1003.000000	97.703471 
1002.000000	97.711140 
1001.000000	97.717927 
1000.000000	97.723957 
999.000000	 97.729529 
998.000000	 97.734365 
997.000000	 97.738995 
996.000000	 97.746063 
995.000000	 97.758070 
994.000000	 97.773876 
993.000000	 97.789367 
992.000000	 97.801581 
991.000000	 97.810486 
990.000000	 97.816930 
989.000000	 97.821008 
988.000000	 97.823247 
987.000000	 97.825961 
986.000000	 97.832450 
985.000000	 97.845086 
984.000000	 97.863892 
983.000000	 97.886188 
982.000000	 97.908034 
981.000000	 97.927074 
980.000000	 97.943792 
979.000000	 97.959711 
978.000000	 97.975732 
977.000000	 97.993182 
976.000000	 98.014433 
975.000000	 98.039899 
974.000000	 98.065435 
973.000000	 98.085874 
972.000000	 98.101409 
971.000000	 98.117999 
970.000000	 98.140654 
969.000000	 98.168051 
968.000000	 98.194579 
967.000000	 98.216216 
966.000000	 98.233517 
965.000000	 98.249813 
964.000000	 98.267454 
963.000000	 98.285835 
962.000000	 98.303006 
961.000000	 98.319050 
960.000000	 98.336707 
959.000000	 98.357614 
958.000000	 98.378948 
957.000000	 98.395620 
956.000000	 98.405657 
955.000000	 98.411913 
954.000000	 98.418612 
953.000000	 98.427766 
952.000000	 98.439035 
951.000000	 98.451028 
950.000000	 98.461729 
949.000000	 98.469085 
948.000000	 98.472549 
947.000000	 98.473613 
946.000000	 98.474093 
945.000000	 98.474399 
944.000000	 98.474293 
943.000000	 98.474963 
942.000000	 98.479213 
941.000000	 98.488879 
940.000000	 98.501975 
939.000000	 98.512842 
938.000000	 98.516270 
937.000000	 98.512420 
936.000000	 98.507457 
935.000000	 98.508521 
934.000000	 98.517817 
933.000000	 98.531806 
932.000000	 98.545587 
931.000000	 98.556923 
930.000000	 98.565988 
929.000000	 98.572528 
928.000000	 98.574570 
927.000000	 98.570391 
926.000000	 98.561610 
925.000000	 98.553683 
924.000000	 98.552405 
923.000000	 98.559254 
922.000000	 98.570240 
921.000000	 98.579607 
920.000000	 98.584391 
919.000000	 98.585292 
918.000000	 98.584199 
917.000000	 98.582021 
916.000000	 98.578732 
915.000000	 98.574521 
914.000000	 98.570446 
913.000000	 98.568250 
912.000000	 98.569641 
911.000000	 98.575624 
910.000000	 98.586615 
909.000000	 98.602897 
908.000000	 98.623943 
907.000000	 98.647008 
906.000000	 98.667894 
905.000000	 98.684491 
904.000000	 98.698933 
903.000000	 98.715081 
902.000000	 98.734283 
901.000000	 98.754494 
900.000000	 98.772903 
899.000000	 98.787901 
898.000000	 98.798552 
897.000000	 98.803917 
896.000000	 98.804079 
895.000000	 98.801553 
894.000000	 98.800747 
893.000000	 98.805284 
892.000000	 98.815435 
891.000000	 98.828116 
890.000000	 98.839834 
889.000000	 98.849949 
888.000000	 98.860750 
887.000000	 98.874229 
886.000000	 98.889435 
885.000000	 98.903492 
884.000000	 98.914638 
883.000000	 98.923446 
882.000000	 98.931288 
881.000000	 98.938465 
880.000000	 98.944226 
879.000000	 98.948322 
878.000000	 98.952071 
877.000000	 98.957521 
876.000000	 98.965464 
875.000000	 98.974508 
874.000000	 98.982401 
873.000000	 98.988143 
872.000000	 98.992590 
871.000000	 98.997436 
870.000000	 99.004215 
869.000000	 99.013850 
868.000000	 99.025972 
867.000000	 99.038247 
866.000000	 99.047477 
865.000000	 99.052804 
864.000000	 99.057950 
863.000000	 99.068820 
862.000000	 99.087196 
861.000000	 99.106846 
860.000000	 99.117790 
859.000000	 99.115766 
858.000000	 99.106552 
857.000000	 99.099551 
856.000000	 99.098642 
855.000000	 99.101553 
854.000000	 99.106106 
853.000000	 99.112413 
852.000000	 99.118914 
851.000000	 99.121798 
850.000000	 99.120994 
849.000000	 99.122322 
848.000000	 99.129866 
847.000000	 99.139554 
846.000000	 99.144506 
845.000000	 99.143947 
844.000000	 99.142037 
843.000000	 99.140410 
842.000000	 99.137874 
841.000000	 99.136058 
840.000000	 99.138267 
839.000000	 99.141950 
838.000000	 99.139026 
837.000000	 99.126550 
836.000000	 99.111936 
835.000000	 99.104278 
834.000000	 99.104277 
833.000000	 99.105970 
832.000000	 99.104726 
831.000000	 99.099504 
830.000000	 99.090432 
829.000000	 99.079654 
828.000000	 99.073717 
827.000000	 99.079622 
826.000000	 99.096555 
825.000000	 99.114421 
824.000000	 99.122411 
823.000000	 99.118168 
822.000000	 99.108676 
821.000000	 99.103624 
820.000000	 99.107997 
819.000000	 99.119711 
818.000000	 99.133216 
817.000000	 99.144532 
816.000000	 99.151800 
815.000000	 99.152367 
814.000000	 99.143336 
813.000000	 99.126316 
812.000000	 99.107973 
811.000000	 99.092612 
810.000000	 99.076046 
809.000000	 99.050050 
808.000000	 99.011897 
807.000000	 98.966481 
806.000000	 98.919625 
805.000000	 98.872922 
804.000000	 98.826520 
803.000000	 98.784213 
802.000000	 98.752840 
801.000000	 98.736319 
800.000000	 98.731349 
799.000000	 98.729909 
798.000000	 98.726773 
797.000000	 98.724201 
796.000000	 98.727822 
795.000000	 98.738479 
794.000000	 98.750810 
793.000000	 98.760183 
792.000000	 98.767531 
791.000000	 98.775559 
790.000000	 98.783447 
789.000000	 98.787969 
788.000000	 98.787311 
787.000000	 98.780871 
786.000000	 98.767479 
785.000000	 98.747105 
784.000000	 98.723182 
783.000000	 98.700476 
782.000000	 98.681395 
781.000000	 98.666184 
780.000000	 98.654875 
779.000000	 98.646420 
778.000000	 98.638090 
777.000000	 98.629512 
776.000000	 98.625966 
775.000000	 98.633566 
774.000000	 98.651434 
773.000000	 98.672115 
772.000000	 98.689510 
771.000000	 98.703220 
770.000000	 98.715547 
769.000000	 98.727518 
768.000000	 98.738117 
767.000000	 98.745223 
766.000000	 98.747701 
765.000000	 98.748714 
764.000000	 98.755361 
763.000000	 98.771180 
762.000000	 98.789261 
761.000000	 98.796882 
760.000000	 98.788442 
759.000000	 98.771815 
758.000000	 98.761496 
757.000000	 98.766581 
756.000000	 98.784065 
755.000000	 98.800951 
754.000000	 98.804100 
753.000000	 98.792130 
752.000000	 98.778090 
751.000000	 98.777631 
750.000000	 98.793937 
749.000000	 98.816147 
748.000000	 98.831775 
747.000000	 98.837390 
746.000000	 98.837580 
745.000000	 98.837818 
744.000000	 98.840315 
743.000000	 98.844477 
742.000000	 98.849471 
741.000000	 98.856969 
740.000000	 98.871103 
739.000000	 98.893916 
738.000000	 98.920763 
737.000000	 98.941730 
736.000000	 98.947851 
735.000000	 98.936476 
734.000000	 98.913836 
733.000000	 98.894153 
732.000000	 98.892165 
731.000000	 98.910987 
730.000000	 98.937812 
729.000000	 98.956127 
728.000000	 98.961591 
727.000000	 98.962076 
726.000000	 98.964136 
725.000000	 98.965120 
724.000000	 98.958916 
723.000000	 98.944416 
722.000000	 98.927113 
721.000000	 98.916089 
720.000000	 98.919540 
719.000000	 98.938389 
718.000000	 98.963425 
717.000000	 98.982490 
716.000000	 98.990449 
715.000000	 98.989615 
714.000000	 98.983251 
713.000000	 98.974871 
712.000000	 98.972811 
711.000000	 98.986244 
710.000000	 99.012692 
709.000000	 99.035854 
708.000000	 99.040169 
707.000000	 99.023604 
706.000000	 98.994209 
705.000000	 98.960364 
704.000000	 98.929407 
703.000000	 98.910201 
702.000000	 98.907914 
701.000000	 98.916268 
700.000000	 98.920803 
699.000000	 98.911213 
698.000000	 98.889535 
697.000000	 98.866795 
696.000000	 98.852623 
695.000000	 98.847418 
694.000000	 98.843414 
693.000000	 98.834834 
692.000000	 98.826579 
691.000000	 98.829393 
690.000000	 98.847461 
689.000000	 98.875052 
688.000000	 98.904428 
687.000000	 98.930523 
686.000000	 98.946506 
685.000000	 98.944058 
684.000000	 98.923598 
683.000000	 98.898003 
682.000000	 98.881820 
681.000000	 98.880548 
680.000000	 98.890962 
679.000000	 98.904916 
678.000000	 98.911769 
677.000000	 98.907242 
676.000000	 98.903250 
675.000000	 98.916397 
674.000000	 98.944162 
673.000000	 98.962858 
672.000000	 98.954804 
671.000000	 98.928131 
670.000000	 98.904895 
669.000000	 98.900665 
668.000000	 98.913662 
667.000000	 98.929496 
666.000000	 98.936526 
665.000000	 98.932623 
664.000000	 98.927836 
663.000000	 98.941333 
662.000000	 98.981464 
661.000000	 99.027666 
660.000000	 99.046600 
659.000000	 99.025762 
658.000000	 98.981834 
657.000000	 98.938771 
656.000000	 98.910242 
655.000000	 98.902649 
654.000000	 98.917335 
653.000000	 98.942427 
652.000000	 98.956703 
651.000000	 98.951195 
650.000000	 98.939420 

