4000.000000	99.353896 
3999.000000	99.355097 
3998.000000	99.354855 
3997.000000	99.352204 
3996.000000	99.347532 
3995.000000	99.342806 
3994.000000	99.340434 
3993.000000	99.341581 
3992.000000	99.345141 
3991.000000	99.348270 
3990.000000	99.348401 
3989.000000	99.345387 
3988.000000	99.341803 
3987.000000	99.340827 
3986.000000	99.343583 
3985.000000	99.348367 
3984.000000	99.352165 
3983.000000	99.352879 
3982.000000	99.350481 
3981.000000	99.346512 
3980.000000	99.342525 
3979.000000	99.339145 
3978.000000	99.336637 
3977.000000	99.335836 
3976.000000	99.337884 
3975.000000	99.342851 
3974.000000	99.349028 
3973.000000	99.353839 
3972.000000	99.355438 
3971.000000	99.353691 
3970.000000	99.349864 
3969.000000	99.345571 
3968.000000	99.341964 
3967.000000	99.339512 
3966.000000	99.338392 
3965.000000	99.338915 
3964.000000	99.341054 
3963.000000	99.343569 
3962.000000	99.344213 
3961.000000	99.341422 
3960.000000	99.335877 
3959.000000	99.330350 
3958.000000	99.327576 
3957.000000	99.328088 
3956.000000	99.330290 
3955.000000	99.332285 
3954.000000	99.333567 
3953.000000	99.334766 
3952.000000	99.336231 
3951.000000	99.337555 
3950.000000	99.338195 
3949.000000	99.338284 
3948.000000	99.338252 
3947.000000	99.337825 
3946.000000	99.336294 
3945.000000	99.333798 
3944.000000	99.331794 
3943.000000	99.331617 
3942.000000	99.333287 
3941.000000	99.335692 
3940.000000	99.337234 
3939.000000	99.336315 
3938.000000	99.331909 
3937.000000	99.324456 
3936.000000	99.316508 
3935.000000	99.311815 
3934.000000	99.313429 
3933.000000	99.321500 
3932.000000	99.332435 
3931.000000	99.340535 
3930.000000	99.341748 
3929.000000	99.336615 
3928.000000	99.329315 
3927.000000	99.324195 
3926.000000	99.323355 
3925.000000	99.325840 
3924.000000	99.328709 
3923.000000	99.329703 
3922.000000	99.328753 
3921.000000	99.327551 
3920.000000	99.327685 
3919.000000	99.329430 
3918.000000	99.332159 
3917.000000	99.335177 
3916.000000	99.338081 
3915.000000	99.340614 
3914.000000	99.342937 
3913.000000	99.345415 
3912.000000	99.347898 
3911.000000	99.349949 
3910.000000	99.351381 
3909.000000	99.352396 
3908.000000	99.352990 
3907.000000	99.351835 
3906.000000	99.346730 
3905.000000	99.336250 
3904.000000	99.321415 
3903.000000	99.306530 
3902.000000	99.297284 
3901.000000	99.297395 
3900.000000	99.306354 
3899.000000	99.319062 
3898.000000	99.329345 
3897.000000	99.333974 
3896.000000	99.333324 
3895.000000	99.329755 
3894.000000	99.325804 
3893.000000	99.322935 
3892.000000	99.321116 
3891.000000	99.319306 
3890.000000	99.316795 
3889.000000	99.313591 
3888.000000	99.310743 
3887.000000	99.310216 
3886.000000	99.312972 
3885.000000	99.316947 
3884.000000	99.318687 
3883.000000	99.317221 
3882.000000	99.315211 
3881.000000	99.315995 
3880.000000	99.320007 
3879.000000	99.324296 
3878.000000	99.326524 
3877.000000	99.327704 
3876.000000	99.330780 
3875.000000	99.336405 
3874.000000	99.340675 
3873.000000	99.338526 
3872.000000	99.329759 
3871.000000	99.320096 
3870.000000	99.315821 
3869.000000	99.318097 
3868.000000	99.322940 
3867.000000	99.326484 
3866.000000	99.328628 
3865.000000	99.330493 
3864.000000	99.330932 
3863.000000	99.328208 
3862.000000	99.323306 
3861.000000	99.319970 
3860.000000	99.321110 
3859.000000	99.325896 
3858.000000	99.330270 
3857.000000	99.330314 
3856.000000	99.325345 
3855.000000	99.319444 
3854.000000	99.317196 
3853.000000	99.318791 
3852.000000	99.321955 
3851.000000	99.324933 
3850.000000	99.326587 
3849.000000	99.327149 
3848.000000	99.327175 
3847.000000	99.326900 
3846.000000	99.326124 
3845.000000	99.324630 
3844.000000	99.323348 
3843.000000	99.323965 
3842.000000	99.326635 
3841.000000	99.329806 
3840.000000	99.331795 
3839.000000	99.331768 
3838.000000	99.329701 
3837.000000	99.325969 
3836.000000	99.321507 
3835.000000	99.318069 
3834.000000	99.317863 
3833.000000	99.322507 
3832.000000	99.331165 
3831.000000	99.340034 
3830.000000	99.345106 
3829.000000	99.344975 
3828.000000	99.341426 
3827.000000	99.337641 
3826.000000	99.335217 
3825.000000	99.333322 
3824.000000	99.331037 
3823.000000	99.330126 
3822.000000	99.333308 
3821.000000	99.339367 
3820.000000	99.343706 
3819.000000	99.343813 
3818.000000	99.341318 
3817.000000	99.340357 
3816.000000	99.342807 
3815.000000	99.344957 
3814.000000	99.342226 
3813.000000	99.335537 
3812.000000	99.330300 
3811.000000	99.330703 
3810.000000	99.336034 
3809.000000	99.342451 
3808.000000	99.347287 
3807.000000	99.350161 
3806.000000	99.350645 
3805.000000	99.347352 
3804.000000	99.340461 
3803.000000	99.334204 
3802.000000	99.333654 
3801.000000	99.338282 
3800.000000	99.342299 
3799.000000	99.341300 
3798.000000	99.335760 
3797.000000	99.329397 
3796.000000	99.325099 
3795.000000	99.322693 
3794.000000	99.320547 
3793.000000	99.318191 
3792.000000	99.316632 
3791.000000	99.316903 
3790.000000	99.318958 
3789.000000	99.321936 
3788.000000	99.324801 
3787.000000	99.326524 
3786.000000	99.326641 
3785.000000	99.325808 
3784.000000	99.325278 
3783.000000	99.325561 
3782.000000	99.326194 
3781.000000	99.326686 
3780.000000	99.326901 
3779.000000	99.326647 
3778.000000	99.325553 
3777.000000	99.323535 
3776.000000	99.321167 
3775.000000	99.319524 
3774.000000	99.319189 
3773.000000	99.319896 
3772.000000	99.321567 
3771.000000	99.324390 
3770.000000	99.327149 
3769.000000	99.327483 
3768.000000	99.324738 
3767.000000	99.320993 
3766.000000	99.319058 
3765.000000	99.319543 
3764.000000	99.320193 
3763.000000	99.318437 
3762.000000	99.314472 
3761.000000	99.310958 
3760.000000	99.309629 
3759.000000	99.310097 
3758.000000	99.311766 
3757.000000	99.314909 
3756.000000	99.319261 
3755.000000	99.323501 
3754.000000	99.326950 
3753.000000	99.330708 
3752.000000	99.335621 
3751.000000	99.339698 
3750.000000	99.341022 
3749.000000	99.340916 
3748.000000	99.340567 
3747.000000	99.338857 
3746.000000	99.335113 
3745.000000	99.330086 
3744.000000	99.324857 
3743.000000	99.319197 
3742.000000	99.312089 
3741.000000	99.303825 
3740.000000	99.295886 
3739.000000	99.289686 
3738.000000	99.286753 
3737.000000	99.288475 
3736.000000	99.293676 
3735.000000	99.297510 
3734.000000	99.296331 
3733.000000	99.292731 
3732.000000	99.292495 
3731.000000	99.297557 
3730.000000	99.304376 
3729.000000	99.308640 
3728.000000	99.309614 
3727.000000	99.308935 
3726.000000	99.307010 
3725.000000	99.302916 
3724.000000	99.297625 
3723.000000	99.294307 
3722.000000	99.295104 
3721.000000	99.299460 
3720.000000	99.304636 
3719.000000	99.308002 
3718.000000	99.308657 
3717.000000	99.306576 
3716.000000	99.301604 
3715.000000	99.294255 
3714.000000	99.287537 
3713.000000	99.286161 
3712.000000	99.291362 
3711.000000	99.298766 
3710.000000	99.303205 
3709.000000	99.302978 
3708.000000	99.299321 
3707.000000	99.293923 
3706.000000	99.287935 
3705.000000	99.282223 
3704.000000	99.277357 
3703.000000	99.273094 
3702.000000	99.268030 
3701.000000	99.261071 
3700.000000	99.252502 
3699.000000	99.243312 
3698.000000	99.234820 
3697.000000	99.228540 
3696.000000	99.225310 
3695.000000	99.224965 
3694.000000	99.226863 
3693.000000	99.230045 
3692.000000	99.232392 
3691.000000	99.230661 
3690.000000	99.222605 
3689.000000	99.210082 
3688.000000	99.198493 
3687.000000	99.191102 
3686.000000	99.187301 
3685.000000	99.186437 
3684.000000	99.189071 
3683.000000	99.195046 
3682.000000	99.201860 
3681.000000	99.205806 
3680.000000	99.204116 
3679.000000	99.195359 
3678.000000	99.180697 
3677.000000	99.166540 
3676.000000	99.161273 
3675.000000	99.165671 
3674.000000	99.171370 
3673.000000	99.170681 
3672.000000	99.163907 
3671.000000	99.159021 
3670.000000	99.162318 
3669.000000	99.171306 
3668.000000	99.179925 
3667.000000	99.185560 
3666.000000	99.189141 
3665.000000	99.191984 
3664.000000	99.193967 
3663.000000	99.194677 
3662.000000	99.194460 
3661.000000	99.193485 
3660.000000	99.191038 
3659.000000	99.186795 
3658.000000	99.183133 
3657.000000	99.184000 
3656.000000	99.190237 
3655.000000	99.197763 
3654.000000	99.201519 
3653.000000	99.200073 
3652.000000	99.195694 
3651.000000	99.191315 
3650.000000	99.187625 
3649.000000	99.184666 
3648.000000	99.184513 
3647.000000	99.188187 
3646.000000	99.193675 
3645.000000	99.198967 
3644.000000	99.204228 
3643.000000	99.210906 
3642.000000	99.219792 
3641.000000	99.229919 
3640.000000	99.239588 
3639.000000	99.247459 
3638.000000	99.252657 
3637.000000	99.254687 
3636.000000	99.253746 
3635.000000	99.250753 
3634.000000	99.246238 
3633.000000	99.239871 
3632.000000	99.232100 
3631.000000	99.226160 
3630.000000	99.226854 
3629.000000	99.233947 
3628.000000	99.240674 
3627.000000	99.242760 
3626.000000	99.242058 
3625.000000	99.242068 
3624.000000	99.243919 
3623.000000	99.245971 
3622.000000	99.246572 
3621.000000	99.246689 
3620.000000	99.247905 
3619.000000	99.248872 
3618.000000	99.247044 
3617.000000	99.243027 
3616.000000	99.240688 
3615.000000	99.243461 
3614.000000	99.250250 
3613.000000	99.255746 
3612.000000	99.256053 
3611.000000	99.252889 
3610.000000	99.251364 
3609.000000	99.254068 
3608.000000	99.258206 
3607.000000	99.259838 
3606.000000	99.259069 
3605.000000	99.259083 
3604.000000	99.261943 
3603.000000	99.266855 
3602.000000	99.271863 
3601.000000	99.276237 
3600.000000	99.279843 
3599.000000	99.281599 
3598.000000	99.280339 
3597.000000	99.276315 
3596.000000	99.271857 
3595.000000	99.270239 
3594.000000	99.272805 
3593.000000	99.277863 
3592.000000	99.282053 
3591.000000	99.282467 
3590.000000	99.278952 
3589.000000	99.274387 
3588.000000	99.271879 
3587.000000	99.271141 
3586.000000	99.269952 
3585.000000	99.268321 
3584.000000	99.269032 
3583.000000	99.273910 
3582.000000	99.281371 
3581.000000	99.287528 
3580.000000	99.289594 
3579.000000	99.287809 
3578.000000	99.284244 
3577.000000	99.280892 
3576.000000	99.278781 
3575.000000	99.278331 
3574.000000	99.279374 
3573.000000	99.281061 
3572.000000	99.282498 
3571.000000	99.283152 
3570.000000	99.282506 
3569.000000	99.280362 
3568.000000	99.277638 
3567.000000	99.275922 
3566.000000	99.275995 
3565.000000	99.277306 
3564.000000	99.279254 
3563.000000	99.282362 
3562.000000	99.287340 
3561.000000	99.293346 
3560.000000	99.298064 
3559.000000	99.299669 
3558.000000	99.298593 
3557.000000	99.297057 
3556.000000	99.296961 
3555.000000	99.298279 
3554.000000	99.299431 
3553.000000	99.298660 
3552.000000	99.295555 
3551.000000	99.291435 
3550.000000	99.287931 
3549.000000	99.285575 
3548.000000	99.284017 
3547.000000	99.282884 
3546.000000	99.282213 
3545.000000	99.281824 
3544.000000	99.281357 
3543.000000	99.281422 
3542.000000	99.283842 
3541.000000	99.289753 
3540.000000	99.297868 
3539.000000	99.305005 
3538.000000	99.308768 
3537.000000	99.309239 
3536.000000	99.308120 
3535.000000	99.306531 
3534.000000	99.304223 
3533.000000	99.300988 
3532.000000	99.297871 
3531.000000	99.296521 
3530.000000	99.297150 
3529.000000	99.297780 
3528.000000	99.296153 
3527.000000	99.292340 
3526.000000	99.288944 
3525.000000	99.288699 
3524.000000	99.291978 
3523.000000	99.296525 
3522.000000	99.299545 
3521.000000	99.299895 
3520.000000	99.298819 
3519.000000	99.298755 
3518.000000	99.301461 
3517.000000	99.306613 
3516.000000	99.311998 
3515.000000	99.315136 
3514.000000	99.314686 
3513.000000	99.310883 
3512.000000	99.305156 
3511.000000	99.299459 
3510.000000	99.295406 
3509.000000	99.293697 
3508.000000	99.294215 
3507.000000	99.296517 
3506.000000	99.299974 
3505.000000	99.303413 
3504.000000	99.305517 
3503.000000	99.306361 
3502.000000	99.308163 
3501.000000	99.313332 
3500.000000	99.321480 
3499.000000	99.329020 
3498.000000	99.331851 
3497.000000	99.328578 
3496.000000	99.321248 
3495.000000	99.313462 
3494.000000	99.307988 
3493.000000	99.305611 
3492.000000	99.305507 
3491.000000	99.306398 
3490.000000	99.307774 
3489.000000	99.310130 
3488.000000	99.313729 
3487.000000	99.317235 
3486.000000	99.318408 
3485.000000	99.316554 
3484.000000	99.313703 
3483.000000	99.312786 
3482.000000	99.314622 
3481.000000	99.317326 
3480.000000	99.318668 
3479.000000	99.318118 
3478.000000	99.316280 
3477.000000	99.313567 
3476.000000	99.310604 
3475.000000	99.309372 
3474.000000	99.312122 
3473.000000	99.318294 
3472.000000	99.323813 
3471.000000	99.324878 
3470.000000	99.322154 
3469.000000	99.320003 
3468.000000	99.321524 
3467.000000	99.325397 
3466.000000	99.328120 
3465.000000	99.328226 
3464.000000	99.327289 
3463.000000	99.327406 
3462.000000	99.328893 
3461.000000	99.330700 
3460.000000	99.332109 
3459.000000	99.333314 
3458.000000	99.334548 
3457.000000	99.335116 
3456.000000	99.333857 
3455.000000	99.330518 
3454.000000	99.326492 
3453.000000	99.323902 
3452.000000	99.323779 
3451.000000	99.325422 
3450.000000	99.327437 
3449.000000	99.328981 
3448.000000	99.329702 
3447.000000	99.329095 
3446.000000	99.326822 
3445.000000	99.323810 
3444.000000	99.322174 
3443.000000	99.323370 
3442.000000	99.326538 
3441.000000	99.329192 
3440.000000	99.329752 
3439.000000	99.328884 
3438.000000	99.328046 
3437.000000	99.327195 
3436.000000	99.324899 
3435.000000	99.320780 
3434.000000	99.317072 
3433.000000	99.316979 
3432.000000	99.321274 
3431.000000	99.327103 
3430.000000	99.330397 
3429.000000	99.329482 
3428.000000	99.326216 
3427.000000	99.323659 
3426.000000	99.322987 
3425.000000	99.322845 
3424.000000	99.321414 
3423.000000	99.318551 
3422.000000	99.315779 
3421.000000	99.314679 
3420.000000	99.315839 
3419.000000	99.319005 
3418.000000	99.323429 
3417.000000	99.327867 
3416.000000	99.330817 
3415.000000	99.331274 
3414.000000	99.329368 
3413.000000	99.326269 
3412.000000	99.323573 
3411.000000	99.322477 
3410.000000	99.322916 
3409.000000	99.323326 
3408.000000	99.321758 
3407.000000	99.317781 
3406.000000	99.313265 
3405.000000	99.310955 
3404.000000	99.312211 
3403.000000	99.316089 
3402.000000	99.320390 
3401.000000	99.323489 
3400.000000	99.325298 
3399.000000	99.326876 
3398.000000	99.329259 
3397.000000	99.332537 
3396.000000	99.335774 
3395.000000	99.337549 
3394.000000	99.336549 
3393.000000	99.332070 
3392.000000	99.324677 
3391.000000	99.316635 
3390.000000	99.311312 
3389.000000	99.311292 
3388.000000	99.316515 
3387.000000	99.324247 
3386.000000	99.331240 
3385.000000	99.336112 
3384.000000	99.339424 
3383.000000	99.341456 
3382.000000	99.340678 
3381.000000	99.335323 
3380.000000	99.326382 
3379.000000	99.318154 
3378.000000	99.314928 
3377.000000	99.317195 
3376.000000	99.321599 
3375.000000	99.324534 
3374.000000	99.325300 
3373.000000	99.325745 
3372.000000	99.327552 
3371.000000	99.330399 
3370.000000	99.332545 
3369.000000	99.332668 
3368.000000	99.331103 
3367.000000	99.329531 
3366.000000	99.329520 
3365.000000	99.331127 
3364.000000	99.332950 
3363.000000	99.333685 
3362.000000	99.333458 
3361.000000	99.333229 
3360.000000	99.333008 
3359.000000	99.331422 
3358.000000	99.327547 
3357.000000	99.322767 
3356.000000	99.319965 
3355.000000	99.320595 
3354.000000	99.323050 
3353.000000	99.324337 
3352.000000	99.323099 
3351.000000	99.320731 
3350.000000	99.319718 
3349.000000	99.321301 
3348.000000	99.324750 
3347.000000	99.328272 
3346.000000	99.330308 
3345.000000	99.330291 
3344.000000	99.328786 
3343.000000	99.327033 
3342.000000	99.325832 
3341.000000	99.324611 
3340.000000	99.321915 
3339.000000	99.317324 
3338.000000	99.312793 
3337.000000	99.311383 
3336.000000	99.314228 
3335.000000	99.319061 
3334.000000	99.322322 
3333.000000	99.322612 
3332.000000	99.321636 
3331.000000	99.321757 
3330.000000	99.323324 
3329.000000	99.324835 
3328.000000	99.325174 
3327.000000	99.324710 
3326.000000	99.324098 
3325.000000	99.322890 
3324.000000	99.320078 
3323.000000	99.315849 
3322.000000	99.312017 
3321.000000	99.310413 
3320.000000	99.311213 
3319.000000	99.313194 
3318.000000	99.315405 
3317.000000	99.317855 
3316.000000	99.320353 
3315.000000	99.321567 
3314.000000	99.320307 
3313.000000	99.317730 
3312.000000	99.317094 
3311.000000	99.320564 
3310.000000	99.326690 
3309.000000	99.331743 
3308.000000	99.333231 
3307.000000	99.331509 
3306.000000	99.328410 
3305.000000	99.325462 
3304.000000	99.323619 
3303.000000	99.323454 
3302.000000	99.324606 
3301.000000	99.325366 
3300.000000	99.323771 
3299.000000	99.319507 
3298.000000	99.314594 
3297.000000	99.311907 
3296.000000	99.312658 
3295.000000	99.315167 
3294.000000	99.316450 
3293.000000	99.315424 
3292.000000	99.314239 
3291.000000	99.315677 
3290.000000	99.319378 
3289.000000	99.321861 
3288.000000	99.320573 
3287.000000	99.316850 
3286.000000	99.314071 
3285.000000	99.313627 
3284.000000	99.313785 
3283.000000	99.312187 
3282.000000	99.308511 
3281.000000	99.304662 
3280.000000	99.303119 
3279.000000	99.305113 
3278.000000	99.309654 
3277.000000	99.314006 
3276.000000	99.315499 
3275.000000	99.313236 
3274.000000	99.308231 
3273.000000	99.302345 
3272.000000	99.297469 
3271.000000	99.295153 
3270.000000	99.295967 
3269.000000	99.298904 
3268.000000	99.301891 
3267.000000	99.303166 
3266.000000	99.302172 
3265.000000	99.299566 
3264.000000	99.296877 
3263.000000	99.295893 
3262.000000	99.297489 
3261.000000	99.300753 
3260.000000	99.303746 
3259.000000	99.305252 
3258.000000	99.305429 
3257.000000	99.304764 
3256.000000	99.303016 
3255.000000	99.299609 
3254.000000	99.294906 
3253.000000	99.290832 
3252.000000	99.290044 
3251.000000	99.294038 
3250.000000	99.301531 
3249.000000	99.308913 
3248.000000	99.312912 
3247.000000	99.312926 
3246.000000	99.310514 
3245.000000	99.306971 
3244.000000	99.302296 
3243.000000	99.296563 
3242.000000	99.291159 
3241.000000	99.287997 
3240.000000	99.288030 
3239.000000	99.291110 
3238.000000	99.296881 
3237.000000	99.305063 
3236.000000	99.314759 
3235.000000	99.323849 
3234.000000	99.329440 
3233.000000	99.329345 
3232.000000	99.323733 
3231.000000	99.315587 
3230.000000	99.308991 
3229.000000	99.306271 
3228.000000	99.306480 
3227.000000	99.306624 
3226.000000	99.304431 
3225.000000	99.300135 
3224.000000	99.295902 
3223.000000	99.293610 
3222.000000	99.293015 
3221.000000	99.292050 
3220.000000	99.289041 
3219.000000	99.284608 
3218.000000	99.281314 
3217.000000	99.281716 
3216.000000	99.286870 
3215.000000	99.295888 
3214.000000	99.305950 
3213.000000	99.313033 
3212.000000	99.313982 
3211.000000	99.308809 
3210.000000	99.300791 
3209.000000	99.294021 
3208.000000	99.290807 
3207.000000	99.290979 
3206.000000	99.292793 
3205.000000	99.294232 
3204.000000	99.294311 
3203.000000	99.293804 
3202.000000	99.294391 
3201.000000	99.296740 
3200.000000	99.299663 
3199.000000	99.301347 
3198.000000	99.301027 
3197.000000	99.299391 
3196.000000	99.298003 
3195.000000	99.298503 
3194.000000	99.301420 
3193.000000	99.304992 
3192.000000	99.305799 
3191.000000	99.301666 
3190.000000	99.293995 
3189.000000	99.286689 
3188.000000	99.282823 
3187.000000	99.282733 
3186.000000	99.284857 
3185.000000	99.287479 
3184.000000	99.289516 
3183.000000	99.290467 
3182.000000	99.290379 
3181.000000	99.290042 
3180.000000	99.290935 
3179.000000	99.294331 
3178.000000	99.299651 
3177.000000	99.303784 
3176.000000	99.303265 
3175.000000	99.297968 
3174.000000	99.291933 
3173.000000	99.289391 
3172.000000	99.290222 
3171.000000	99.290561 
3170.000000	99.287887 
3169.000000	99.284118 
3168.000000	99.282988 
3167.000000	99.285497 
3166.000000	99.289132 
3165.000000	99.291025 
3164.000000	99.290656 
3163.000000	99.289398 
3162.000000	99.288521 
3161.000000	99.288256 
3160.000000	99.288240 
3159.000000	99.288043 
3158.000000	99.287267 
3157.000000	99.285745 
3156.000000	99.283886 
3155.000000	99.282396 
3154.000000	99.281191 
3153.000000	99.278881 
3152.000000	99.274050 
3151.000000	99.267343 
3150.000000	99.261731 
3149.000000	99.260195 
3148.000000	99.263189 
3147.000000	99.268567 
3146.000000	99.273625 
3145.000000	99.276852 
3144.000000	99.278119 
3143.000000	99.278155 
3142.000000	99.278220 
3141.000000	99.279529 
3140.000000	99.282162 
3139.000000	99.284612 
3138.000000	99.285048 
3137.000000	99.283343 
3136.000000	99.281543 
3135.000000	99.282032 
3134.000000	99.285232 
3133.000000	99.289210 
3132.000000	99.291507 
3131.000000	99.291169 
3130.000000	99.289042 
3129.000000	99.286573 
3128.000000	99.284871 
3127.000000	99.284843 
3126.000000	99.287310 
3125.000000	99.292073 
3124.000000	99.296921 
3123.000000	99.298596 
3122.000000	99.295577 
3121.000000	99.289828 
3120.000000	99.285233 
3119.000000	99.284156 
3118.000000	99.285705 
3117.000000	99.287289 
3116.000000	99.287438 
3115.000000	99.286799 
3114.000000	99.286663 
3113.000000	99.287148 
3112.000000	99.287176 
3111.000000	99.286059 
3110.000000	99.284581 
3109.000000	99.284118 
3108.000000	99.284688 
3107.000000	99.284325 
3106.000000	99.280870 
3105.000000	99.274557 
3104.000000	99.268559 
3103.000000	99.266640 
3102.000000	99.270143 
3101.000000	99.277147 
3100.000000	99.284376 
3099.000000	99.289641 
3098.000000	99.292646 
3097.000000	99.294108 
3096.000000	99.294664 
3095.000000	99.294482 
3094.000000	99.293477 
3093.000000	99.291618 
3092.000000	99.289030 
3091.000000	99.286034 
3090.000000	99.283301 
3089.000000	99.281881 
3088.000000	99.282621 
3087.000000	99.285159 
3086.000000	99.287699 
3085.000000	99.288287 
3084.000000	99.286395 
3083.000000	99.283022 
3082.000000	99.279475 
3081.000000	99.276580 
3080.000000	99.275040 
3079.000000	99.275649 
3078.000000	99.278597 
3077.000000	99.282886 
3076.000000	99.286936 
3075.000000	99.289600 
3074.000000	99.290456 
3073.000000	99.289597 
3072.000000	99.287617 
3071.000000	99.285416 
3070.000000	99.283351 
3069.000000	99.280692 
3068.000000	99.276652 
3067.000000	99.272149 
3066.000000	99.269972 
3065.000000	99.272564 
3064.000000	99.279432 
3063.000000	99.286829 
3062.000000	99.290228 
3061.000000	99.287503 
3060.000000	99.280266 
3059.000000	99.272440 
3058.000000	99.267659 
3057.000000	99.267655 
3056.000000	99.272119 
3055.000000	99.279115 
3054.000000	99.285675 
3053.000000	99.289048 
3052.000000	99.288201 
3051.000000	99.284287 
3050.000000	99.279720 
3049.000000	99.276929 
3048.000000	99.277250 
3047.000000	99.279696 
3046.000000	99.280711 
3045.000000	99.276675 
3044.000000	99.267866 
3043.000000	99.259200 
3042.000000	99.255869 
3041.000000	99.258405 
3040.000000	99.262750 
3039.000000	99.264628 
3038.000000	99.262757 
3037.000000	99.258218 
3036.000000	99.252314 
3035.000000	99.245717 
3034.000000	99.238782 
3033.000000	99.231783 
3032.000000	99.224878 
3031.000000	99.218079 
3030.000000	99.211234 
3029.000000	99.204195 
3028.000000	99.197399 
3027.000000	99.192066 
3026.000000	99.189009 
3025.000000	99.187012 
3024.000000	99.183108 
3023.000000	99.175149 
3022.000000	99.163789 
3021.000000	99.151401 
3020.000000	99.139292 
3019.000000	99.126740 
3018.000000	99.112994 
3017.000000	99.099347 
3016.000000	99.088187 
3015.000000	99.079972 
3014.000000	99.072263 
3013.000000	99.062501 
3012.000000	99.051132 
3011.000000	99.040936 
3010.000000	99.033509 
3009.000000	99.027509 
3008.000000	99.020372 
3007.000000	99.010609 
3006.000000	98.998104 
3005.000000	98.983472 
3004.000000	98.968045 
3003.000000	98.953665 
3002.000000	98.941361 
3001.000000	98.930440 
3000.000000	98.919580 
2999.000000	98.908667 
2998.000000	98.899146 
2997.000000	98.892784 
2996.000000	98.890172 
2995.000000	98.889457 
2994.000000	98.886004 
2993.000000	98.874510 
2992.000000	98.853183 
2991.000000	98.826124 
2990.000000	98.800996 
2989.000000	98.784272 
2988.000000	98.778560 
2987.000000	98.782951 
2986.000000	98.794123 
2985.000000	98.807281 
2984.000000	98.817843 
2983.000000	98.823452 
2982.000000	98.824441 
2981.000000	98.822633 
2980.000000	98.820215 
2979.000000	98.819244 
2978.000000	98.820810 
2977.000000	98.824063 
2976.000000	98.826660 
2975.000000	98.826680 
2974.000000	98.824108 
2973.000000	98.820734 
2972.000000	98.819070 
2971.000000	98.821058 
2970.000000	98.827014 
2969.000000	98.835659 
2968.000000	98.845492 
2967.000000	98.856024 
2966.000000	98.867303 
2965.000000	98.878790 
2964.000000	98.889565 
2963.000000	98.899448 
2962.000000	98.909002 
2961.000000	98.918363 
2960.000000	98.926823 
2959.000000	98.933635 
2958.000000	98.938699 
2957.000000	98.942501 
2956.000000	98.946018 
2955.000000	98.950598 
2954.000000	98.957125 
2953.000000	98.965141 
2952.000000	98.973295 
2951.000000	98.980632 
2950.000000	98.986912 
2949.000000	98.991789 
2948.000000	98.994539 
2947.000000	98.994973 
2946.000000	98.994393 
2945.000000	98.995447 
2944.000000	99.000727 
2943.000000	99.010564 
2942.000000	99.021615 
2941.000000	99.028617 
2940.000000	99.028865 
2939.000000	99.025009 
2938.000000	99.022628 
2937.000000	99.025349 
2936.000000	99.033048 
2935.000000	99.043856 
2934.000000	99.055928 
2933.000000	99.067036 
2932.000000	99.074369 
2931.000000	99.076146 
2930.000000	99.073238 
2929.000000	99.068841 
2928.000000	99.066379 
2927.000000	99.066977 
2926.000000	99.068185 
2925.000000	99.065817 
2924.000000	99.058335 
2923.000000	99.049036 
2922.000000	99.042597 
2921.000000	99.039772 
2920.000000	99.037047 
2919.000000	99.031250 
2918.000000	99.022525 
2917.000000	99.012492 
2916.000000	99.001600 
2915.000000	98.989604 
2914.000000	98.977467 
2913.000000	98.967472 
2912.000000	98.961739 
2911.000000	98.960947 
2910.000000	98.963721 
2909.000000	98.966763 
2908.000000	98.966471 
2907.000000	98.961352 
2906.000000	98.952556 
2905.000000	98.941782 
2904.000000	98.929597 
2903.000000	98.916157 
2902.000000	98.903821 
2901.000000	98.896894 
2900.000000	98.899109 
2899.000000	98.910546 
2898.000000	98.926354 
2897.000000	98.939572 
2896.000000	98.946240 
2895.000000	98.948263 
2894.000000	98.950519 
2893.000000	98.955348 
2892.000000	98.960950 
2891.000000	98.964821 
2890.000000	98.966840 
2889.000000	98.968291 
2888.000000	98.969624 
2887.000000	98.970624 
2886.000000	98.971746 
2885.000000	98.973737 
2884.000000	98.976443 
2883.000000	98.979445 
2882.000000	98.983751 
2881.000000	98.991438 
2880.000000	99.003029 
2879.000000	99.015913 
2878.000000	99.026179 
2877.000000	99.032230 
2876.000000	99.036395 
2875.000000	99.042612 
2874.000000	99.052281 
2873.000000	99.062673 
2872.000000	99.069771 
2871.000000	99.072299 
2870.000000	99.072389 
2869.000000	99.073062 
2868.000000	99.076375 
2867.000000	99.083627 
2866.000000	99.095294 
2865.000000	99.109805 
2864.000000	99.123728 
2863.000000	99.134344 
2862.000000	99.141540 
2861.000000	99.146832 
2860.000000	99.151768 
2859.000000	99.158012 
2858.000000	99.167214 
2857.000000	99.178975 
2856.000000	99.189635 
2855.000000	99.195052 
2854.000000	99.194833 
2853.000000	99.192798 
2852.000000	99.193169 
2851.000000	99.197041 
2850.000000	99.202555 
2849.000000	99.207390 
2848.000000	99.210583 
2847.000000	99.212483 
2846.000000	99.213644 
2845.000000	99.214108 
2844.000000	99.213804 
2843.000000	99.213385 
2842.000000	99.214069 
2841.000000	99.216446 
2840.000000	99.219888 
2839.000000	99.223387 
2838.000000	99.226557 
2837.000000	99.229512 
2836.000000	99.232301 
2835.000000	99.234950 
2834.000000	99.237638 
2833.000000	99.240250 
2832.000000	99.241983 
2831.000000	99.241867 
2830.000000	99.239651 
2829.000000	99.235979 
2828.000000	99.232111 
2827.000000	99.229763 
2826.000000	99.230698 
2825.000000	99.235528 
2824.000000	99.242700 
2823.000000	99.249017 
2822.000000	99.251573 
2821.000000	99.249649 
2820.000000	99.245260 
2819.000000	99.241883 
2818.000000	99.241972 
2817.000000	99.245227 
2816.000000	99.249381 
2815.000000	99.252592 
2814.000000	99.254493 
2813.000000	99.255050 
2812.000000	99.253703 
2811.000000	99.250616 
2810.000000	99.247995 
2809.000000	99.248706 
2808.000000	99.253263 
2807.000000	99.258886 
2806.000000	99.261919 
2805.000000	99.260944 
2804.000000	99.257604 
2803.000000	99.254847 
2802.000000	99.254521 
2801.000000	99.256292 
2800.000000	99.258437 
2799.000000	99.259532 
2798.000000	99.259398 
2797.000000	99.258695 
2796.000000	99.258000 
2795.000000	99.257401 
2794.000000	99.256692 
2793.000000	99.255740 
2792.000000	99.254772 
2791.000000	99.254399 
2790.000000	99.255227 
2789.000000	99.257391 
2788.000000	99.260523 
2787.000000	99.263942 
2786.000000	99.266526 
2785.000000	99.266686 
2784.000000	99.263362 
2783.000000	99.257436 
2782.000000	99.251718 
2781.000000	99.249043 
2780.000000	99.250414 
2779.000000	99.254852 
2778.000000	99.260488 
2777.000000	99.265579 
2776.000000	99.269051 
2775.000000	99.270706 
2774.000000	99.270951 
2773.000000	99.270347 
2772.000000	99.269565 
2771.000000	99.269536 
2770.000000	99.270829 
2769.000000	99.272682 
2768.000000	99.273452 
2767.000000	99.272518 
2766.000000	99.271099 
2765.000000	99.270543 
2764.000000	99.270369 
2763.000000	99.268905 
2762.000000	99.265670 
2761.000000	99.262217 
2760.000000	99.260486 
2759.000000	99.260986 
2758.000000	99.262883 
2757.000000	99.265288 
2756.000000	99.267829 
2755.000000	99.270042 
2754.000000	99.270840 
2753.000000	99.269231 
2752.000000	99.265759 
2751.000000	99.262802 
2750.000000	99.262800 
2749.000000	99.265966 
2748.000000	99.270010 
2747.000000	99.272316 
2746.000000	99.272173 
2745.000000	99.270750 
2744.000000	99.269331 
2743.000000	99.268095 
2742.000000	99.266662 
2741.000000	99.265305 
2740.000000	99.265135 
2739.000000	99.266946 
2738.000000	99.270211 
2737.000000	99.273574 
2736.000000	99.276211 
2735.000000	99.278141 
2734.000000	99.279137 
2733.000000	99.278173 
2732.000000	99.274700 
2731.000000	99.270028 
2730.000000	99.266506 
2729.000000	99.265341 
2728.000000	99.265943 
2727.000000	99.267313 
2726.000000	99.269122 
2725.000000	99.271193 
2724.000000	99.272934 
2723.000000	99.274011 
2722.000000	99.274990 
2721.000000	99.276524 
2720.000000	99.278150 
2719.000000	99.278567 
2718.000000	99.277140 
2717.000000	99.274626 
2716.000000	99.272385 
2715.000000	99.271294 
2714.000000	99.271548 
2713.000000	99.273010 
2712.000000	99.275230 
2711.000000	99.277288 
2710.000000	99.278289 
2709.000000	99.278386 
2708.000000	99.278858 
2707.000000	99.280518 
2706.000000	99.282247 
2705.000000	99.281996 
2704.000000	99.279420 
2703.000000	99.276599 
2702.000000	99.275631 
2701.000000	99.276319 
2700.000000	99.277077 
2699.000000	99.277484 
2698.000000	99.278715 
2697.000000	99.281448 
2696.000000	99.284387 
2695.000000	99.285385 
2694.000000	99.283684 
2693.000000	99.280827 
2692.000000	99.279375 
2691.000000	99.280485 
2690.000000	99.282535 
2689.000000	99.282571 
2688.000000	99.279479 
2687.000000	99.275276 
2686.000000	99.272983 
2685.000000	99.273951 
2684.000000	99.277702 
2683.000000	99.283063 
2682.000000	99.288032 
2681.000000	99.289545 
2680.000000	99.285647 
2679.000000	99.278265 
2678.000000	99.272217 
2677.000000	99.271013 
2676.000000	99.274596 
2675.000000	99.281017 
2674.000000	99.288339 
2673.000000	99.294304 
2672.000000	99.296252 
2671.000000	99.293227 
2670.000000	99.287487 
2669.000000	99.282622 
2668.000000	99.280459 
2667.000000	99.280498 
2666.000000	99.281506 
2665.000000	99.282435 
2664.000000	99.282263 
2663.000000	99.280445 
2662.000000	99.277919 
2661.000000	99.276793 
2660.000000	99.278472 
2659.000000	99.282296 
2658.000000	99.286218 
2657.000000	99.288727 
2656.000000	99.289926 
2655.000000	99.290659 
2654.000000	99.290801 
2653.000000	99.289283 
2652.000000	99.286425 
2651.000000	99.285323 
2650.000000	99.289026 
2649.000000	99.295956 
2648.000000	99.300049 
2647.000000	99.297010 
2646.000000	99.289722 
2645.000000	99.285834 
2644.000000	99.289812 
2643.000000	99.298386 
2642.000000	99.304033 
2641.000000	99.302316 
2640.000000	99.295581 
2639.000000	99.290030 
2638.000000	99.289817 
2637.000000	99.293962 
2636.000000	99.298361 
2635.000000	99.299892 
2634.000000	99.298294 
2633.000000	99.295166 
2632.000000	99.292505 
2631.000000	99.291956 
2630.000000	99.293906 
2629.000000	99.296744 
2628.000000	99.298089 
2627.000000	99.297320 
2626.000000	99.295880 
2625.000000	99.294676 
2624.000000	99.292549 
2623.000000	99.288484 
2622.000000	99.284203 
2621.000000	99.282881 
2620.000000	99.285431 
2619.000000	99.289357 
2618.000000	99.291402 
2617.000000	99.290480 
2616.000000	99.288000 
2615.000000	99.286293 
2614.000000	99.287152 
2613.000000	99.291246 
2612.000000	99.298086 
2611.000000	99.306040 
2610.000000	99.312360 
2609.000000	99.313894 
2608.000000	99.309137 
2607.000000	99.300338 
2606.000000	99.293032 
2605.000000	99.292322 
2604.000000	99.298894 
2603.000000	99.308378 
2602.000000	99.314571 
2601.000000	99.313825 
2600.000000	99.307387 
2599.000000	99.299996 
2598.000000	99.295750 
2597.000000	99.294826 
2596.000000	99.294115 
2595.000000	99.290920 
2594.000000	99.285567 
2593.000000	99.280567 
2592.000000	99.278156 
2591.000000	99.279138 
2590.000000	99.283308 
2589.000000	99.289754 
2588.000000	99.296367 
2587.000000	99.299935 
2586.000000	99.298129 
2585.000000	99.292276 
2584.000000	99.287405 
2583.000000	99.287889 
2582.000000	99.292633 
2581.000000	99.295945 
2580.000000	99.293879 
2579.000000	99.288192 
2578.000000	99.282983 
2577.000000	99.279282 
2576.000000	99.275261 
2575.000000	99.270640 
2574.000000	99.267927 
2573.000000	99.269060 
2572.000000	99.273163 
2571.000000	99.278106 
2570.000000	99.282394 
2569.000000	99.285098 
2568.000000	99.285886 
2567.000000	99.285859 
2566.000000	99.286665 
2565.000000	99.288109 
2564.000000	99.288135 
2563.000000	99.285813 
2562.000000	99.282813 
2561.000000	99.281189 
2560.000000	99.281027 
2559.000000	99.280818 
2558.000000	99.278913 
2557.000000	99.274459 
2556.000000	99.268666 
2555.000000	99.265377 
2554.000000	99.268133 
2553.000000	99.275721 
2552.000000	99.282591 
2551.000000	99.284632 
2550.000000	99.282578 
2549.000000	99.278898 
2548.000000	99.274058 
2547.000000	99.267948 
2546.000000	99.262828 
2545.000000	99.261932 
2544.000000	99.265689 
2543.000000	99.271196 
2542.000000	99.274928 
2541.000000	99.274796 
2540.000000	99.270792 
2539.000000	99.265281 
2538.000000	99.261679 
2537.000000	99.261112 
2536.000000	99.261240 
2535.000000	99.259822 
2534.000000	99.257968 
2533.000000	99.257622 
2532.000000	99.257269 
2531.000000	99.253562 
2530.000000	99.247214 
2529.000000	99.243755 
2528.000000	99.246838 
2527.000000	99.253131 
2526.000000	99.256009 
2525.000000	99.253197 
2524.000000	99.248876 
2523.000000	99.248606 
2522.000000	99.253910 
2521.000000	99.261976 
2520.000000	99.268936 
2519.000000	99.272211 
2518.000000	99.270586 
2517.000000	99.264081 
2516.000000	99.254569 
2515.000000	99.245565 
2514.000000	99.240307 
2513.000000	99.240070 
2512.000000	99.244304 
2511.000000	99.251394 
2510.000000	99.258685 
2509.000000	99.263327 
2508.000000	99.264881 
2507.000000	99.266338 
2506.000000	99.270528 
2505.000000	99.275709 
2504.000000	99.276784 
2503.000000	99.271244 
2502.000000	99.262292 
2501.000000	99.255782 
2500.000000	99.255566 
2499.000000	99.261696 
2498.000000	99.270871 
2497.000000	99.277799 
2496.000000	99.278268 
2495.000000	99.272544 
2494.000000	99.264982 
2493.000000	99.259660 
2492.000000	99.257475 
2491.000000	99.257668 
2490.000000	99.260169 
2489.000000	99.265269 
2488.000000	99.272378 
2487.000000	99.280200 
2486.000000	99.287061 
2485.000000	99.290594 
2484.000000	99.288799 
2483.000000	99.282345 
2482.000000	99.274319 
2481.000000	99.266842 
2480.000000	99.259615 
2479.000000	99.252576 
2478.000000	99.247768 
2477.000000	99.247010 
2476.000000	99.249597 
2475.000000	99.253984 
2474.000000	99.259741 
2473.000000	99.265716 
2472.000000	99.268301 
2471.000000	99.264597 
2470.000000	99.256561 
2469.000000	99.249443 
2468.000000	99.246545 
2467.000000	99.247574 
2466.000000	99.251209 
2465.000000	99.256289 
2464.000000	99.260644 
2463.000000	99.261920 
2462.000000	99.260542 
2461.000000	99.259605 
2460.000000	99.260655 
2459.000000	99.261307 
2458.000000	99.258263 
2457.000000	99.251479 
2456.000000	99.244229 
2455.000000	99.240036 
2454.000000	99.240537 
2453.000000	99.245342 
2452.000000	99.252278 
2451.000000	99.257699 
2450.000000	99.257991 
2449.000000	99.252150 
2448.000000	99.243382 
2447.000000	99.237608 
2446.000000	99.239212 
2445.000000	99.247260 
2444.000000	99.255841 
2443.000000	99.258672 
2442.000000	99.253840 
2441.000000	99.244693 
2440.000000	99.236897 
2439.000000	99.234647 
2438.000000	99.238433 
2437.000000	99.245103 
2436.000000	99.250062 
2435.000000	99.250300 
2434.000000	99.246081 
2433.000000	99.240308 
2432.000000	99.236697 
2431.000000	99.237883 
2430.000000	99.243668 
2429.000000	99.250384 
2428.000000	99.253102 
2427.000000	99.249630 
2426.000000	99.242179 
2425.000000	99.234902 
2424.000000	99.230771 
2423.000000	99.231309 
2422.000000	99.237557 
2421.000000	99.248888 
2420.000000	99.261002 
2419.000000	99.267376 
2418.000000	99.264233 
2417.000000	99.253782 
2416.000000	99.242064 
2415.000000	99.233914 
2414.000000	99.230284 
2413.000000	99.229522 
2412.000000	99.229855 
2411.000000	99.230318 
2410.000000	99.230348 
2409.000000	99.229728 
2408.000000	99.229021 
2407.000000	99.229203 
2406.000000	99.230526 
2405.000000	99.232225 
2404.000000	99.233485 
2403.000000	99.234015 
2402.000000	99.233464 
2401.000000	99.231299 
2400.000000	99.227764 
2399.000000	99.224121 
2398.000000	99.221404 
2397.000000	99.219935 
2396.000000	99.220363 
2395.000000	99.223407 
2394.000000	99.227516 
2393.000000	99.228867 
2392.000000	99.225874 
2391.000000	99.222092 
2390.000000	99.221973 
2389.000000	99.224925 
2388.000000	99.226772 
2387.000000	99.226381 
2386.000000	99.226937 
2385.000000	99.230168 
2384.000000	99.233287 
2383.000000	99.233416 
2382.000000	99.231850 
2381.000000	99.231403 
2380.000000	99.231912 
2379.000000	99.231333 
2378.000000	99.229880 
2377.000000	99.229965 
2376.000000	99.232419 
2375.000000	99.235235 
2374.000000	99.235976 
2373.000000	99.233637 
2372.000000	99.228619 
2371.000000	99.222812 
2370.000000	99.219323 
2369.000000	99.220255 
2368.000000	99.224786 
2367.000000	99.230396 
2366.000000	99.235603 
2365.000000	99.240888 
2364.000000	99.247187 
2363.000000	99.253976 
2362.000000	99.258821 
2361.000000	99.258375 
2360.000000	99.252015 
2359.000000	99.243217 
2358.000000	99.236514 
2357.000000	99.234200 
2356.000000	99.236802 
2355.000000	99.243519 
2354.000000	99.249928 
2353.000000	99.251726 
2352.000000	99.249682 
2351.000000	99.248074 
2350.000000	99.249415 
2349.000000	99.252184 
2348.000000	99.254271 
2347.000000	99.254857 
2346.000000	99.255348 
2345.000000	99.257600 
2344.000000	99.261477 
2343.000000	99.265854 
2342.000000	99.269396 
2341.000000	99.271581 
2340.000000	99.272329 
2339.000000	99.272893 
2338.000000	99.273789 
2337.000000	99.273282 
2336.000000	99.268845 
2335.000000	99.260410 
2334.000000	99.251179 
2333.000000	99.246443 
2332.000000	99.249195 
2331.000000	99.255867 
2330.000000	99.259188 
2329.000000	99.256042 
2328.000000	99.252348 
2327.000000	99.255891 
2326.000000	99.267919 
2325.000000	99.281748 
2324.000000	99.289420 
2323.000000	99.289394 
2322.000000	99.286140 
2321.000000	99.284297 
2320.000000	99.282879 
2319.000000	99.278425 
2318.000000	99.270926 
2317.000000	99.264476 
2316.000000	99.261874 
2315.000000	99.261234 
2314.000000	99.259300 
2313.000000	99.255651 
2312.000000	99.252487 
2311.000000	99.250628 
2310.000000	99.248703 
2309.000000	99.245965 
2308.000000	99.244013 
2307.000000	99.244449 
2306.000000	99.246261 
2305.000000	99.247128 
2304.000000	99.246613 
2303.000000	99.246615 
2302.000000	99.248408 
2301.000000	99.251077 
2300.000000	99.253595 
2299.000000	99.256625 
2298.000000	99.260528 
2297.000000	99.262578 
2296.000000	99.259310 
2295.000000	99.251352 
2294.000000	99.243750 
2293.000000	99.240592 
2292.000000	99.241655 
2291.000000	99.244901 
2290.000000	99.249812 
2289.000000	99.256346 
2288.000000	99.262356 
2287.000000	99.264463 
2286.000000	99.261091 
2285.000000	99.253515 
2284.000000	99.244579 
2283.000000	99.237475 
2282.000000	99.234482 
2281.000000	99.235320 
2280.000000	99.237331 
2279.000000	99.238560 
2278.000000	99.239517 
2277.000000	99.240926 
2276.000000	99.241545 
2275.000000	99.240096 
2274.000000	99.237915 
2273.000000	99.237336 
2272.000000	99.238363 
2271.000000	99.238966 
2270.000000	99.237845 
2269.000000	99.234843 
2268.000000	99.229648 
2267.000000	99.222665 
2266.000000	99.216649 
2265.000000	99.214397 
2264.000000	99.214544 
2263.000000	99.212452 
2262.000000	99.206365 
2261.000000	99.200555 
2260.000000	99.200762 
2259.000000	99.207646 
2258.000000	99.216055 
2257.000000	99.220451 
2256.000000	99.220003 
2255.000000	99.218290 
2254.000000	99.218751 
2253.000000	99.221480 
2252.000000	99.224692 
2251.000000	99.227674 
2250.000000	99.230826 
2249.000000	99.233144 
2248.000000	99.232643 
2247.000000	99.229462 
2246.000000	99.226189 
2245.000000	99.224614 
2244.000000	99.223795 
2243.000000	99.222411 
2242.000000	99.220876 
2241.000000	99.220230 
2240.000000	99.221258 
2239.000000	99.225700 
2238.000000	99.234956 
2237.000000	99.245226 
2236.000000	99.247396 
2235.000000	99.236078 
2234.000000	99.217410 
2233.000000	99.203959 
2232.000000	99.202056 
2231.000000	99.207199 
2230.000000	99.211334 
2229.000000	99.210984 
2228.000000	99.207682 
2227.000000	99.203763 
2226.000000	99.199901 
2225.000000	99.195995 
2224.000000	99.193313 
2223.000000	99.195014 
2222.000000	99.202763 
2221.000000	99.212035 
2220.000000	99.213746 
2219.000000	99.203799 
2218.000000	99.189667 
2217.000000	99.183860 
2216.000000	99.190891 
2215.000000	99.203799 
2214.000000	99.213169 
2213.000000	99.215625 
2212.000000	99.212962 
2211.000000	99.207796 
2210.000000	99.203639 
2209.000000	99.206099 
2208.000000	99.218157 
2207.000000	99.233278 
2206.000000	99.237488 
2205.000000	99.222493 
2204.000000	99.196527 
2203.000000	99.178727 
2202.000000	99.181050 
2201.000000	99.197045 
2200.000000	99.209769 
2199.000000	99.209122 
2198.000000	99.198587 
2197.000000	99.186780 
2196.000000	99.177910 
2195.000000	99.172437 
2194.000000	99.172196 
2193.000000	99.179350 
2192.000000	99.191203 
2191.000000	99.200948 
2190.000000	99.205057 
2189.000000	99.207170 
2188.000000	99.212454 
2187.000000	99.219253 
2186.000000	99.218925 
2185.000000	99.204975 
2184.000000	99.181211 
2183.000000	99.159274 
2182.000000	99.148538 
2181.000000	99.149779 
2180.000000	99.157936 
2179.000000	99.167938 
2178.000000	99.176492 
2177.000000	99.181668 
2176.000000	99.184085 
2175.000000	99.186430 
2174.000000	99.189043 
2173.000000	99.188800 
2172.000000	99.186112 
2171.000000	99.189512 
2170.000000	99.206943 
2169.000000	99.233316 
2168.000000	99.253245 
2167.000000	99.257343 
2166.000000	99.250547 
2165.000000	99.243791 
2164.000000	99.243389 
2163.000000	99.249620 
2162.000000	99.257803 
2161.000000	99.256565 
2160.000000	99.233293 
2159.000000	99.189465 
2158.000000	99.145018 
2157.000000	99.118602 
2156.000000	99.108905 
2155.000000	99.103321 
2154.000000	99.097554 
2153.000000	99.098039 
2152.000000	99.109182 
2151.000000	99.126336 
2150.000000	99.142088 
2149.000000	99.154389 
2148.000000	99.166483 
2147.000000	99.180900 
2146.000000	99.195032 
2145.000000	99.202662 
2144.000000	99.200268 
2143.000000	99.191586 
2142.000000	99.184310 
2141.000000	99.181818 
2140.000000	99.180154 
2139.000000	99.174513 
2138.000000	99.166603 
2137.000000	99.162926 
2136.000000	99.166523 
2135.000000	99.173179 
2134.000000	99.176698 
2133.000000	99.176164 
2132.000000	99.176053 
2131.000000	99.179152 
2130.000000	99.181496 
2129.000000	99.176564 
2128.000000	99.164224 
2127.000000	99.152591 
2126.000000	99.149453 
2125.000000	99.154426 
2124.000000	99.162231 
2123.000000	99.171319 
2122.000000	99.184519 
2121.000000	99.201619 
2120.000000	99.216566 
2119.000000	99.223725 
2118.000000	99.223331 
2117.000000	99.219109 
2116.000000	99.213802 
2115.000000	99.209073 
2114.000000	99.206636 
2113.000000	99.206190 
2112.000000	99.204075 
2111.000000	99.197420 
2110.000000	99.189082 
2109.000000	99.185642 
2108.000000	99.190004 
2107.000000	99.197644 
2106.000000	99.200759 
2105.000000	99.195723 
2104.000000	99.186601 
2103.000000	99.181455 
2102.000000	99.184592 
2101.000000	99.192258 
2100.000000	99.196504 
2099.000000	99.192946 
2098.000000	99.183945 
2097.000000	99.175397 
2096.000000	99.172504 
2095.000000	99.177868 
2094.000000	99.190151 
2093.000000	99.203317 
2092.000000	99.210035 
2091.000000	99.207937 
2090.000000	99.201709 
2089.000000	99.198130 
2088.000000	99.199347 
2087.000000	99.201155 
2086.000000	99.197237 
2085.000000	99.185898 
2084.000000	99.174045 
2083.000000	99.173051 
2082.000000	99.187815 
2081.000000	99.210328 
2080.000000	99.227221 
2079.000000	99.233555 
2078.000000	99.235711 
2077.000000	99.241027 
2076.000000	99.249031 
2075.000000	99.253776 
2074.000000	99.250468 
2073.000000	99.238258 
2072.000000	99.220704 
2071.000000	99.205412 
2070.000000	99.199592 
2069.000000	99.202921 
2068.000000	99.206672 
2067.000000	99.202094 
2066.000000	99.188605 
2065.000000	99.173887 
2064.000000	99.168002 
2063.000000	99.176456 
2062.000000	99.194738 
2061.000000	99.209240 
2060.000000	99.209218 
2059.000000	99.199428 
2058.000000	99.195364 
2057.000000	99.204197 
2056.000000	99.216595 
2055.000000	99.220567 
2054.000000	99.217034 
2053.000000	99.216322 
2052.000000	99.223707 
2051.000000	99.234238 
2050.000000	99.239246 
2049.000000	99.233861 
2048.000000	99.220744 
2047.000000	99.209746 
2046.000000	99.211271 
2045.000000	99.226032 
2044.000000	99.243029 
2043.000000	99.250790 
2042.000000	99.248072 
2041.000000	99.240787 
2040.000000	99.232323 
2039.000000	99.221988 
2038.000000	99.210688 
2037.000000	99.202429 
2036.000000	99.199803 
2035.000000	99.200633 
2034.000000	99.198951 
2033.000000	99.189365 
2032.000000	99.174082 
2031.000000	99.165516 
2030.000000	99.175479 
2029.000000	99.198627 
2028.000000	99.213086 
2027.000000	99.202856 
2026.000000	99.174874 
2025.000000	99.150185 
2024.000000	99.143112 
2023.000000	99.153018 
2022.000000	99.170237 
2021.000000	99.182921 
2020.000000	99.182943 
2019.000000	99.172889 
2018.000000	99.165409 
2017.000000	99.169727 
2016.000000	99.180481 
2015.000000	99.185787 
2014.000000	99.182532 
2013.000000	99.177060 
2012.000000	99.174557 
2011.000000	99.174678 
2010.000000	99.176414 
2009.000000	99.181127 
2008.000000	99.190060 
2007.000000	99.202443 
2006.000000	99.215482 
2005.000000	99.224308 
2004.000000	99.224925 
2003.000000	99.219546 
2002.000000	99.215224 
2001.000000	99.213916 
2000.000000	99.207989 
1999.000000	99.190177 
1998.000000	99.164572 
1997.000000	99.143097 
1996.000000	99.133748 
1995.000000	99.136573 
1994.000000	99.148091 
1993.000000	99.163629 
1992.000000	99.176625 
1991.000000	99.181976 
1990.000000	99.180717 
1989.000000	99.177624 
1988.000000	99.175633 
1987.000000	99.176002 
1986.000000	99.181564 
1985.000000	99.194948 
1984.000000	99.213692 
1983.000000	99.230725 
1982.000000	99.239902 
1981.000000	99.239299 
1980.000000	99.230703 
1979.000000	99.218358 
1978.000000	99.206554 
1977.000000	99.195685 
1976.000000	99.182332 
1975.000000	99.165565 
1974.000000	99.150644 
1973.000000	99.143577 
1972.000000	99.144351 
1971.000000	99.149068 
1970.000000	99.157152 
1969.000000	99.172442 
1968.000000	99.196509 
1967.000000	99.223110 
1966.000000	99.241311 
1965.000000	99.244314 
1964.000000	99.234615 
1963.000000	99.220797 
1962.000000	99.210214 
1961.000000	99.204730 
1960.000000	99.202296 
1959.000000	99.200478 
1958.000000	99.197348 
1957.000000	99.191654 
1956.000000	99.184842 
1955.000000	99.180667 
1954.000000	99.179495 
1953.000000	99.175174 
1952.000000	99.162256 
1951.000000	99.145415 
1950.000000	99.136611 
1949.000000	99.141939 
1948.000000	99.155436 
1947.000000	99.166991 
1946.000000	99.171374 
1945.000000	99.168127 
1944.000000	99.158329 
1943.000000	99.145404 
1942.000000	99.135355 
1941.000000	99.131676 
1940.000000	99.132986 
1939.000000	99.137269 
1938.000000	99.143898 
1937.000000	99.150788 
1936.000000	99.154272 
1935.000000	99.153615 
1934.000000	99.152259 
1933.000000	99.152772 
1932.000000	99.153734 
1931.000000	99.154277 
1930.000000	99.158160 
1929.000000	99.168706 
1928.000000	99.181909 
1927.000000	99.189057 
1926.000000	99.184802 
1925.000000	99.170185 
1924.000000	99.151022 
1923.000000	99.136603 
1922.000000	99.136054 
1921.000000	99.150513 
1920.000000	99.170733 
1919.000000	99.184505 
1918.000000	99.186046 
1917.000000	99.178706 
1916.000000	99.169508 
1915.000000	99.164104 
1914.000000	99.165672 
1913.000000	99.173348 
1912.000000	99.181724 
1911.000000	99.185296 
1910.000000	99.183431 
1909.000000	99.179054 
1908.000000	99.174487 
1907.000000	99.171569 
1906.000000	99.173013 
1905.000000	99.179075 
1904.000000	99.184516 
1903.000000	99.182949 
1902.000000	99.173323 
1901.000000	99.159787 
1900.000000	99.147703 
1899.000000	99.141734 
1898.000000	99.144306 
1897.000000	99.152334 
1896.000000	99.157854 
1895.000000	99.156439 
1894.000000	99.153026 
1893.000000	99.154593 
1892.000000	99.160216 
1891.000000	99.163189 
1890.000000	99.160765 
1889.000000	99.157257 
1888.000000	99.157216 
1887.000000	99.160851 
1886.000000	99.166363 
1885.000000	99.171820 
1884.000000	99.175091 
1883.000000	99.175040 
1882.000000	99.172517 
1881.000000	99.168717 
1880.000000	99.164094 
1879.000000	99.159703 
1878.000000	99.157049 
1877.000000	99.155508 
1876.000000	99.152885 
1875.000000	99.150389 
1874.000000	99.153396 
1873.000000	99.163957 
1872.000000	99.175916 
1871.000000	99.180809 
1870.000000	99.176232 
1869.000000	99.165636 
1868.000000	99.151325 
1867.000000	99.134217 
1866.000000	99.118883 
1865.000000	99.110705 
1864.000000	99.110879 
1863.000000	99.118646 
1862.000000	99.134691 
1861.000000	99.157038 
1860.000000	99.176110 
1859.000000	99.181846 
1858.000000	99.175534 
1857.000000	99.167943 
1856.000000	99.166149 
1855.000000	99.168201 
1854.000000	99.169680 
1853.000000	99.169441 
1852.000000	99.168166 
1851.000000	99.165648 
1850.000000	99.161828 
1849.000000	99.158011 
1848.000000	99.155423 
1847.000000	99.154448 
1846.000000	99.155520 
1845.000000	99.157570 
1844.000000	99.155807 
1843.000000	99.147680 
1842.000000	99.138890 
1841.000000	99.137019 
1840.000000	99.143613 
1839.000000	99.154100 
1838.000000	99.162975 
1837.000000	99.168363 
1836.000000	99.171318 
1835.000000	99.173114 
1834.000000	99.174211 
1833.000000	99.174901 
1832.000000	99.175569 
1831.000000	99.175685 
1830.000000	99.174484 
1829.000000	99.172907 
1828.000000	99.172742 
1827.000000	99.173797 
1826.000000	99.174280 
1825.000000	99.173900 
1824.000000	99.173892 
1823.000000	99.174626 
1822.000000	99.175324 
1821.000000	99.174597 
1820.000000	99.170774 
1819.000000	99.163402 
1818.000000	99.155343 
1817.000000	99.151090 
1816.000000	99.151190 
1815.000000	99.151826 
1814.000000	99.150782 
1813.000000	99.150863 
1812.000000	99.156136 
1811.000000	99.166086 
1810.000000	99.177285 
1809.000000	99.188365 
1808.000000	99.198050 
1807.000000	99.202221 
1806.000000	99.197898 
1805.000000	99.187686 
1804.000000	99.177528 
1803.000000	99.170986 
1802.000000	99.168242 
1801.000000	99.169243 
1800.000000	99.172581 
1799.000000	99.174399 
1798.000000	99.172691 
1797.000000	99.169150 
1796.000000	99.166526 
1795.000000	99.166717 
1794.000000	99.169940 
1793.000000	99.174241 
1792.000000	99.176868 
1791.000000	99.177013 
1790.000000	99.176757 
1789.000000	99.178690 
1788.000000	99.183344 
1787.000000	99.188819 
1786.000000	99.192511 
1785.000000	99.192631 
1784.000000	99.188970 
1783.000000	99.183982 
1782.000000	99.181527 
1781.000000	99.182832 
1780.000000	99.183810 
1779.000000	99.179717 
1778.000000	99.172248 
1777.000000	99.167216 
1776.000000	99.167659 
1775.000000	99.173141 
1774.000000	99.182606 
1773.000000	99.194153 
1772.000000	99.202489 
1771.000000	99.203141 
1770.000000	99.197933 
1769.000000	99.191553 
1768.000000	99.187450 
1767.000000	99.185875 
1766.000000	99.185224 
1765.000000	99.185354 
1764.000000	99.186939 
1763.000000	99.189507 
1762.000000	99.191691 
1761.000000	99.193373 
1760.000000	99.195460 
1759.000000	99.197618 
1758.000000	99.198593 
1757.000000	99.198309 
1756.000000	99.198363 
1755.000000	99.199292 
1754.000000	99.198866 
1753.000000	99.194574 
1752.000000	99.188128 
1751.000000	99.186651 
1750.000000	99.194070 
1749.000000	99.204942 
1748.000000	99.212116 
1747.000000	99.213601 
1746.000000	99.211155 
1745.000000	99.207411 
1744.000000	99.205093 
1743.000000	99.205874 
1742.000000	99.208783 
1741.000000	99.211720 
1740.000000	99.213463 
1739.000000	99.214267 
1738.000000	99.214923 
1737.000000	99.215398 
1736.000000	99.214432 
1735.000000	99.209917 
1734.000000	99.200469 
1733.000000	99.190028 
1732.000000	99.185525 
1731.000000	99.189210 
1730.000000	99.198369 
1729.000000	99.207315 
1728.000000	99.211621 
1727.000000	99.211509 
1726.000000	99.209823 
1725.000000	99.207587 
1724.000000	99.203917 
1723.000000	99.199934 
1722.000000	99.199705 
1721.000000	99.206038 
1720.000000	99.217532 
1719.000000	99.229391 
1718.000000	99.236049 
1717.000000	99.236002 
1716.000000	99.230970 
1715.000000	99.222405 
1714.000000	99.213635 
1713.000000	99.208226 
1712.000000	99.206284 
1711.000000	99.206598 
1710.000000	99.209105 
1709.000000	99.213415 
1708.000000	99.216814 
1707.000000	99.216751 
1706.000000	99.216154 
1705.000000	99.220505 
1704.000000	99.226587 
1703.000000	99.224880 
1702.000000	99.211948 
1701.000000	99.198559 
1700.000000	99.197277 
1699.000000	99.202756 
1698.000000	99.205950 
1697.000000	99.208218 
1696.000000	99.213181 
1695.000000	99.219182 
1694.000000	99.223805 
1693.000000	99.226824 
1692.000000	99.226501 
1691.000000	99.222288 
1690.000000	99.216751 
1689.000000	99.212687 
1688.000000	99.209165 
1687.000000	99.203629 
1686.000000	99.198175 
1685.000000	99.200198 
1684.000000	99.209442 
1683.000000	99.215941 
1682.000000	99.216371 
1681.000000	99.213648 
1680.000000	99.211927 
1679.000000	99.213497 
1678.000000	99.217516 
1677.000000	99.222151 
1676.000000	99.226520 
1675.000000	99.229872 
1674.000000	99.231107 
1673.000000	99.230741 
1672.000000	99.229960 
1671.000000	99.229908 
1670.000000	99.231016 
1669.000000	99.231945 
1668.000000	99.232771 
1667.000000	99.234378 
1666.000000	99.234744 
1665.000000	99.231812 
1664.000000	99.227724 
1663.000000	99.227631 
1662.000000	99.233251 
1661.000000	99.240340 
1660.000000	99.244618 
1659.000000	99.246475 
1658.000000	99.249146 
1657.000000	99.251809 
1656.000000	99.250239 
1655.000000	99.242661 
1654.000000	99.238715 
1653.000000	99.240759 
1652.000000	99.239517 
1651.000000	99.239257 
1650.000000	99.239668 
1649.000000	99.235280 
1648.000000	99.227444 
1647.000000	99.219835 
1646.000000	99.214855 
1645.000000	99.214699 
1644.000000	99.220358 
1643.000000	99.228747 
1642.000000	99.235416 
1641.000000	99.238625 
1640.000000	99.238814 
1639.000000	99.237001 
1638.000000	99.234092 
1637.000000	99.231685 
1636.000000	99.229964 
1635.000000	99.228040 
1634.000000	99.228813 
1633.000000	99.233413 
1632.000000	99.238421 
1631.000000	99.241754 
1630.000000	99.243906 
1629.000000	99.245118 
1628.000000	99.244536 
1627.000000	99.242307 
1626.000000	99.240426 
1625.000000	99.240943 
1624.000000	99.244206 
1623.000000	99.248506 
1622.000000	99.251934 
1621.000000	99.253774 
1620.000000	99.253443 
1619.000000	99.250841 
1618.000000	99.248153 
1617.000000	99.247211 
1616.000000	99.246923 
1615.000000	99.246513 
1614.000000	99.244915 
1613.000000	99.240407 
1612.000000	99.234398 
1611.000000	99.230186 
1610.000000	99.228777 
1609.000000	99.228325 
1608.000000	99.227626 
1607.000000	99.227491 
1606.000000	99.228026 
1605.000000	99.228240 
1604.000000	99.228174 
1603.000000	99.229091 
1602.000000	99.231127 
1601.000000	99.232584 
1600.000000	99.232963 
1599.000000	99.234253 
1598.000000	99.237717 
1597.000000	99.241814 
1596.000000	99.244644 
1595.000000	99.246814 
1594.000000	99.249922 
1593.000000	99.253228 
1592.000000	99.254646 
1591.000000	99.254291 
1590.000000	99.254217 
1589.000000	99.255039 
1588.000000	99.255637 
1587.000000	99.255931 
1586.000000	99.256425 
1585.000000	99.255814 
1584.000000	99.252059 
1583.000000	99.245534 
1582.000000	99.239823 
1581.000000	99.238014 
1580.000000	99.239644 
1579.000000	99.242385 
1578.000000	99.245404 
1577.000000	99.248626 
1576.000000	99.249801 
1575.000000	99.249778 
1574.000000	99.252273 
1573.000000	99.255115 
1572.000000	99.254186 
1571.000000	99.250662 
1570.000000	99.249524 
1569.000000	99.252787 
1568.000000	99.257984 
1567.000000	99.262147 
1566.000000	99.263921 
1565.000000	99.263780 
1564.000000	99.264172 
1563.000000	99.265701 
1562.000000	99.267482 
1561.000000	99.267176 
1560.000000	99.264410 
1559.000000	99.259053 
1558.000000	99.251747 
1557.000000	99.249704 
1556.000000	99.252675 
1555.000000	99.254883 
1554.000000	99.253408 
1553.000000	99.250468 
1552.000000	99.248544 
1551.000000	99.248717 
1550.000000	99.251457 
1549.000000	99.256158 
1548.000000	99.259972 
1547.000000	99.260021 
1546.000000	99.255197 
1545.000000	99.248078 
1544.000000	99.242963 
1543.000000	99.241026 
1542.000000	99.241884 
1541.000000	99.246888 
1540.000000	99.250230 
1539.000000	99.245789 
1538.000000	99.241543 
1537.000000	99.242819 
1536.000000	99.245179 
1535.000000	99.245572 
1534.000000	99.246122 
1533.000000	99.248701 
1532.000000	99.250277 
1531.000000	99.247627 
1530.000000	99.243048 
1529.000000	99.240789 
1528.000000	99.241504 
1527.000000	99.242710 
1526.000000	99.242850 
1525.000000	99.242836 
1524.000000	99.243283 
1523.000000	99.243686 
1522.000000	99.245226 
1521.000000	99.248449 
1520.000000	99.249834 
1519.000000	99.246507 
1518.000000	99.239913 
1517.000000	99.234303 
1516.000000	99.231983 
1515.000000	99.231591 
1514.000000	99.231747 
1513.000000	99.232039 
1512.000000	99.231934 
1511.000000	99.230012 
1510.000000	99.225472 
1509.000000	99.219508 
1508.000000	99.218979 
1507.000000	99.229487 
1506.000000	99.238564 
1505.000000	99.237430 
1504.000000	99.234323 
1503.000000	99.233447 
1502.000000	99.234279 
1501.000000	99.237798 
1500.000000	99.243728 
1499.000000	99.250163 
1498.000000	99.254541 
1497.000000	99.257828 
1496.000000	99.261048 
1495.000000	99.261277 
1494.000000	99.256102 
1493.000000	99.246794 
1492.000000	99.236247 
1491.000000	99.227813 
1490.000000	99.224134 
1489.000000	99.224805 
1488.000000	99.224790 
1487.000000	99.220915 
1486.000000	99.216960 
1485.000000	99.216371 
1484.000000	99.218000 
1483.000000	99.218814 
1482.000000	99.216673 
1481.000000	99.212107 
1480.000000	99.207415 
1479.000000	99.204677 
1478.000000	99.204791 
1477.000000	99.207233 
1476.000000	99.209757 
1475.000000	99.209544 
1474.000000	99.207800 
1473.000000	99.210482 
1472.000000	99.218552 
1471.000000	99.224763 
1470.000000	99.225843 
1469.000000	99.225569 
1468.000000	99.227301 
1467.000000	99.230679 
1466.000000	99.233756 
1465.000000	99.235507 
1464.000000	99.235499 
1463.000000	99.233984 
1462.000000	99.232871 
1461.000000	99.234231 
1460.000000	99.237590 
1459.000000	99.239574 
1458.000000	99.235720 
1457.000000	99.226087 
1456.000000	99.216573 
1455.000000	99.210609 
1454.000000	99.207158 
1453.000000	99.205668 
1452.000000	99.205682 
1451.000000	99.205848 
1450.000000	99.205306 
1449.000000	99.206100 
1448.000000	99.210076 
1447.000000	99.215072 
1446.000000	99.218015 
1445.000000	99.219530 
1444.000000	99.221312 
1443.000000	99.222502 
1442.000000	99.221715 
1441.000000	99.219940 
1440.000000	99.219845 
1439.000000	99.222547 
1438.000000	99.225478 
1437.000000	99.224839 
1436.000000	99.219922 
1435.000000	99.212506 
1434.000000	99.205095 
1433.000000	99.200793 
1432.000000	99.201354 
1431.000000	99.206133 
1430.000000	99.211670 
1429.000000	99.214566 
1428.000000	99.214362 
1427.000000	99.212197 
1426.000000	99.208529 
1425.000000	99.203106 
1424.000000	99.198020 
1423.000000	99.195757 
1422.000000	99.194792 
1421.000000	99.191740 
1420.000000	99.185066 
1419.000000	99.175348 
1418.000000	99.162548 
1417.000000	99.147608 
1416.000000	99.134466 
1415.000000	99.125413 
1414.000000	99.117821 
1413.000000	99.107607 
1412.000000	99.094882 
1411.000000	99.083570 
1410.000000	99.075167 
1409.000000	99.068665 
1408.000000	99.064564 
1407.000000	99.064046 
1406.000000	99.066146 
1405.000000	99.069535 
1404.000000	99.075629 
1403.000000	99.084581 
1402.000000	99.092347 
1401.000000	99.095625 
1400.000000	99.095871 
1399.000000	99.096593 
1398.000000	99.095405 
1397.000000	99.084855 
1396.000000	99.063136 
1395.000000	99.040543 
1394.000000	99.031434 
1393.000000	99.040484 
1392.000000	99.062736 
1391.000000	99.089928 
1390.000000	99.113769 
1389.000000	99.128212 
1388.000000	99.131448 
1387.000000	99.126368 
1386.000000	99.117475 
1385.000000	99.108422 
1384.000000	99.101990 
1383.000000	99.099551 
1382.000000	99.100723 
1381.000000	99.104894 
1380.000000	99.111494 
1379.000000	99.119087 
1378.000000	99.125168 
1377.000000	99.127954 
1376.000000	99.128787 
1375.000000	99.132105 
1374.000000	99.141002 
1373.000000	99.152734 
1372.000000	99.162121 
1371.000000	99.168832 
1370.000000	99.176877 
1369.000000	99.187713 
1368.000000	99.199025 
1367.000000	99.208174 
1366.000000	99.214378 
1365.000000	99.217757 
1364.000000	99.217760 
1363.000000	99.215286 
1362.000000	99.214260 
1361.000000	99.217335 
1360.000000	99.222858 
1359.000000	99.228279 
1358.000000	99.233330 
1357.000000	99.238776 
1356.000000	99.244133 
1355.000000	99.248158 
1354.000000	99.250846 
1353.000000	99.253231 
1352.000000	99.254279 
1351.000000	99.251850 
1350.000000	99.247199 
1349.000000	99.243573 
1348.000000	99.242725 
1347.000000	99.244180 
1346.000000	99.247286 
1345.000000	99.251573 
1344.000000	99.255553 
1343.000000	99.257424 
1342.000000	99.257005 
1341.000000	99.255411 
1340.000000	99.253328 
1339.000000	99.251104 
1338.000000	99.249809 
1337.000000	99.251029 
1336.000000	99.255039 
1335.000000	99.259854 
1334.000000	99.263289 
1333.000000	99.265158 
1332.000000	99.266345 
1331.000000	99.267037 
1330.000000	99.266694 
1329.000000	99.265094 
1328.000000	99.262922 
1327.000000	99.261534 
1326.000000	99.261760 
1325.000000	99.262467 
1324.000000	99.262406 
1323.000000	99.262038 
1322.000000	99.262291 
1321.000000	99.262557 
1320.000000	99.261546 
1319.000000	99.259630 
1318.000000	99.258537 
1317.000000	99.258834 
1316.000000	99.259094 
1315.000000	99.257931 
1314.000000	99.255755 
1313.000000	99.254350 
1312.000000	99.255103 
1311.000000	99.258047 
1310.000000	99.262169 
1309.000000	99.266073 
1308.000000	99.268334 
1307.000000	99.267949 
1306.000000	99.265067 
1305.000000	99.260952 
1304.000000	99.257841 
1303.000000	99.257690 
1302.000000	99.260683 
1301.000000	99.265000 
1300.000000	99.268175 
1299.000000	99.268584 
1298.000000	99.266001 
1297.000000	99.261609 
1296.000000	99.257590 
1295.000000	99.256225 
1294.000000	99.258308 
1293.000000	99.262410 
1292.000000	99.265909 
1291.000000	99.266742 
1290.000000	99.264697 
1289.000000	99.261575 
1288.000000	99.259841 
1287.000000	99.260368 
1286.000000	99.261343 
1285.000000	99.260214 
1284.000000	99.256695 
1283.000000	99.252718 
1282.000000	99.249561 
1281.000000	99.246440 
1280.000000	99.242429 
1279.000000	99.238329 
1278.000000	99.235342 
1277.000000	99.233002 
1276.000000	99.229731 
1275.000000	99.225232 
1274.000000	99.220948 
1273.000000	99.218194 
1272.000000	99.216809 
1271.000000	99.215421 
1270.000000	99.212329 
1269.000000	99.206580 
1268.000000	99.199144 
1267.000000	99.192372 
1266.000000	99.187228 
1265.000000	99.182039 
1264.000000	99.174986 
1263.000000	99.166539 
1262.000000	99.158163 
1261.000000	99.149896 
1260.000000	99.141343 
1259.000000	99.134179 
1258.000000	99.130862 
1257.000000	99.131218 
1256.000000	99.132477 
1255.000000	99.132800 
1254.000000	99.132874 
1253.000000	99.133749 
1252.000000	99.134933 
1251.000000	99.135439 
1250.000000	99.135207 
1249.000000	99.134930 
1248.000000	99.135892 
1247.000000	99.139959 
1246.000000	99.147392 
1245.000000	99.154268 
1244.000000	99.154781 
1243.000000	99.147997 
1242.000000	99.140629 
1241.000000	99.140715 
1240.000000	99.149189 
1239.000000	99.159358 
1238.000000	99.164121 
1237.000000	99.161937 
1236.000000	99.155959 
1235.000000	99.149581 
1234.000000	99.143922 
1233.000000	99.138528 
1232.000000	99.133144 
1231.000000	99.128259 
1230.000000	99.124170 
1229.000000	99.120266 
1228.000000	99.116019 
1227.000000	99.112680 
1226.000000	99.112868 
1225.000000	99.117654 
1224.000000	99.124631 
1223.000000	99.129793 
1222.000000	99.131189 
1221.000000	99.130182 
1220.000000	99.129555 
1219.000000	99.131240 
1218.000000	99.135374 
1217.000000	99.140491 
1216.000000	99.144497 
1215.000000	99.146287 
1214.000000	99.146760 
1213.000000	99.147818 
1212.000000	99.150143 
1211.000000	99.152211 
1210.000000	99.151712 
1209.000000	99.147750 
1208.000000	99.141617 
1207.000000	99.135752 
1206.000000	99.132024 
1205.000000	99.130632 
1204.000000	99.130352 
1203.000000	99.129675 
1202.000000	99.127542 
1201.000000	99.123220 
1200.000000	99.116426 
1199.000000	99.108184 
1198.000000	99.100777 
1197.000000	99.095952 
1196.000000	99.093320 
1195.000000	99.091053 
1194.000000	99.087948 
1193.000000	99.084047 
1192.000000	99.079578 
1191.000000	99.074409 
1190.000000	99.068913 
1189.000000	99.064596 
1188.000000	99.063173 
1187.000000	99.064808 
1186.000000	99.067210 
1185.000000	99.066581 
1184.000000	99.060039 
1183.000000	99.047940 
1182.000000	99.034110 
1181.000000	99.023257 
1180.000000	99.017695 
1179.000000	99.016311 
1178.000000	99.016007 
1177.000000	99.013791 
1176.000000	99.008216 
1175.000000	99.000036 
1174.000000	98.991681 
1173.000000	98.985303 
1172.000000	98.981163 
1171.000000	98.978184 
1170.000000	98.975535 
1169.000000	98.972790 
1168.000000	98.968775 
1167.000000	98.961599 
1166.000000	98.950618 
1165.000000	98.938017 
1164.000000	98.927927 
1163.000000	98.923806 
1162.000000	98.926235 
1161.000000	98.932662 
1160.000000	98.939341 
1159.000000	98.944163 
1158.000000	98.947760 
1157.000000	98.951514 
1156.000000	98.954798 
1155.000000	98.955006 
1154.000000	98.950321 
1153.000000	98.941572 
1152.000000	98.931203 
1151.000000	98.921313 
1150.000000	98.912962 
1149.000000	98.906283 
1148.000000	98.900404 
1147.000000	98.893608 
1146.000000	98.884436 
1145.000000	98.872982 
1144.000000	98.861129 
1143.000000	98.851647 
1142.000000	98.846612 
1141.000000	98.845843 
1140.000000	98.846517 
1139.000000	98.844797 
1138.000000	98.838496 
1137.000000	98.828478 
1136.000000	98.817647 
1135.000000	98.808832 
1134.000000	98.803304 
1133.000000	98.800487 
1132.000000	98.798634 
1131.000000	98.796063 
1130.000000	98.792173 
1129.000000	98.787266 
1128.000000	98.781365 
1127.000000	98.773622 
1126.000000	98.763301 
1125.000000	98.751206 
1124.000000	98.739690 
1123.000000	98.730893 
1122.000000	98.724713 
1121.000000	98.718653 
1120.000000	98.710113 
1119.000000	98.698863 
1118.000000	98.686805 
1117.000000	98.675214 
1116.000000	98.663171 
1115.000000	98.649254 
1114.000000	98.633729 
1113.000000	98.617880 
1112.000000	98.602037 
1111.000000	98.586085 
1110.000000	98.571387 
1109.000000	98.559837 
1108.000000	98.550613 
1107.000000	98.539880 
1106.000000	98.525227 
1105.000000	98.508703 
1104.000000	98.493549 
1103.000000	98.479978 
1102.000000	98.466446 
1101.000000	98.454292 
1100.000000	98.447109 
1099.000000	98.444414 
1098.000000	98.441139 
1097.000000	98.433731 
1096.000000	98.424739 
1095.000000	98.418228 
1094.000000	98.412885 
1093.000000	98.402817 
1092.000000	98.384459 
1091.000000	98.359605 
1090.000000	98.331658 
1089.000000	98.301883 
1088.000000	98.270541 
1087.000000	98.239477 
1086.000000	98.211602 
1085.000000	98.188421 
1084.000000	98.168912 
1083.000000	98.150185 
1082.000000	98.129035 
1081.000000	98.104244 
1080.000000	98.078086 
1079.000000	98.054578 
1078.000000	98.035670 
1077.000000	98.020251 
1076.000000	98.007240 
1075.000000	97.997928 
1074.000000	97.994217 
1073.000000	97.995598 
1072.000000	97.998217 
1071.000000	97.995319 
1070.000000	97.978895 
1069.000000	97.944897 
1068.000000	97.900059 
1067.000000	97.861692 
1066.000000	97.846132 
1065.000000	97.855804 
1064.000000	97.878731 
1063.000000	97.899344 
1062.000000	97.907366 
1061.000000	97.898430 
1060.000000	97.872909 
1059.000000	97.838247 
1058.000000	97.808594 
1057.000000	97.795419 
1056.000000	97.796834 
1055.000000	97.798947 
1054.000000	97.789429 
1053.000000	97.768711 
1052.000000	97.747012 
1051.000000	97.732302 
1050.000000	97.723832 
1049.000000	97.716897 
1048.000000	97.710009 
1047.000000	97.705200 
1046.000000	97.703494 
1045.000000	97.702843 
1044.000000	97.700507 
1043.000000	97.696189 
1042.000000	97.692149 
1041.000000	97.690203 
1040.000000	97.689284 
1039.000000	97.687168 
1038.000000	97.684774 
1037.000000	97.687054 
1036.000000	97.698219 
1035.000000	97.717181 
1034.000000	97.739126 
1033.000000	97.759887 
1032.000000	97.775918 
1031.000000	97.781740 
1030.000000	97.773147 
1029.000000	97.755002 
1028.000000	97.741599 
1027.000000	97.745281 
1026.000000	97.765482 
1025.000000	97.791014 
1024.000000	97.811323 
1023.000000	97.822810 
1022.000000	97.826494 
1021.000000	97.824395 
1020.000000	97.819296 
1019.000000	97.814894 
1018.000000	97.813742 
1017.000000	97.815595 
1016.000000	97.818739 
1015.000000	97.822562 
1014.000000	97.828253 
1013.000000	97.836948 
1012.000000	97.847173 
1011.000000	97.854628 
1010.000000	97.855846 
1009.000000	97.852524 
1008.000000	97.850871 
1007.000000	97.855768 
1006.000000	97.866665 
1005.000000	97.879824 
1004.000000	97.892636 
1003.000000	97.904087 
1002.000000	97.913135 
1001.000000	97.919565 
1000.000000	97.925521 
999.000000	 97.933105 
998.000000	 97.940584 
997.000000	 97.943930 
996.000000	 97.942847 
995.000000	 97.942840 
994.000000	 97.949951 
993.000000	 97.964711 
992.000000	 97.981930 
991.000000	 97.995138 
990.000000	 98.000897 
989.000000	 98.000472 
988.000000	 97.998304 
987.000000	 97.998102 
986.000000	 98.000031 
985.000000	 98.002566 
984.000000	 98.006587 
983.000000	 98.015408 
982.000000	 98.030216 
981.000000	 98.047755 
980.000000	 98.063830 
979.000000	 98.077363 
978.000000	 98.089728 
977.000000	 98.101939 
976.000000	 98.114427 
975.000000	 98.128263 
974.000000	 98.144132 
973.000000	 98.160531 
972.000000	 98.175053 
971.000000	 98.187508 
970.000000	 98.200149 
969.000000	 98.214741 
968.000000	 98.231002 
967.000000	 98.247921 
966.000000	 98.264699 
965.000000	 98.279864 
964.000000	 98.291552 
963.000000	 98.300061 
962.000000	 98.308778 
961.000000	 98.320888 
960.000000	 98.335850 
959.000000	 98.350425 
958.000000	 98.362413 
957.000000	 98.372030 
956.000000	 98.380418 
955.000000	 98.388764 
954.000000	 98.398526 
953.000000	 98.410201 
952.000000	 98.421355 
951.000000	 98.427915 
950.000000	 98.428643 
949.000000	 98.427103 
948.000000	 98.428281 
947.000000	 98.434445 
946.000000	 98.444987 
945.000000	 98.458623 
944.000000	 98.473793 
943.000000	 98.487537 
942.000000	 98.496144 
941.000000	 98.497749 
940.000000	 98.493930 
939.000000	 98.488928 
938.000000	 98.487342 
937.000000	 98.491250 
936.000000	 98.498325 
935.000000	 98.503342 
934.000000	 98.502907 
933.000000	 98.498612 
932.000000	 98.494781 
931.000000	 98.493885 
930.000000	 98.495495 
929.000000	 98.498926 
928.000000	 98.504578 
927.000000	 98.512133 
926.000000	 98.519417 
925.000000	 98.524260 
924.000000	 98.526327 
923.000000	 98.526060 
922.000000	 98.522956 
921.000000	 98.516481 
920.000000	 98.508373 
919.000000	 98.502455 
918.000000	 98.501304 
917.000000	 98.503555 
916.000000	 98.505108 
915.000000	 98.503050 
914.000000	 98.498335 
913.000000	 98.494746 
912.000000	 98.495442 
911.000000	 98.500355 
910.000000	 98.506366 
909.000000	 98.509597 
908.000000	 98.508006 
907.000000	 98.502815 
906.000000	 98.497818 
905.000000	 98.496565 
904.000000	 98.499746 
903.000000	 98.505736 
902.000000	 98.513531 
901.000000	 98.523896 
900.000000	 98.537205 
899.000000	 98.551726 
898.000000	 98.565265 
897.000000	 98.577130 
896.000000	 98.586714 
895.000000	 98.591954 
894.000000	 98.592383 
893.000000	 98.593157 
892.000000	 98.602235 
891.000000	 98.622124 
890.000000	 98.646849 
889.000000	 98.668704 
888.000000	 98.685557 
887.000000	 98.699244 
886.000000	 98.709113 
885.000000	 98.711333 
884.000000	 98.705224 
883.000000	 98.697127 
882.000000	 98.695532 
881.000000	 98.703130 
880.000000	 98.715724 
879.000000	 98.728660 
878.000000	 98.741779 
877.000000	 98.756437 
876.000000	 98.769507 
875.000000	 98.774064 
874.000000	 98.767429 
873.000000	 98.756295 
872.000000	 98.751580 
871.000000	 98.758524 
870.000000	 98.772658 
869.000000	 98.784824 
868.000000	 98.789259 
867.000000	 98.787757 
866.000000	 98.787621 
865.000000	 98.795517 
864.000000	 98.812353 
863.000000	 98.833642 
862.000000	 98.854150 
861.000000	 98.870844 
860.000000	 98.881861 
859.000000	 98.886259 
858.000000	 98.887144 
857.000000	 98.892022 
856.000000	 98.905808 
855.000000	 98.924140 
854.000000	 98.937281 
853.000000	 98.940865 
852.000000	 98.939533 
851.000000	 98.939693 
850.000000	 98.942371 
849.000000	 98.944645 
848.000000	 98.945075 
847.000000	 98.945398 
846.000000	 98.948437 
845.000000	 98.956112 
844.000000	 98.968296 
843.000000	 98.981870 
842.000000	 98.991656 
841.000000	 98.994035 
840.000000	 98.990102 
839.000000	 98.984967 
838.000000	 98.983472 
837.000000	 98.985555 
836.000000	 98.985568 
835.000000	 98.978053 
834.000000	 98.965607 
833.000000	 98.958258 
832.000000	 98.961321 
831.000000	 98.965917 
830.000000	 98.957926 
829.000000	 98.937505 
828.000000	 98.922553 
827.000000	 98.927965 
826.000000	 98.946815 
825.000000	 98.959649 
824.000000	 98.959105 
823.000000	 98.955721 
822.000000	 98.959890 
821.000000	 98.968208 
820.000000	 98.970614 
819.000000	 98.963615 
818.000000	 98.952780 
817.000000	 98.945888 
816.000000	 98.945902 
815.000000	 98.948397 
814.000000	 98.944482 
813.000000	 98.928541 
812.000000	 98.904731 
811.000000	 98.884369 
810.000000	 98.875351 
809.000000	 98.874900 
808.000000	 98.873122 
807.000000	 98.861658 
806.000000	 98.837934 
805.000000	 98.803559 
804.000000	 98.762401 
803.000000	 98.720905 
802.000000	 98.687104 
801.000000	 98.666235 
800.000000	 98.656594 
799.000000	 98.650677 
798.000000	 98.641853 
797.000000	 98.630489 
796.000000	 98.622929 
795.000000	 98.624614 
794.000000	 98.635696 
793.000000	 98.653078 
792.000000	 98.672911 
791.000000	 98.688670 
790.000000	 98.690900 
789.000000	 98.674958 
788.000000	 98.648873 
787.000000	 98.628424 
786.000000	 98.622630 
785.000000	 98.626997 
784.000000	 98.631675 
783.000000	 98.631713 
782.000000	 98.627351 
781.000000	 98.619393 
780.000000	 98.609113 
779.000000	 98.600402 
778.000000	 98.597371 
777.000000	 98.600274 
776.000000	 98.606595 
775.000000	 98.614930 
774.000000	 98.624899 
773.000000	 98.634703 
772.000000	 98.642334 
771.000000	 98.648285 
770.000000	 98.653437 
769.000000	 98.655136 
768.000000	 98.650063 
767.000000	 98.641574 
766.000000	 98.639135 
765.000000	 98.647821 
764.000000	 98.661997 
763.000000	 98.672200 
762.000000	 98.675595 
761.000000	 98.676562 
760.000000	 98.679211 
759.000000	 98.683240 
758.000000	 98.686244 
757.000000	 98.686552 
756.000000	 98.684000 
755.000000	 98.681196 
754.000000	 98.683943 
753.000000	 98.696715 
752.000000	 98.716540 
751.000000	 98.733837 
750.000000	 98.740924 
749.000000	 98.738036 
748.000000	 98.730468 
747.000000	 98.723064 
746.000000	 98.719324 
745.000000	 98.722151 
744.000000	 98.730845 
743.000000	 98.738596 
742.000000	 98.737920 
741.000000	 98.729567 
740.000000	 98.722558 
739.000000	 98.724408 
738.000000	 98.734140 
737.000000	 98.745790 
736.000000	 98.755416 
735.000000	 98.762927 
734.000000	 98.770523 
733.000000	 98.782011 
732.000000	 98.800445 
731.000000	 98.822130 
730.000000	 98.835327 
729.000000	 98.830497 
728.000000	 98.810959 
727.000000	 98.789990 
726.000000	 98.778438 
725.000000	 98.778068 
724.000000	 98.785785 
723.000000	 98.798765 
722.000000	 98.813344 
721.000000	 98.823105 
720.000000	 98.822117 
719.000000	 98.809903 
718.000000	 98.791716 
717.000000	 98.774392 
716.000000	 98.762986 
715.000000	 98.759278 
714.000000	 98.761101 
713.000000	 98.764323 
712.000000	 98.767096 
711.000000	 98.771427 
710.000000	 98.779286 
709.000000	 98.788267 
708.000000	 98.792632 
707.000000	 98.788592 
706.000000	 98.778773 
705.000000	 98.770564 
704.000000	 98.769329 
703.000000	 98.774118 
702.000000	 98.779231 
701.000000	 98.779451 
700.000000	 98.773088 
699.000000	 98.759299 
698.000000	 98.736224 
697.000000	 98.703050 
696.000000	 98.662311 
695.000000	 98.620030 
694.000000	 98.584009 
693.000000	 98.564112 
692.000000	 98.569793 
691.000000	 98.599509 
690.000000	 98.636807 
689.000000	 98.663575 
688.000000	 98.676959 
687.000000	 98.686916 
686.000000	 98.696246 
685.000000	 98.695964 
684.000000	 98.682950 
683.000000	 98.668259 
682.000000	 98.663811 
681.000000	 98.671266 
680.000000	 98.688388 
679.000000	 98.713792 
678.000000	 98.737365 
677.000000	 98.741511 
676.000000	 98.722661 
675.000000	 98.698496 
674.000000	 98.687834 
673.000000	 98.687611 
672.000000	 98.675644 
671.000000	 98.635642 
670.000000	 98.571854 
669.000000	 98.511018 
668.000000	 98.490688 
667.000000	 98.511658 
666.000000	 98.548007 
665.000000	 98.596100 
664.000000	 98.646677 
663.000000	 98.684312 
662.000000	 98.702212 
661.000000	 98.711323 
660.000000	 98.723505 
659.000000	 98.732114 
658.000000	 98.720275 
657.000000	 98.685085 
656.000000	 98.641535 
655.000000	 98.605891 
654.000000	 98.586651 
653.000000	 98.579294 
652.000000	 98.563882 
651.000000	 98.525471 
650.000000	 98.482620 

