4000.000000	99.762703 
3999.000000	99.762850 
3998.000000	99.762531 
3997.000000	99.761940 
3996.000000	99.761415 
3995.000000	99.761190 
3994.000000	99.761364 
3993.000000	99.761952 
3992.000000	99.762847 
3991.000000	99.763715 
3990.000000	99.764100 
3989.000000	99.763699 
3988.000000	99.762540 
3987.000000	99.761018 
3986.000000	99.759708 
3985.000000	99.759073 
3984.000000	99.759311 
3983.000000	99.760314 
3982.000000	99.761700 
3981.000000	99.763010 
3980.000000	99.763930 
3979.000000	99.764401 
3978.000000	99.764557 
3977.000000	99.764528 
3976.000000	99.764260 
3975.000000	99.763558 
3974.000000	99.762351 
3973.000000	99.760911 
3972.000000	99.759783 
3971.000000	99.759400 
3970.000000	99.759789 
3969.000000	99.760567 
3968.000000	99.761204 
3967.000000	99.761380 
3966.000000	99.761098 
3965.000000	99.760573 
3964.000000	99.760051 
3963.000000	99.759697 
3962.000000	99.759568 
3961.000000	99.759600 
3960.000000	99.759589 
3959.000000	99.759289 
3958.000000	99.758622 
3957.000000	99.757805 
3956.000000	99.757218 
3955.000000	99.757092 
3954.000000	99.757327 
3953.000000	99.757618 
3952.000000	99.757726 
3951.000000	99.757626 
3950.000000	99.757428 
3949.000000	99.757193 
3948.000000	99.756890 
3947.000000	99.756514 
3946.000000	99.756182 
3945.000000	99.756021 
3944.000000	99.755942 
3943.000000	99.755664 
3942.000000	99.755043 
3941.000000	99.754296 
3940.000000	99.753780 
3939.000000	99.753586 
3938.000000	99.753428 
3937.000000	99.752906 
3936.000000	99.751903 
3935.000000	99.750673 
3934.000000	99.749595 
3933.000000	99.748929 
3932.000000	99.748810 
3931.000000	99.749336 
3930.000000	99.750404 
3929.000000	99.751552 
3928.000000	99.752223 
3927.000000	99.752202 
3926.000000	99.751718 
3925.000000	99.751159 
3924.000000	99.750680 
3923.000000	99.750132 
3922.000000	99.749341 
3921.000000	99.748356 
3920.000000	99.747453 
3919.000000	99.746939 
3918.000000	99.746908 
3917.000000	99.747224 
3916.000000	99.747681 
3915.000000	99.748128 
3914.000000	99.748405 
3913.000000	99.748267 
3912.000000	99.747525 
3911.000000	99.746272 
3910.000000	99.744908 
3909.000000	99.743910 
3908.000000	99.743526 
3907.000000	99.743710 
3906.000000	99.744184 
3905.000000	99.744538 
3904.000000	99.744390 
3903.000000	99.743612 
3902.000000	99.742455 
3901.000000	99.741309 
3900.000000	99.740323 
3899.000000	99.739393 
3898.000000	99.738501 
3897.000000	99.737878 
3896.000000	99.737795 
3895.000000	99.738366 
3894.000000	99.739522 
3893.000000	99.741014 
3892.000000	99.742237 
3891.000000	99.742485 
3890.000000	99.741631 
3889.000000	99.740363 
3888.000000	99.739544 
3887.000000	99.739448 
3886.000000	99.739629 
3885.000000	99.739379 
3884.000000	99.738656 
3883.000000	99.738194 
3882.000000	99.738471 
3881.000000	99.739068 
3880.000000	99.739030 
3879.000000	99.737908 
3878.000000	99.736428 
3877.000000	99.735779 
3876.000000	99.736355 
3875.000000	99.737441 
3874.000000	99.737921 
3873.000000	99.737383 
3872.000000	99.736333 
3871.000000	99.735342 
3870.000000	99.734393 
3869.000000	99.733361 
3868.000000	99.732872 
3867.000000	99.733717 
3866.000000	99.735440 
3865.000000	99.736620 
3864.000000	99.736446 
3863.000000	99.735506 
3862.000000	99.735032 
3861.000000	99.735360 
3860.000000	99.735544 
3859.000000	99.734281 
3858.000000	99.730819 
3857.000000	99.725670 
3856.000000	99.720959 
3855.000000	99.719500 
3854.000000	99.721475 
3853.000000	99.722645 
3852.000000	99.721251 
3851.000000	99.721359 
3850.000000	99.724932 
3849.000000	99.729818 
3848.000000	99.733883 
3847.000000	99.736757 
3846.000000	99.738839 
3845.000000	99.740449 
3844.000000	99.741677 
3843.000000	99.742424 
3842.000000	99.742514 
3841.000000	99.742024 
3840.000000	99.741505 
3839.000000	99.741472 
3838.000000	99.741469 
3837.000000	99.740482 
3836.000000	99.738463 
3835.000000	99.736666 
3834.000000	99.736248 
3833.000000	99.737284 
3832.000000	99.739053 
3831.000000	99.740827 
3830.000000	99.742481 
3829.000000	99.744192 
3828.000000	99.745549 
3827.000000	99.745543 
3826.000000	99.743666 
3825.000000	99.740729 
3824.000000	99.738422 
3823.000000	99.738000 
3822.000000	99.739051 
3821.000000	99.739398 
3820.000000	99.737749 
3819.000000	99.735676 
3818.000000	99.735082 
3817.000000	99.735950 
3816.000000	99.736977 
3815.000000	99.737011 
3814.000000	99.736497 
3813.000000	99.736642 
3812.000000	99.737443 
3811.000000	99.738052 
3810.000000	99.738335 
3809.000000	99.738993 
3808.000000	99.740396 
3807.000000	99.741701 
3806.000000	99.741830 
3805.000000	99.741179 
3804.000000	99.740988 
3803.000000	99.741582 
3802.000000	99.742062 
3801.000000	99.741133 
3800.000000	99.739036 
3799.000000	99.737923 
3798.000000	99.738899 
3797.000000	99.740714 
3796.000000	99.741602 
3795.000000	99.741360 
3794.000000	99.741505 
3793.000000	99.743474 
3792.000000	99.747043 
3791.000000	99.750519 
3790.000000	99.752328 
3789.000000	99.752324 
3788.000000	99.751820 
3787.000000	99.752496 
3786.000000	99.754961 
3785.000000	99.758160 
3784.000000	99.760371 
3783.000000	99.760839 
3782.000000	99.760210 
3781.000000	99.759464 
3780.000000	99.758515 
3779.000000	99.756176 
3778.000000	99.751817 
3777.000000	99.746557 
3776.000000	99.742253 
3775.000000	99.739927 
3774.000000	99.739575 
3773.000000	99.740883 
3772.000000	99.743484 
3771.000000	99.746426 
3770.000000	99.748155 
3769.000000	99.748091 
3768.000000	99.747821 
3767.000000	99.749287 
3766.000000	99.752086 
3765.000000	99.753879 
3764.000000	99.753396 
3763.000000	99.752062 
3762.000000	99.752345 
3761.000000	99.755166 
3760.000000	99.759187 
3759.000000	99.762134 
3758.000000	99.762874 
3757.000000	99.761896 
3756.000000	99.759747 
3755.000000	99.756340 
3754.000000	99.751650 
3753.000000	99.746590 
3752.000000	99.742603 
3751.000000	99.739316 
3750.000000	99.734442 
3749.000000	99.727556 
3748.000000	99.721227 
3747.000000	99.717928 
3746.000000	99.718291 
3745.000000	99.720909 
3744.000000	99.721513 
3743.000000	99.718971 
3742.000000	99.719345 
3741.000000	99.725005 
3740.000000	99.730733 
3739.000000	99.732698 
3738.000000	99.732204 
3737.000000	99.732524 
3736.000000	99.735096 
3735.000000	99.738682 
3734.000000	99.741404 
3733.000000	99.742544 
3732.000000	99.743035 
3731.000000	99.744663 
3730.000000	99.748414 
3729.000000	99.753167 
3728.000000	99.756707 
3727.000000	99.758517 
3726.000000	99.760309 
3725.000000	99.763668 
3724.000000	99.767834 
3723.000000	99.769998 
3722.000000	99.768141 
3721.000000	99.763200 
3720.000000	99.758173 
3719.000000	99.755041 
3718.000000	99.753148 
3717.000000	99.750640 
3716.000000	99.746359 
3715.000000	99.740501 
3714.000000	99.734181 
3713.000000	99.728816 
3712.000000	99.725423 
3711.000000	99.724002 
3710.000000	99.724105 
3709.000000	99.725221 
3708.000000	99.726695 
3707.000000	99.728048 
3706.000000	99.728971 
3705.000000	99.729377 
3704.000000	99.729527 
3703.000000	99.729876 
3702.000000	99.730518 
3701.000000	99.731108 
3700.000000	99.731573 
3699.000000	99.732121 
3698.000000	99.732527 
3697.000000	99.732294 
3696.000000	99.731428 
3695.000000	99.730529 
3694.000000	99.729982 
3693.000000	99.729413 
3692.000000	99.728388 
3691.000000	99.727188 
3690.000000	99.726276 
3689.000000	99.725303 
3688.000000	99.723857 
3687.000000	99.722897 
3686.000000	99.723687 
3685.000000	99.725744 
3684.000000	99.727252 
3683.000000	99.727141 
3682.000000	99.725697 
3681.000000	99.723647 
3680.000000	99.721238 
3679.000000	99.718349 
3678.000000	99.715233 
3677.000000	99.712767 
3676.000000	99.711494 
3675.000000	99.710594 
3674.000000	99.709482 
3673.000000	99.709028 
3672.000000	99.709890 
3671.000000	99.711798 
3670.000000	99.713687 
3669.000000	99.714139 
3668.000000	99.712868 
3667.000000	99.710746 
3666.000000	99.708500 
3665.000000	99.706355 
3664.000000	99.704498 
3663.000000	99.703210 
3662.000000	99.702595 
3661.000000	99.702393 
3660.000000	99.702208 
3659.000000	99.701891 
3658.000000	99.701520 
3657.000000	99.700902 
3656.000000	99.699466 
3655.000000	99.697123 
3654.000000	99.694731 
3653.000000	99.693026 
3652.000000	99.691967 
3651.000000	99.691164 
3650.000000	99.689975 
3649.000000	99.687689 
3648.000000	99.684541 
3647.000000	99.681659 
3646.000000	99.680012 
3645.000000	99.680028 
3644.000000	99.681496 
3643.000000	99.683548 
3642.000000	99.685009 
3641.000000	99.685185 
3640.000000	99.684421 
3639.000000	99.683852 
3638.000000	99.684356 
3637.000000	99.685711 
3636.000000	99.686672 
3635.000000	99.685817 
3634.000000	99.682538 
3633.000000	99.677488 
3632.000000	99.672287 
3631.000000	99.668631 
3630.000000	99.667336 
3629.000000	99.667125 
3628.000000	99.665843 
3627.000000	99.664331 
3626.000000	99.665076 
3625.000000	99.668175 
3624.000000	99.671513 
3623.000000	99.673098 
3622.000000	99.672450 
3621.000000	99.670636 
3620.000000	99.669296 
3619.000000	99.669161 
3618.000000	99.669831 
3617.000000	99.670962 
3616.000000	99.672690 
3615.000000	99.674968 
3614.000000	99.677096 
3613.000000	99.678057 
3612.000000	99.677441 
3611.000000	99.675990 
3610.000000	99.675094 
3609.000000	99.675618 
3608.000000	99.677241 
3607.000000	99.678987 
3606.000000	99.680260 
3605.000000	99.681160 
3604.000000	99.682005 
3603.000000	99.682901 
3602.000000	99.683706 
3601.000000	99.684340 
3600.000000	99.685026 
3599.000000	99.686146 
3598.000000	99.687978 
3597.000000	99.690538 
3596.000000	99.693410 
3595.000000	99.695654 
3594.000000	99.696369 
3593.000000	99.695581 
3592.000000	99.694469 
3591.000000	99.694417 
3590.000000	99.695777 
3589.000000	99.697578 
3588.000000	99.698406 
3587.000000	99.697867 
3586.000000	99.696865 
3585.000000	99.696386 
3584.000000	99.696646 
3583.000000	99.697385 
3582.000000	99.698327 
3581.000000	99.699242 
3580.000000	99.699762 
3579.000000	99.699488 
3578.000000	99.698407 
3577.000000	99.697081 
3576.000000	99.696336 
3575.000000	99.696629 
3574.000000	99.697771 
3573.000000	99.699127 
3572.000000	99.700125 
3571.000000	99.700615 
3570.000000	99.700845 
3569.000000	99.701211 
3568.000000	99.701924 
3567.000000	99.702841 
3566.000000	99.703659 
3565.000000	99.704138 
3564.000000	99.704046 
3563.000000	99.703153 
3562.000000	99.701435 
3561.000000	99.699337 
3560.000000	99.697701 
3559.000000	99.697134 
3558.000000	99.697574 
3557.000000	99.698493 
3556.000000	99.699454 
3555.000000	99.700389 
3554.000000	99.701400 
3553.000000	99.702451 
3552.000000	99.703298 
3551.000000	99.703639 
3550.000000	99.703320 
3549.000000	99.702437 
3548.000000	99.701337 
3547.000000	99.700417 
3546.000000	99.699760 
3545.000000	99.699098 
3544.000000	99.698266 
3543.000000	99.697547 
3542.000000	99.697383 
3541.000000	99.697847 
3540.000000	99.698564 
3539.000000	99.699101 
3538.000000	99.699288 
3537.000000	99.699110 
3536.000000	99.698521 
3535.000000	99.697520 
3534.000000	99.696347 
3533.000000	99.695427 
3532.000000	99.695098 
3531.000000	99.695389 
3530.000000	99.696058 
3529.000000	99.696748 
3528.000000	99.697153 
3527.000000	99.697145 
3526.000000	99.696784 
3525.000000	99.696214 
3524.000000	99.695559 
3523.000000	99.694909 
3522.000000	99.694365 
3521.000000	99.694013 
3520.000000	99.693799 
3519.000000	99.693525 
3518.000000	99.693008 
3517.000000	99.692257 
3516.000000	99.691456 
3515.000000	99.690809 
3514.000000	99.690410 
3513.000000	99.690230 
3512.000000	99.690150 
3511.000000	99.690021 
3510.000000	99.689751 
3509.000000	99.689368 
3508.000000	99.689008 
3507.000000	99.688798 
3506.000000	99.688739 
3505.000000	99.688684 
3504.000000	99.688448 
3503.000000	99.687987 
3502.000000	99.687480 
3501.000000	99.687201 
3500.000000	99.687255 
3499.000000	99.687488 
3498.000000	99.687584 
3497.000000	99.687386 
3496.000000	99.687037 
3495.000000	99.686834 
3494.000000	99.686909 
3493.000000	99.687078 
3492.000000	99.687050 
3491.000000	99.686742 
3490.000000	99.686354 
3489.000000	99.686154 
3488.000000	99.686226 
3487.000000	99.686419 
3486.000000	99.686503 
3485.000000	99.686352 
3484.000000	99.686023 
3483.000000	99.685700 
3482.000000	99.685517 
3481.000000	99.685396 
3480.000000	99.685071 
3479.000000	99.684340 
3478.000000	99.683286 
3477.000000	99.682240 
3476.000000	99.681511 
3475.000000	99.681224 
3474.000000	99.681362 
3473.000000	99.681846 
3472.000000	99.682495 
3471.000000	99.683006 
3470.000000	99.683146 
3469.000000	99.683001 
3468.000000	99.682925 
3467.000000	99.683141 
3466.000000	99.683446 
3465.000000	99.683373 
3464.000000	99.682576 
3463.000000	99.681029 
3462.000000	99.679036 
3461.000000	99.677167 
3460.000000	99.676014 
3459.000000	99.675797 
3458.000000	99.676145 
3457.000000	99.676328 
3456.000000	99.675887 
3455.000000	99.675047 
3454.000000	99.674468 
3453.000000	99.674607 
3452.000000	99.675335 
3451.000000	99.676102 
3450.000000	99.676512 
3449.000000	99.676655 
3448.000000	99.676808 
3447.000000	99.676852 
3446.000000	99.676266 
3445.000000	99.674868 
3444.000000	99.673277 
3443.000000	99.672376 
3442.000000	99.672368 
3441.000000	99.672620 
3440.000000	99.672453 
3439.000000	99.671849 
3438.000000	99.671231 
3437.000000	99.670743 
3436.000000	99.670065 
3435.000000	99.668926 
3434.000000	99.667512 
3433.000000	99.666300 
3432.000000	99.665628 
3431.000000	99.665489 
3430.000000	99.665644 
3429.000000	99.665849 
3428.000000	99.666018 
3427.000000	99.666215 
3426.000000	99.666491 
3425.000000	99.666759 
3424.000000	99.666887 
3423.000000	99.666864 
3422.000000	99.666801 
3421.000000	99.666736 
3420.000000	99.666561 
3419.000000	99.666225 
3418.000000	99.665931 
3417.000000	99.665985 
3416.000000	99.666430 
3415.000000	99.666922 
3414.000000	99.667007 
3413.000000	99.666541 
3412.000000	99.665752 
3411.000000	99.664999 
3410.000000	99.664501 
3409.000000	99.664283 
3408.000000	99.664260 
3407.000000	99.664297 
3406.000000	99.664248 
3405.000000	99.664045 
3404.000000	99.663786 
3403.000000	99.663669 
3402.000000	99.663801 
3401.000000	99.664084 
3400.000000	99.664301 
3399.000000	99.664338 
3398.000000	99.664302 
3397.000000	99.664435 
3396.000000	99.664873 
3395.000000	99.665506 
3394.000000	99.666017 
3393.000000	99.666144 
3392.000000	99.665881 
3391.000000	99.665444 
3390.000000	99.665081 
3389.000000	99.664886 
3388.000000	99.664836 
3387.000000	99.664904 
3386.000000	99.665092 
3385.000000	99.665385 
3384.000000	99.665708 
3383.000000	99.665955 
3382.000000	99.666047 
3381.000000	99.665971 
3380.000000	99.665768 
3379.000000	99.665514 
3378.000000	99.665296 
3377.000000	99.665218 
3376.000000	99.665385 
3375.000000	99.665836 
3374.000000	99.666466 
3373.000000	99.667035 
3372.000000	99.667341 
3371.000000	99.667333 
3370.000000	99.667129 
3369.000000	99.666932 
3368.000000	99.666892 
3367.000000	99.667024 
3366.000000	99.667196 
3365.000000	99.667222 
3364.000000	99.667030 
3363.000000	99.666729 
3362.000000	99.666487 
3361.000000	99.666350 
3360.000000	99.666217 
3359.000000	99.665998 
3358.000000	99.665748 
3357.000000	99.665614 
3356.000000	99.665663 
3355.000000	99.665765 
3354.000000	99.665690 
3353.000000	99.665331 
3352.000000	99.664833 
3351.000000	99.664501 
3350.000000	99.664544 
3349.000000	99.664934 
3348.000000	99.665470 
3347.000000	99.665931 
3346.000000	99.666176 
3345.000000	99.666176 
3344.000000	99.665995 
3343.000000	99.665756 
3342.000000	99.665558 
3341.000000	99.665407 
3340.000000	99.665243 
3339.000000	99.665029 
3338.000000	99.664791 
3337.000000	99.664589 
3336.000000	99.664471 
3335.000000	99.664440 
3334.000000	99.664463 
3333.000000	99.664483 
3332.000000	99.664456 
3331.000000	99.664381 
3330.000000	99.664302 
3329.000000	99.664265 
3328.000000	99.664286 
3327.000000	99.664344 
3326.000000	99.664412 
3325.000000	99.664476 
3324.000000	99.664540 
3323.000000	99.664614 
3322.000000	99.664703 
3321.000000	99.664807 
3320.000000	99.664915 
3319.000000	99.665016 
3318.000000	99.665110 
3317.000000	99.665207 
3316.000000	99.665317 
3315.000000	99.665442 
3314.000000	99.665574 
3313.000000	99.665701 
3312.000000	99.665818 
3311.000000	99.665930 
3310.000000	99.666046 
3309.000000	99.666165 
3308.000000	99.666279 
3307.000000	99.666374 
3306.000000	99.666447 
3305.000000	99.666498 
3304.000000	99.666521 
3303.000000	99.666497 
3302.000000	99.666435 
3301.000000	99.666421 
3300.000000	99.666566 
3299.000000	99.666894 
3298.000000	99.667276 
3297.000000	99.667528 
3296.000000	99.667585 
3295.000000	99.667544 
3294.000000	99.667559 
3293.000000	99.667712 
3292.000000	99.667994 
3291.000000	99.668386 
3290.000000	99.668863 
3289.000000	99.669340 
3288.000000	99.669674 
3287.000000	99.669800 
3286.000000	99.669845 
3285.000000	99.670046 
3284.000000	99.670529 
3283.000000	99.671172 
3282.000000	99.671671 
3281.000000	99.671742 
3280.000000	99.671293 
3279.000000	99.670451 
3278.000000	99.669526 
3277.000000	99.668922 
3276.000000	99.668927 
3275.000000	99.669531 
3274.000000	99.670397 
3273.000000	99.671068 
3272.000000	99.671276 
3271.000000	99.671023 
3270.000000	99.670471 
3269.000000	99.669832 
3268.000000	99.669341 
3267.000000	99.669240 
3266.000000	99.669653 
3265.000000	99.670466 
3264.000000	99.671399 
3263.000000	99.672237 
3262.000000	99.672984 
3261.000000	99.673752 
3260.000000	99.674481 
3259.000000	99.674853 
3258.000000	99.674577 
3257.000000	99.673732 
3256.000000	99.672778 
3255.000000	99.672162 
3254.000000	99.671980 
3253.000000	99.672101 
3252.000000	99.672459 
3251.000000	99.673094 
3250.000000	99.673911 
3249.000000	99.674627 
3248.000000	99.675013 
3247.000000	99.675057 
3246.000000	99.674841 
3245.000000	99.674407 
3244.000000	99.673879 
3243.000000	99.673582 
3242.000000	99.673859 
3241.000000	99.674749 
3240.000000	99.675899 
3239.000000	99.676784 
3238.000000	99.677010 
3237.000000	99.676479 
3236.000000	99.675491 
3235.000000	99.674641 
3234.000000	99.674425 
3233.000000	99.674935 
3232.000000	99.676007 
3231.000000	99.677555 
3230.000000	99.679451 
3229.000000	99.681059 
3228.000000	99.681397 
3227.000000	99.680070 
3226.000000	99.677808 
3225.000000	99.675914 
3224.000000	99.675093 
3223.000000	99.675069 
3222.000000	99.675190 
3221.000000	99.675147 
3220.000000	99.675025 
3219.000000	99.674905 
3218.000000	99.674734 
3217.000000	99.674566 
3216.000000	99.674683 
3215.000000	99.675308 
3214.000000	99.676295 
3213.000000	99.677319 
3212.000000	99.678317 
3211.000000	99.679578 
3210.000000	99.681300 
3209.000000	99.683188 
3208.000000	99.684624 
3207.000000	99.685261 
3206.000000	99.685366 
3205.000000	99.685559 
3204.000000	99.686231 
3203.000000	99.687190 
3202.000000	99.687888 
3201.000000	99.687997 
3200.000000	99.687708 
3199.000000	99.687429 
3198.000000	99.687277 
3197.000000	99.687066 
3196.000000	99.686792 
3195.000000	99.686757 
3194.000000	99.687049 
3193.000000	99.687173 
3192.000000	99.686564 
3191.000000	99.685418 
3190.000000	99.684722 
3189.000000	99.685290 
3188.000000	99.687012 
3187.000000	99.688955 
3186.000000	99.690104 
3185.000000	99.690062 
3184.000000	99.689183 
3183.000000	99.688312 
3182.000000	99.688225 
3181.000000	99.689117 
3180.000000	99.690574 
3179.000000	99.691936 
3178.000000	99.692754 
3177.000000	99.692929 
3176.000000	99.692609 
3175.000000	99.692115 
3174.000000	99.691897 
3173.000000	99.692354 
3172.000000	99.693598 
3171.000000	99.695357 
3170.000000	99.697138 
3169.000000	99.698542 
3168.000000	99.699419 
3167.000000	99.699780 
3166.000000	99.699687 
3165.000000	99.699322 
3164.000000	99.699109 
3163.000000	99.699540 
3162.000000	99.700728 
3161.000000	99.702219 
3160.000000	99.703414 
3159.000000	99.704143 
3158.000000	99.704658 
3157.000000	99.705093 
3156.000000	99.705185 
3155.000000	99.704600 
3154.000000	99.703386 
3153.000000	99.702031 
3152.000000	99.701136 
3151.000000	99.700976 
3150.000000	99.701221 
3149.000000	99.701165 
3148.000000	99.700452 
3147.000000	99.699536 
3146.000000	99.699140 
3145.000000	99.699290 
3144.000000	99.699317 
3143.000000	99.698827 
3142.000000	99.698194 
3141.000000	99.698007 
3140.000000	99.698548 
3139.000000	99.699864 
3138.000000	99.701805 
3137.000000	99.703805 
3136.000000	99.705140 
3135.000000	99.705597 
3134.000000	99.705576 
3133.000000	99.705438 
3132.000000	99.705130 
3131.000000	99.704614 
3130.000000	99.704198 
3129.000000	99.704169 
3128.000000	99.704399 
3127.000000	99.704553 
3126.000000	99.704472 
3125.000000	99.704201 
3124.000000	99.703842 
3123.000000	99.703509 
3122.000000	99.703280 
3121.000000	99.703100 
3120.000000	99.702879 
3119.000000	99.702701 
3118.000000	99.702757 
3117.000000	99.703046 
3116.000000	99.703345 
3115.000000	99.703506 
3114.000000	99.703617 
3113.000000	99.703799 
3112.000000	99.704006 
3111.000000	99.704126 
3110.000000	99.704188 
3109.000000	99.704342 
3108.000000	99.704627 
3107.000000	99.704906 
3106.000000	99.705037 
3105.000000	99.705038 
3104.000000	99.705064 
3103.000000	99.705271 
3102.000000	99.705676 
3101.000000	99.706190 
3100.000000	99.706685 
3099.000000	99.707053 
3098.000000	99.707268 
3097.000000	99.707373 
3096.000000	99.707456 
3095.000000	99.707590 
3094.000000	99.707781 
3093.000000	99.708000 
3092.000000	99.708219 
3091.000000	99.708424 
3090.000000	99.708613 
3089.000000	99.708786 
3088.000000	99.708951 
3087.000000	99.709121 
3086.000000	99.709301 
3085.000000	99.709484 
3084.000000	99.709665 
3083.000000	99.709844 
3082.000000	99.710028 
3081.000000	99.710220 
3080.000000	99.710422 
3079.000000	99.710636 
3078.000000	99.710863 
3077.000000	99.711100 
3076.000000	99.711344 
3075.000000	99.711588 
3074.000000	99.711833 
3073.000000	99.712082 
3072.000000	99.712338 
3071.000000	99.712600 
3070.000000	99.712864 
3069.000000	99.713126 
3068.000000	99.713384 
3067.000000	99.713640 
3066.000000	99.713896 
3065.000000	99.714164 
3064.000000	99.714451 
3063.000000	99.714759 
3062.000000	99.715078 
3061.000000	99.715392 
3060.000000	99.715693 
3059.000000	99.715983 
3058.000000	99.716270 
3057.000000	99.716566 
3056.000000	99.716880 
3055.000000	99.717210 
3054.000000	99.717553 
3053.000000	99.717901 
3052.000000	99.718250 
3051.000000	99.718600 
3050.000000	99.718953 
3049.000000	99.719313 
3048.000000	99.719683 
3047.000000	99.720067 
3046.000000	99.720468 
3045.000000	99.720890 
3044.000000	99.721338 
3043.000000	99.721810 
3042.000000	99.722306 
3041.000000	99.722822 
3040.000000	99.723354 
3039.000000	99.723898 
3038.000000	99.724452 
3037.000000	99.725010 
3036.000000	99.725567 
3035.000000	99.726120 
3034.000000	99.726674 
3033.000000	99.727238 
3032.000000	99.727819 
3031.000000	99.728420 
3030.000000	99.729037 
3029.000000	99.729663 
3028.000000	99.730294 
3027.000000	99.730922 
3026.000000	99.731545 
3025.000000	99.732181 
3024.000000	99.732854 
3023.000000	99.733558 
3022.000000	99.734247 
3021.000000	99.734869 
3020.000000	99.735433 
3019.000000	99.736013 
3018.000000	99.736682 
3017.000000	99.737460 
3016.000000	99.738319 
3015.000000	99.739201 
3014.000000	99.740011 
3013.000000	99.740648 
3012.000000	99.741084 
3011.000000	99.741419 
3010.000000	99.741820 
3009.000000	99.742411 
3008.000000	99.743242 
3007.000000	99.744309 
3006.000000	99.745527 
3005.000000	99.746716 
3004.000000	99.747681 
3003.000000	99.748330 
3002.000000	99.748713 
3001.000000	99.748983 
3000.000000	99.749337 
2999.000000	99.749906 
2998.000000	99.750596 
2997.000000	99.751114 
2996.000000	99.751316 
2995.000000	99.751525 
2994.000000	99.752256 
2993.000000	99.753556 
2992.000000	99.754865 
2991.000000	99.755689 
2990.000000	99.756068 
2989.000000	99.756256 
2988.000000	99.756197 
2987.000000	99.755649 
2986.000000	99.754742 
2985.000000	99.754052 
2984.000000	99.754024 
2983.000000	99.754535 
2982.000000	99.755045 
2981.000000	99.755097 
2980.000000	99.754683 
2979.000000	99.754185 
2978.000000	99.754016 
2977.000000	99.754298 
2976.000000	99.754816 
2975.000000	99.755227 
2974.000000	99.755311 
2973.000000	99.755033 
2972.000000	99.754436 
2971.000000	99.753551 
2970.000000	99.752437 
2969.000000	99.751256 
2968.000000	99.750224 
2967.000000	99.749498 
2966.000000	99.749067 
2965.000000	99.748731 
2964.000000	99.748194 
2963.000000	99.747280 
2962.000000	99.746122 
2961.000000	99.745106 
2960.000000	99.744528 
2959.000000	99.744348 
2958.000000	99.744341 
2957.000000	99.744405 
2956.000000	99.744504 
2955.000000	99.744196 
2954.000000	99.742604 
2953.000000	99.739342 
2952.000000	99.735618 
2951.000000	99.733814 
2950.000000	99.735295 
2949.000000	99.738725 
2948.000000	99.740956 
2947.000000	99.740143 
2946.000000	99.737213 
2945.000000	99.734312 
2944.000000	99.732483 
2943.000000	99.731507 
2942.000000	99.731128 
2941.000000	99.731028 
2940.000000	99.730062 
2939.000000	99.727148 
2938.000000	99.722950 
2937.000000	99.719324 
2936.000000	99.716894 
2935.000000	99.714704 
2934.000000	99.712502 
2933.000000	99.711425 
2932.000000	99.711606 
2931.000000	99.710946 
2930.000000	99.707819 
2929.000000	99.703665 
2928.000000	99.701118 
2927.000000	99.700540 
2926.000000	99.700246 
2925.000000	99.699386 
2924.000000	99.698601 
2923.000000	99.698246 
2922.000000	99.698089 
2921.000000	99.698705 
2920.000000	99.701003 
2919.000000	99.704106 
2918.000000	99.705710 
2917.000000	99.705347 
2916.000000	99.705610 
2915.000000	99.709100 
2914.000000	99.715477 
2913.000000	99.722414 
2912.000000	99.728354 
2911.000000	99.733034 
2910.000000	99.736153 
2909.000000	99.737247 
2908.000000	99.736918 
2907.000000	99.736922 
2906.000000	99.738526 
2905.000000	99.741363 
2904.000000	99.744055 
2903.000000	99.745246 
2902.000000	99.744028 
2901.000000	99.740413 
2900.000000	99.736011 
2899.000000	99.733404 
2898.000000	99.734050 
2897.000000	99.736969 
2896.000000	99.739873 
2895.000000	99.741440 
2894.000000	99.741998 
2893.000000	99.742157 
2892.000000	99.741664 
2891.000000	99.740082 
2890.000000	99.738090 
2889.000000	99.737299 
2888.000000	99.738649 
2887.000000	99.741347 
2886.000000	99.743558 
2885.000000	99.744001 
2884.000000	99.742756 
2883.000000	99.740850 
2882.000000	99.739396 
2881.000000	99.738975 
2880.000000	99.739522 
2879.000000	99.740585 
2878.000000	99.741659 
2877.000000	99.742369 
2876.000000	99.742431 
2875.000000	99.741689 
2874.000000	99.740325 
2873.000000	99.738878 
2872.000000	99.737854 
2871.000000	99.737362 
2870.000000	99.737330 
2869.000000	99.737916 
2868.000000	99.739326 
2867.000000	99.741192 
2866.000000	99.742614 
2865.000000	99.743093 
2864.000000	99.742996 
2863.000000	99.742731 
2862.000000	99.741775 
2861.000000	99.739161 
2860.000000	99.734949 
2859.000000	99.730690 
2858.000000	99.728087 
2857.000000	99.727506 
2856.000000	99.728063 
2855.000000	99.728690 
2854.000000	99.728831 
2853.000000	99.728298 
2852.000000	99.727084 
2851.000000	99.725559 
2850.000000	99.724425 
2849.000000	99.724169 
2848.000000	99.724714 
2847.000000	99.725733 
2846.000000	99.727034 
2845.000000	99.728398 
2844.000000	99.729386 
2843.000000	99.729821 
2842.000000	99.730255 
2841.000000	99.731375 
2840.000000	99.732879 
2839.000000	99.733491 
2838.000000	99.732354 
2837.000000	99.730010 
2836.000000	99.727748 
2835.000000	99.726434 
2834.000000	99.726425 
2833.000000	99.728088 
2832.000000	99.731458 
2831.000000	99.735409 
2830.000000	99.738091 
2829.000000	99.738668 
2828.000000	99.738110 
2827.000000	99.738060 
2826.000000	99.739238 
2825.000000	99.741250 
2824.000000	99.743419 
2823.000000	99.745224 
2822.000000	99.746215 
2821.000000	99.746252 
2820.000000	99.745865 
2819.000000	99.745900 
2818.000000	99.746626 
2817.000000	99.747478 
2816.000000	99.747691 
2815.000000	99.746895 
2814.000000	99.745191 
2813.000000	99.743009 
2812.000000	99.741021 
2811.000000	99.739807 
2810.000000	99.739372 
2809.000000	99.739155 
2808.000000	99.738689 
2807.000000	99.738179 
2806.000000	99.738321 
2805.000000	99.739583 
2804.000000	99.741701 
2803.000000	99.743782 
2802.000000	99.744978 
2801.000000	99.745186 
2800.000000	99.744991 
2799.000000	99.744926 
2798.000000	99.744979 
2797.000000	99.744986 
2796.000000	99.745173 
2795.000000	99.745839 
2794.000000	99.746691 
2793.000000	99.747038 
2792.000000	99.746706 
2791.000000	99.746296 
2790.000000	99.746467 
2789.000000	99.747356 
2788.000000	99.748799 
2787.000000	99.750542 
2786.000000	99.752021 
2785.000000	99.752515 
2784.000000	99.751891 
2783.000000	99.750917 
2782.000000	99.750497 
2781.000000	99.750709 
2780.000000	99.751072 
2779.000000	99.751396 
2778.000000	99.751849 
2777.000000	99.752350 
2776.000000	99.752461 
2775.000000	99.752012 
2774.000000	99.751399 
2773.000000	99.751089 
2772.000000	99.751063 
2771.000000	99.751006 
2770.000000	99.750819 
2769.000000	99.750715 
2768.000000	99.750883 
2767.000000	99.751313 
2766.000000	99.751905 
2765.000000	99.752507 
2764.000000	99.752907 
2763.000000	99.752973 
2762.000000	99.752862 
2761.000000	99.752896 
2760.000000	99.753203 
2759.000000	99.753575 
2758.000000	99.753753 
2757.000000	99.753713 
2756.000000	99.753636 
2755.000000	99.753713 
2754.000000	99.753999 
2753.000000	99.754371 
2752.000000	99.754569 
2751.000000	99.754344 
2750.000000	99.753659 
2749.000000	99.752763 
2748.000000	99.752072 
2747.000000	99.751846 
2746.000000	99.751935 
2745.000000	99.751853 
2744.000000	99.751286 
2743.000000	99.750524 
2742.000000	99.750204 
2741.000000	99.750588 
2740.000000	99.751371 
2739.000000	99.752145 
2738.000000	99.752795 
2737.000000	99.753327 
2736.000000	99.753570 
2735.000000	99.753370 
2734.000000	99.752875 
2733.000000	99.752393 
2732.000000	99.752039 
2731.000000	99.751719 
2730.000000	99.751423 
2729.000000	99.751273 
2728.000000	99.751319 
2727.000000	99.751483 
2726.000000	99.751687 
2725.000000	99.751889 
2724.000000	99.752012 
2723.000000	99.752006 
2722.000000	99.751949 
2721.000000	99.751973 
2720.000000	99.752090 
2719.000000	99.752190 
2718.000000	99.752186 
2717.000000	99.752108 
2716.000000	99.752025 
2715.000000	99.751970 
2714.000000	99.751937 
2713.000000	99.751924 
2712.000000	99.751920 
2711.000000	99.751907 
2710.000000	99.751871 
2709.000000	99.751825 
2708.000000	99.751784 
2707.000000	99.751744 
2706.000000	99.751695 
2705.000000	99.751639 
2704.000000	99.751589 
2703.000000	99.751554 
2702.000000	99.751533 
2701.000000	99.751516 
2700.000000	99.751487 
2699.000000	99.751436 
2698.000000	99.751358 
2697.000000	99.751254 
2696.000000	99.751123 
2695.000000	99.750985 
2694.000000	99.750876 
2693.000000	99.750821 
2692.000000	99.750808 
2691.000000	99.750786 
2690.000000	99.750716 
2689.000000	99.750594 
2688.000000	99.750436 
2687.000000	99.750268 
2686.000000	99.750135 
2685.000000	99.750102 
2684.000000	99.750186 
2683.000000	99.750276 
2682.000000	99.750234 
2681.000000	99.750063 
2680.000000	99.749881 
2679.000000	99.749662 
2678.000000	99.749229 
2677.000000	99.748560 
2676.000000	99.747887 
2675.000000	99.747419 
2674.000000	99.747146 
2673.000000	99.747015 
2672.000000	99.747106 
2671.000000	99.747426 
2670.000000	99.747720 
2669.000000	99.747730 
2668.000000	99.747514 
2667.000000	99.747331 
2666.000000	99.747287 
2665.000000	99.747307 
2664.000000	99.747392 
2663.000000	99.747595 
2662.000000	99.747764 
2661.000000	99.747617 
2660.000000	99.747124 
2659.000000	99.746557 
2658.000000	99.746013 
2657.000000	99.745307 
2656.000000	99.744460 
2655.000000	99.743884 
2654.000000	99.743851 
2653.000000	99.744009 
2652.000000	99.743801 
2651.000000	99.743218 
2650.000000	99.742819 
2649.000000	99.742948 
2648.000000	99.743276 
2647.000000	99.743243 
2646.000000	99.742782 
2645.000000	99.742300 
2644.000000	99.742112 
2643.000000	99.742185 
2642.000000	99.742409 
2641.000000	99.742760 
2640.000000	99.743149 
2639.000000	99.743398 
2638.000000	99.743461 
2637.000000	99.743471 
2636.000000	99.743542 
2635.000000	99.743643 
2634.000000	99.743713 
2633.000000	99.743772 
2632.000000	99.743865 
2631.000000	99.743980 
2630.000000	99.744086 
2629.000000	99.744176 
2628.000000	99.744263 
2627.000000	99.744355 
2626.000000	99.744448 
2625.000000	99.744537 
2624.000000	99.744620 
2623.000000	99.744697 
2622.000000	99.744768 
2621.000000	99.744833 
2620.000000	99.744892 
2619.000000	99.744944 
2618.000000	99.744987 
2617.000000	99.745021 
2616.000000	99.745052 
2615.000000	99.745090 
2614.000000	99.745131 
2613.000000	99.745164 
2612.000000	99.745172 
2611.000000	99.745150 
2610.000000	99.745101 
2609.000000	99.745032 
2608.000000	99.744945 
2607.000000	99.744844 
2606.000000	99.744734 
2605.000000	99.744614 
2604.000000	99.744480 
2603.000000	99.744327 
2602.000000	99.744148 
2601.000000	99.743947 
2600.000000	99.743729 
2599.000000	99.743500 
2598.000000	99.743261 
2597.000000	99.743008 
2596.000000	99.742730 
2595.000000	99.742425 
2594.000000	99.742095 
2593.000000	99.741749 
2592.000000	99.741399 
2591.000000	99.741057 
2590.000000	99.740734 
2589.000000	99.740446 
2588.000000	99.740224 
2587.000000	99.740064 
2586.000000	99.739887 
2585.000000	99.739601 
2584.000000	99.739191 
2583.000000	99.738736 
2582.000000	99.738314 
2581.000000	99.737958 
2580.000000	99.737675 
2579.000000	99.737416 
2578.000000	99.737068 
2577.000000	99.736563 
2576.000000	99.736019 
2575.000000	99.735636 
2574.000000	99.735451 
2573.000000	99.735322 
2572.000000	99.735189 
2571.000000	99.735123 
2570.000000	99.735110 
2569.000000	99.735039 
2568.000000	99.734914 
2567.000000	99.734874 
2566.000000	99.734951 
2565.000000	99.734991 
2564.000000	99.734908 
2563.000000	99.734837 
2562.000000	99.734939 
2561.000000	99.735182 
2560.000000	99.735418 
2559.000000	99.735577 
2558.000000	99.735676 
2557.000000	99.735705 
2556.000000	99.735634 
2555.000000	99.735521 
2554.000000	99.735530 
2553.000000	99.735750 
2552.000000	99.736124 
2551.000000	99.736495 
2550.000000	99.736781 
2549.000000	99.737004 
2548.000000	99.737196 
2547.000000	99.737351 
2546.000000	99.737459 
2545.000000	99.737548 
2544.000000	99.737651 
2543.000000	99.737785 
2542.000000	99.737957 
2541.000000	99.738165 
2540.000000	99.738394 
2539.000000	99.738621 
2538.000000	99.738838 
2537.000000	99.739045 
2536.000000	99.739254 
2535.000000	99.739484 
2534.000000	99.739738 
2533.000000	99.740036 
2532.000000	99.740482 
2531.000000	99.741142 
2530.000000	99.741803 
2529.000000	99.742109 
2528.000000	99.741968 
2527.000000	99.741752 
2526.000000	99.741848 
2525.000000	99.742264 
2524.000000	99.742896 
2523.000000	99.743777 
2522.000000	99.744639 
2521.000000	99.744774 
2520.000000	99.743872 
2519.000000	99.742646 
2518.000000	99.742009 
2517.000000	99.741915 
2516.000000	99.741712 
2515.000000	99.741314 
2514.000000	99.741251 
2513.000000	99.741726 
2512.000000	99.742413 
2511.000000	99.742981 
2510.000000	99.743116 
2509.000000	99.742444 
2508.000000	99.741324 
2507.000000	99.741239 
2506.000000	99.743199 
2505.000000	99.746015 
2504.000000	99.747371 
2503.000000	99.746831 
2502.000000	99.746422 
2501.000000	99.747911 
2500.000000	99.750767 
2499.000000	99.753579 
2498.000000	99.756218 
2497.000000	99.759251 
2496.000000	99.761975 
2495.000000	99.762811 
2494.000000	99.761496 
2493.000000	99.759280 
2492.000000	99.756725 
2491.000000	99.752805 
2490.000000	99.747051 
2489.000000	99.741521 
2488.000000	99.739086 
2487.000000	99.739983 
2486.000000	99.741412 
2485.000000	99.740951 
2484.000000	99.739663 
2483.000000	99.740314 
2482.000000	99.743421 
2481.000000	99.746560 
2480.000000	99.747381 
2479.000000	99.745976 
2478.000000	99.743876 
2477.000000	99.742104 
2476.000000	99.740973 
2475.000000	99.740838 
2474.000000	99.741904 
2473.000000	99.743711 
2472.000000	99.745728 
2471.000000	99.748034 
2470.000000	99.750503 
2469.000000	99.751926 
2468.000000	99.751159 
2467.000000	99.748829 
2466.000000	99.746980 
2465.000000	99.746715 
2464.000000	99.747219 
2463.000000	99.747323 
2462.000000	99.746976 
2461.000000	99.746709 
2460.000000	99.746539 
2459.000000	99.746094 
2458.000000	99.745345 
2457.000000	99.744613 
2456.000000	99.744063 
2455.000000	99.743628 
2454.000000	99.743245 
2453.000000	99.742879 
2452.000000	99.742485 
2451.000000	99.742093 
2450.000000	99.741842 
2449.000000	99.741822 
2448.000000	99.741941 
2447.000000	99.742005 
2446.000000	99.741945 
2445.000000	99.741870 
2444.000000	99.741880 
2443.000000	99.741949 
2442.000000	99.742009 
2441.000000	99.742021 
2440.000000	99.741990 
2439.000000	99.741934 
2438.000000	99.741871 
2437.000000	99.741812 
2436.000000	99.741759 
2435.000000	99.741704 
2434.000000	99.741639 
2433.000000	99.741566 
2432.000000	99.741499 
2431.000000	99.741465 
2430.000000	99.741486 
2429.000000	99.741561 
2428.000000	99.741666 
2427.000000	99.741806 
2426.000000	99.742006 
2425.000000	99.742256 
2424.000000	99.742484 
2423.000000	99.742616 
2422.000000	99.742713 
2421.000000	99.742933 
2420.000000	99.743345 
2419.000000	99.743875 
2418.000000	99.744437 
2417.000000	99.745023 
2416.000000	99.745591 
2415.000000	99.746033 
2414.000000	99.746317 
2413.000000	99.746540 
2412.000000	99.746804 
2411.000000	99.747199 
2410.000000	99.747874 
2409.000000	99.748814 
2408.000000	99.749609 
2407.000000	99.749882 
2406.000000	99.749976 
2405.000000	99.750683 
2404.000000	99.752121 
2403.000000	99.753444 
2402.000000	99.753903 
2401.000000	99.753652 
2400.000000	99.753244 
2399.000000	99.752949 
2398.000000	99.752942 
2397.000000	99.753553 
2396.000000	99.754753 
2395.000000	99.755929 
2394.000000	99.756853 
2393.000000	99.758190 
2392.000000	99.760576 
2391.000000	99.763608 
2390.000000	99.766356 
2389.000000	99.768665 
2388.000000	99.771170 
2387.000000	99.774113 
2386.000000	99.776867 
2385.000000	99.778742 
2384.000000	99.779768 
2383.000000	99.780386 
2382.000000	99.780768 
2381.000000	99.780833 
2380.000000	99.780795 
2379.000000	99.781131 
2378.000000	99.781952 
2377.000000	99.782823 
2376.000000	99.783465 
2375.000000	99.784285 
2374.000000	99.785803 
2373.000000	99.787802 
2372.000000	99.789561 
2371.000000	99.790878 
2370.000000	99.792249 
2369.000000	99.793895 
2368.000000	99.795238 
2367.000000	99.795780 
2366.000000	99.795837 
2365.000000	99.796076 
2364.000000	99.796704 
2363.000000	99.797477 
2362.000000	99.798251 
2361.000000	99.799021 
2360.000000	99.799734 
2359.000000	99.800359 
2358.000000	99.800950 
2357.000000	99.801536 
2356.000000	99.802093 
2355.000000	99.802606 
2354.000000	99.803064 
2353.000000	99.803465 
2352.000000	99.803822 
2351.000000	99.804146 
2350.000000	99.804439 
2349.000000	99.804697 
2348.000000	99.804921 
2347.000000	99.805108 
2346.000000	99.805256 
2345.000000	99.805360 
2344.000000	99.805425 
2343.000000	99.805456 
2342.000000	99.805453 
2341.000000	99.805412 
2340.000000	99.805329 
2339.000000	99.805208 
2338.000000	99.805054 
2337.000000	99.804868 
2336.000000	99.804647 
2335.000000	99.804387 
2334.000000	99.804081 
2333.000000	99.803724 
2332.000000	99.803308 
2331.000000	99.802832 
2330.000000	99.802301 
2329.000000	99.801730 
2328.000000	99.801138 
2327.000000	99.800543 
2326.000000	99.799935 
2325.000000	99.799264 
2324.000000	99.798471 
2323.000000	99.797570 
2322.000000	99.796717 
2321.000000	99.796099 
2320.000000	99.795740 
2319.000000	99.795369 
2318.000000	99.794717 
2317.000000	99.793832 
2316.000000	99.792906 
2315.000000	99.791934 
2314.000000	99.790749 
2313.000000	99.789469 
2312.000000	99.788370 
2311.000000	99.787577 
2310.000000	99.787011 
2309.000000	99.786760 
2308.000000	99.786739 
2307.000000	99.786279 
2306.000000	99.784483 
2305.000000	99.781378 
2304.000000	99.778094 
2303.000000	99.775717 
2302.000000	99.774173 
2301.000000	99.772791 
2300.000000	99.771298 
2299.000000	99.769890 
2298.000000	99.768535 
2297.000000	99.767088 
2296.000000	99.765860 
2295.000000	99.765374 
2294.000000	99.765288 
2293.000000	99.764393 
2292.000000	99.762028 
2291.000000	99.758971 
2290.000000	99.756588 
2289.000000	99.755436 
2288.000000	99.755200 
2287.000000	99.755488 
2286.000000	99.756033 
2285.000000	99.756245 
2284.000000	99.755376 
2283.000000	99.753341 
2282.000000	99.750840 
2281.000000	99.748422 
2280.000000	99.746062 
2279.000000	99.743909 
2278.000000	99.742713 
2277.000000	99.743024 
2276.000000	99.744391 
2275.000000	99.745735 
2274.000000	99.746307 
2273.000000	99.745983 
2272.000000	99.744939 
2271.000000	99.743528 
2270.000000	99.742356 
2269.000000	99.741934 
2268.000000	99.742205 
2267.000000	99.742760 
2266.000000	99.743398 
2265.000000	99.744091 
2264.000000	99.744479 
2263.000000	99.744098 
2262.000000	99.743318 
2261.000000	99.743351 
2260.000000	99.744678 
2259.000000	99.745926 
2258.000000	99.745275 
2257.000000	99.742596 
2256.000000	99.739487 
2255.000000	99.737370 
2254.000000	99.736233 
2253.000000	99.735555 
2252.000000	99.735409 
2251.000000	99.736078 
2250.000000	99.737203 
2249.000000	99.738095 
2248.000000	99.738587 
2247.000000	99.738896 
2246.000000	99.738786 
2245.000000	99.737635 
2244.000000	99.735346 
2243.000000	99.732664 
2242.000000	99.730646 
2241.000000	99.730057 
2240.000000	99.731062 
2239.000000	99.732985 
2238.000000	99.734378 
2237.000000	99.733950 
2236.000000	99.731581 
2235.000000	99.728162 
2234.000000	99.724695 
2233.000000	99.721851 
2232.000000	99.720374 
2231.000000	99.721061 
2230.000000	99.723819 
2229.000000	99.727186 
2228.000000	99.729425 
2227.000000	99.729999 
2226.000000	99.729523 
2225.000000	99.728831 
2224.000000	99.728315 
2223.000000	99.727986 
2222.000000	99.727775 
2221.000000	99.727634 
2220.000000	99.727543 
2219.000000	99.727594 
2218.000000	99.728026 
2217.000000	99.729035 
2216.000000	99.730526 
2215.000000	99.732098 
2214.000000	99.733279 
2213.000000	99.733810 
2212.000000	99.733713 
2211.000000	99.733232 
2210.000000	99.732745 
2209.000000	99.732588 
2208.000000	99.732789 
2207.000000	99.733028 
2206.000000	99.732991 
2205.000000	99.732720 
2204.000000	99.732511 
2203.000000	99.732579 
2202.000000	99.732886 
2201.000000	99.733313 
2200.000000	99.733766 
2199.000000	99.734201 
2198.000000	99.734604 
2197.000000	99.735007 
2196.000000	99.735483 
2195.000000	99.736055 
2194.000000	99.736692 
2193.000000	99.737337 
2192.000000	99.737956 
2191.000000	99.738536 
2190.000000	99.739073 
2189.000000	99.739577 
2188.000000	99.740076 
2187.000000	99.740594 
2186.000000	99.741146 
2185.000000	99.741732 
2184.000000	99.742336 
2183.000000	99.742945 
2182.000000	99.743553 
2181.000000	99.744159 
2180.000000	99.744777 
2179.000000	99.745435 
2178.000000	99.746105 
2177.000000	99.746654 
2176.000000	99.746966 
2175.000000	99.747140 
2174.000000	99.747429 
2173.000000	99.747901 
2172.000000	99.748335 
2171.000000	99.748574 
2170.000000	99.748779 
2169.000000	99.749207 
2168.000000	99.749945 
2167.000000	99.750987 
2166.000000	99.752281 
2165.000000	99.753552 
2164.000000	99.754405 
2163.000000	99.754846 
2162.000000	99.755517 
2161.000000	99.757075 
2160.000000	99.759325 
2159.000000	99.761129 
2158.000000	99.761441 
2157.000000	99.760087 
2156.000000	99.757791 
2155.000000	99.755715 
2154.000000	99.754664 
2153.000000	99.754783 
2152.000000	99.755653 
2151.000000	99.756591 
2150.000000	99.757147 
2149.000000	99.757393 
2148.000000	99.757829 
2147.000000	99.758797 
2146.000000	99.759917 
2145.000000	99.760416 
2144.000000	99.760155 
2143.000000	99.759880 
2142.000000	99.760112 
2141.000000	99.760310 
2140.000000	99.759655 
2139.000000	99.758109 
2138.000000	99.756094 
2137.000000	99.753688 
2136.000000	99.750929 
2135.000000	99.748621 
2134.000000	99.747847 
2133.000000	99.748689 
2132.000000	99.750008 
2131.000000	99.750505 
2130.000000	99.749689 
2129.000000	99.747785 
2128.000000	99.745432 
2127.000000	99.743469 
2126.000000	99.742384 
2125.000000	99.741812 
2124.000000	99.740967 
2123.000000	99.739855 
2122.000000	99.739414 
2121.000000	99.740079 
2120.000000	99.740866 
2119.000000	99.740511 
2118.000000	99.738992 
2117.000000	99.737197 
2116.000000	99.735497 
2115.000000	99.733706 
2114.000000	99.732286 
2113.000000	99.732343 
2112.000000	99.734067 
2111.000000	99.735886 
2110.000000	99.735933 
2109.000000	99.733830 
2108.000000	99.730582 
2107.000000	99.727336 
2106.000000	99.724542 
2105.000000	99.722009 
2104.000000	99.719318 
2103.000000	99.716376 
2102.000000	99.713921 
2101.000000	99.713074 
2100.000000	99.714073 
2099.000000	99.715798 
2098.000000	99.717037 
2097.000000	99.718043 
2096.000000	99.720128 
2095.000000	99.723634 
2094.000000	99.726812 
2093.000000	99.727397 
2092.000000	99.725200 
2091.000000	99.722557 
2090.000000	99.721710 
2089.000000	99.722037 
2088.000000	99.720890 
2087.000000	99.717176 
2086.000000	99.713248 
2085.000000	99.712561 
2084.000000	99.716246 
2083.000000	99.722463 
2082.000000	99.728510 
2081.000000	99.732978 
2080.000000	99.735796 
2079.000000	99.737204 
2078.000000	99.737364 
2077.000000	99.736773 
2076.000000	99.736573 
2075.000000	99.738029 
2074.000000	99.741471 
2073.000000	99.745776 
2072.000000	99.749179 
2071.000000	99.750762 
2070.000000	99.751000 
2069.000000	99.750896 
2068.000000	99.750868 
2067.000000	99.750583 
2066.000000	99.749518 
2065.000000	99.747392 
2064.000000	99.744453 
2063.000000	99.741733 
2062.000000	99.740672 
2061.000000	99.742081 
2060.000000	99.745488 
2059.000000	99.749775 
2058.000000	99.754175 
2057.000000	99.758258 
2056.000000	99.761135 
2055.000000	99.761661 
2054.000000	99.759856 
2053.000000	99.757558 
2052.000000	99.756963 
2051.000000	99.758373 
2050.000000	99.759807 
2049.000000	99.758869 
2048.000000	99.754838 
2047.000000	99.749031 
2046.000000	99.743857 
2045.000000	99.741304 
2044.000000	99.741804 
2043.000000	99.744051 
2042.000000	99.745863 
2041.000000	99.745899 
2040.000000	99.744545 
2039.000000	99.743051 
2038.000000	99.742221 
2037.000000	99.742197 
2036.000000	99.743011 
2035.000000	99.744579 
2034.000000	99.746118 
2033.000000	99.746348 
2032.000000	99.744610 
2031.000000	99.741498 
2030.000000	99.738284 
2029.000000	99.735944 
2028.000000	99.734635 
2027.000000	99.733747 
2026.000000	99.732612 
2025.000000	99.731564 
2024.000000	99.731914 
2023.000000	99.734126 
2022.000000	99.736475 
2021.000000	99.736583 
2020.000000	99.734489 
2019.000000	99.732738 
2018.000000	99.732911 
2017.000000	99.733315 
2016.000000	99.731338 
2015.000000	99.727242 
2014.000000	99.723977 
2013.000000	99.723671 
2012.000000	99.726009 
2011.000000	99.729455 
2010.000000	99.732866 
2009.000000	99.735793 
2008.000000	99.738245 
2007.000000	99.740879 
2006.000000	99.744351 
2005.000000	99.748042 
2004.000000	99.750253 
2003.000000	99.749922 
2002.000000	99.747646 
2001.000000	99.745046 
2000.000000	99.743341 
1999.000000	99.742716 
1998.000000	99.742764 
1997.000000	99.743269 
1996.000000	99.744496 
1995.000000	99.746685 
1994.000000	99.749257 
1993.000000	99.750856 
1992.000000	99.750575 
1991.000000	99.748884 
1990.000000	99.747112 
1989.000000	99.746234 
1988.000000	99.746389 
1987.000000	99.747169 
1986.000000	99.747863 
1985.000000	99.747790 
1984.000000	99.746928 
1983.000000	99.746129 
1982.000000	99.746285 
1981.000000	99.747294 
1980.000000	99.748182 
1979.000000	99.748348 
1978.000000	99.748235 
1977.000000	99.748565 
1976.000000	99.749340 
1975.000000	99.750015 
1974.000000	99.750344 
1973.000000	99.750668 
1972.000000	99.751390 
1971.000000	99.752424 
1970.000000	99.753123 
1969.000000	99.752918 
1968.000000	99.751882 
1967.000000	99.750765 
1966.000000	99.750321 
1965.000000	99.750517 
1964.000000	99.750716 
1963.000000	99.750413 
1962.000000	99.749705 
1961.000000	99.748978 
1960.000000	99.748427 
1959.000000	99.748049 
1958.000000	99.747923 
1957.000000	99.748136 
1956.000000	99.748463 
1955.000000	99.748539 
1954.000000	99.748365 
1953.000000	99.748282 
1952.000000	99.748360 
1951.000000	99.748207 
1950.000000	99.747591 
1949.000000	99.746908 
1948.000000	99.746785 
1947.000000	99.747388 
1946.000000	99.748217 
1945.000000	99.748424 
1944.000000	99.747410 
1943.000000	99.745552 
1942.000000	99.744408 
1941.000000	99.745239 
1940.000000	99.747393 
1939.000000	99.748798 
1938.000000	99.748397 
1937.000000	99.747384 
1936.000000	99.747599 
1935.000000	99.749295 
1934.000000	99.751407 
1933.000000	99.753508 
1932.000000	99.756200 
1931.000000	99.759475 
1930.000000	99.762034 
1929.000000	99.762735 
1928.000000	99.762188 
1927.000000	99.762017 
1926.000000	99.762864 
1925.000000	99.763827 
1924.000000	99.763445 
1923.000000	99.761518 
1922.000000	99.759784 
1921.000000	99.760043 
1920.000000	99.761892 
1919.000000	99.762967 
1918.000000	99.761501 
1917.000000	99.758495 
1916.000000	99.756337 
1915.000000	99.755532 
1914.000000	99.754749 
1913.000000	99.753426 
1912.000000	99.752494 
1911.000000	99.752507 
1910.000000	99.752496 
1909.000000	99.751581 
1908.000000	99.750748 
1907.000000	99.751439 
1906.000000	99.753470 
1905.000000	99.755747 
1904.000000	99.758047 
1903.000000	99.761073 
1902.000000	99.764521 
1901.000000	99.766646 
1900.000000	99.766313 
1899.000000	99.764063 
1898.000000	99.761191 
1897.000000	99.758702 
1896.000000	99.757188 
1895.000000	99.757084 
1894.000000	99.758233 
1893.000000	99.759821 
1892.000000	99.761074 
1891.000000	99.761763 
1890.000000	99.761866 
1889.000000	99.761358 
1888.000000	99.760597 
1887.000000	99.760258 
1886.000000	99.760651 
1885.000000	99.761476 
1884.000000	99.762203 
1883.000000	99.762621 
1882.000000	99.762833 
1881.000000	99.762876 
1880.000000	99.762690 
1879.000000	99.762317 
1878.000000	99.761976 
1877.000000	99.761933 
1876.000000	99.762302 
1875.000000	99.762964 
1874.000000	99.763599 
1873.000000	99.763843 
1872.000000	99.763554 
1871.000000	99.762912 
1870.000000	99.762286 
1869.000000	99.761962 
1868.000000	99.761961 
1867.000000	99.762145 
1866.000000	99.762344 
1865.000000	99.762468 
1864.000000	99.762562 
1863.000000	99.762669 
1862.000000	99.762686 
1861.000000	99.762421 
1860.000000	99.761844 
1859.000000	99.761203 
1858.000000	99.760819 
1857.000000	99.760834 
1856.000000	99.761220 
1855.000000	99.761897 
1854.000000	99.762670 
1853.000000	99.763182 
1852.000000	99.763220 
1851.000000	99.762961 
1850.000000	99.762754 
1849.000000	99.762840 
1848.000000	99.763191 
1847.000000	99.763554 
1846.000000	99.763539 
1845.000000	99.762896 
1844.000000	99.761882 
1843.000000	99.761202 
1842.000000	99.761107 
1841.000000	99.761069 
1840.000000	99.760624 
1839.000000	99.759911 
1838.000000	99.759376 
1837.000000	99.759181 
1836.000000	99.759074 
1835.000000	99.758866 
1834.000000	99.758677 
1833.000000	99.758671 
1832.000000	99.758778 
1831.000000	99.758719 
1830.000000	99.758284 
1829.000000	99.757706 
1828.000000	99.757453 
1827.000000	99.757663 
1826.000000	99.758149 
1825.000000	99.758584 
1824.000000	99.758699 
1823.000000	99.758436 
1822.000000	99.757858 
1821.000000	99.757095 
1820.000000	99.756426 
1819.000000	99.756174 
1818.000000	99.756464 
1817.000000	99.757047 
1816.000000	99.757472 
1815.000000	99.757582 
1814.000000	99.757558 
1813.000000	99.757607 
1812.000000	99.757742 
1811.000000	99.757879 
1810.000000	99.758064 
1809.000000	99.758306 
1808.000000	99.758390 
1807.000000	99.758092 
1806.000000	99.757423 
1805.000000	99.756626 
1804.000000	99.756008 
1803.000000	99.755758 
1802.000000	99.755786 
1801.000000	99.755697 
1800.000000	99.755195 
1799.000000	99.754468 
1798.000000	99.754047 
1797.000000	99.754171 
1796.000000	99.754620 
1795.000000	99.754988 
1794.000000	99.755084 
1793.000000	99.754988 
1792.000000	99.754861 
1791.000000	99.754790 
1790.000000	99.754777 
1789.000000	99.754666 
1788.000000	99.754381 
1787.000000	99.754101 
1786.000000	99.754084 
1785.000000	99.754284 
1784.000000	99.754322 
1783.000000	99.753954 
1782.000000	99.753269 
1781.000000	99.752592 
1780.000000	99.752255 
1779.000000	99.752288 
1778.000000	99.752600 
1777.000000	99.753098 
1776.000000	99.753753 
1775.000000	99.754449 
1774.000000	99.754965 
1773.000000	99.755174 
1772.000000	99.755170 
1771.000000	99.755230 
1770.000000	99.755393 
1769.000000	99.755307 
1768.000000	99.754774 
1767.000000	99.754052 
1766.000000	99.753595 
1765.000000	99.753552 
1764.000000	99.753693 
1763.000000	99.753662 
1762.000000	99.753321 
1761.000000	99.753033 
1760.000000	99.753274 
1759.000000	99.753973 
1758.000000	99.754800 
1757.000000	99.755479 
1756.000000	99.755973 
1755.000000	99.756280 
1754.000000	99.756300 
1753.000000	99.756081 
1752.000000	99.755876 
1751.000000	99.755722 
1750.000000	99.755407 
1749.000000	99.754955 
1748.000000	99.754675 
1747.000000	99.754850 
1746.000000	99.755350 
1745.000000	99.755788 
1744.000000	99.755869 
1743.000000	99.755512 
1742.000000	99.754885 
1741.000000	99.754300 
1740.000000	99.754067 
1739.000000	99.754343 
1738.000000	99.755018 
1737.000000	99.755650 
1736.000000	99.755880 
1735.000000	99.755733 
1734.000000	99.755161 
1733.000000	99.754212 
1732.000000	99.753380 
1731.000000	99.752692 
1730.000000	99.752119 
1729.000000	99.751744 
1728.000000	99.751537 
1727.000000	99.751384 
1726.000000	99.751216 
1725.000000	99.751031 
1724.000000	99.750672 
1723.000000	99.749928 
1722.000000	99.748978 
1721.000000	99.748179 
1720.000000	99.747719 
1719.000000	99.747570 
1718.000000	99.747512 
1717.000000	99.747324 
1716.000000	99.747161 
1715.000000	99.747190 
1714.000000	99.747267 
1713.000000	99.747181 
1712.000000	99.746822 
1711.000000	99.746272 
1710.000000	99.745657 
1709.000000	99.745012 
1708.000000	99.744374 
1707.000000	99.743751 
1706.000000	99.743006 
1705.000000	99.742020 
1704.000000	99.741014 
1703.000000	99.740255 
1702.000000	99.739797 
1701.000000	99.739538 
1700.000000	99.738848 
1699.000000	99.738009 
1698.000000	99.737859 
1697.000000	99.737706 
1696.000000	99.736719 
1695.000000	99.735169 
1694.000000	99.734166 
1693.000000	99.733693 
1692.000000	99.732980 
1691.000000	99.731823 
1690.000000	99.730616 
1689.000000	99.729728 
1688.000000	99.729188 
1687.000000	99.728716 
1686.000000	99.728252 
1685.000000	99.728032 
1684.000000	99.727544 
1683.000000	99.726853 
1682.000000	99.726546 
1681.000000	99.725917 
1680.000000	99.724880 
1679.000000	99.723879 
1678.000000	99.723031 
1677.000000	99.722113 
1676.000000	99.721049 
1675.000000	99.719986 
1674.000000	99.719236 
1673.000000	99.719077 
1672.000000	99.719433 
1671.000000	99.720131 
1670.000000	99.720835 
1669.000000	99.720946 
1668.000000	99.720491 
1667.000000	99.719594 
1666.000000	99.717974 
1665.000000	99.715568 
1664.000000	99.712887 
1663.000000	99.710856 
1662.000000	99.709950 
1661.000000	99.709742 
1660.000000	99.709588 
1659.000000	99.709241 
1658.000000	99.708819 
1657.000000	99.708399 
1656.000000	99.708004 
1655.000000	99.707995 
1654.000000	99.708905 
1653.000000	99.708894 
1652.000000	99.707065 
1651.000000	99.706076 
1650.000000	99.705738 
1649.000000	99.705480 
1648.000000	99.705124 
1647.000000	99.704225 
1646.000000	99.702798 
1645.000000	99.702073 
1644.000000	99.702227 
1643.000000	99.702719 
1642.000000	99.703323 
1641.000000	99.703974 
1640.000000	99.704602 
1639.000000	99.704938 
1638.000000	99.704960 
1637.000000	99.705177 
1636.000000	99.705777 
1635.000000	99.706141 
1634.000000	99.706222 
1633.000000	99.706096 
1632.000000	99.705366 
1631.000000	99.704354 
1630.000000	99.703597 
1629.000000	99.703181 
1628.000000	99.702764 
1627.000000	99.702304 
1626.000000	99.702108 
1625.000000	99.702394 
1624.000000	99.703096 
1623.000000	99.703652 
1622.000000	99.703756 
1621.000000	99.703668 
1620.000000	99.703463 
1619.000000	99.703019 
1618.000000	99.702925 
1617.000000	99.704007 
1616.000000	99.706370 
1615.000000	99.709472 
1614.000000	99.711902 
1613.000000	99.712849 
1612.000000	99.713105 
1611.000000	99.713659 
1610.000000	99.714210 
1609.000000	99.714136 
1608.000000	99.714007 
1607.000000	99.714609 
1606.000000	99.715449 
1605.000000	99.715608 
1604.000000	99.715404 
1603.000000	99.715637 
1602.000000	99.716481 
1601.000000	99.717559 
1600.000000	99.718673 
1599.000000	99.719928 
1598.000000	99.721263 
1597.000000	99.722365 
1596.000000	99.722851 
1595.000000	99.722565 
1594.000000	99.721859 
1593.000000	99.721508 
1592.000000	99.722130 
1591.000000	99.723519 
1590.000000	99.724713 
1589.000000	99.724966 
1588.000000	99.724527 
1587.000000	99.724203 
1586.000000	99.724375 
1585.000000	99.724723 
1584.000000	99.724917 
1583.000000	99.724876 
1582.000000	99.724463 
1581.000000	99.723694 
1580.000000	99.722757 
1579.000000	99.721642 
1578.000000	99.720153 
1577.000000	99.718623 
1576.000000	99.717825 
1575.000000	99.718569 
1574.000000	99.720651 
1573.000000	99.722594 
1572.000000	99.723645 
1571.000000	99.724176 
1570.000000	99.724585 
1569.000000	99.724773 
1568.000000	99.724889 
1567.000000	99.724453 
1566.000000	99.722646 
1565.000000	99.719826 
1564.000000	99.717317 
1563.000000	99.715927 
1562.000000	99.715342 
1561.000000	99.715594 
1560.000000	99.718121 
1559.000000	99.720355 
1558.000000	99.719706 
1557.000000	99.720337 
1556.000000	99.720828 
1555.000000	99.719780 
1554.000000	99.718182 
1553.000000	99.717621 
1552.000000	99.718323 
1551.000000	99.718761 
1550.000000	99.717972 
1549.000000	99.716685 
1548.000000	99.715945 
1547.000000	99.715340 
1546.000000	99.713356 
1545.000000	99.709467 
1544.000000	99.705259 
1543.000000	99.703223 
1542.000000	99.704348 
1541.000000	99.707314 
1540.000000	99.709147 
1539.000000	99.710342 
1538.000000	99.713748 
1537.000000	99.718371 
1536.000000	99.722133 
1535.000000	99.724524 
1534.000000	99.725333 
1533.000000	99.724531 
1532.000000	99.723668 
1531.000000	99.723781 
1530.000000	99.724564 
1529.000000	99.725634 
1528.000000	99.726675 
1527.000000	99.727599 
1526.000000	99.728448 
1525.000000	99.729244 
1524.000000	99.729964 
1523.000000	99.730730 
1522.000000	99.731824 
1521.000000	99.732840 
1520.000000	99.733441 
1519.000000	99.733428 
1518.000000	99.732567 
1517.000000	99.731776 
1516.000000	99.732118 
1515.000000	99.733584 
1514.000000	99.735308 
1513.000000	99.737004 
1512.000000	99.738893 
1511.000000	99.740580 
1510.000000	99.741399 
1509.000000	99.741128 
1508.000000	99.740394 
1507.000000	99.739732 
1506.000000	99.739594 
1505.000000	99.740269 
1504.000000	99.741029 
1503.000000	99.741539 
1502.000000	99.741937 
1501.000000	99.742327 
1500.000000	99.742659 
1499.000000	99.742823 
1498.000000	99.742785 
1497.000000	99.742659 
1496.000000	99.742650 
1495.000000	99.742972 
1494.000000	99.743642 
1493.000000	99.744429 
1492.000000	99.745078 
1491.000000	99.745431 
1490.000000	99.745427 
1489.000000	99.745157 
1488.000000	99.744808 
1487.000000	99.744517 
1486.000000	99.744345 
1485.000000	99.744230 
1484.000000	99.744147 
1483.000000	99.744139 
1482.000000	99.744215 
1481.000000	99.744319 
1480.000000	99.744346 
1479.000000	99.744253 
1478.000000	99.744055 
1477.000000	99.743803 
1476.000000	99.743566 
1475.000000	99.743420 
1474.000000	99.743376 
1473.000000	99.743331 
1472.000000	99.743170 
1471.000000	99.742910 
1470.000000	99.742618 
1469.000000	99.742306 
1468.000000	99.741983 
1467.000000	99.741692 
1466.000000	99.741478 
1465.000000	99.741333 
1464.000000	99.741200 
1463.000000	99.741047 
1462.000000	99.740889 
1461.000000	99.740742 
1460.000000	99.740596 
1459.000000	99.740421 
1458.000000	99.740193 
1457.000000	99.739916 
1456.000000	99.739656 
1455.000000	99.739463 
1454.000000	99.739312 
1453.000000	99.739174 
1452.000000	99.739054 
1451.000000	99.738934 
1450.000000	99.738773 
1449.000000	99.738536 
1448.000000	99.738223 
1447.000000	99.737893 
1446.000000	99.737619 
1445.000000	99.737429 
1444.000000	99.737326 
1443.000000	99.737255 
1442.000000	99.737169 
1441.000000	99.737056 
1440.000000	99.736918 
1439.000000	99.736724 
1438.000000	99.736496 
1437.000000	99.736326 
1436.000000	99.736247 
1435.000000	99.736275 
1434.000000	99.736379 
1433.000000	99.736523 
1432.000000	99.736731 
1431.000000	99.736920 
1430.000000	99.736866 
1429.000000	99.736505 
1428.000000	99.736048 
1427.000000	99.735838 
1426.000000	99.736025 
1425.000000	99.736563 
1424.000000	99.737292 
1423.000000	99.737823 
1422.000000	99.737895 
1421.000000	99.737621 
1420.000000	99.737492 
1419.000000	99.737696 
1418.000000	99.738116 
1417.000000	99.738766 
1416.000000	99.739299 
1415.000000	99.739426 
1414.000000	99.739270 
1413.000000	99.739219 
1412.000000	99.739720 
1411.000000	99.740899 
1410.000000	99.742440 
1409.000000	99.743781 
1408.000000	99.744550 
1407.000000	99.745021 
1406.000000	99.745646 
1405.000000	99.746292 
1404.000000	99.746569 
1403.000000	99.746632 
1402.000000	99.747215 
1401.000000	99.748655 
1400.000000	99.750382 
1399.000000	99.751478 
1398.000000	99.751931 
1397.000000	99.752425 
1396.000000	99.753039 
1395.000000	99.753310 
1394.000000	99.753168 
1393.000000	99.753196 
1392.000000	99.753748 
1391.000000	99.754638 
1390.000000	99.755724 
1389.000000	99.756891 
1388.000000	99.757664 
1387.000000	99.757583 
1386.000000	99.757072 
1385.000000	99.757016 
1384.000000	99.757558 
1383.000000	99.758067 
1382.000000	99.758079 
1381.000000	99.757787 
1380.000000	99.757621 
1379.000000	99.757688 
1378.000000	99.757775 
1377.000000	99.757754 
1376.000000	99.757725 
1375.000000	99.757881 
1374.000000	99.758367 
1373.000000	99.759259 
1372.000000	99.760351 
1371.000000	99.761150 
1370.000000	99.761268 
1369.000000	99.760717 
1368.000000	99.759921 
1367.000000	99.759249 
1366.000000	99.758790 
1365.000000	99.758521 
1364.000000	99.758455 
1363.000000	99.758500 
1362.000000	99.758461 
1361.000000	99.758245 
1360.000000	99.757948 
1359.000000	99.757882 
1358.000000	99.758390 
1357.000000	99.759431 
1356.000000	99.760424 
1355.000000	99.760738 
1354.000000	99.760477 
1353.000000	99.760417 
1352.000000	99.760906 
1351.000000	99.761357 
1350.000000	99.760964 
1349.000000	99.759732 
1348.000000	99.758465 
1347.000000	99.757591 
1346.000000	99.756914 
1345.000000	99.756343 
1344.000000	99.756213 
1343.000000	99.756628 
1342.000000	99.757299 
1341.000000	99.758160 
1340.000000	99.759585 
1339.000000	99.761518 
1338.000000	99.763077 
1337.000000	99.763631 
1336.000000	99.763605 
1335.000000	99.763743 
1334.000000	99.764036 
1333.000000	99.763916 
1332.000000	99.763178 
1331.000000	99.762174 
1330.000000	99.761296 
1329.000000	99.760788 
1328.000000	99.760878 
1327.000000	99.761546 
1326.000000	99.762240 
1325.000000	99.762462 
1324.000000	99.762504 
1323.000000	99.762936 
1322.000000	99.763657 
1321.000000	99.764044 
1320.000000	99.764022 
1319.000000	99.764153 
1318.000000	99.764486 
1317.000000	99.764101 
1316.000000	99.762325 
1315.000000	99.759857 
1314.000000	99.758114 
1313.000000	99.757578 
1312.000000	99.757487 
1311.000000	99.757185 
1310.000000	99.757077 
1309.000000	99.757830 
1308.000000	99.759169 
1307.000000	99.760096 
1306.000000	99.760142 
1305.000000	99.759864 
1304.000000	99.760014 
1303.000000	99.760649 
1302.000000	99.761298 
1301.000000	99.761600 
1300.000000	99.761530 
1299.000000	99.761226 
1298.000000	99.760979 
1297.000000	99.761197 
1296.000000	99.762052 
1295.000000	99.763162 
1294.000000	99.763896 
1293.000000	99.764007 
1292.000000	99.763726 
1291.000000	99.763338 
1290.000000	99.762934 
1289.000000	99.762601 
1288.000000	99.762510 
1287.000000	99.762608 
1286.000000	99.762501 
1285.000000	99.761915 
1284.000000	99.761044 
1283.000000	99.760110 
1282.000000	99.758862 
1281.000000	99.757016 
1280.000000	99.755146 
1279.000000	99.754464 
1278.000000	99.755510 
1277.000000	99.757484 
1276.000000	99.759115 
1275.000000	99.760046 
1274.000000	99.760785 
1273.000000	99.761464 
1272.000000	99.761385 
1271.000000	99.760178 
1270.000000	99.758827 
1269.000000	99.758749 
1268.000000	99.760001 
1267.000000	99.761003 
1266.000000	99.760307 
1265.000000	99.758325 
1264.000000	99.756874 
1263.000000	99.757018 
1262.000000	99.757774 
1261.000000	99.757267 
1260.000000	99.755068 
1259.000000	99.752837 
1258.000000	99.752420 
1257.000000	99.753871 
1256.000000	99.755859 
1255.000000	99.757659 
1254.000000	99.759839 
1253.000000	99.762879 
1252.000000	99.765989 
1251.000000	99.767906 
1250.000000	99.768220 
1249.000000	99.767233 
1248.000000	99.765065 
1247.000000	99.761831 
1246.000000	99.758330 
1245.000000	99.755404 
1244.000000	99.752705 
1243.000000	99.749370 
1242.000000	99.746106 
1241.000000	99.745196 
1240.000000	99.747775 
1239.000000	99.752136 
1238.000000	99.755593 
1237.000000	99.757194 
1236.000000	99.757626 
1235.000000	99.757296 
1234.000000	99.755795 
1233.000000	99.752852 
1232.000000	99.748546 
1231.000000	99.742834 
1230.000000	99.736226 
1229.000000	99.730886 
1228.000000	99.729435 
1227.000000	99.731866 
1226.000000	99.734596 
1225.000000	99.733589 
1224.000000	99.727912 
1223.000000	99.719727 
1222.000000	99.711563 
1221.000000	99.704350 
1220.000000	99.697951 
1219.000000	99.692399 
1218.000000	99.687890 
1217.000000	99.683914 
1216.000000	99.679054 
1215.000000	99.672063 
1214.000000	99.663211 
1213.000000	99.654270 
1212.000000	99.646794 
1211.000000	99.640484 
1210.000000	99.633641 
1209.000000	99.625198 
1208.000000	99.615815 
1207.000000	99.606926 
1206.000000	99.599269 
1205.000000	99.592587 
1204.000000	99.586234 
1203.000000	99.579702 
1202.000000	99.573002 
1201.000000	99.566837 
1200.000000	99.561734 
1199.000000	99.556580 
1198.000000	99.548929 
1197.000000	99.537733 
1196.000000	99.525155 
1195.000000	99.514608 
1194.000000	99.507090 
1193.000000	99.500561 
1192.000000	99.492830 
1191.000000	99.483693 
1190.000000	99.473982 
1189.000000	99.463936 
1188.000000	99.453371 
1187.000000	99.442629 
1186.000000	99.432454 
1185.000000	99.423300 
1184.000000	99.415344 
1183.000000	99.408789 
1182.000000	99.403538 
1181.000000	99.398859 
1180.000000	99.393670 
1179.000000	99.386869 
1178.000000	99.377526 
1177.000000	99.365700 
1176.000000	99.353224 
1175.000000	99.342440 
1174.000000	99.333398 
1173.000000	99.323396 
1172.000000	99.310277 
1171.000000	99.295246 
1170.000000	99.281292 
1169.000000	99.269684 
1168.000000	99.259508 
1167.000000	99.250004 
1166.000000	99.241793 
1165.000000	99.235982 
1164.000000	99.233481 
1163.000000	99.235180 
1162.000000	99.241138 
1161.000000	99.249142 
1160.000000	99.255364 
1159.000000	99.257178 
1158.000000	99.254534 
1157.000000	99.248359 
1156.000000	99.238916 
1155.000000	99.226765 
1154.000000	99.214328 
1153.000000	99.204628 
1152.000000	99.198079 
1151.000000	99.191511 
1150.000000	99.181041 
1149.000000	99.165865 
1148.000000	99.149270 
1147.000000	99.135909 
1146.000000	99.127613 
1145.000000	99.121619 
1144.000000	99.113051 
1143.000000	99.099399 
1142.000000	99.082686 
1141.000000	99.067277 
1140.000000	99.055660 
1139.000000	99.046689 
1138.000000	99.037625 
1137.000000	99.026917 
1136.000000	99.014551 
1135.000000	99.000578 
1134.000000	98.984628 
1133.000000	98.966913 
1132.000000	98.948591 
1131.000000	98.930707 
1130.000000	98.913687 
1129.000000	98.898316 
1128.000000	98.885841 
1127.000000	98.875697 
1126.000000	98.864212 
1125.000000	98.847871 
1124.000000	98.827912 
1123.000000	98.809640 
1122.000000	98.796344 
1121.000000	98.785696 
1120.000000	98.773291 
1119.000000	98.758335 
1118.000000	98.743926 
1117.000000	98.732337 
1116.000000	98.722205 
1115.000000	98.710804 
1114.000000	98.697753 
1113.000000	98.685429 
1112.000000	98.676002 
1111.000000	98.668613 
1110.000000	98.659568 
1109.000000	98.645574 
1108.000000	98.627156 
1107.000000	98.608875 
1106.000000	98.595555 
1105.000000	98.587858 
1104.000000	98.581600 
1103.000000	98.571608 
1102.000000	98.556509 
1101.000000	98.539692 
1100.000000	98.525616 
1099.000000	98.515743 
1098.000000	98.508234 
1097.000000	98.500854 
1096.000000	98.493097 
1095.000000	98.485361 
1094.000000	98.477594 
1093.000000	98.469507 
1092.000000	98.461033 
1091.000000	98.451783 
1090.000000	98.441375 
1089.000000	98.431220 
1088.000000	98.424233 
1087.000000	98.421075 
1086.000000	98.418430 
1085.000000	98.413435 
1084.000000	98.408185 
1083.000000	98.406486 
1082.000000	98.406952 
1081.000000	98.403379 
1080.000000	98.392350 
1079.000000	98.376846 
1078.000000	98.361615 
1077.000000	98.348451 
1076.000000	98.337582 
1075.000000	98.329669 
1074.000000	98.323285 
1073.000000	98.313392 
1072.000000	98.296153 
1071.000000	98.274110 
1070.000000	98.253787 
1069.000000	98.238564 
1068.000000	98.225986 
1067.000000	98.211099 
1066.000000	98.189978 
1065.000000	98.161030 
1064.000000	98.126048 
1063.000000	98.090508 
1062.000000	98.060346 
1061.000000	98.037240 
1060.000000	98.017910 
1059.000000	97.997702 
1058.000000	97.973676 
1057.000000	97.945215 
1056.000000	97.914149 
1055.000000	97.884631 
1054.000000	97.860473 
1053.000000	97.841045 
1052.000000	97.821067 
1051.000000	97.796010 
1050.000000	97.766801 
1049.000000	97.737304 
1048.000000	97.707992 
1047.000000	97.674959 
1046.000000	97.635641 
1045.000000	97.592948 
1044.000000	97.552076 
1043.000000	97.514773 
1042.000000	97.479279 
1041.000000	97.445476 
1040.000000	97.416403 
1039.000000	97.392784 
1038.000000	97.369297 
1037.000000	97.339969 
1036.000000	97.305762 
1035.000000	97.273061 
1034.000000	97.245673 
1033.000000	97.222497 
1032.000000	97.202756 
1031.000000	97.188832 
1030.000000	97.182508 
1029.000000	97.181827 
1028.000000	97.183192 
1027.000000	97.183942 
1026.000000	97.181874 
1025.000000	97.175260 
1024.000000	97.164808 
1023.000000	97.153192 
1022.000000	97.141592 
1021.000000	97.129379 
1020.000000	97.118226 
1019.000000	97.112901 
1018.000000	97.115506 
1017.000000	97.121545 
1016.000000	97.124365 
1015.000000	97.121636 
1014.000000	97.115095 
1013.000000	97.105905 
1012.000000	97.093553 
1011.000000	97.078638 
1010.000000	97.063739 
1009.000000	97.051275 
1008.000000	97.042454 
1007.000000	97.038357 
1006.000000	97.040164 
1005.000000	97.047653 
1004.000000	97.058597 
1003.000000	97.070436 
1002.000000	97.082291 
1001.000000	97.094867 
1000.000000	97.108325 
999.000000	 97.120903 
998.000000	 97.130621 
997.000000	 97.138370 
996.000000	 97.147976 
995.000000	 97.162343 
994.000000	 97.180339 
993.000000	 97.198279 
992.000000	 97.213479 
991.000000	 97.225358 
990.000000	 97.234571 
989.000000	 97.243047 
988.000000	 97.253905 
987.000000	 97.269113 
986.000000	 97.287454 
985.000000	 97.306465 
984.000000	 97.325906 
983.000000	 97.347541 
982.000000	 97.372205 
981.000000	 97.399234 
980.000000	 97.428236 
979.000000	 97.458929 
978.000000	 97.489426 
977.000000	 97.517422 
976.000000	 97.543718 
975.000000	 97.572366 
974.000000	 97.606262 
973.000000	 97.643912 
972.000000	 97.681316 
971.000000	 97.716172 
970.000000	 97.749609 
969.000000	 97.784277 
968.000000	 97.821233 
967.000000	 97.858930 
966.000000	 97.895525 
965.000000	 97.931423 
964.000000	 97.967913 
963.000000	 98.003828 
962.000000	 98.036525 
961.000000	 98.066661 
960.000000	 98.098175 
959.000000	 98.131453 
958.000000	 98.160549 
957.000000	 98.181142 
956.000000	 98.197967 
955.000000	 98.219463 
954.000000	 98.246587 
953.000000	 98.272704 
952.000000	 98.294001 
951.000000	 98.313471 
950.000000	 98.333562 
949.000000	 98.351199 
948.000000	 98.363439 
947.000000	 98.373182 
946.000000	 98.384797 
945.000000	 98.397045 
944.000000	 98.405275 
943.000000	 98.408860 
942.000000	 98.411804 
941.000000	 98.416726 
940.000000	 98.422375 
939.000000	 98.427368 
938.000000	 98.432719 
937.000000	 98.439573 
936.000000	 98.447268 
935.000000	 98.455231 
934.000000	 98.464885 
933.000000	 98.478135 
932.000000	 98.495006 
931.000000	 98.513839 
930.000000	 98.532719 
929.000000	 98.549397 
928.000000	 98.560694 
927.000000	 98.564178 
926.000000	 98.561175 
925.000000	 98.556925 
924.000000	 98.556884 
923.000000	 98.563215 
922.000000	 98.574809 
921.000000	 98.589144 
920.000000	 98.602934 
919.000000	 98.612321 
918.000000	 98.615132 
917.000000	 98.613586 
916.000000	 98.613010 
915.000000	 98.617102 
914.000000	 98.625599 
913.000000	 98.636809 
912.000000	 98.650303 
911.000000	 98.665922 
910.000000	 98.682535 
909.000000	 98.700110 
908.000000	 98.721158 
907.000000	 98.746982 
906.000000	 98.773293 
905.000000	 98.793164 
904.000000	 98.805213 
903.000000	 98.816411 
902.000000	 98.835758 
901.000000	 98.866756 
900.000000	 98.906171 
899.000000	 98.947225 
898.000000	 98.982675 
897.000000	 99.007040 
896.000000	 99.018853 
895.000000	 99.022036 
894.000000	 99.024320 
893.000000	 99.032731 
892.000000	 99.049821 
891.000000	 99.073469 
890.000000	 99.099678 
889.000000	 99.125795 
888.000000	 99.151295 
887.000000	 99.175862 
886.000000	 99.198004 
885.000000	 99.216685 
884.000000	 99.233490 
883.000000	 99.251231 
882.000000	 99.270088 
881.000000	 99.286710 
880.000000	 99.297935 
879.000000	 99.304305 
878.000000	 99.309509 
877.000000	 99.317631 
876.000000	 99.331256 
875.000000	 99.350287 
874.000000	 99.371285 
873.000000	 99.389818 
872.000000	 99.404958 
871.000000	 99.420031 
870.000000	 99.437675 
869.000000	 99.456195 
868.000000	 99.472796 
867.000000	 99.487887 
866.000000	 99.502814 
865.000000	 99.515310 
864.000000	 99.522106 
863.000000	 99.526069 
862.000000	 99.535459 
861.000000	 99.553513 
860.000000	 99.573025 
859.000000	 99.584965 
858.000000	 99.589490 
857.000000	 99.594370 
856.000000	 99.604440 
855.000000	 99.617306 
854.000000	 99.628634 
853.000000	 99.636815 
852.000000	 99.642174 
851.000000	 99.646257 
850.000000	 99.652994 
849.000000	 99.666161 
848.000000	 99.683930 
847.000000	 99.699550 
846.000000	 99.708896 
845.000000	 99.713372 
844.000000	 99.713969 
843.000000	 99.707928 
842.000000	 99.695282 
841.000000	 99.683862 
840.000000	 99.681573 
839.000000	 99.685959 
838.000000	 99.687738 
837.000000	 99.683665 
836.000000	 99.679224 
835.000000	 99.677970 
834.000000	 99.675385 
833.000000	 99.666821 
832.000000	 99.655645 
831.000000	 99.647830 
830.000000	 99.641725 
829.000000	 99.630148 
828.000000	 99.612728 
827.000000	 99.599944 
826.000000	 99.601848 
825.000000	 99.616450 
824.000000	 99.632600 
823.000000	 99.642264 
822.000000	 99.646466 
821.000000	 99.650197 
820.000000	 99.655412 
819.000000	 99.660312 
818.000000	 99.663538 
817.000000	 99.666903 
816.000000	 99.673028 
815.000000	 99.680882 
814.000000	 99.685021 
813.000000	 99.680206 
812.000000	 99.666023 
811.000000	 99.645532 
810.000000	 99.619686 
809.000000	 99.585090 
808.000000	 99.538545 
807.000000	 99.482692 
806.000000	 99.425376 
805.000000	 99.373429 
804.000000	 99.328749 
803.000000	 99.290329 
802.000000	 99.257474 
801.000000	 99.230047 
800.000000	 99.207380 
799.000000	 99.189095 
798.000000	 99.176754 
797.000000	 99.172732 
796.000000	 99.176986 
795.000000	 99.186289 
794.000000	 99.196940 
793.000000	 99.207137 
792.000000	 99.216839 
791.000000	 99.227333 
790.000000	 99.241167 
789.000000	 99.259624 
788.000000	 99.278300 
787.000000	 99.287413 
786.000000	 99.279754 
785.000000	 99.257677 
784.000000	 99.230577 
783.000000	 99.207138 
782.000000	 99.191661 
781.000000	 99.184761 
780.000000	 99.183082 
779.000000	 99.179924 
778.000000	 99.171902 
777.000000	 99.165132 
776.000000	 99.169556 
775.000000	 99.186469 
774.000000	 99.206362 
773.000000	 99.220457 
772.000000	 99.229641 
771.000000	 99.239745 
770.000000	 99.253412 
769.000000	 99.269629 
768.000000	 99.286430 
767.000000	 99.300378 
766.000000	 99.307616 
765.000000	 99.309649 
764.000000	 99.314384 
763.000000	 99.326497 
762.000000	 99.339494 
761.000000	 99.342943 
760.000000	 99.336018 
759.000000	 99.328753 
758.000000	 99.330382 
757.000000	 99.340767 
756.000000	 99.353343 
755.000000	 99.361857 
754.000000	 99.363571 
753.000000	 99.359959 
752.000000	 99.356833 
751.000000	 99.361282 
750.000000	 99.375636 
749.000000	 99.394340 
748.000000	 99.408308 
747.000000	 99.413634 
746.000000	 99.415103 
745.000000	 99.420993 
744.000000	 99.434877 
743.000000	 99.453091 
742.000000	 99.469645 
741.000000	 99.482491 
740.000000	 99.493837 
739.000000	 99.505610 
738.000000	 99.516948 
737.000000	 99.526126 
736.000000	 99.532323 
735.000000	 99.534823 
734.000000	 99.533295 
733.000000	 99.530671 
732.000000	 99.533237 
731.000000	 99.544505 
730.000000	 99.560274 
729.000000	 99.573338 
728.000000	 99.582076 
727.000000	 99.590081 
726.000000	 99.598168 
725.000000	 99.602183 
724.000000	 99.599946 
723.000000	 99.595376 
722.000000	 99.593790 
721.000000	 99.596868 
720.000000	 99.604212 
719.000000	 99.615946 
718.000000	 99.630875 
717.000000	 99.645012 
716.000000	 99.654501 
715.000000	 99.657783 
714.000000	 99.654226 
713.000000	 99.643766 
712.000000	 99.630417 
711.000000	 99.622848 
710.000000	 99.626649 
709.000000	 99.637539 
708.000000	 99.645577 
707.000000	 99.645321 
706.000000	 99.638927 
705.000000	 99.630439 
704.000000	 99.621357 
703.000000	 99.612822 
702.000000	 99.607873 
701.000000	 99.608146 
700.000000	 99.609890 
699.000000	 99.606156 
698.000000	 99.594038 
697.000000	 99.578539 
696.000000	 99.568212 
695.000000	 99.566970 
694.000000	 99.571299 
693.000000	 99.575107 
692.000000	 99.575619 
691.000000	 99.574603 
690.000000	 99.576050 
689.000000	 99.583639 
688.000000	 99.598590 
687.000000	 99.617432 
686.000000	 99.632348 
685.000000	 99.637397 
684.000000	 99.633802 
683.000000	 99.628097 
682.000000	 99.625575 
681.000000	 99.626451 
680.000000	 99.627837 
679.000000	 99.627017 
678.000000	 99.623133 
677.000000	 99.618638 
676.000000	 99.618834 
675.000000	 99.626820 
674.000000	 99.639424 
673.000000	 99.649536 
672.000000	 99.653163 
671.000000	 99.652039 
670.000000	 99.650156 
669.000000	 99.650632 
668.000000	 99.655316 
667.000000	 99.663413 
666.000000	 99.672008 
665.000000	 99.679765 
664.000000	 99.688001 
663.000000	 99.698956 
662.000000	 99.712306 
661.000000	 99.723892 
660.000000	 99.730335 
659.000000	 99.732773 
658.000000	 99.734343 
657.000000	 99.735209 
656.000000	 99.733288 
655.000000	 99.729844 
654.000000	 99.730740 
653.000000	 99.738664 
652.000000	 99.751645 
651.000000	 99.764036 
650.000000	 99.771420 

