4000.000000	98.895068 
3999.000000	98.889463 
3998.000000	98.886066 
3997.000000	98.887401 
3996.000000	98.892350 
3995.000000	98.897550 
3994.000000	98.900846 
3993.000000	98.902882 
3992.000000	98.905284 
3991.000000	98.907968 
3990.000000	98.908869 
3989.000000	98.906132 
3988.000000	98.900113 
3987.000000	98.893302 
3986.000000	98.888618 
3985.000000	98.887719 
3984.000000	98.890357 
3983.000000	98.895093 
3982.000000	98.900613 
3981.000000	98.906402 
3980.000000	98.912300 
3979.000000	98.917736 
3978.000000	98.921739 
3977.000000	98.923689 
3976.000000	98.923683 
3975.000000	98.922015 
3974.000000	98.918554 
3973.000000	98.913025 
3972.000000	98.906005 
3971.000000	98.899436 
3970.000000	98.895990 
3969.000000	98.897343 
3968.000000	98.902723 
3967.000000	98.909112 
3966.000000	98.913109 
3965.000000	98.913001 
3964.000000	98.909454 
3963.000000	98.904832 
3962.000000	98.901721 
3961.000000	98.901325 
3960.000000	98.902657 
3959.000000	98.903396 
3958.000000	98.902388 
3957.000000	98.900960 
3956.000000	98.901418 
3955.000000	98.904271 
3954.000000	98.907633 
3953.000000	98.909297 
3952.000000	98.908521 
3951.000000	98.905998 
3950.000000	98.902546 
3949.000000	98.898496 
3948.000000	98.894528 
3947.000000	98.892480 
3946.000000	98.894156 
3945.000000	98.898975 
3944.000000	98.903484 
3943.000000	98.904075 
3942.000000	98.900530 
3941.000000	98.896303 
3940.000000	98.894545 
3939.000000	98.895038 
3938.000000	98.895942 
3937.000000	98.896446 
3936.000000	98.897076 
3935.000000	98.898270 
3934.000000	98.899796 
3933.000000	98.901449 
3932.000000	98.902882 
3931.000000	98.903418 
3930.000000	98.902610 
3929.000000	98.900917 
3928.000000	98.899633 
3927.000000	98.899353 
3926.000000	98.899228 
3925.000000	98.898459 
3924.000000	98.898176 
3923.000000	98.899896 
3922.000000	98.902200 
3921.000000	98.902067 
3920.000000	98.899258 
3919.000000	98.896165 
3918.000000	98.893706 
3917.000000	98.890477 
3916.000000	98.886520 
3915.000000	98.884661 
3914.000000	98.886735 
3913.000000	98.891007 
3912.000000	98.894574 
3911.000000	98.895723 
3910.000000	98.894863 
3909.000000	98.893641 
3908.000000	98.894127 
3907.000000	98.897522 
3906.000000	98.902775 
3905.000000	98.906794 
3904.000000	98.906978 
3903.000000	98.904666 
3902.000000	98.903103 
3901.000000	98.901964 
3900.000000	98.898023 
3899.000000	98.890968 
3898.000000	98.884522 
3897.000000	98.881234 
3896.000000	98.879848 
3895.000000	98.879332 
3894.000000	98.882380 
3893.000000	98.890658 
3892.000000	98.899728 
3891.000000	98.903239 
3890.000000	98.903745 
3889.000000	98.907851 
3888.000000	98.914299 
3887.000000	98.916842 
3886.000000	98.912406 
3885.000000	98.904231 
3884.000000	98.900146 
3883.000000	98.901609 
3882.000000	98.901389 
3881.000000	98.895155 
3880.000000	98.886159 
3879.000000	98.881717 
3878.000000	98.886534 
3877.000000	98.896527 
3876.000000	98.904153 
3875.000000	98.905690 
3874.000000	98.902651 
3873.000000	98.900540 
3872.000000	98.901242 
3871.000000	98.898666 
3870.000000	98.888063 
3869.000000	98.877345 
3868.000000	98.880001 
3867.000000	98.893673 
3866.000000	98.903266 
3865.000000	98.902893 
3864.000000	98.898737 
3863.000000	98.896477 
3862.000000	98.895908 
3861.000000	98.894466 
3860.000000	98.892040 
3859.000000	98.887847 
3858.000000	98.879641 
3857.000000	98.868429 
3856.000000	98.862107 
3855.000000	98.869483 
3854.000000	98.882553 
3853.000000	98.881057 
3852.000000	98.873591 
3851.000000	98.881540 
3850.000000	98.896353 
3849.000000	98.903907 
3848.000000	98.905678 
3847.000000	98.907422 
3846.000000	98.910405 
3845.000000	98.913078 
3844.000000	98.914896 
3843.000000	98.916105 
3842.000000	98.917208 
3841.000000	98.917930 
3840.000000	98.917729 
3839.000000	98.916574 
3838.000000	98.914789 
3837.000000	98.912543 
3836.000000	98.910454 
3835.000000	98.908537 
3834.000000	98.905771 
3833.000000	98.901994 
3832.000000	98.898469 
3831.000000	98.897286 
3830.000000	98.900135 
3829.000000	98.905707 
3828.000000	98.909730 
3827.000000	98.908469 
3826.000000	98.903498 
3825.000000	98.901651 
3824.000000	98.908059 
3823.000000	98.920296 
3822.000000	98.929394 
3821.000000	98.925701 
3820.000000	98.914727 
3819.000000	98.911628 
3818.000000	98.914494 
3817.000000	98.911840 
3816.000000	98.901460 
3815.000000	98.891994 
3814.000000	98.892966 
3813.000000	98.899872 
3812.000000	98.900669 
3811.000000	98.894397 
3810.000000	98.889521 
3809.000000	98.891365 
3808.000000	98.896648 
3807.000000	98.898703 
3806.000000	98.898619 
3805.000000	98.903765 
3804.000000	98.912754 
3803.000000	98.916540 
3802.000000	98.910355 
3801.000000	98.896549 
3800.000000	98.887487 
3799.000000	98.890316 
3798.000000	98.894332 
3797.000000	98.890708 
3796.000000	98.883182 
3795.000000	98.879927 
3794.000000	98.883969 
3793.000000	98.891290 
3792.000000	98.897088 
3791.000000	98.900098 
3790.000000	98.900816 
3789.000000	98.900425 
3788.000000	98.901545 
3787.000000	98.906487 
3786.000000	98.913890 
3785.000000	98.919560 
3784.000000	98.921847 
3783.000000	98.923244 
3782.000000	98.925523 
3781.000000	98.926407 
3780.000000	98.922592 
3779.000000	98.913973 
3778.000000	98.905054 
3777.000000	98.899811 
3776.000000	98.897311 
3775.000000	98.895553 
3774.000000	98.896419 
3773.000000	98.902695 
3772.000000	98.912147 
3771.000000	98.917452 
3770.000000	98.913714 
3769.000000	98.905097 
3768.000000	98.900196 
3767.000000	98.901095 
3766.000000	98.903350 
3765.000000	98.904675 
3764.000000	98.907944 
3763.000000	98.915391 
3762.000000	98.923513 
3761.000000	98.927774 
3760.000000	98.928673 
3759.000000	98.928564 
3758.000000	98.927698 
3757.000000	98.925244 
3756.000000	98.922007 
3755.000000	98.919580 
3754.000000	98.918982 
3753.000000	98.922098 
3752.000000	98.929416 
3751.000000	98.933647 
3750.000000	98.925302 
3749.000000	98.908092 
3748.000000	98.893667 
3747.000000	98.885405 
3746.000000	98.880203 
3745.000000	98.875212 
3744.000000	98.868601 
3743.000000	98.871028 
3742.000000	98.889231 
3741.000000	98.904584 
3740.000000	98.904974 
3739.000000	98.900273 
3738.000000	98.901880 
3737.000000	98.909126 
3736.000000	98.914647 
3735.000000	98.915992 
3734.000000	98.915353 
3733.000000	98.912381 
3732.000000	98.906186 
3731.000000	98.901400 
3730.000000	98.902462 
3729.000000	98.906328 
3728.000000	98.907878 
3727.000000	98.908070 
3726.000000	98.911340 
3725.000000	98.917984 
3724.000000	98.921643 
3723.000000	98.916505 
3722.000000	98.905061 
3721.000000	98.895370 
3720.000000	98.892799 
3719.000000	98.895498 
3718.000000	98.897786 
3717.000000	98.895739 
3716.000000	98.889439 
3715.000000	98.880522 
3714.000000	98.870325 
3713.000000	98.860479 
3712.000000	98.851351 
3711.000000	98.842078 
3710.000000	98.834426 
3709.000000	98.830364 
3708.000000	98.827790 
3707.000000	98.822970 
3706.000000	98.814412 
3705.000000	98.803235 
3704.000000	98.791297 
3703.000000	98.779909 
3702.000000	98.768957 
3701.000000	98.758049 
3700.000000	98.748532 
3699.000000	98.740759 
3698.000000	98.732006 
3697.000000	98.720985 
3696.000000	98.711222 
3695.000000	98.707354 
3694.000000	98.709229 
3693.000000	98.712455 
3692.000000	98.713752 
3691.000000	98.712004 
3690.000000	98.705656 
3689.000000	98.693597 
3688.000000	98.681299 
3687.000000	98.678108 
3686.000000	98.684199 
3685.000000	98.690050 
3684.000000	98.690025 
3683.000000	98.687558 
3682.000000	98.687211 
3681.000000	98.687005 
3680.000000	98.680631 
3679.000000	98.666451 
3678.000000	98.648109 
3677.000000	98.628791 
3676.000000	98.607982 
3675.000000	98.587988 
3674.000000	98.582558 
3673.000000	98.595775 
3672.000000	98.609949 
3671.000000	98.612401 
3670.000000	98.603834 
3669.000000	98.589712 
3668.000000	98.578329 
3667.000000	98.571150 
3666.000000	98.563962 
3665.000000	98.556659 
3664.000000	98.551560 
3663.000000	98.548725 
3662.000000	98.546297 
3661.000000	98.543524 
3660.000000	98.541885 
3659.000000	98.543062 
3658.000000	98.545372 
3657.000000	98.544170 
3656.000000	98.537339 
3655.000000	98.531898 
3654.000000	98.535972 
3653.000000	98.547439 
3652.000000	98.559732 
3651.000000	98.568236 
3650.000000	98.565551 
3649.000000	98.544965 
3648.000000	98.514992 
3647.000000	98.493610 
3646.000000	98.489278 
3645.000000	98.497017 
3644.000000	98.506974 
3643.000000	98.512371 
3642.000000	98.512354 
3641.000000	98.509993 
3640.000000	98.508834 
3639.000000	98.510632 
3638.000000	98.515422 
3637.000000	98.522225 
3636.000000	98.527763 
3635.000000	98.527474 
3634.000000	98.520216 
3633.000000	98.510777 
3632.000000	98.504475 
3631.000000	98.500917 
3630.000000	98.494376 
3629.000000	98.477359 
3628.000000	98.453745 
3627.000000	98.442021 
3626.000000	98.446853 
3625.000000	98.456057 
3624.000000	98.463252 
3623.000000	98.469664 
3622.000000	98.476050 
3621.000000	98.480960 
3620.000000	98.483445 
3619.000000	98.484729 
3618.000000	98.488781 
3617.000000	98.499331 
3616.000000	98.514311 
3615.000000	98.527499 
3614.000000	98.534434 
3613.000000	98.535263 
3612.000000	98.533876 
3611.000000	98.533872 
3610.000000	98.535757 
3609.000000	98.538929 
3608.000000	98.543952 
3607.000000	98.552160 
3606.000000	98.563667 
3605.000000	98.576232 
3604.000000	98.587240 
3603.000000	98.595550 
3602.000000	98.600873 
3601.000000	98.604035 
3600.000000	98.607778 
3599.000000	98.614749 
3598.000000	98.623689 
3597.000000	98.630472 
3596.000000	98.631948 
3595.000000	98.628338 
3594.000000	98.622955 
3593.000000	98.620979 
3592.000000	98.626244 
3591.000000	98.638569 
3590.000000	98.653706 
3589.000000	98.664678 
3588.000000	98.664753 
3587.000000	98.653960 
3586.000000	98.641654 
3585.000000	98.636341 
3584.000000	98.637303 
3583.000000	98.639613 
3582.000000	98.640352 
3581.000000	98.639168 
3580.000000	98.636439 
3579.000000	98.632499 
3578.000000	98.627576 
3577.000000	98.622540 
3576.000000	98.619143 
3575.000000	98.618825 
3574.000000	98.621359 
3573.000000	98.624941 
3572.000000	98.627919 
3571.000000	98.629918 
3570.000000	98.631472 
3569.000000	98.632540 
3568.000000	98.631646 
3567.000000	98.627579 
3566.000000	98.622715 
3565.000000	98.621178 
3564.000000	98.622724 
3563.000000	98.623633 
3562.000000	98.621819 
3561.000000	98.618084 
3560.000000	98.614202 
3559.000000	98.611315 
3558.000000	98.609711 
3557.000000	98.609407 
3556.000000	98.610762 
3555.000000	98.613891 
3554.000000	98.617618 
3553.000000	98.619848 
3552.000000	98.619621 
3551.000000	98.618018 
3550.000000	98.616046 
3549.000000	98.612926 
3548.000000	98.607849 
3547.000000	98.602226 
3546.000000	98.598816 
3545.000000	98.599111 
3544.000000	98.602033 
3543.000000	98.604684 
3542.000000	98.604481 
3541.000000	98.601114 
3540.000000	98.597069 
3539.000000	98.595755 
3538.000000	98.598527 
3537.000000	98.603357 
3536.000000	98.606538 
3535.000000	98.605930 
3534.000000	98.602291 
3533.000000	98.598376 
3532.000000	98.596872 
3531.000000	98.598687 
3530.000000	98.602104 
3529.000000	98.604335 
3528.000000	98.604548 
3527.000000	98.604737 
3526.000000	98.606734 
3525.000000	98.609194 
3524.000000	98.608871 
3523.000000	98.604415 
3522.000000	98.597742 
3521.000000	98.591737 
3520.000000	98.587974 
3519.000000	98.586831 
3518.000000	98.588275 
3517.000000	98.591576 
3516.000000	98.595035 
3515.000000	98.597302 
3514.000000	98.598785 
3513.000000	98.600778 
3512.000000	98.602976 
3511.000000	98.603109 
3510.000000	98.599735 
3509.000000	98.594807 
3508.000000	98.592344 
3507.000000	98.594248 
3506.000000	98.597893 
3505.000000	98.598324 
3504.000000	98.593031 
3503.000000	98.585044 
3502.000000	98.581004 
3501.000000	98.585178 
3500.000000	98.595029 
3499.000000	98.602942 
3498.000000	98.602507 
3497.000000	98.593882 
3496.000000	98.583579 
3495.000000	98.578691 
3494.000000	98.580958 
3493.000000	98.586159 
3492.000000	98.588726 
3491.000000	98.586625 
3490.000000	98.582283 
3489.000000	98.579520 
3488.000000	98.580007 
3487.000000	98.582457 
3486.000000	98.584494 
3485.000000	98.584814 
3484.000000	98.583730 
3483.000000	98.582201 
3482.000000	98.580430 
3481.000000	98.577641 
3480.000000	98.573490 
3479.000000	98.569544 
3478.000000	98.568551 
3477.000000	98.571518 
3476.000000	98.575794 
3475.000000	98.576992 
3474.000000	98.573440 
3473.000000	98.567956 
3472.000000	98.564788 
3471.000000	98.565475 
3470.000000	98.568208 
3469.000000	98.570399 
3468.000000	98.570764 
3467.000000	98.569342 
3466.000000	98.566786 
3465.000000	98.563956 
3464.000000	98.561522 
3463.000000	98.559361 
3462.000000	98.556498 
3461.000000	98.552026 
3460.000000	98.546216 
3459.000000	98.540796 
3458.000000	98.538043 
3457.000000	98.539145 
3456.000000	98.543010 
3455.000000	98.546910 
3454.000000	98.548663 
3453.000000	98.548304 
3452.000000	98.547613 
3451.000000	98.548351 
3450.000000	98.550908 
3449.000000	98.554223 
3448.000000	98.556432 
3447.000000	98.555811 
3446.000000	98.552002 
3445.000000	98.546538 
3444.000000	98.541736 
3443.000000	98.538845 
3442.000000	98.537269 
3441.000000	98.535715 
3440.000000	98.533993 
3439.000000	98.533071 
3438.000000	98.533368 
3437.000000	98.533682 
3436.000000	98.532473 
3435.000000	98.530070 
3434.000000	98.528708 
3433.000000	98.530081 
3432.000000	98.533205 
3431.000000	98.535176 
3430.000000	98.533823 
3429.000000	98.529426 
3428.000000	98.524055 
3427.000000	98.519557 
3426.000000	98.516460 
3425.000000	98.514541 
3424.000000	98.513860 
3423.000000	98.514725 
3422.000000	98.516670 
3421.000000	98.518026 
3420.000000	98.517023 
3419.000000	98.513571 
3418.000000	98.509734 
3417.000000	98.508130 
3416.000000	98.509603 
3415.000000	98.512433 
3414.000000	98.513896 
3413.000000	98.512591 
3412.000000	98.509242 
3411.000000	98.505674 
3410.000000	98.503627 
3409.000000	98.504221 
3408.000000	98.507351 
3407.000000	98.511073 
3406.000000	98.512530 
3405.000000	98.510493 
3404.000000	98.506762 
3403.000000	98.504456 
3402.000000	98.505139 
3401.000000	98.508052 
3400.000000	98.511642 
3399.000000	98.515011 
3398.000000	98.518054 
3397.000000	98.520907 
3396.000000	98.523401 
3395.000000	98.524816 
3394.000000	98.524417 
3393.000000	98.522486 
3392.000000	98.520404 
3391.000000	98.519226 
3390.000000	98.518552 
3389.000000	98.517393 
3388.000000	98.515806 
3387.000000	98.514874 
3386.000000	98.515213 
3385.000000	98.516232 
3384.000000	98.516961 
3383.000000	98.516972 
3382.000000	98.516339 
3381.000000	98.515266 
3380.000000	98.514036 
3379.000000	98.513138 
3378.000000	98.513273 
3377.000000	98.515190 
3376.000000	98.519165 
3375.000000	98.524416 
3374.000000	98.529351 
3373.000000	98.532784 
3372.000000	98.534736 
3371.000000	98.535714 
3370.000000	98.535636 
3369.000000	98.534111 
3368.000000	98.531584 
3367.000000	98.529379 
3366.000000	98.528411 
3365.000000	98.528418 
3364.000000	98.528757 
3363.000000	98.529456 
3362.000000	98.530941 
3361.000000	98.532896 
3360.000000	98.533921 
3359.000000	98.532761 
3358.000000	98.529992 
3357.000000	98.528222 
3356.000000	98.529928 
3355.000000	98.534683 
3354.000000	98.538952 
3353.000000	98.539335 
3352.000000	98.535992 
3351.000000	98.532550 
3350.000000	98.532787 
3349.000000	98.537758 
3348.000000	98.545698 
3347.000000	98.553717 
3346.000000	98.559440 
3345.000000	98.561964 
3344.000000	98.561990 
3343.000000	98.560807 
3342.000000	98.558913 
3341.000000	98.556047 
3340.000000	98.552632 
3339.000000	98.550359 
3338.000000	98.550548 
3337.000000	98.552267 
3336.000000	98.552973 
3335.000000	98.551288 
3334.000000	98.548631 
3333.000000	98.547823 
3332.000000	98.550268 
3331.000000	98.554645 
3330.000000	98.558338 
3329.000000	98.560064 
3328.000000	98.560987 
3327.000000	98.563064 
3326.000000	98.566492 
3325.000000	98.569460 
3324.000000	98.570610 
3323.000000	98.570999 
3322.000000	98.572743 
3321.000000	98.575942 
3320.000000	98.577921 
3319.000000	98.576090 
3318.000000	98.571180 
3317.000000	98.567041 
3316.000000	98.567224 
3315.000000	98.571930 
3314.000000	98.578189 
3313.000000	98.582693 
3312.000000	98.584336 
3311.000000	98.584328 
3310.000000	98.584362 
3309.000000	98.585047 
3308.000000	98.586050 
3307.000000	98.587104 
3306.000000	98.588136 
3305.000000	98.588404 
3304.000000	98.586451 
3303.000000	98.581810 
3302.000000	98.576586 
3301.000000	98.574385 
3300.000000	98.577062 
3299.000000	98.582871 
3298.000000	98.588229 
3297.000000	98.591054 
3296.000000	98.592000 
3295.000000	98.592789 
3294.000000	98.594200 
3293.000000	98.595926 
3292.000000	98.597603 
3291.000000	98.599298 
3290.000000	98.601052 
3289.000000	98.602449 
3288.000000	98.602917 
3287.000000	98.602465 
3286.000000	98.601976 
3285.000000	98.602560 
3284.000000	98.604401 
3283.000000	98.606373 
3282.000000	98.607129 
3281.000000	98.606523 
3280.000000	98.605556 
3279.000000	98.605004 
3278.000000	98.604643 
3277.000000	98.603916 
3276.000000	98.602807 
3275.000000	98.601736 
3274.000000	98.601020 
3273.000000	98.600773 
3272.000000	98.600988 
3271.000000	98.601430 
3270.000000	98.601791 
3269.000000	98.602342 
3268.000000	98.604088 
3267.000000	98.607838 
3266.000000	98.613277 
3265.000000	98.619322 
3264.000000	98.625143 
3263.000000	98.630395 
3262.000000	98.634693 
3261.000000	98.637326 
3260.000000	98.637528 
3259.000000	98.634970 
3258.000000	98.630284 
3257.000000	98.625221 
3256.000000	98.621819 
3255.000000	98.620994 
3254.000000	98.622131 
3253.000000	98.624287 
3252.000000	98.627197 
3251.000000	98.630611 
3250.000000	98.633297 
3249.000000	98.633854 
3248.000000	98.632458 
3247.000000	98.630921 
3246.000000	98.630730 
3245.000000	98.631615 
3244.000000	98.632358 
3243.000000	98.632584 
3242.000000	98.633350 
3241.000000	98.636009 
3240.000000	98.640476 
3239.000000	98.644561 
3238.000000	98.645434 
3237.000000	98.642256 
3236.000000	98.637210 
3235.000000	98.633490 
3234.000000	98.632491 
3233.000000	98.633596 
3232.000000	98.636312 
3231.000000	98.641217 
3230.000000	98.648198 
3229.000000	98.654784 
3228.000000	98.657437 
3227.000000	98.654606 
3226.000000	98.648078 
3225.000000	98.641434 
3224.000000	98.637518 
3223.000000	98.637065 
3222.000000	98.639032 
3221.000000	98.641880 
3220.000000	98.644628 
3219.000000	98.646889 
3218.000000	98.648235 
3217.000000	98.648096 
3216.000000	98.646595 
3215.000000	98.645120 
3214.000000	98.645372 
3213.000000	98.647722 
3212.000000	98.651090 
3211.000000	98.654689 
3210.000000	98.659266 
3209.000000	98.665866 
3208.000000	98.673498 
3207.000000	98.679005 
3206.000000	98.679950 
3205.000000	98.677338 
3204.000000	98.674812 
3203.000000	98.675089 
3202.000000	98.677836 
3201.000000	98.681081 
3200.000000	98.683697 
3199.000000	98.685746 
3198.000000	98.687206 
3197.000000	98.687766 
3196.000000	98.687930 
3195.000000	98.688951 
3194.000000	98.691021 
3193.000000	98.692401 
3192.000000	98.691282 
3191.000000	98.688104 
3190.000000	98.685317 
3189.000000	98.685073 
3188.000000	98.687756 
3187.000000	98.692314 
3186.000000	98.697035 
3185.000000	98.700036 
3184.000000	98.700204 
3183.000000	98.698317 
3182.000000	98.696584 
3181.000000	98.696456 
3180.000000	98.697273 
3179.000000	98.697491 
3178.000000	98.696654 
3177.000000	98.695441 
3176.000000	98.694216 
3175.000000	98.692825 
3174.000000	98.691996 
3173.000000	98.693715 
3172.000000	98.699091 
3171.000000	98.706240 
3170.000000	98.711504 
3169.000000	98.713188 
3168.000000	98.713370 
3167.000000	98.715355 
3166.000000	98.719743 
3165.000000	98.723789 
3164.000000	98.724723 
3163.000000	98.722937 
3162.000000	98.721462 
3161.000000	98.722772 
3160.000000	98.726738 
3159.000000	98.731381 
3158.000000	98.734663 
3157.000000	98.735398 
3156.000000	98.733483 
3155.000000	98.730236 
3154.000000	98.728296 
3153.000000	98.730108 
3152.000000	98.735767 
3151.000000	98.742399 
3150.000000	98.746166 
3149.000000	98.745369 
3148.000000	98.741810 
3147.000000	98.739055 
3146.000000	98.739137 
3145.000000	98.740871 
3144.000000	98.741507 
3143.000000	98.739953 
3142.000000	98.737992 
3141.000000	98.738227 
3140.000000	98.741239 
3139.000000	98.745186 
3138.000000	98.747953 
3137.000000	98.749092 
3136.000000	98.749538 
3135.000000	98.750102 
3134.000000	98.750806 
3133.000000	98.751421 
3132.000000	98.752028 
3131.000000	98.752835 
3130.000000	98.753698 
3129.000000	98.754116 
3128.000000	98.753828 
3127.000000	98.753420 
3126.000000	98.754110 
3125.000000	98.756613 
3124.000000	98.760139 
3123.000000	98.762756 
3122.000000	98.763139 
3121.000000	98.762192 
3120.000000	98.762664 
3119.000000	98.766647 
3118.000000	98.773228 
3117.000000	98.778905 
3116.000000	98.780677 
3115.000000	98.778654 
3114.000000	98.775283 
3113.000000	98.772304 
3112.000000	98.769316 
3111.000000	98.765562 
3110.000000	98.761997 
3109.000000	98.760416 
3108.000000	98.760862 
3107.000000	98.761233 
3106.000000	98.759869 
3105.000000	98.757762 
3104.000000	98.757712 
3103.000000	98.761735 
3102.000000	98.769594 
3101.000000	98.779188 
3100.000000	98.787615 
3099.000000	98.792273 
3098.000000	98.792280 
3097.000000	98.789385 
3096.000000	98.786842 
3095.000000	98.786709 
3094.000000	98.788465 
3093.000000	98.790378 
3092.000000	98.791489 
3091.000000	98.791753 
3090.000000	98.791110 
3089.000000	98.789730 
3088.000000	98.789020 
3087.000000	98.790969 
3086.000000	98.795796 
3085.000000	98.801119 
3084.000000	98.804287 
3083.000000	98.805004 
3082.000000	98.804948 
3081.000000	98.805282 
3080.000000	98.805612 
3079.000000	98.805255 
3078.000000	98.804345 
3077.000000	98.803236 
3076.000000	98.801752 
3075.000000	98.799827 
3074.000000	98.798366 
3073.000000	98.798664 
3072.000000	98.801118 
3071.000000	98.805026 
3070.000000	98.809290 
3069.000000	98.812573 
3068.000000	98.813034 
3067.000000	98.809238 
3066.000000	98.802066 
3065.000000	98.795089 
3064.000000	98.792060 
3063.000000	98.793820 
3062.000000	98.797924 
3061.000000	98.801214 
3060.000000	98.802496 
3059.000000	98.802951 
3058.000000	98.804441 
3057.000000	98.807579 
3056.000000	98.811233 
3055.000000	98.813762 
3054.000000	98.814619 
3053.000000	98.814509 
3052.000000	98.814102 
3051.000000	98.813133 
3050.000000	98.811093 
3049.000000	98.808188 
3048.000000	98.804839 
3047.000000	98.800558 
3046.000000	98.794440 
3045.000000	98.787020 
3044.000000	98.780765 
3043.000000	98.778025 
3042.000000	98.778805 
3041.000000	98.780803 
3040.000000	98.781276 
3039.000000	98.778772 
3038.000000	98.773772 
3037.000000	98.768334 
3036.000000	98.764739 
3035.000000	98.763663 
3034.000000	98.763498 
3033.000000	98.761704 
3032.000000	98.756756 
3031.000000	98.748663 
3030.000000	98.738085 
3029.000000	98.725612 
3028.000000	98.711982 
3027.000000	98.698500 
3026.000000	98.686755 
3025.000000	98.677642 
3024.000000	98.670366 
3023.000000	98.662442 
3022.000000	98.651252 
3021.000000	98.636338 
3020.000000	98.620273 
3019.000000	98.606821 
3018.000000	98.597886 
3017.000000	98.592067 
3016.000000	98.585887 
3015.000000	98.576289 
3014.000000	98.562349 
3013.000000	98.545246 
3012.000000	98.526703 
3011.000000	98.507294 
3010.000000	98.486369 
3009.000000	98.463774 
3008.000000	98.441186 
3007.000000	98.421159 
3006.000000	98.404882 
3005.000000	98.391213 
3004.000000	98.377650 
3003.000000	98.361824 
3002.000000	98.342648 
3001.000000	98.321289 
3000.000000	98.301100 
2999.000000	98.285286 
2998.000000	98.274058 
2997.000000	98.265050 
2996.000000	98.256713 
2995.000000	98.249375 
2994.000000	98.241392 
2993.000000	98.226310 
2992.000000	98.197777 
2991.000000	98.158304 
2990.000000	98.120518 
2989.000000	98.097398 
2988.000000	98.091928 
2987.000000	98.097602 
2986.000000	98.107374 
2985.000000	98.119252 
2984.000000	98.133307 
2983.000000	98.146856 
2982.000000	98.155268 
2981.000000	98.156566 
2980.000000	98.153346 
2979.000000	98.149972 
2978.000000	98.148900 
2977.000000	98.149557 
2976.000000	98.149604 
2975.000000	98.147042 
2974.000000	98.142050 
2973.000000	98.137330 
2972.000000	98.136196 
2971.000000	98.139915 
2970.000000	98.147163 
2969.000000	98.156062 
2968.000000	98.166112 
2967.000000	98.177927 
2966.000000	98.191839 
2965.000000	98.207394 
2964.000000	98.223783 
2963.000000	98.239999 
2962.000000	98.254712 
2961.000000	98.266687 
2960.000000	98.275604 
2959.000000	98.282290 
2958.000000	98.288153 
2957.000000	98.294476 
2956.000000	98.301860 
2955.000000	98.309790 
2954.000000	98.317011 
2953.000000	98.323232 
2952.000000	98.330608 
2951.000000	98.342509 
2950.000000	98.359848 
2949.000000	98.378873 
2948.000000	98.393573 
2947.000000	98.400612 
2946.000000	98.401671 
2945.000000	98.400990 
2944.000000	98.401397 
2943.000000	98.403064 
2942.000000	98.405149 
2941.000000	98.407239 
2940.000000	98.408943 
2939.000000	98.409240 
2938.000000	98.407379 
2937.000000	98.404401 
2936.000000	98.403028 
2935.000000	98.405566 
2934.000000	98.411910 
2933.000000	98.419510 
2932.000000	98.425023 
2931.000000	98.426143 
2930.000000	98.422505 
2929.000000	98.415650 
2928.000000	98.408387 
2927.000000	98.403768 
2926.000000	98.403719 
2925.000000	98.407667 
2924.000000	98.412390 
2923.000000	98.414061 
2922.000000	98.411320 
2921.000000	98.406376 
2920.000000	98.402550 
2919.000000	98.400755 
2918.000000	98.398772 
2917.000000	98.393917 
2916.000000	98.385931 
2915.000000	98.377171 
2914.000000	98.370543 
2913.000000	98.367479 
2912.000000	98.367257 
2911.000000	98.367628 
2910.000000	98.366269 
2909.000000	98.362285 
2908.000000	98.356575 
2907.000000	98.350513 
2906.000000	98.344068 
2905.000000	98.335280 
2904.000000	98.321974 
2903.000000	98.304741 
2902.000000	98.288776 
2901.000000	98.282035 
2900.000000	98.289927 
2899.000000	98.310461 
2898.000000	98.334649 
2897.000000	98.352996 
2896.000000	98.362217 
2895.000000	98.366096 
2894.000000	98.370383 
2893.000000	98.377393 
2892.000000	98.385255 
2891.000000	98.390995 
2890.000000	98.393493 
2889.000000	98.393896 
2888.000000	98.394181 
2887.000000	98.395694 
2886.000000	98.398720 
2885.000000	98.403017 
2884.000000	98.408576 
2883.000000	98.415919 
2882.000000	98.425761 
2881.000000	98.438422 
2880.000000	98.453453 
2879.000000	98.469653 
2878.000000	98.485512 
2877.000000	98.499869 
2876.000000	98.512200 
2875.000000	98.522181 
2874.000000	98.529305 
2873.000000	98.533559 
2872.000000	98.536655 
2871.000000	98.541733 
2870.000000	98.550941 
2869.000000	98.563296 
2868.000000	98.575738 
2867.000000	98.586619 
2866.000000	98.597647 
2865.000000	98.611836 
2864.000000	98.629654 
2863.000000	98.647679 
2862.000000	98.661250 
2861.000000	98.668464 
2860.000000	98.671895 
2859.000000	98.676597 
2858.000000	98.686084 
2857.000000	98.699696 
2856.000000	98.713637 
2855.000000	98.724748 
2854.000000	98.733124 
2853.000000	98.740884 
2852.000000	98.749031 
2851.000000	98.756562 
2850.000000	98.762690 
2849.000000	98.768553 
2848.000000	98.775760 
2847.000000	98.783961 
2846.000000	98.790976 
2845.000000	98.795161 
2844.000000	98.796785 
2843.000000	98.797263 
2842.000000	98.798058 
2841.000000	98.800390 
2840.000000	98.804830 
2839.000000	98.810483 
2838.000000	98.815165 
2837.000000	98.817109 
2836.000000	98.816495 
2835.000000	98.815312 
2834.000000	98.816054 
2833.000000	98.820342 
2832.000000	98.827808 
2831.000000	98.835929 
2830.000000	98.841800 
2829.000000	98.844819 
2828.000000	98.847206 
2827.000000	98.851269 
2826.000000	98.856637 
2825.000000	98.860815 
2824.000000	98.862078 
2823.000000	98.861159 
2822.000000	98.860283 
2821.000000	98.861283 
2820.000000	98.864517 
2819.000000	98.868962 
2818.000000	98.873185 
2817.000000	98.876478 
2816.000000	98.879041 
2815.000000	98.881087 
2814.000000	98.882352 
2813.000000	98.882825 
2812.000000	98.883219 
2811.000000	98.883938 
2810.000000	98.884171 
2809.000000	98.883075 
2808.000000	98.881556 
2807.000000	98.881642 
2806.000000	98.883971 
2805.000000	98.887016 
2804.000000	98.889166 
2803.000000	98.890667 
2802.000000	98.892897 
2801.000000	98.896273 
2800.000000	98.899524 
2799.000000	98.900860 
2798.000000	98.899655 
2797.000000	98.897128 
2796.000000	98.895417 
2795.000000	98.895728 
2794.000000	98.897363 
2793.000000	98.898713 
2792.000000	98.898845 
2791.000000	98.897794 
2790.000000	98.895979 
2789.000000	98.894354 
2788.000000	98.894679 
2787.000000	98.898182 
2786.000000	98.903734 
2785.000000	98.908593 
2784.000000	98.911326 
2783.000000	98.912845 
2782.000000	98.914226 
2781.000000	98.914997 
2780.000000	98.914475 
2779.000000	98.913487 
2778.000000	98.913416 
2777.000000	98.914286 
2776.000000	98.914987 
2775.000000	98.914916 
2774.000000	98.914310 
2773.000000	98.913461 
2772.000000	98.912684 
2771.000000	98.912688 
2770.000000	98.913939 
2769.000000	98.916018 
2768.000000	98.918531 
2767.000000	98.922026 
2766.000000	98.926676 
2765.000000	98.930614 
2764.000000	98.931351 
2763.000000	98.928950 
2762.000000	98.926321 
2761.000000	98.926068 
2760.000000	98.928358 
2759.000000	98.931972 
2758.000000	98.935806 
2757.000000	98.938753 
2756.000000	98.939742 
2755.000000	98.938998 
2754.000000	98.938144 
2753.000000	98.938063 
2752.000000	98.937600 
2751.000000	98.935421 
2750.000000	98.932219 
2749.000000	98.929818 
2748.000000	98.928706 
2747.000000	98.927757 
2746.000000	98.926071 
2745.000000	98.923979 
2744.000000	98.922408 
2743.000000	98.922293 
2742.000000	98.924508 
2741.000000	98.929266 
2740.000000	98.935356 
2739.000000	98.940713 
2738.000000	98.944006 
2737.000000	98.945365 
2736.000000	98.945693 
2735.000000	98.945807 
2734.000000	98.946051 
2733.000000	98.946100 
2732.000000	98.945240 
2731.000000	98.943379 
2730.000000	98.941638 
2729.000000	98.941377 
2728.000000	98.942808 
2727.000000	98.945150 
2726.000000	98.947805 
2725.000000	98.950648 
2724.000000	98.953433 
2723.000000	98.955883 
2722.000000	98.958229 
2721.000000	98.960724 
2720.000000	98.962648 
2719.000000	98.962856 
2718.000000	98.961410 
2717.000000	98.959691 
2716.000000	98.958812 
2715.000000	98.959009 
2714.000000	98.960645 
2713.000000	98.964209 
2712.000000	98.968637 
2711.000000	98.971154 
2710.000000	98.970195 
2709.000000	98.967632 
2708.000000	98.966682 
2707.000000	98.967966 
2706.000000	98.968986 
2705.000000	98.967506 
2704.000000	98.964216 
2703.000000	98.961627 
2702.000000	98.961185 
2701.000000	98.962093 
2700.000000	98.962708 
2699.000000	98.962444 
2698.000000	98.961984 
2697.000000	98.961804 
2696.000000	98.961215 
2695.000000	98.959579 
2694.000000	98.958119 
2693.000000	98.959171 
2692.000000	98.963126 
2691.000000	98.967179 
2690.000000	98.968200 
2689.000000	98.966381 
2688.000000	98.964935 
2687.000000	98.966275 
2686.000000	98.969440 
2685.000000	98.971485 
2684.000000	98.970803 
2683.000000	98.968833 
2682.000000	98.968754 
2681.000000	98.972453 
2680.000000	98.978494 
2679.000000	98.983146 
2678.000000	98.983758 
2677.000000	98.981071 
2676.000000	98.978105 
2675.000000	98.977137 
2674.000000	98.978109 
2673.000000	98.979448 
2672.000000	98.979642 
2671.000000	98.978115 
2670.000000	98.975186 
2669.000000	98.971454 
2668.000000	98.967213 
2667.000000	98.962799 
2666.000000	98.959507 
2665.000000	98.959247 
2664.000000	98.962538 
2663.000000	98.967380 
2662.000000	98.970955 
2661.000000	98.972146 
2660.000000	98.971645 
2659.000000	98.970178 
2658.000000	98.967876 
2657.000000	98.965253 
2656.000000	98.963459 
2655.000000	98.963125 
2654.000000	98.963641 
2653.000000	98.963775 
2652.000000	98.962466 
2651.000000	98.959259 
2650.000000	98.954918 
2649.000000	98.951443 
2648.000000	98.950372 
2647.000000	98.951088 
2646.000000	98.951975 
2645.000000	98.953131 
2644.000000	98.956305 
2643.000000	98.961788 
2642.000000	98.967185 
2641.000000	98.970265 
2640.000000	98.971694 
2639.000000	98.973726 
2638.000000	98.977096 
2637.000000	98.980199 
2636.000000	98.980594 
2635.000000	98.976695 
2634.000000	98.969197 
2633.000000	98.961831 
2632.000000	98.959353 
2631.000000	98.963147 
2630.000000	98.969493 
2629.000000	98.973452 
2628.000000	98.973688 
2627.000000	98.972221 
2626.000000	98.970703 
2625.000000	98.969277 
2624.000000	98.968623 
2623.000000	98.970392 
2622.000000	98.974784 
2621.000000	98.979490 
2620.000000	98.982101 
2619.000000	98.982459 
2618.000000	98.981894 
2617.000000	98.981080 
2616.000000	98.979497 
2615.000000	98.976439 
2614.000000	98.971941 
2613.000000	98.967074 
2612.000000	98.963555 
2611.000000	98.962564 
2610.000000	98.963731 
2609.000000	98.965761 
2608.000000	98.968123 
2607.000000	98.971599 
2606.000000	98.977046 
2605.000000	98.984052 
2604.000000	98.990703 
2603.000000	98.994293 
2602.000000	98.992945 
2601.000000	98.987753 
2600.000000	98.983028 
2599.000000	98.982938 
2598.000000	98.987507 
2597.000000	98.992891 
2596.000000	98.995491 
2595.000000	98.994408 
2594.000000	98.990099 
2593.000000	98.983149 
2592.000000	98.975618 
2591.000000	98.971467 
2590.000000	98.973327 
2589.000000	98.979486 
2588.000000	98.985661 
2587.000000	98.989123 
2586.000000	98.989528 
2585.000000	98.986755 
2584.000000	98.980621 
2583.000000	98.973078 
2582.000000	98.968240 
2581.000000	98.968704 
2580.000000	98.972784 
2579.000000	98.976327 
2578.000000	98.976502 
2577.000000	98.973290 
2576.000000	98.968532 
2575.000000	98.964734 
2574.000000	98.964027 
2573.000000	98.966720 
2572.000000	98.970694 
2571.000000	98.973162 
2570.000000	98.973204 
2569.000000	98.972212 
2568.000000	98.972089 
2567.000000	98.973661 
2566.000000	98.976607 
2565.000000	98.980046 
2564.000000	98.982986 
2563.000000	98.984710 
2562.000000	98.985036 
2561.000000	98.984190 
2560.000000	98.982746 
2559.000000	98.981704 
2558.000000	98.981712 
2557.000000	98.981582 
2556.000000	98.978797 
2555.000000	98.973044 
2554.000000	98.968448 
2553.000000	98.970044 
2552.000000	98.977821 
2551.000000	98.986258 
2550.000000	98.990192 
2549.000000	98.989069 
2548.000000	98.984840 
2547.000000	98.978582 
2546.000000	98.971539 
2545.000000	98.967445 
2544.000000	98.970279 
2543.000000	98.979533 
2542.000000	98.989949 
2541.000000	98.996407 
2540.000000	98.997754 
2539.000000	98.995842 
2538.000000	98.992308 
2537.000000	98.986702 
2536.000000	98.977068 
2535.000000	98.962866 
2534.000000	98.948340 
2533.000000	98.941761 
2532.000000	98.948729 
2531.000000	98.966031 
2530.000000	98.984045 
2529.000000	98.995587 
2528.000000	99.000820 
2527.000000	99.003771 
2526.000000	99.006886 
2525.000000	99.010081 
2524.000000	99.012606 
2523.000000	99.013805 
2522.000000	99.013140 
2521.000000	99.010956 
2520.000000	99.008480 
2519.000000	99.006270 
2518.000000	99.003734 
2517.000000	99.000822 
2516.000000	98.998740 
2515.000000	98.998027 
2514.000000	98.997377 
2513.000000	98.995509 
2512.000000	98.992768 
2511.000000	98.989770 
2510.000000	98.986231 
2509.000000	98.982898 
2508.000000	98.982876 
2507.000000	98.988343 
2506.000000	98.996483 
2505.000000	99.001059 
2504.000000	98.998313 
2503.000000	98.989912 
2502.000000	98.980494 
2501.000000	98.974151 
2500.000000	98.973152 
2499.000000	98.977848 
2498.000000	98.986728 
2497.000000	98.997274 
2496.000000	99.007194 
2495.000000	99.014451 
2494.000000	99.016766 
2493.000000	99.012621 
2492.000000	99.003105 
2491.000000	98.991852 
2490.000000	98.982798 
2489.000000	98.978135 
2488.000000	98.977721 
2487.000000	98.979563 
2486.000000	98.981533 
2485.000000	98.983747 
2484.000000	98.988566 
2483.000000	98.996826 
2482.000000	99.004740 
2481.000000	99.006717 
2480.000000	99.001432 
2479.000000	98.993217 
2478.000000	98.987008 
2477.000000	98.983773 
2476.000000	98.981693 
2475.000000	98.980098 
2474.000000	98.980571 
2473.000000	98.984767 
2472.000000	98.992238 
2471.000000	99.000233 
2470.000000	99.005167 
2469.000000	99.004821 
2468.000000	98.999788 
2467.000000	98.992742 
2466.000000	98.986409 
2465.000000	98.982559 
2464.000000	98.982209 
2463.000000	98.984982 
2462.000000	98.987815 
2461.000000	98.986223 
2460.000000	98.978690 
2459.000000	98.969342 
2458.000000	98.964830 
2457.000000	98.968271 
2456.000000	98.976749 
2455.000000	98.984425 
2454.000000	98.987275 
2453.000000	98.985185 
2452.000000	98.980970 
2451.000000	98.978222 
2450.000000	98.979307 
2449.000000	98.984047 
2448.000000	98.989784 
2447.000000	98.993324 
2446.000000	98.993574 
2445.000000	98.992478 
2444.000000	98.993104 
2443.000000	98.996725 
2442.000000	99.001860 
2441.000000	99.005855 
2440.000000	99.006837 
2439.000000	99.004439 
2438.000000	98.999853 
2437.000000	98.995601 
2436.000000	98.993906 
2435.000000	98.994042 
2434.000000	98.992133 
2433.000000	98.985181 
2432.000000	98.975211 
2431.000000	98.967957 
2430.000000	98.967276 
2429.000000	98.972097 
2428.000000	98.979112 
2427.000000	98.986705 
2426.000000	98.994778 
2425.000000	99.001712 
2424.000000	99.003696 
2423.000000	98.998098 
2422.000000	98.986897 
2421.000000	98.975930 
2420.000000	98.970408 
2419.000000	98.971192 
2418.000000	98.975238 
2417.000000	98.979025 
2416.000000	98.981027 
2415.000000	98.981422 
2414.000000	98.980927 
2413.000000	98.980731 
2412.000000	98.982452 
2411.000000	98.986608 
2410.000000	98.991162 
2409.000000	98.992877 
2408.000000	98.990558 
2407.000000	98.986298 
2406.000000	98.983330 
2405.000000	98.983295 
2404.000000	98.985635 
2403.000000	98.988607 
2402.000000	98.990378 
2401.000000	98.989890 
2400.000000	98.987432 
2399.000000	98.984192 
2398.000000	98.981096 
2397.000000	98.978632 
2396.000000	98.977859 
2395.000000	98.980352 
2394.000000	98.986133 
2393.000000	98.992363 
2392.000000	98.995580 
2391.000000	98.995434 
2390.000000	98.995135 
2389.000000	98.997723 
2388.000000	99.002602 
2387.000000	99.006406 
2386.000000	99.006779 
2385.000000	99.004518 
2384.000000	99.002193 
2383.000000	99.001625 
2382.000000	99.003058 
2381.000000	99.005837 
2380.000000	99.008700 
2379.000000	99.009545 
2378.000000	99.006464 
2377.000000	99.000271 
2376.000000	98.995430 
2375.000000	98.996814 
2374.000000	99.004813 
2373.000000	99.014475 
2372.000000	99.020416 
2371.000000	99.022119 
2370.000000	99.023214 
2369.000000	99.025836 
2368.000000	99.027247 
2367.000000	99.022958 
2366.000000	99.012386 
2365.000000	99.000382 
2364.000000	98.993225 
2363.000000	98.993841 
2362.000000	99.000856 
2361.000000	99.010284 
2360.000000	99.017579 
2359.000000	99.020530 
2358.000000	99.020759 
2357.000000	99.022017 
2356.000000	99.025940 
2355.000000	99.030337 
2354.000000	99.032376 
2353.000000	99.031344 
2352.000000	99.028697 
2351.000000	99.025488 
2350.000000	99.021316 
2349.000000	99.016301 
2348.000000	99.012224 
2347.000000	99.011510 
2346.000000	99.013375 
2345.000000	99.013617 
2344.000000	99.009624 
2343.000000	99.003828 
2342.000000	99.001848 
2341.000000	99.006223 
2340.000000	99.013807 
2339.000000	99.018640 
2338.000000	99.018008 
2337.000000	99.014385 
2336.000000	99.011672 
2335.000000	99.011083 
2334.000000	99.011900 
2333.000000	99.013632 
2332.000000	99.015731 
2331.000000	99.015791 
2330.000000	99.011018 
2329.000000	99.002311 
2328.000000	98.993361 
2327.000000	98.987005 
2326.000000	98.982385 
2325.000000	98.977840 
2324.000000	98.973989 
2323.000000	98.973136 
2322.000000	98.976794 
2321.000000	98.983905 
2320.000000	98.992106 
2319.000000	98.998854 
2318.000000	99.002801 
2317.000000	99.004621 
2316.000000	99.006171 
2315.000000	99.008011 
2314.000000	99.008194 
2313.000000	99.004907 
2312.000000	98.999331 
2311.000000	98.995439 
2310.000000	98.996312 
2309.000000	99.001504 
2308.000000	99.006968 
2307.000000	99.007915 
2306.000000	99.002527 
2305.000000	98.993841 
2304.000000	98.987023 
2303.000000	98.984364 
2302.000000	98.983927 
2301.000000	98.983251 
2300.000000	98.982172 
2299.000000	98.981008 
2298.000000	98.978324 
2297.000000	98.973430 
2296.000000	98.969181 
2295.000000	98.969293 
2294.000000	98.972867 
2293.000000	98.974897 
2292.000000	98.972269 
2291.000000	98.966835 
2290.000000	98.961885 
2289.000000	98.958475 
2288.000000	98.956276 
2287.000000	98.955499 
2286.000000	98.956023 
2285.000000	98.956278 
2284.000000	98.955017 
2283.000000	98.952947 
2282.000000	98.950794 
2281.000000	98.946880 
2280.000000	98.939314 
2279.000000	98.930438 
2278.000000	98.926531 
2277.000000	98.931655 
2276.000000	98.943011 
2275.000000	98.953594 
2274.000000	98.958513 
2273.000000	98.957348 
2272.000000	98.951187 
2271.000000	98.940432 
2270.000000	98.927380 
2269.000000	98.918928 
2268.000000	98.922681 
2267.000000	98.939074 
2266.000000	98.959219 
2265.000000	98.972075 
2264.000000	98.973134 
2263.000000	98.966139 
2262.000000	98.958855 
2261.000000	98.958351 
2260.000000	98.967257 
2259.000000	98.981088 
2258.000000	98.990227 
2257.000000	98.987840 
2256.000000	98.976401 
2255.000000	98.964688 
2254.000000	98.958918 
2253.000000	98.958848 
2252.000000	98.961627 
2251.000000	98.966023 
2250.000000	98.971940 
2249.000000	98.978268 
2248.000000	98.983006 
2247.000000	98.984703 
2246.000000	98.983005 
2245.000000	98.978389 
2244.000000	98.971593 
2243.000000	98.963259 
2242.000000	98.954428 
2241.000000	98.947144 
2240.000000	98.942959 
2239.000000	98.940383 
2238.000000	98.935821 
2237.000000	98.928028 
2236.000000	98.919356 
2235.000000	98.911285 
2234.000000	98.901999 
2233.000000	98.891293 
2232.000000	98.884725 
2231.000000	98.888449 
2230.000000	98.901565 
2229.000000	98.917992 
2228.000000	98.934569 
2227.000000	98.951828 
2226.000000	98.966818 
2225.000000	98.971629 
2224.000000	98.961988 
2223.000000	98.943499 
2222.000000	98.926827 
2221.000000	98.919087 
2220.000000	98.920964 
2219.000000	98.929016 
2218.000000	98.938713 
2217.000000	98.947699 
2216.000000	98.957904 
2215.000000	98.972076 
2214.000000	98.986665 
2213.000000	98.991439 
2212.000000	98.979884 
2211.000000	98.958898 
2210.000000	98.944968 
2209.000000	98.949789 
2208.000000	98.970037 
2207.000000	98.991056 
2206.000000	98.999516 
2205.000000	98.992546 
2204.000000	98.976241 
2203.000000	98.957987 
2202.000000	98.942278 
2201.000000	98.931835 
2200.000000	98.927324 
2199.000000	98.924486 
2198.000000	98.916331 
2197.000000	98.901948 
2196.000000	98.890065 
2195.000000	98.890040 
2194.000000	98.901899 
2193.000000	98.918426 
2192.000000	98.933264 
2191.000000	98.941953 
2190.000000	98.939011 
2189.000000	98.922498 
2188.000000	98.901027 
2187.000000	98.888755 
2186.000000	98.892509 
2185.000000	98.908702 
2184.000000	98.931308 
2183.000000	98.955306 
2182.000000	98.972938 
2181.000000	98.977188 
2180.000000	98.972315 
2179.000000	98.971621 
2178.000000	98.980303 
2177.000000	98.987849 
2176.000000	98.982018 
2175.000000	98.964103 
2174.000000	98.944814 
2173.000000	98.930375 
2172.000000	98.919043 
2171.000000	98.908242 
2170.000000	98.899543 
2169.000000	98.897543 
2168.000000	98.906259 
2167.000000	98.924369 
2166.000000	98.942281 
2165.000000	98.948047 
2164.000000	98.939830 
2163.000000	98.929155 
2162.000000	98.929155 
2161.000000	98.943009 
2160.000000	98.964745 
2159.000000	98.985371 
2158.000000	98.995893 
2157.000000	98.992532 
2156.000000	98.983617 
2155.000000	98.983871 
2154.000000	98.997335 
2153.000000	99.011004 
2152.000000	99.009493 
2151.000000	98.992174 
2150.000000	98.972194 
2149.000000	98.962872 
2148.000000	98.968569 
2147.000000	98.984159 
2146.000000	98.998040 
2145.000000	98.998948 
2144.000000	98.986013 
2143.000000	98.970790 
2142.000000	98.965523 
2141.000000	98.971090 
2140.000000	98.979447 
2139.000000	98.984717 
2138.000000	98.986519 
2137.000000	98.984533 
2136.000000	98.977027 
2135.000000	98.966426 
2134.000000	98.961109 
2133.000000	98.967565 
2132.000000	98.981857 
2131.000000	98.991460 
2130.000000	98.986291 
2129.000000	98.968235 
2128.000000	98.949696 
2127.000000	98.941825 
2126.000000	98.944595 
2125.000000	98.949709 
2124.000000	98.952102 
2123.000000	98.954956 
2122.000000	98.962532 
2121.000000	98.972350 
2120.000000	98.977747 
2119.000000	98.975779 
2118.000000	98.969200 
2117.000000	98.962149 
2116.000000	98.957215 
2115.000000	98.955860 
2114.000000	98.958299 
2113.000000	98.962347 
2112.000000	98.964574 
2111.000000	98.963267 
2110.000000	98.959354 
2109.000000	98.955045 
2108.000000	98.952611 
2107.000000	98.952905 
2106.000000	98.953017 
2105.000000	98.946846 
2104.000000	98.931208 
2103.000000	98.911325 
2102.000000	98.897658 
2101.000000	98.896689 
2100.000000	98.906101 
2099.000000	98.918697 
2098.000000	98.929053 
2097.000000	98.936236 
2096.000000	98.941793 
2095.000000	98.945398 
2094.000000	98.942359 
2093.000000	98.927625 
2092.000000	98.904197 
2091.000000	98.885060 
2090.000000	98.882511 
2089.000000	98.894995 
2088.000000	98.908003 
2087.000000	98.909558 
2086.000000	98.901829 
2085.000000	98.895913 
2084.000000	98.898142 
2083.000000	98.904678 
2082.000000	98.908466 
2081.000000	98.907890 
2080.000000	98.907406 
2079.000000	98.911622 
2078.000000	98.920992 
2077.000000	98.933250 
2076.000000	98.946953 
2075.000000	98.961603 
2074.000000	98.974721 
2073.000000	98.981552 
2072.000000	98.979203 
2071.000000	98.969805 
2070.000000	98.958491 
2069.000000	98.949388 
2068.000000	98.944248 
2067.000000	98.943109 
2066.000000	98.944264 
2065.000000	98.944570 
2064.000000	98.942331 
2063.000000	98.939701 
2062.000000	98.940357 
2061.000000	98.944983 
2060.000000	98.950651 
2059.000000	98.954471 
2058.000000	98.956029 
2057.000000	98.955947 
2056.000000	98.953839 
2055.000000	98.948677 
2054.000000	98.940600 
2053.000000	98.931803 
2052.000000	98.925466 
2051.000000	98.923411 
2050.000000	98.924179 
2049.000000	98.923511 
2048.000000	98.917931 
2047.000000	98.908284 
2046.000000	98.899048 
2045.000000	98.894325 
2044.000000	98.894805 
2043.000000	98.897848 
2042.000000	98.899798 
2041.000000	98.899007 
2040.000000	98.897559 
2039.000000	98.899278 
2038.000000	98.905344 
2037.000000	98.912684 
2036.000000	98.917363 
2035.000000	98.918486 
2034.000000	98.917568 
2033.000000	98.915111 
2032.000000	98.909597 
2031.000000	98.899875 
2030.000000	98.887829 
2029.000000	98.878373 
2028.000000	98.875932 
2027.000000	98.880414 
2026.000000	98.888001 
2025.000000	98.896991 
2024.000000	98.910107 
2023.000000	98.927511 
2022.000000	98.940004 
2021.000000	98.936197 
2020.000000	98.917815 
2019.000000	98.900959 
2018.000000	98.898512 
2017.000000	98.905576 
2016.000000	98.906915 
2015.000000	98.895592 
2014.000000	98.878427 
2013.000000	98.866227 
2012.000000	98.864612 
2011.000000	98.873198 
2010.000000	98.888918 
2009.000000	98.908762 
2008.000000	98.931054 
2007.000000	98.953528 
2006.000000	98.969492 
2005.000000	98.970413 
2004.000000	98.956063 
2003.000000	98.938247 
2002.000000	98.929748 
2001.000000	98.931014 
2000.000000	98.931556 
1999.000000	98.923559 
1998.000000	98.910240 
1997.000000	98.900797 
1996.000000	98.900733 
1995.000000	98.908527 
1994.000000	98.918994 
1993.000000	98.927348 
1992.000000	98.931265 
1991.000000	98.930800 
1990.000000	98.926752 
1989.000000	98.920214 
1988.000000	98.913781 
1987.000000	98.910612 
1986.000000	98.910632 
1985.000000	98.909963 
1984.000000	98.906691 
1983.000000	98.904988 
1982.000000	98.909487 
1981.000000	98.916702 
1980.000000	98.917306 
1979.000000	98.907908 
1978.000000	98.896237 
1977.000000	98.891457 
1976.000000	98.892557 
1975.000000	98.891711 
1974.000000	98.887291 
1973.000000	98.887821 
1972.000000	98.901916 
1971.000000	98.926890 
1970.000000	98.948696 
1969.000000	98.952880 
1968.000000	98.936788 
1967.000000	98.912490 
1966.000000	98.896671 
1965.000000	98.896659 
1964.000000	98.906688 
1963.000000	98.916354 
1962.000000	98.920268 
1961.000000	98.920101 
1960.000000	98.919958 
1959.000000	98.921792 
1958.000000	98.925026 
1957.000000	98.928215 
1956.000000	98.929954 
1955.000000	98.929492 
1954.000000	98.927797 
1953.000000	98.927287 
1952.000000	98.929030 
1951.000000	98.930975 
1950.000000	98.930278 
1949.000000	98.927110 
1948.000000	98.924336 
1947.000000	98.922354 
1946.000000	98.916279 
1945.000000	98.901002 
1944.000000	98.879041 
1943.000000	98.861398 
1942.000000	98.858297 
1941.000000	98.868867 
1940.000000	98.882548 
1939.000000	98.890280 
1938.000000	98.892467 
1937.000000	98.896875 
1936.000000	98.908759 
1935.000000	98.923355 
1934.000000	98.930497 
1933.000000	98.927077 
1932.000000	98.921746 
1931.000000	98.924966 
1930.000000	98.936479 
1929.000000	98.946626 
1928.000000	98.949060 
1927.000000	98.946679 
1926.000000	98.944808 
1925.000000	98.943707 
1924.000000	98.941072 
1923.000000	98.938436 
1922.000000	98.939596 
1921.000000	98.943667 
1920.000000	98.944398 
1919.000000	98.936690 
1918.000000	98.922203 
1917.000000	98.908173 
1916.000000	98.900451 
1915.000000	98.899310 
1914.000000	98.902228 
1913.000000	98.907678 
1912.000000	98.914975 
1911.000000	98.921719 
1910.000000	98.923177 
1909.000000	98.917173 
1908.000000	98.908867 
1907.000000	98.906428 
1906.000000	98.912333 
1905.000000	98.921020 
1904.000000	98.925531 
1903.000000	98.924400 
1902.000000	98.920617 
1901.000000	98.917257 
1900.000000	98.915660 
1899.000000	98.915261 
1898.000000	98.914076 
1897.000000	98.910505 
1896.000000	98.905766 
1895.000000	98.903104 
1894.000000	98.903487 
1893.000000	98.904727 
1892.000000	98.905499 
1891.000000	98.906866 
1890.000000	98.908625 
1889.000000	98.907699 
1888.000000	98.902916 
1887.000000	98.897690 
1886.000000	98.895855 
1885.000000	98.897999 
1884.000000	98.902722 
1883.000000	98.908811 
1882.000000	98.914109 
1881.000000	98.915485 
1880.000000	98.913116 
1879.000000	98.912125 
1878.000000	98.917454 
1877.000000	98.928211 
1876.000000	98.938744 
1875.000000	98.944264 
1874.000000	98.943269 
1873.000000	98.936533 
1872.000000	98.926871 
1871.000000	98.918414 
1870.000000	98.913229 
1869.000000	98.908962 
1868.000000	98.903832 
1867.000000	98.901487 
1866.000000	98.905115 
1865.000000	98.911048 
1864.000000	98.912029 
1863.000000	98.904954 
1862.000000	98.893952 
1861.000000	98.886337 
1860.000000	98.887242 
1859.000000	98.897258 
1858.000000	98.912157 
1857.000000	98.924809 
1856.000000	98.930421 
1855.000000	98.930505 
1854.000000	98.929838 
1853.000000	98.930495 
1852.000000	98.931280 
1851.000000	98.931222 
1850.000000	98.931729 
1849.000000	98.935040 
1848.000000	98.941347 
1847.000000	98.948143 
1846.000000	98.951867 
1845.000000	98.950721 
1844.000000	98.947364 
1843.000000	98.947222 
1842.000000	98.951586 
1841.000000	98.956621 
1840.000000	98.958936 
1839.000000	98.958180 
1838.000000	98.955854 
1837.000000	98.952869 
1836.000000	98.949331 
1835.000000	98.945935 
1834.000000	98.943566 
1833.000000	98.942311 
1832.000000	98.941562 
1831.000000	98.940582 
1830.000000	98.939472 
1829.000000	98.939509 
1828.000000	98.941169 
1827.000000	98.942887 
1826.000000	98.942924 
1825.000000	98.941208 
1824.000000	98.939198 
1823.000000	98.937739 
1822.000000	98.935267 
1821.000000	98.930319 
1820.000000	98.925388 
1819.000000	98.926029 
1818.000000	98.934563 
1817.000000	98.945305 
1816.000000	98.950376 
1815.000000	98.949077 
1814.000000	98.946893 
1813.000000	98.947770 
1812.000000	98.950738 
1811.000000	98.954047 
1810.000000	98.957828 
1809.000000	98.960618 
1808.000000	98.959371 
1807.000000	98.953919 
1806.000000	98.947304 
1805.000000	98.941739 
1804.000000	98.937196 
1803.000000	98.933477 
1802.000000	98.930623 
1801.000000	98.927775 
1800.000000	98.924153 
1799.000000	98.921858 
1798.000000	98.924004 
1797.000000	98.930146 
1796.000000	98.937278 
1795.000000	98.943659 
1794.000000	98.949214 
1793.000000	98.952675 
1792.000000	98.951541 
1791.000000	98.947458 
1790.000000	98.944978 
1789.000000	98.945125 
1788.000000	98.946321 
1787.000000	98.948028 
1786.000000	98.950677 
1785.000000	98.952956 
1784.000000	98.952657 
1783.000000	98.949946 
1782.000000	98.946578 
1781.000000	98.943886 
1780.000000	98.941780 
1779.000000	98.940339 
1778.000000	98.940784 
1777.000000	98.943552 
1776.000000	98.947295 
1775.000000	98.949621 
1774.000000	98.949676 
1773.000000	98.949491 
1772.000000	98.950661 
1771.000000	98.952060 
1770.000000	98.952447 
1769.000000	98.951965 
1768.000000	98.951169 
1767.000000	98.950096 
1766.000000	98.948746 
1765.000000	98.947801 
1764.000000	98.948096 
1763.000000	98.950161 
1762.000000	98.953773 
1761.000000	98.957807 
1760.000000	98.960091 
1759.000000	98.959646 
1758.000000	98.958542 
1757.000000	98.960295 
1756.000000	98.965215 
1755.000000	98.968888 
1754.000000	98.968563 
1753.000000	98.967326 
1752.000000	98.969780 
1751.000000	98.974022 
1750.000000	98.973605 
1749.000000	98.967821 
1748.000000	98.962649 
1747.000000	98.961774 
1746.000000	98.962882 
1745.000000	98.963091 
1744.000000	98.962298 
1743.000000	98.961837 
1742.000000	98.962805 
1741.000000	98.965624 
1740.000000	98.969839 
1739.000000	98.974223 
1738.000000	98.977182 
1737.000000	98.977714 
1736.000000	98.976398 
1735.000000	98.975643 
1734.000000	98.974402 
1733.000000	98.969961 
1732.000000	98.963567 
1731.000000	98.956990 
1730.000000	98.951399 
1729.000000	98.947687 
1728.000000	98.946064 
1727.000000	98.946159 
1726.000000	98.947284 
1725.000000	98.949138 
1724.000000	98.951038 
1723.000000	98.952795 
1722.000000	98.954745 
1721.000000	98.956639 
1720.000000	98.958622 
1719.000000	98.962848 
1718.000000	98.970320 
1717.000000	98.974896 
1716.000000	98.971332 
1715.000000	98.964409 
1714.000000	98.959582 
1713.000000	98.955337 
1712.000000	98.948457 
1711.000000	98.940484 
1710.000000	98.935645 
1709.000000	98.934525 
1708.000000	98.933733 
1707.000000	98.931580 
1706.000000	98.930314 
1705.000000	98.930089 
1704.000000	98.927649 
1703.000000	98.921820 
1702.000000	98.915707 
1701.000000	98.913534 
1700.000000	98.913416 
1699.000000	98.914202 
1698.000000	98.918317 
1697.000000	98.923023 
1696.000000	98.923100 
1695.000000	98.917295 
1694.000000	98.909675 
1693.000000	98.903315 
1692.000000	98.898220 
1691.000000	98.894539 
1690.000000	98.891816 
1689.000000	98.889450 
1688.000000	98.888245 
1687.000000	98.889278 
1686.000000	98.893749 
1685.000000	98.899886 
1684.000000	98.899517 
1683.000000	98.891713 
1682.000000	98.882992 
1681.000000	98.876390 
1680.000000	98.873908 
1679.000000	98.874412 
1678.000000	98.873483 
1677.000000	98.869174 
1676.000000	98.864328 
1675.000000	98.862165 
1674.000000	98.862239 
1673.000000	98.863393 
1672.000000	98.864999 
1671.000000	98.865880 
1670.000000	98.862118 
1669.000000	98.852212 
1668.000000	98.842318 
1667.000000	98.836946 
1666.000000	98.834539 
1665.000000	98.832642 
1664.000000	98.830730 
1663.000000	98.829117 
1662.000000	98.826382 
1661.000000	98.822281 
1660.000000	98.820052 
1659.000000	98.822100 
1658.000000	98.826534 
1657.000000	98.829487 
1656.000000	98.829634 
1655.000000	98.827993 
1654.000000	98.825843 
1653.000000	98.819936 
1652.000000	98.814119 
1651.000000	98.813865 
1650.000000	98.814859 
1649.000000	98.814896 
1648.000000	98.813958 
1647.000000	98.810419 
1646.000000	98.805245 
1645.000000	98.801875 
1644.000000	98.801145 
1643.000000	98.801950 
1642.000000	98.802909 
1641.000000	98.802856 
1640.000000	98.801751 
1639.000000	98.800285 
1638.000000	98.799158 
1637.000000	98.799415 
1636.000000	98.801709 
1635.000000	98.804205 
1634.000000	98.804453 
1633.000000	98.801595 
1632.000000	98.797104 
1631.000000	98.794073 
1630.000000	98.793644 
1629.000000	98.794252 
1628.000000	98.794770 
1627.000000	98.795943 
1626.000000	98.797768 
1625.000000	98.798884 
1624.000000	98.798960 
1623.000000	98.799522 
1622.000000	98.801949 
1621.000000	98.806133 
1620.000000	98.811255 
1619.000000	98.816493 
1618.000000	98.821289 
1617.000000	98.825165 
1616.000000	98.829559 
1615.000000	98.835273 
1614.000000	98.839913 
1613.000000	98.842613 
1612.000000	98.846134 
1611.000000	98.852184 
1610.000000	98.857662 
1609.000000	98.859183 
1608.000000	98.858680 
1607.000000	98.860002 
1606.000000	98.862928 
1605.000000	98.865358 
1604.000000	98.867496 
1603.000000	98.870361 
1602.000000	98.873612 
1601.000000	98.876775 
1600.000000	98.880779 
1599.000000	98.886322 
1598.000000	98.892407 
1597.000000	98.897678 
1596.000000	98.901661 
1595.000000	98.904079 
1594.000000	98.904472 
1593.000000	98.903982 
1592.000000	98.905665 
1591.000000	98.911175 
1590.000000	98.918408 
1589.000000	98.924336 
1588.000000	98.928624 
1587.000000	98.932405 
1586.000000	98.935098 
1585.000000	98.935272 
1584.000000	98.934019 
1583.000000	98.933372 
1582.000000	98.933217 
1581.000000	98.932748 
1580.000000	98.932552 
1579.000000	98.932901 
1578.000000	98.932750 
1577.000000	98.931714 
1576.000000	98.931107 
1575.000000	98.932136 
1574.000000	98.933448 
1573.000000	98.934141 
1572.000000	98.935801 
1571.000000	98.940289 
1570.000000	98.945782 
1569.000000	98.949362 
1568.000000	98.952183 
1567.000000	98.954778 
1566.000000	98.955425 
1565.000000	98.953607 
1564.000000	98.951392 
1563.000000	98.949483 
1562.000000	98.948107 
1561.000000	98.948116 
1560.000000	98.956314 
1559.000000	98.965489 
1558.000000	98.964588 
1557.000000	98.961393 
1556.000000	98.960855 
1555.000000	98.962255 
1554.000000	98.963903 
1553.000000	98.963802 
1552.000000	98.962054 
1551.000000	98.959587 
1550.000000	98.958265 
1549.000000	98.959009 
1548.000000	98.960967 
1547.000000	98.961990 
1546.000000	98.959996 
1545.000000	98.954912 
1544.000000	98.949892 
1543.000000	98.949475 
1542.000000	98.955745 
1541.000000	98.965444 
1540.000000	98.970995 
1539.000000	98.970965 
1538.000000	98.969451 
1537.000000	98.968026 
1536.000000	98.967465 
1535.000000	98.968757 
1534.000000	98.968814 
1533.000000	98.963267 
1532.000000	98.954718 
1531.000000	98.949482 
1530.000000	98.949186 
1529.000000	98.950896 
1528.000000	98.951850 
1527.000000	98.952754 
1526.000000	98.955074 
1525.000000	98.957183 
1524.000000	98.956822 
1523.000000	98.955514 
1522.000000	98.956648 
1521.000000	98.959126 
1520.000000	98.958803 
1519.000000	98.954296 
1518.000000	98.947526 
1517.000000	98.941549 
1516.000000	98.938240 
1515.000000	98.937498 
1514.000000	98.938491 
1513.000000	98.940896 
1512.000000	98.943453 
1511.000000	98.943889 
1510.000000	98.942177 
1509.000000	98.940751 
1508.000000	98.943961 
1507.000000	98.952568 
1506.000000	98.960491 
1505.000000	98.960973 
1504.000000	98.955315 
1503.000000	98.949174 
1502.000000	98.946082 
1501.000000	98.945328 
1500.000000	98.943214 
1499.000000	98.937750 
1498.000000	98.931712 
1497.000000	98.928448 
1496.000000	98.927145 
1495.000000	98.927449 
1494.000000	98.930753 
1493.000000	98.936381 
1492.000000	98.941518 
1491.000000	98.943336 
1490.000000	98.940570 
1489.000000	98.933846 
1488.000000	98.925029 
1487.000000	98.917492 
1486.000000	98.912561 
1485.000000	98.907736 
1484.000000	98.902224 
1483.000000	98.898796 
1482.000000	98.900509 
1481.000000	98.905728 
1480.000000	98.909051 
1479.000000	98.907789 
1478.000000	98.903746 
1477.000000	98.899446 
1476.000000	98.896121 
1475.000000	98.895515 
1474.000000	98.898618 
1473.000000	98.902594 
1472.000000	98.903196 
1471.000000	98.900952 
1470.000000	98.898558 
1469.000000	98.895708 
1468.000000	98.891258 
1467.000000	98.886642 
1466.000000	98.884968 
1465.000000	98.886840 
1464.000000	98.889394 
1463.000000	98.889999 
1462.000000	98.888731 
1461.000000	98.886162 
1460.000000	98.882219 
1459.000000	98.876353 
1458.000000	98.868235 
1457.000000	98.857103 
1456.000000	98.843938 
1455.000000	98.831632 
1454.000000	98.822237 
1453.000000	98.817643 
1452.000000	98.818530 
1451.000000	98.823075 
1450.000000	98.828699 
1449.000000	98.832935 
1448.000000	98.833184 
1447.000000	98.829480 
1446.000000	98.825045 
1445.000000	98.823501 
1444.000000	98.825862 
1443.000000	98.830017 
1442.000000	98.833294 
1441.000000	98.834508 
1440.000000	98.834005 
1439.000000	98.832740 
1438.000000	98.832919 
1437.000000	98.835106 
1436.000000	98.835517 
1435.000000	98.831254 
1434.000000	98.824346 
1433.000000	98.817658 
1432.000000	98.812418 
1431.000000	98.808304 
1430.000000	98.805152 
1429.000000	98.803306 
1428.000000	98.801645 
1427.000000	98.798801 
1426.000000	98.794610 
1425.000000	98.790650 
1424.000000	98.787496 
1423.000000	98.782729 
1422.000000	98.774381 
1421.000000	98.762906 
1420.000000	98.749514 
1419.000000	98.734495 
1418.000000	98.719988 
1417.000000	98.707867 
1416.000000	98.695859 
1415.000000	98.681519 
1414.000000	98.665256 
1413.000000	98.649471 
1412.000000	98.636015 
1411.000000	98.624369 
1410.000000	98.613478 
1409.000000	98.603560 
1408.000000	98.595869 
1407.000000	98.592415 
1406.000000	98.594252 
1405.000000	98.600639 
1404.000000	98.609790 
1403.000000	98.620642 
1402.000000	98.634476 
1401.000000	98.653106 
1400.000000	98.674893 
1399.000000	98.691875 
1398.000000	98.693700 
1397.000000	98.674282 
1396.000000	98.635865 
1395.000000	98.594658 
1394.000000	98.576647 
1393.000000	98.595011 
1392.000000	98.637569 
1391.000000	98.681669 
1390.000000	98.711843 
1389.000000	98.724262 
1388.000000	98.722481 
1387.000000	98.712784 
1386.000000	98.701988 
1385.000000	98.694756 
1384.000000	98.691445 
1383.000000	98.689364 
1382.000000	98.686832 
1381.000000	98.685470 
1380.000000	98.688459 
1379.000000	98.696993 
1378.000000	98.709192 
1377.000000	98.722268 
1376.000000	98.734541 
1375.000000	98.745413 
1374.000000	98.755321 
1373.000000	98.766170 
1372.000000	98.779256 
1371.000000	98.793392 
1370.000000	98.805994 
1369.000000	98.815965 
1368.000000	98.824256 
1367.000000	98.831648 
1366.000000	98.838201 
1365.000000	98.844658 
1364.000000	98.852606 
1363.000000	98.862396 
1362.000000	98.871919 
1361.000000	98.878844 
1360.000000	98.883428 
1359.000000	98.888212 
1358.000000	98.895603 
1357.000000	98.905804 
1356.000000	98.916304 
1355.000000	98.923711 
1354.000000	98.926942 
1353.000000	98.927863 
1352.000000	98.928552 
1351.000000	98.929617 
1350.000000	98.930783 
1349.000000	98.932665 
1348.000000	98.935965 
1347.000000	98.939517 
1346.000000	98.941529 
1345.000000	98.942144 
1344.000000	98.942899 
1343.000000	98.944134 
1342.000000	98.945023 
1341.000000	98.945953 
1340.000000	98.948611 
1339.000000	98.953125 
1338.000000	98.957454 
1337.000000	98.960279 
1336.000000	98.962037 
1335.000000	98.962898 
1334.000000	98.962131 
1333.000000	98.959910 
1332.000000	98.957897 
1331.000000	98.957196 
1330.000000	98.957153 
1329.000000	98.957027 
1328.000000	98.957170 
1327.000000	98.957605 
1326.000000	98.957047 
1325.000000	98.954993 
1324.000000	98.953071 
1323.000000	98.952969 
1322.000000	98.954507 
1321.000000	98.956777 
1320.000000	98.959806 
1319.000000	98.963504 
1318.000000	98.965982 
1317.000000	98.964770 
1316.000000	98.959705 
1315.000000	98.953380 
1314.000000	98.948705 
1313.000000	98.946486 
1312.000000	98.945353 
1311.000000	98.943651 
1310.000000	98.941165 
1309.000000	98.939047 
1308.000000	98.938167 
1307.000000	98.937892 
1306.000000	98.936803 
1305.000000	98.934815 
1304.000000	98.933558 
1303.000000	98.934198 
1302.000000	98.935648 
1301.000000	98.935563 
1300.000000	98.932936 
1299.000000	98.929119 
1298.000000	98.926335 
1297.000000	98.925381 
1296.000000	98.924928 
1295.000000	98.922834 
1294.000000	98.918060 
1293.000000	98.911333 
1292.000000	98.904249 
1291.000000	98.898245 
1290.000000	98.894372 
1289.000000	98.893062 
1288.000000	98.893249 
1287.000000	98.892145 
1286.000000	98.887202 
1285.000000	98.878635 
1284.000000	98.869170 
1283.000000	98.861019 
1282.000000	98.853769 
1281.000000	98.845656 
1280.000000	98.836272 
1279.000000	98.826999 
1278.000000	98.819185 
1277.000000	98.812917 
1276.000000	98.807611 
1275.000000	98.802708 
1274.000000	98.797379 
1273.000000	98.790507 
1272.000000	98.781695 
1271.000000	98.771881 
1270.000000	98.762311 
1269.000000	98.753148 
1268.000000	98.743586 
1267.000000	98.732922 
1266.000000	98.720992 
1265.000000	98.707920 
1264.000000	98.694230 
1263.000000	98.681073 
1262.000000	98.669378 
1261.000000	98.658665 
1260.000000	98.647530 
1259.000000	98.635400 
1258.000000	98.623226 
1257.000000	98.612505 
1256.000000	98.604395 
1255.000000	98.599461 
1254.000000	98.596836 
1253.000000	98.593591 
1252.000000	98.586838 
1251.000000	98.577429 
1250.000000	98.570165 
1249.000000	98.568990 
1248.000000	98.572879 
1247.000000	98.577110 
1246.000000	98.576892 
1245.000000	98.568528 
1244.000000	98.550069 
1243.000000	98.525136 
1242.000000	98.504897 
1241.000000	98.500580 
1240.000000	98.511793 
1239.000000	98.525283 
1238.000000	98.527487 
1237.000000	98.516356 
1236.000000	98.499314 
1235.000000	98.483011 
1234.000000	98.468485 
1233.000000	98.454065 
1232.000000	98.438312 
1231.000000	98.419902 
1230.000000	98.398338 
1229.000000	98.376095 
1228.000000	98.357719 
1227.000000	98.345346 
1226.000000	98.336340 
1225.000000	98.326195 
1224.000000	98.312615 
1223.000000	98.296040 
1222.000000	98.277646 
1221.000000	98.258095 
1220.000000	98.237522 
1219.000000	98.215601 
1218.000000	98.191724 
1217.000000	98.165586 
1216.000000	98.137336 
1215.000000	98.106997 
1214.000000	98.074191 
1213.000000	98.038593 
1212.000000	98.000201 
1211.000000	97.959275 
1210.000000	97.916772 
1209.000000	97.874714 
1208.000000	97.834979 
1207.000000	97.797311 
1206.000000	97.759536 
1205.000000	97.720255 
1204.000000	97.680271 
1203.000000	97.640775 
1202.000000	97.601453 
1201.000000	97.561440 
1200.000000	97.520966 
1199.000000	97.480750 
1198.000000	97.440723 
1197.000000	97.400572 
1196.000000	97.360366 
1195.000000	97.319121 
1194.000000	97.274094 
1193.000000	97.223782 
1192.000000	97.170854 
1191.000000	97.119726 
1190.000000	97.071530 
1189.000000	97.023767 
1188.000000	96.974649 
1187.000000	96.925131 
1186.000000	96.876461 
1185.000000	96.828214 
1184.000000	96.779305 
1183.000000	96.728843 
1182.000000	96.675612 
1181.000000	96.618986 
1180.000000	96.560702 
1179.000000	96.503286 
1178.000000	96.446216 
1177.000000	96.386208 
1176.000000	96.321867 
1175.000000	96.255152 
1174.000000	96.187275 
1173.000000	96.116404 
1172.000000	96.041458 
1171.000000	95.965517 
1170.000000	95.892916 
1169.000000	95.824570 
1168.000000	95.758502 
1167.000000	95.694208 
1166.000000	95.635282 
1165.000000	95.588835 
1164.000000	95.563052 
1163.000000	95.563278 
1162.000000	95.588331 
1161.000000	95.630442 
1160.000000	95.678248 
1159.000000	95.719067 
1158.000000	95.740664 
1157.000000	95.734999 
1156.000000	95.701839 
1155.000000	95.648253 
1154.000000	95.584687 
1153.000000	95.521133 
1152.000000	95.463968 
1151.000000	95.412762 
1150.000000	95.360845 
1149.000000	95.302585 
1148.000000	95.240235 
1147.000000	95.180820 
1146.000000	95.126880 
1145.000000	95.073911 
1144.000000	95.016808 
1143.000000	94.954941 
1142.000000	94.890674 
1141.000000	94.827032 
1140.000000	94.767538 
1139.000000	94.714010 
1138.000000	94.662845 
1137.000000	94.606999 
1136.000000	94.543225 
1135.000000	94.474534 
1134.000000	94.404783 
1133.000000	94.334317 
1132.000000	94.262142 
1131.000000	94.188944 
1130.000000	94.116309 
1129.000000	94.045347 
1128.000000	93.976513 
1127.000000	93.908018 
1126.000000	93.834957 
1125.000000	93.754317 
1124.000000	93.670859 
1123.000000	93.593156 
1122.000000	93.522973 
1121.000000	93.453412 
1120.000000	93.378488 
1119.000000	93.299421 
1118.000000	93.220226 
1117.000000	93.142606 
1116.000000	93.067425 
1115.000000	92.996193 
1114.000000	92.928369 
1113.000000	92.861089 
1112.000000	92.793284 
1111.000000	92.725962 
1110.000000	92.657422 
1109.000000	92.583561 
1108.000000	92.504820 
1107.000000	92.427802 
1106.000000	92.357487 
1105.000000	92.292064 
1104.000000	92.227444 
1103.000000	92.162414 
1102.000000	92.097488 
1101.000000	92.033259 
1100.000000	91.971462 
1099.000000	91.914051 
1098.000000	91.859542 
1097.000000	91.804337 
1096.000000	91.747976 
1095.000000	91.692129 
1094.000000	91.634407 
1093.000000	91.568921 
1092.000000	91.493858 
1091.000000	91.413225 
1090.000000	91.330819 
1089.000000	91.248319 
1088.000000	91.169400 
1087.000000	91.098626 
1086.000000	91.034995 
1085.000000	90.973179 
1084.000000	90.912033 
1083.000000	90.854902 
1082.000000	90.800970 
1081.000000	90.744423 
1080.000000	90.683840 
1079.000000	90.624446 
1078.000000	90.569057 
1077.000000	90.514687 
1076.000000	90.460471 
1075.000000	90.410831 
1074.000000	90.367566 
1073.000000	90.325401 
1072.000000	90.276781 
1071.000000	90.213402 
1070.000000	90.122819 
1069.000000	89.995313 
1068.000000	89.839907 
1067.000000	89.685415 
1066.000000	89.558196 
1065.000000	89.462365 
1064.000000	89.384113 
1063.000000	89.306905 
1062.000000	89.217702 
1061.000000	89.107775 
1060.000000	88.977400 
1059.000000	88.838152 
1058.000000	88.705241 
1057.000000	88.587653 
1056.000000	88.485617 
1055.000000	88.392406 
1054.000000	88.296828 
1053.000000	88.189660 
1052.000000	88.070778 
1051.000000	87.946341 
1050.000000	87.818911 
1049.000000	87.686772 
1048.000000	87.552543 
1047.000000	87.423442 
1046.000000	87.301805 
1045.000000	87.182836 
1044.000000	87.062072 
1043.000000	86.938550 
1042.000000	86.811740 
1041.000000	86.682863 
1040.000000	86.558752 
1039.000000	86.447187 
1038.000000	86.349050 
1037.000000	86.261776 
1036.000000	86.187545 
1035.000000	86.128917 
1034.000000	86.079321 
1033.000000	86.028345 
1032.000000	85.973902 
1031.000000	85.918873 
1030.000000	85.860478 
1029.000000	85.797279 
1028.000000	85.743752 
1027.000000	85.720396 
1026.000000	85.726684 
1025.000000	85.738411 
1024.000000	85.734689 
1023.000000	85.714658 
1022.000000	85.686589 
1021.000000	85.655653 
1020.000000	85.626607 
1019.000000	85.604705 
1018.000000	85.587491 
1017.000000	85.565919 
1016.000000	85.538022 
1015.000000	85.511802 
1014.000000	85.491643 
1013.000000	85.472345 
1012.000000	85.449860 
1011.000000	85.427423 
1010.000000	85.407633 
1009.000000	85.388691 
1008.000000	85.372022 
1007.000000	85.363813 
1006.000000	85.365288 
1005.000000	85.370385 
1004.000000	85.376018 
1003.000000	85.385983 
1002.000000	85.402642 
1001.000000	85.423652 
1000.000000	85.448562 
999.000000	 85.479307 
998.000000	 85.512745 
997.000000	 85.542482 
996.000000	 85.569786 
995.000000	 85.603004 
994.000000	 85.644461 
993.000000	 85.687610 
992.000000	 85.728634 
991.000000	 85.770770 
990.000000	 85.815512 
989.000000	 85.859992 
988.000000	 85.905654 
987.000000	 85.959694 
986.000000	 86.025050 
985.000000	 86.097757 
984.000000	 86.176039 
983.000000	 86.262743 
982.000000	 86.357043 
981.000000	 86.453383 
980.000000	 86.551051 
979.000000	 86.656036 
978.000000	 86.771388 
977.000000	 86.894055 
976.000000	 87.022450 
975.000000	 87.158339 
974.000000	 87.300036 
973.000000	 87.442589 
972.000000	 87.586056 
971.000000	 87.735064 
970.000000	 87.889033 
969.000000	 88.041350 
968.000000	 88.189306 
967.000000	 88.336407 
966.000000	 88.483777 
965.000000	 88.627679 
964.000000	 88.766788 
963.000000	 88.903706 
962.000000	 89.037923 
961.000000	 89.165243 
960.000000	 89.285619 
959.000000	 89.403856 
958.000000	 89.521076 
957.000000	 89.632855 
956.000000	 89.737248 
955.000000	 89.837469 
954.000000	 89.935247 
953.000000	 90.028455 
952.000000	 90.116541 
951.000000	 90.201333 
950.000000	 90.281185 
949.000000	 90.351302 
948.000000	 90.411287 
947.000000	 90.465766 
946.000000	 90.516430 
945.000000	 90.560369 
944.000000	 90.597731 
943.000000	 90.634106 
942.000000	 90.673275 
941.000000	 90.713658 
940.000000	 90.753437 
939.000000	 90.792987 
938.000000	 90.830954 
937.000000	 90.864463 
936.000000	 90.895077 
935.000000	 90.928651 
934.000000	 90.967626 
933.000000	 91.008977 
932.000000	 91.050643 
931.000000	 91.093814 
930.000000	 91.137647 
929.000000	 91.177767 
928.000000	 91.211480 
927.000000	 91.239529 
926.000000	 91.262713 
925.000000	 91.282579 
924.000000	 91.304935 
923.000000	 91.335360 
922.000000	 91.370392 
921.000000	 91.399997 
920.000000	 91.419448 
919.000000	 91.431991 
918.000000	 91.439942 
917.000000	 91.441878 
916.000000	 91.440426 
915.000000	 91.444303 
914.000000	 91.459112 
913.000000	 91.482964 
912.000000	 91.514302 
911.000000	 91.557290 
910.000000	 91.616059 
909.000000	 91.689540 
908.000000	 91.775012 
907.000000	 91.871299 
906.000000	 91.976023 
905.000000	 92.084980 
904.000000	 92.196418 
903.000000	 92.311582 
902.000000	 92.430169 
901.000000	 92.549808 
900.000000	 92.670009 
899.000000	 92.791354 
898.000000	 92.910680 
897.000000	 93.022681 
896.000000	 93.126439 
895.000000	 93.225259 
894.000000	 93.320538 
893.000000	 93.411436 
892.000000	 93.500276 
891.000000	 93.591940 
890.000000	 93.687145 
889.000000	 93.781592 
888.000000	 93.871928 
887.000000	 93.957428 
886.000000	 94.036511 
885.000000	 94.107805 
884.000000	 94.174417 
883.000000	 94.240447 
882.000000	 94.303097 
881.000000	 94.355848 
880.000000	 94.401111 
879.000000	 94.451966 
878.000000	 94.517675 
877.000000	 94.593371 
876.000000	 94.667364 
875.000000	 94.733105 
874.000000	 94.791129 
873.000000	 94.845073 
872.000000	 94.899908 
871.000000	 94.960253 
870.000000	 95.026899 
869.000000	 95.097219 
868.000000	 95.169964 
867.000000	 95.245773 
866.000000	 95.321863 
865.000000	 95.391234 
864.000000	 95.450260 
863.000000	 95.503740 
862.000000	 95.559085 
861.000000	 95.617537 
860.000000	 95.674314 
859.000000	 95.726030 
858.000000	 95.774567 
857.000000	 95.823442 
856.000000	 95.873083 
855.000000	 95.921196 
854.000000	 95.966265 
853.000000	 96.008292 
852.000000	 96.046014 
851.000000	 96.076354 
850.000000	 96.098985 
849.000000	 96.119439 
848.000000	 96.143819 
847.000000	 96.170577 
846.000000	 96.191178 
845.000000	 96.199595 
844.000000	 96.197747 
843.000000	 96.190993 
842.000000	 96.182311 
841.000000	 96.172094 
840.000000	 96.159174 
839.000000	 96.139786 
838.000000	 96.109807 
837.000000	 96.070982 
836.000000	 96.031184 
835.000000	 95.995742 
834.000000	 95.962965 
833.000000	 95.931844 
832.000000	 95.908550 
831.000000	 95.898623 
830.000000	 95.896770 
829.000000	 95.893133 
828.000000	 95.888159 
827.000000	 95.892329 
826.000000	 95.910625 
825.000000	 95.935662 
824.000000	 95.957991 
823.000000	 95.975477 
822.000000	 95.990776 
821.000000	 96.006411 
820.000000	 96.023857 
819.000000	 96.041933 
818.000000	 96.055295 
817.000000	 96.058573 
816.000000	 96.051086 
815.000000	 96.033096 
814.000000	 95.998916 
813.000000	 95.939260 
812.000000	 95.849899 
811.000000	 95.732162 
810.000000	 95.584684 
809.000000	 95.401130 
808.000000	 95.178290 
807.000000	 94.921437 
806.000000	 94.639388 
805.000000	 94.339729 
804.000000	 94.032842 
803.000000	 93.735996 
802.000000	 93.468299 
801.000000	 93.243634 
800.000000	 93.070243 
799.000000	 92.952105 
798.000000	 92.887759 
797.000000	 92.871742 
796.000000	 92.898032 
795.000000	 92.957860 
794.000000	 93.036206 
793.000000	 93.117737 
792.000000	 93.195593 
791.000000	 93.268259 
790.000000	 93.329977 
789.000000	 93.371416 
788.000000	 93.387649 
787.000000	 93.377609 
786.000000	 93.337240 
785.000000	 93.262012 
784.000000	 93.156852 
783.000000	 93.036590 
782.000000	 92.916264 
781.000000	 92.807219 
780.000000	 92.720942 
779.000000	 92.666950 
778.000000	 92.645950 
777.000000	 92.653940 
776.000000	 92.693287 
775.000000	 92.769668 
774.000000	 92.877067 
773.000000	 92.996440 
772.000000	 93.111765 
771.000000	 93.218743 
770.000000	 93.316324 
769.000000	 93.399192 
768.000000	 93.462622 
767.000000	 93.508493 
766.000000	 93.543247 
765.000000	 93.573682 
764.000000	 93.604766 
763.000000	 93.636048 
762.000000	 93.660102 
761.000000	 93.670569 
760.000000	 93.672291 
759.000000	 93.678386 
758.000000	 93.697675 
757.000000	 93.729425 
756.000000	 93.767509 
755.000000	 93.802971 
754.000000	 93.826338 
753.000000	 93.837193 
752.000000	 93.850133 
751.000000	 93.881760 
750.000000	 93.931563 
749.000000	 93.983689 
748.000000	 94.026779 
747.000000	 94.063293 
746.000000	 94.100516 
745.000000	 94.142624 
744.000000	 94.192270 
743.000000	 94.250192 
742.000000	 94.311704 
741.000000	 94.371873 
740.000000	 94.434559 
739.000000	 94.507575 
738.000000	 94.588422 
737.000000	 94.663661 
736.000000	 94.723143 
735.000000	 94.767000 
734.000000	 94.799374 
733.000000	 94.824936 
732.000000	 94.852005 
731.000000	 94.888321 
730.000000	 94.930510 
729.000000	 94.966193 
728.000000	 94.988893 
727.000000	 95.002816 
726.000000	 95.012330 
725.000000	 95.017040 
724.000000	 95.019516 
723.000000	 95.027890 
722.000000	 95.047109 
721.000000	 95.075685 
720.000000	 95.113257 
719.000000	 95.161790 
718.000000	 95.216140 
717.000000	 95.263316 
716.000000	 95.295063 
715.000000	 95.313679 
714.000000	 95.323768 
713.000000	 95.327447 
712.000000	 95.330550 
711.000000	 95.342551 
710.000000	 95.363713 
709.000000	 95.380135 
708.000000	 95.377586 
707.000000	 95.354099 
706.000000	 95.314917 
705.000000	 95.263717 
704.000000	 95.204964 
703.000000	 95.146164 
702.000000	 95.088487 
701.000000	 95.018697 
700.000000	 94.917115 
699.000000	 94.773504 
698.000000	 94.595832 
697.000000	 94.410127 
696.000000	 94.253265 
695.000000	 94.156537 
694.000000	 94.129379 
693.000000	 94.160081 
692.000000	 94.229879 
691.000000	 94.320372 
690.000000	 94.412343 
689.000000	 94.492177 
688.000000	 94.562158 
687.000000	 94.632520 
686.000000	 94.700912 
685.000000	 94.752342 
684.000000	 94.781702 
683.000000	 94.803269 
682.000000	 94.834255 
681.000000	 94.878955 
680.000000	 94.930027 
679.000000	 94.974984 
678.000000	 95.000901 
677.000000	 95.006414 
676.000000	 95.012311 
675.000000	 95.043285 
674.000000	 95.096388 
673.000000	 95.142664 
672.000000	 95.164416 
671.000000	 95.174778 
670.000000	 95.197289 
669.000000	 95.238528 
668.000000	 95.276420 
667.000000	 95.294595 
666.000000	 95.304213 
665.000000	 95.309099 
664.000000	 95.311921 
663.000000	 95.327625 
662.000000	 95.363964 
661.000000	 95.403249 
660.000000	 95.420198 
659.000000	 95.409967 
658.000000	 95.385231 
657.000000	 95.355266 
656.000000	 95.322084 
655.000000	 95.288778 
654.000000	 95.257883 
653.000000	 95.228201 
652.000000	 95.203662 
651.000000	 95.194292 
650.000000	 95.198145 

