4000.000000	99.325688 
3999.000000	99.326156 
3998.000000	99.326577 
3997.000000	99.327519 
3996.000000	99.328564 
3995.000000	99.328914 
3994.000000	99.328725 
3993.000000	99.329208 
3992.000000	99.331068 
3991.000000	99.333249 
3990.000000	99.333794 
3989.000000	99.331822 
3988.000000	99.328314 
3987.000000	99.325154 
3986.000000	99.323859 
3985.000000	99.325021 
3984.000000	99.328224 
3983.000000	99.332345 
3982.000000	99.336344 
3981.000000	99.339897 
3980.000000	99.343196 
3979.000000	99.346177 
3978.000000	99.348244 
3977.000000	99.348724 
3976.000000	99.347316 
3975.000000	99.343977 
3974.000000	99.338739 
3973.000000	99.332047 
3972.000000	99.325324 
3971.000000	99.320821 
3970.000000	99.320590 
3969.000000	99.325072 
3968.000000	99.332165 
3967.000000	99.337936 
3966.000000	99.338971 
3965.000000	99.334916 
3964.000000	99.328795 
3963.000000	99.324830 
3962.000000	99.325407 
3961.000000	99.329535 
3960.000000	99.333880 
3959.000000	99.335264 
3958.000000	99.332994 
3957.000000	99.329295 
3956.000000	99.327065 
3955.000000	99.327132 
3954.000000	99.327807 
3953.000000	99.327295 
3952.000000	99.325642 
3951.000000	99.324205 
3950.000000	99.323649 
3949.000000	99.322748 
3948.000000	99.319693 
3947.000000	99.314744 
3946.000000	99.310935 
3945.000000	99.311107 
3944.000000	99.314331 
3943.000000	99.316362 
3942.000000	99.314522 
3941.000000	99.311300 
3940.000000	99.311165 
3939.000000	99.314480 
3938.000000	99.317125 
3937.000000	99.315686 
3936.000000	99.310875 
3935.000000	99.306262 
3934.000000	99.304803 
3933.000000	99.307487 
3932.000000	99.313583 
3931.000000	99.320977 
3930.000000	99.327021 
3929.000000	99.329528 
3928.000000	99.328158 
3927.000000	99.324403 
3926.000000	99.319740 
3925.000000	99.314564 
3924.000000	99.309506 
3923.000000	99.306362 
3922.000000	99.305506 
3921.000000	99.304711 
3920.000000	99.302827 
3919.000000	99.301921 
3918.000000	99.303486 
3917.000000	99.305535 
3916.000000	99.305872 
3915.000000	99.306242 
3914.000000	99.309728 
3913.000000	99.315621 
3912.000000	99.319741 
3911.000000	99.318783 
3910.000000	99.312485 
3909.000000	99.303485 
3908.000000	99.295210 
3907.000000	99.290825 
3906.000000	99.291073 
3905.000000	99.293335 
3904.000000	99.293305 
3903.000000	99.290583 
3902.000000	99.290299 
3901.000000	99.295746 
3900.000000	99.302852 
3899.000000	99.305228 
3898.000000	99.301927 
3897.000000	99.296458 
3896.000000	99.290879 
3895.000000	99.285855 
3894.000000	99.284987 
3893.000000	99.292266 
3892.000000	99.303681 
3891.000000	99.308684 
3890.000000	99.304556 
3889.000000	99.301246 
3888.000000	99.304939 
3887.000000	99.310489 
3886.000000	99.308787 
3885.000000	99.296632 
3884.000000	99.283566 
3883.000000	99.282157 
3882.000000	99.291324 
3881.000000	99.300364 
3880.000000	99.301008 
3879.000000	99.294319 
3878.000000	99.289932 
3877.000000	99.293242 
3876.000000	99.299158 
3875.000000	99.299397 
3874.000000	99.289937 
3873.000000	99.276916 
3872.000000	99.271337 
3871.000000	99.273942 
3870.000000	99.273425 
3869.000000	99.264407 
3868.000000	99.259313 
3867.000000	99.268978 
3866.000000	99.283906 
3865.000000	99.291110 
3864.000000	99.290859 
3863.000000	99.290772 
3862.000000	99.294121 
3861.000000	99.296848 
3860.000000	99.293850 
3859.000000	99.283731 
3858.000000	99.266818 
3857.000000	99.247351 
3856.000000	99.235044 
3855.000000	99.241095 
3854.000000	99.259681 
3853.000000	99.264838 
3852.000000	99.255598 
3851.000000	99.262857 
3850.000000	99.288481 
3849.000000	99.308392 
3848.000000	99.313885 
3847.000000	99.311178 
3846.000000	99.306624 
3845.000000	99.302175 
3844.000000	99.297712 
3843.000000	99.292520 
3842.000000	99.286792 
3841.000000	99.282764 
3840.000000	99.281759 
3839.000000	99.282438 
3838.000000	99.281563 
3837.000000	99.278575 
3836.000000	99.277078 
3835.000000	99.280820 
3834.000000	99.288696 
3833.000000	99.296756 
3832.000000	99.301554 
3831.000000	99.302549 
3830.000000	99.303143 
3829.000000	99.306835 
3828.000000	99.311959 
3827.000000	99.312064 
3826.000000	99.302631 
3825.000000	99.288796 
3824.000000	99.281783 
3823.000000	99.287136 
3822.000000	99.297465 
3821.000000	99.296359 
3820.000000	99.280281 
3819.000000	99.270442 
3818.000000	99.279430 
3817.000000	99.294592 
3816.000000	99.300389 
3815.000000	99.295020 
3814.000000	99.292382 
3813.000000	99.300070 
3812.000000	99.306125 
3811.000000	99.300886 
3810.000000	99.291751 
3809.000000	99.291066 
3808.000000	99.299576 
3807.000000	99.303521 
3806.000000	99.293434 
3805.000000	99.280229 
3804.000000	99.278484 
3803.000000	99.287218 
3802.000000	99.294734 
3801.000000	99.288921 
3800.000000	99.275067 
3799.000000	99.272918 
3798.000000	99.283161 
3797.000000	99.290911 
3796.000000	99.290343 
3795.000000	99.287628 
3794.000000	99.291403 
3793.000000	99.302159 
3792.000000	99.313441 
3791.000000	99.320017 
3790.000000	99.321058 
3789.000000	99.318132 
3788.000000	99.314685 
3787.000000	99.314682 
3786.000000	99.319136 
3785.000000	99.324243 
3784.000000	99.325968 
3783.000000	99.325204 
3782.000000	99.325677 
3781.000000	99.327763 
3780.000000	99.327589 
3779.000000	99.321841 
3778.000000	99.313079 
3777.000000	99.308029 
3776.000000	99.308366 
3775.000000	99.309440 
3774.000000	99.308115 
3773.000000	99.306884 
3772.000000	99.308477 
3771.000000	99.310072 
3770.000000	99.306013 
3769.000000	99.297546 
3768.000000	99.294255 
3767.000000	99.301413 
3766.000000	99.311787 
3765.000000	99.315087 
3764.000000	99.310288 
3763.000000	99.305147 
3762.000000	99.304861 
3761.000000	99.307526 
3760.000000	99.309981 
3759.000000	99.310645 
3758.000000	99.307730 
3757.000000	99.300046 
3756.000000	99.288963 
3755.000000	99.278471 
3754.000000	99.271356 
3753.000000	99.268732 
3752.000000	99.270832 
3751.000000	99.272987 
3750.000000	99.266140 
3749.000000	99.249430 
3748.000000	99.233884 
3747.000000	99.229531 
3746.000000	99.237774 
3745.000000	99.251332 
3744.000000	99.254707 
3743.000000	99.249032 
3742.000000	99.256472 
3741.000000	99.272785 
3740.000000	99.275312 
3739.000000	99.263274 
3738.000000	99.250545 
3737.000000	99.245712 
3736.000000	99.247340 
3735.000000	99.253676 
3734.000000	99.266723 
3733.000000	99.284112 
3732.000000	99.296636 
3731.000000	99.299994 
3730.000000	99.299888 
3729.000000	99.301126 
3728.000000	99.302094 
3727.000000	99.300972 
3726.000000	99.300041 
3725.000000	99.303259 
3724.000000	99.310829 
3723.000000	99.317196 
3722.000000	99.318253 
3721.000000	99.316275 
3720.000000	99.316178 
3719.000000	99.318830 
3718.000000	99.319579 
3717.000000	99.313608 
3716.000000	99.300943 
3715.000000	99.285426 
3714.000000	99.270077 
3713.000000	99.256933 
3712.000000	99.247763 
3711.000000	99.243658 
3710.000000	99.246605 
3709.000000	99.257331 
3708.000000	99.270566 
3707.000000	99.278432 
3706.000000	99.277350 
3705.000000	99.270097 
3704.000000	99.262399 
3703.000000	99.258791 
3702.000000	99.259363 
3701.000000	99.260637 
3700.000000	99.260997 
3699.000000	99.261293 
3698.000000	99.259709 
3697.000000	99.252346 
3696.000000	99.239246 
3695.000000	99.225533 
3694.000000	99.215399 
3693.000000	99.208046 
3692.000000	99.201905 
3691.000000	99.198127 
3690.000000	99.196759 
3689.000000	99.193354 
3688.000000	99.186118 
3687.000000	99.183227 
3686.000000	99.191761 
3685.000000	99.205511 
3684.000000	99.213233 
3683.000000	99.211997 
3682.000000	99.206339 
3681.000000	99.198745 
3680.000000	99.185451 
3679.000000	99.164912 
3678.000000	99.145358 
3677.000000	99.137644 
3676.000000	99.140406 
3675.000000	99.138414 
3674.000000	99.131844 
3673.000000	99.138005 
3672.000000	99.155313 
3671.000000	99.170115 
3670.000000	99.176204 
3669.000000	99.173403 
3668.000000	99.171139 
3667.000000	99.176210 
3666.000000	99.182432 
3665.000000	99.184417 
3664.000000	99.184031 
3663.000000	99.184404 
3662.000000	99.185007 
3661.000000	99.183033 
3660.000000	99.178112 
3659.000000	99.174371 
3658.000000	99.175911 
3657.000000	99.180285 
3656.000000	99.179451 
3655.000000	99.171639 
3654.000000	99.165361 
3653.000000	99.164887 
3652.000000	99.166613 
3651.000000	99.167958 
3650.000000	99.167702 
3649.000000	99.163809 
3648.000000	99.160198 
3647.000000	99.164360 
3646.000000	99.177361 
3645.000000	99.194157 
3644.000000	99.209058 
3643.000000	99.218761 
3642.000000	99.223002 
3641.000000	99.224394 
3640.000000	99.226557 
3639.000000	99.231586 
3638.000000	99.238873 
3637.000000	99.247363 
3636.000000	99.255458 
3635.000000	99.258439 
3634.000000	99.250775 
3633.000000	99.233340 
3632.000000	99.215807 
3631.000000	99.209017 
3630.000000	99.216548 
3629.000000	99.227231 
3628.000000	99.226475 
3627.000000	99.223119 
3626.000000	99.231098 
3625.000000	99.242648 
3624.000000	99.246808 
3623.000000	99.243528 
3622.000000	99.237772 
3621.000000	99.233347 
3620.000000	99.230989 
3619.000000	99.229136 
3618.000000	99.227479 
3617.000000	99.229149 
3616.000000	99.235043 
3615.000000	99.240603 
3614.000000	99.240480 
3613.000000	99.233180 
3612.000000	99.222904 
3611.000000	99.216661 
3610.000000	99.218461 
3609.000000	99.226903 
3608.000000	99.237402 
3607.000000	99.246437 
3606.000000	99.253906 
3605.000000	99.260506 
3604.000000	99.265532 
3603.000000	99.268447 
3602.000000	99.269615 
3601.000000	99.269894 
3600.000000	99.270571 
3599.000000	99.272657 
3598.000000	99.275169 
3597.000000	99.275864 
3596.000000	99.274402 
3595.000000	99.272022 
3594.000000	99.269509 
3593.000000	99.267345 
3592.000000	99.267241 
3591.000000	99.270843 
3590.000000	99.278532 
3589.000000	99.287982 
3588.000000	99.293580 
3587.000000	99.290605 
3586.000000	99.282391 
3585.000000	99.276857 
3584.000000	99.276249 
3583.000000	99.277483 
3582.000000	99.278273 
3581.000000	99.278355 
3580.000000	99.277708 
3579.000000	99.275882 
3578.000000	99.272651 
3577.000000	99.268751 
3576.000000	99.266220 
3575.000000	99.266752 
3574.000000	99.269767 
3573.000000	99.272338 
3572.000000	99.271652 
3571.000000	99.267364 
3570.000000	99.261697 
3569.000000	99.257442 
3568.000000	99.255451 
3567.000000	99.254642 
3566.000000	99.255337 
3565.000000	99.260263 
3564.000000	99.269087 
3563.000000	99.277158 
3562.000000	99.281072 
3561.000000	99.281325 
3560.000000	99.280255 
3559.000000	99.279518 
3558.000000	99.279305 
3557.000000	99.278938 
3556.000000	99.278153 
3555.000000	99.277778 
3554.000000	99.278497 
3553.000000	99.279176 
3552.000000	99.277321 
3551.000000	99.271891 
3550.000000	99.264429 
3549.000000	99.257345 
3548.000000	99.252506 
3547.000000	99.251279 
3546.000000	99.254010 
3545.000000	99.259493 
3544.000000	99.265687 
3543.000000	99.270741 
3542.000000	99.273559 
3541.000000	99.274018 
3540.000000	99.273011 
3539.000000	99.272021 
3538.000000	99.271940 
3537.000000	99.272278 
3536.000000	99.271614 
3535.000000	99.269222 
3534.000000	99.265843 
3533.000000	99.262935 
3532.000000	99.261633 
3531.000000	99.262293 
3530.000000	99.264452 
3529.000000	99.266926 
3528.000000	99.268769 
3527.000000	99.270109 
3526.000000	99.271735 
3525.000000	99.273595 
3524.000000	99.274625 
3523.000000	99.274203 
3522.000000	99.273064 
3521.000000	99.272336 
3520.000000	99.272199 
3519.000000	99.272065 
3518.000000	99.271630 
3517.000000	99.271215 
3516.000000	99.271234 
3515.000000	99.271993 
3514.000000	99.274014 
3513.000000	99.277646 
3512.000000	99.281806 
3511.000000	99.283807 
3510.000000	99.281755 
3509.000000	99.276922 
3508.000000	99.272929 
3507.000000	99.272064 
3506.000000	99.272709 
3505.000000	99.270814 
3504.000000	99.264332 
3503.000000	99.256306 
3502.000000	99.253252 
3501.000000	99.259475 
3500.000000	99.272652 
3499.000000	99.285168 
3498.000000	99.289825 
3497.000000	99.284798 
3496.000000	99.274164 
3495.000000	99.264148 
3494.000000	99.258739 
3493.000000	99.258070 
3492.000000	99.259795 
3491.000000	99.261412 
3490.000000	99.261866 
3489.000000	99.261759 
3488.000000	99.262341 
3487.000000	99.264247 
3486.000000	99.267061 
3485.000000	99.270001 
3484.000000	99.272873 
3483.000000	99.276068 
3482.000000	99.279301 
3481.000000	99.280865 
3480.000000	99.279100 
3479.000000	99.274645 
3478.000000	99.270429 
3477.000000	99.268799 
3476.000000	99.269162 
3475.000000	99.269161 
3474.000000	99.268002 
3473.000000	99.267407 
3472.000000	99.268946 
3471.000000	99.271686 
3470.000000	99.273369 
3469.000000	99.273166 
3468.000000	99.272111 
3467.000000	99.271241 
3466.000000	99.270435 
3465.000000	99.269079 
3464.000000	99.266919 
3463.000000	99.264110 
3462.000000	99.261062 
3461.000000	99.258507 
3460.000000	99.257319 
3459.000000	99.257950 
3458.000000	99.260052 
3457.000000	99.262605 
3456.000000	99.264321 
3455.000000	99.264414 
3454.000000	99.263306 
3453.000000	99.262275 
3452.000000	99.262274 
3451.000000	99.263404 
3450.000000	99.265493 
3449.000000	99.268246 
3448.000000	99.270578 
3447.000000	99.270685 
3446.000000	99.268055 
3445.000000	99.264906 
3444.000000	99.264267 
3443.000000	99.266773 
3442.000000	99.270159 
3441.000000	99.271969 
3440.000000	99.272035 
3439.000000	99.271738 
3438.000000	99.271554 
3437.000000	99.270486 
3436.000000	99.267921 
3435.000000	99.265160 
3434.000000	99.264311 
3433.000000	99.265877 
3432.000000	99.268155 
3431.000000	99.269084 
3430.000000	99.268000 
3429.000000	99.265407 
3428.000000	99.261999 
3427.000000	99.258405 
3426.000000	99.255476 
3425.000000	99.254035 
3424.000000	99.254295 
3423.000000	99.255735 
3422.000000	99.257414 
3421.000000	99.258265 
3420.000000	99.257546 
3419.000000	99.255614 
3418.000000	99.254050 
3417.000000	99.254272 
3416.000000	99.255892 
3415.000000	99.256978 
3414.000000	99.256223 
3413.000000	99.254437 
3412.000000	99.253548 
3411.000000	99.254610 
3410.000000	99.257312 
3409.000000	99.260887 
3408.000000	99.264522 
3407.000000	99.266946 
3406.000000	99.266747 
3405.000000	99.263854 
3404.000000	99.260288 
3403.000000	99.258758 
3402.000000	99.260424 
3401.000000	99.264147 
3400.000000	99.267683 
3399.000000	99.269454 
3398.000000	99.269603 
3397.000000	99.269610 
3396.000000	99.270618 
3395.000000	99.272063 
3394.000000	99.272446 
3393.000000	99.271411 
3392.000000	99.270200 
3391.000000	99.269766 
3390.000000	99.269364 
3389.000000	99.267819 
3388.000000	99.265460 
3387.000000	99.263764 
3386.000000	99.263331 
3385.000000	99.263229 
3384.000000	99.262397 
3383.000000	99.260861 
3382.000000	99.259262 
3381.000000	99.257773 
3380.000000	99.255865 
3379.000000	99.253021 
3378.000000	99.249745 
3377.000000	99.247972 
3376.000000	99.250013 
3375.000000	99.256418 
3374.000000	99.264957 
3373.000000	99.272087 
3372.000000	99.275491 
3371.000000	99.275107 
3370.000000	99.272301 
3369.000000	99.268824 
3368.000000	99.266228 
3367.000000	99.265174 
3366.000000	99.264873 
3365.000000	99.263822 
3364.000000	99.261554 
3363.000000	99.259295 
3362.000000	99.258475 
3361.000000	99.258862 
3360.000000	99.258704 
3359.000000	99.256774 
3358.000000	99.254010 
3357.000000	99.252908 
3356.000000	99.255252 
3355.000000	99.260368 
3354.000000	99.265661 
3353.000000	99.268863 
3352.000000	99.269700 
3351.000000	99.269512 
3350.000000	99.269737 
3349.000000	99.271065 
3348.000000	99.273601 
3347.000000	99.277058 
3346.000000	99.280530 
3345.000000	99.282588 
3344.000000	99.282060 
3343.000000	99.278782 
3342.000000	99.273725 
3341.000000	99.268640 
3340.000000	99.265405 
3339.000000	99.264890 
3338.000000	99.266041 
3337.000000	99.266453 
3336.000000	99.264562 
3335.000000	99.261365 
3334.000000	99.259602 
3333.000000	99.261054 
3332.000000	99.264737 
3331.000000	99.267749 
3330.000000	99.267864 
3329.000000	99.265442 
3328.000000	99.263037 
3327.000000	99.263123 
3326.000000	99.266065 
3325.000000	99.270255 
3324.000000	99.274093 
3323.000000	99.277427 
3322.000000	99.280805 
3321.000000	99.283703 
3320.000000	99.284222 
3319.000000	99.280969 
3318.000000	99.275109 
3317.000000	99.270139 
3316.000000	99.269307 
3315.000000	99.272975 
3314.000000	99.278360 
3313.000000	99.281898 
3312.000000	99.282082 
3311.000000	99.280190 
3310.000000	99.278433 
3309.000000	99.277661 
3308.000000	99.277137 
3307.000000	99.276254 
3306.000000	99.275676 
3305.000000	99.276335 
3304.000000	99.277771 
3303.000000	99.278349 
3302.000000	99.277310 
3301.000000	99.276001 
3300.000000	99.276464 
3299.000000	99.279064 
3298.000000	99.281979 
3297.000000	99.283037 
3296.000000	99.281703 
3295.000000	99.279180 
3294.000000	99.277076 
3293.000000	99.276360 
3292.000000	99.277332 
3291.000000	99.279931 
3290.000000	99.283688 
3289.000000	99.287513 
3288.000000	99.289974 
3287.000000	99.290150 
3286.000000	99.288240 
3285.000000	99.285244 
3284.000000	99.282160 
3283.000000	99.279630 
3282.000000	99.278231 
3281.000000	99.278506 
3280.000000	99.280290 
3279.000000	99.282292 
3278.000000	99.283006 
3277.000000	99.282123 
3276.000000	99.280620 
3275.000000	99.279423 
3274.000000	99.278404 
3273.000000	99.276824 
3272.000000	99.274252 
3271.000000	99.270717 
3270.000000	99.266441 
3269.000000	99.262056 
3268.000000	99.259002 
3267.000000	99.259142 
3266.000000	99.263509 
3265.000000	99.271371 
3264.000000	99.280547 
3263.000000	99.288646 
3262.000000	99.294206 
3261.000000	99.296981 
3260.000000	99.297358 
3259.000000	99.295672 
3258.000000	99.292079 
3257.000000	99.286703 
3256.000000	99.279753 
3255.000000	99.272085 
3254.000000	99.266042 
3253.000000	99.264912 
3252.000000	99.270134 
3251.000000	99.278810 
3250.000000	99.285227 
3249.000000	99.285728 
3248.000000	99.281593 
3247.000000	99.276657 
3246.000000	99.272973 
3245.000000	99.269864 
3244.000000	99.266808 
3243.000000	99.265617 
3242.000000	99.268981 
3241.000000	99.277325 
3240.000000	99.287514 
3239.000000	99.294656 
3238.000000	99.295537 
3237.000000	99.290857 
3236.000000	99.284336 
3235.000000	99.279551 
3234.000000	99.277584 
3233.000000	99.277536 
3232.000000	99.278544 
3231.000000	99.280556 
3230.000000	99.283382 
3229.000000	99.285903 
3228.000000	99.286522 
3227.000000	99.284135 
3226.000000	99.278808 
3225.000000	99.272074 
3224.000000	99.266575 
3223.000000	99.264544 
3222.000000	99.266065 
3221.000000	99.269028 
3220.000000	99.271046 
3219.000000	99.271180 
3218.000000	99.269910 
3217.000000	99.268167 
3216.000000	99.266843 
3215.000000	99.266714 
3214.000000	99.267978 
3213.000000	99.269896 
3212.000000	99.271539 
3211.000000	99.273113 
3210.000000	99.275939 
3209.000000	99.280653 
3208.000000	99.285792 
3207.000000	99.288846 
3206.000000	99.288869 
3205.000000	99.287624 
3204.000000	99.287814 
3203.000000	99.290389 
3202.000000	99.294003 
3201.000000	99.296999 
3200.000000	99.299164 
3199.000000	99.301205 
3198.000000	99.303159 
3197.000000	99.304281 
3196.000000	99.304380 
3195.000000	99.304231 
3194.000000	99.304160 
3193.000000	99.303018 
3192.000000	99.299498 
3191.000000	99.294329 
3190.000000	99.290325 
3189.000000	99.290000 
3188.000000	99.293474 
3187.000000	99.298688 
3186.000000	99.303063 
3185.000000	99.304815 
3184.000000	99.303479 
3183.000000	99.300057 
3182.000000	99.296584 
3181.000000	99.294769 
3180.000000	99.294703 
3179.000000	99.295013 
3178.000000	99.294172 
3177.000000	99.291523 
3176.000000	99.287516 
3175.000000	99.283851 
3174.000000	99.283266 
3173.000000	99.287837 
3172.000000	99.296407 
3171.000000	99.304330 
3170.000000	99.307162 
3169.000000	99.305025 
3168.000000	99.302547 
3167.000000	99.304058 
3166.000000	99.309385 
3165.000000	99.314695 
3164.000000	99.316778 
3163.000000	99.315752 
3162.000000	99.314021 
3161.000000	99.313685 
3160.000000	99.315261 
3159.000000	99.317979 
3158.000000	99.320395 
3157.000000	99.320962 
3156.000000	99.318943 
3155.000000	99.315143 
3154.000000	99.311487 
3153.000000	99.309637 
3152.000000	99.309950 
3151.000000	99.311451 
3150.000000	99.312471 
3149.000000	99.311588 
3148.000000	99.308779 
3147.000000	99.305864 
3146.000000	99.305154 
3145.000000	99.307193 
3144.000000	99.310274 
3143.000000	99.312651 
3142.000000	99.314651 
3141.000000	99.317745 
3140.000000	99.321758 
3139.000000	99.324218 
3138.000000	99.323089 
3137.000000	99.319513 
3136.000000	99.316843 
3135.000000	99.316996 
3134.000000	99.318507 
3133.000000	99.318464 
3132.000000	99.315801 
3131.000000	99.312114 
3130.000000	99.309486 
3129.000000	99.308331 
3128.000000	99.307717 
3127.000000	99.307132 
3126.000000	99.307048 
3125.000000	99.307739 
3124.000000	99.308501 
3123.000000	99.308568 
3122.000000	99.308224 
3121.000000	99.308441 
3120.000000	99.309708 
3119.000000	99.311500 
3118.000000	99.312575 
3117.000000	99.311632 
3116.000000	99.308364 
3115.000000	99.304399 
3114.000000	99.302409 
3113.000000	99.303275 
3112.000000	99.304661 
3111.000000	99.303688 
3110.000000	99.300818 
3109.000000	99.299541 
3108.000000	99.301965 
3107.000000	99.306129 
3106.000000	99.308408 
3105.000000	99.307496 
3104.000000	99.305275 
3103.000000	99.304682 
3102.000000	99.307566 
3101.000000	99.313714 
3100.000000	99.320709 
3099.000000	99.324994 
3098.000000	99.324386 
3097.000000	99.320142 
3096.000000	99.315989 
3095.000000	99.314768 
3094.000000	99.316289 
3093.000000	99.318375 
3092.000000	99.319155 
3091.000000	99.318073 
3090.000000	99.315560 
3089.000000	99.312791 
3088.000000	99.311661 
3087.000000	99.313922 
3086.000000	99.319487 
3085.000000	99.325725 
3084.000000	99.329185 
3083.000000	99.328378 
3082.000000	99.324761 
3081.000000	99.321003 
3080.000000	99.318697 
3079.000000	99.317878 
3078.000000	99.317959 
3077.000000	99.318255 
3076.000000	99.317858 
3075.000000	99.316199 
3074.000000	99.314051 
3073.000000	99.313211 
3072.000000	99.314740 
3071.000000	99.317936 
3070.000000	99.321126 
3069.000000	99.322672 
3068.000000	99.321094 
3067.000000	99.315554 
3066.000000	99.307432 
3065.000000	99.300661 
3064.000000	99.298873 
3063.000000	99.301977 
3062.000000	99.306457 
3061.000000	99.309158 
3060.000000	99.309968 
3059.000000	99.310693 
3058.000000	99.312446 
3057.000000	99.314867 
3056.000000	99.317181 
3055.000000	99.319011 
3054.000000	99.320149 
3053.000000	99.320221 
3052.000000	99.318999 
3051.000000	99.316930 
3050.000000	99.315064 
3049.000000	99.314137 
3048.000000	99.313517 
3047.000000	99.311350 
3046.000000	99.306312 
3045.000000	99.299356 
3044.000000	99.293326 
3043.000000	99.290570 
3042.000000	99.291065 
3041.000000	99.292846 
3040.000000	99.293862 
3039.000000	99.293383 
3038.000000	99.292054 
3037.000000	99.291004 
3036.000000	99.290728 
3035.000000	99.290628 
3034.000000	99.289645 
3033.000000	99.287281 
3032.000000	99.283688 
3031.000000	99.278779 
3030.000000	99.271813 
3029.000000	99.262200 
3028.000000	99.250574 
3027.000000	99.238953 
3026.000000	99.229811 
3025.000000	99.224593 
3024.000000	99.222534 
3023.000000	99.220797 
3022.000000	99.216285 
3021.000000	99.207769 
3020.000000	99.196507 
3019.000000	99.185066 
3018.000000	99.175685 
3017.000000	99.169148 
3016.000000	99.164192 
3015.000000	99.157890 
3014.000000	99.147586 
3013.000000	99.133116 
3012.000000	99.116766 
3011.000000	99.100785 
3010.000000	99.085656 
3009.000000	99.071238 
3008.000000	99.058628 
3007.000000	99.049610 
3006.000000	99.044281 
3005.000000	99.040041 
3004.000000	99.033227 
3003.000000	99.021592 
3002.000000	99.005632 
3001.000000	98.988356 
3000.000000	98.973603 
2999.000000	98.963456 
2998.000000	98.956833 
2997.000000	98.951284 
2996.000000	98.946156 
2995.000000	98.942557 
2994.000000	98.939337 
2993.000000	98.930802 
2992.000000	98.911250 
2991.000000	98.882410 
2990.000000	98.854474 
2989.000000	98.838022 
2988.000000	98.835206 
2987.000000	98.839838 
2986.000000	98.845229 
2985.000000	98.850143 
2984.000000	98.856928 
2983.000000	98.866088 
2982.000000	98.874590 
2981.000000	98.878973 
2980.000000	98.878669 
2979.000000	98.875920 
2978.000000	98.873277 
2977.000000	98.871583 
2976.000000	98.869884 
2975.000000	98.866891 
2974.000000	98.862602 
2973.000000	98.858572 
2972.000000	98.856480 
2971.000000	98.856610 
2970.000000	98.858180 
2969.000000	98.861036 
2968.000000	98.866262 
2967.000000	98.874688 
2966.000000	98.885326 
2965.000000	98.896021 
2964.000000	98.905604 
2963.000000	98.914789 
2962.000000	98.924675 
2961.000000	98.934732 
2960.000000	98.942929 
2959.000000	98.948063 
2958.000000	98.951548 
2957.000000	98.956177 
2956.000000	98.962877 
2955.000000	98.969288 
2954.000000	98.972300 
2953.000000	98.972097 
2952.000000	98.972947 
2951.000000	98.979372 
2950.000000	98.991494 
2949.000000	99.004449 
2948.000000	99.012517 
2947.000000	99.013785 
2946.000000	99.010998 
2945.000000	99.008451 
2944.000000	99.008553 
2943.000000	99.010997 
2942.000000	99.013986 
2941.000000	99.015498 
2940.000000	99.014011 
2939.000000	99.009380 
2938.000000	99.003334 
2937.000000	98.998447 
2936.000000	98.996261 
2935.000000	98.996703 
2934.000000	98.999060 
2933.000000	99.002512 
2932.000000	99.005530 
2931.000000	99.006011 
2930.000000	99.002897 
2929.000000	98.997179 
2928.000000	98.990808 
2927.000000	98.985300 
2926.000000	98.981824 
2925.000000	98.981382 
2924.000000	98.983622 
2923.000000	98.986203 
2922.000000	98.986767 
2921.000000	98.985368 
2920.000000	98.983825 
2919.000000	98.983026 
2918.000000	98.982072 
2917.000000	98.979946 
2916.000000	98.976775 
2915.000000	98.973434 
2914.000000	98.971013 
2913.000000	98.970668 
2912.000000	98.972675 
2911.000000	98.975272 
2910.000000	98.975686 
2909.000000	98.972979 
2908.000000	98.969056 
2907.000000	98.966182 
2906.000000	98.964168 
2905.000000	98.960616 
2904.000000	98.953495 
2903.000000	98.943353 
2902.000000	98.933707 
2901.000000	98.929553 
2900.000000	98.934195 
2899.000000	98.946413 
2898.000000	98.960855 
2897.000000	98.972028 
2896.000000	98.978198 
2895.000000	98.981514 
2894.000000	98.985037 
2893.000000	98.989999 
2892.000000	98.995343 
2891.000000	98.999110 
2890.000000	99.000345 
2889.000000	99.000054 
2888.000000	99.000250 
2887.000000	99.001979 
2886.000000	99.004647 
2885.000000	99.007352 
2884.000000	99.010240 
2883.000000	99.014223 
2882.000000	99.019953 
2881.000000	99.027597 
2880.000000	99.037169 
2879.000000	99.048450 
2878.000000	99.060675 
2877.000000	99.072581 
2876.000000	99.082575 
2875.000000	99.088920 
2874.000000	99.090648 
2873.000000	99.088987 
2872.000000	99.087348 
2871.000000	99.088981 
2870.000000	99.094517 
2869.000000	99.102021 
2868.000000	99.109252 
2867.000000	99.115688 
2866.000000	99.122792 
2865.000000	99.132594 
2864.000000	99.145407 
2863.000000	99.158492 
2862.000000	99.167687 
2861.000000	99.171237 
2860.000000	99.171805 
2859.000000	99.174016 
2858.000000	99.180189 
2857.000000	99.188975 
2856.000000	99.197563 
2855.000000	99.204271 
2854.000000	99.209148 
2853.000000	99.213112 
2852.000000	99.217063 
2851.000000	99.221587 
2850.000000	99.227149 
2849.000000	99.234244 
2848.000000	99.242885 
2847.000000	99.251872 
2846.000000	99.259145 
2845.000000	99.263342 
2844.000000	99.264792 
2843.000000	99.264916 
2842.000000	99.265260 
2841.000000	99.267207 
2840.000000	99.271544 
2839.000000	99.277387 
2838.000000	99.282204 
2837.000000	99.283976 
2836.000000	99.283167 
2835.000000	99.282030 
2834.000000	99.282447 
2833.000000	99.285106 
2832.000000	99.289855 
2831.000000	99.295495 
2830.000000	99.299622 
2829.000000	99.300350 
2828.000000	99.298542 
2827.000000	99.297113 
2826.000000	99.297737 
2825.000000	99.299278 
2824.000000	99.299954 
2823.000000	99.299945 
2822.000000	99.300928 
2821.000000	99.303660 
2820.000000	99.307032 
2819.000000	99.309483 
2818.000000	99.310715 
2817.000000	99.311731 
2816.000000	99.313396 
2815.000000	99.315216 
2814.000000	99.315809 
2813.000000	99.314642 
2812.000000	99.312865 
2811.000000	99.312000 
2810.000000	99.312164 
2809.000000	99.312270 
2808.000000	99.311839 
2807.000000	99.311780 
2806.000000	99.313186 
2805.000000	99.315995 
2804.000000	99.319149 
2803.000000	99.321678 
2802.000000	99.323374 
2801.000000	99.324721 
2800.000000	99.326325 
2799.000000	99.328175 
2798.000000	99.329445 
2797.000000	99.329312 
2796.000000	99.327888 
2795.000000	99.326007 
2794.000000	99.324301 
2793.000000	99.322980 
2792.000000	99.322306 
2791.000000	99.322558 
2790.000000	99.323526 
2789.000000	99.324760 
2788.000000	99.326357 
2787.000000	99.328794 
2786.000000	99.331876 
2785.000000	99.334686 
2784.000000	99.336746 
2783.000000	99.338377 
2782.000000	99.339580 
2781.000000	99.339502 
2780.000000	99.337673 
2779.000000	99.335096 
2778.000000	99.333393 
2777.000000	99.333220 
2776.000000	99.333953 
2775.000000	99.334477 
2774.000000	99.333857 
2773.000000	99.331835 
2772.000000	99.329331 
2771.000000	99.328072 
2770.000000	99.329142 
2769.000000	99.332141 
2768.000000	99.336116 
2767.000000	99.340646 
2766.000000	99.345343 
2765.000000	99.348978 
2764.000000	99.350239 
2763.000000	99.349266 
2762.000000	99.347599 
2761.000000	99.346685 
2760.000000	99.347118 
2759.000000	99.348987 
2758.000000	99.351915 
2757.000000	99.354718 
2756.000000	99.356146 
2755.000000	99.356220 
2754.000000	99.355936 
2753.000000	99.355385 
2752.000000	99.353308 
2751.000000	99.349145 
2750.000000	99.344499 
2749.000000	99.341501 
2748.000000	99.340265 
2747.000000	99.339094 
2746.000000	99.336972 
2745.000000	99.334797 
2744.000000	99.334038 
2743.000000	99.335111 
2742.000000	99.337417 
2741.000000	99.340225 
2740.000000	99.342947 
2739.000000	99.345011 
2738.000000	99.346107 
2737.000000	99.346566 
2736.000000	99.347072 
2735.000000	99.347929 
2734.000000	99.348768 
2733.000000	99.348992 
2732.000000	99.348379 
2731.000000	99.347292 
2730.000000	99.346463 
2729.000000	99.346631 
2728.000000	99.348189 
2727.000000	99.350874 
2726.000000	99.353664 
2725.000000	99.355189 
2724.000000	99.354716 
2723.000000	99.352888 
2722.000000	99.351237 
2721.000000	99.350788 
2720.000000	99.351352 
2719.000000	99.352271 
2718.000000	99.353296 
2717.000000	99.354320 
2716.000000	99.354935 
2715.000000	99.355169 
2714.000000	99.356215 
2713.000000	99.359088 
2712.000000	99.362478 
2711.000000	99.363506 
2710.000000	99.361391 
2709.000000	99.359063 
2708.000000	99.359848 
2707.000000	99.363330 
2706.000000	99.365990 
2705.000000	99.365562 
2704.000000	99.363205 
2703.000000	99.361201 
2702.000000	99.360107 
2701.000000	99.358909 
2700.000000	99.356985 
2699.000000	99.354888 
2698.000000	99.353475 
2697.000000	99.353015 
2696.000000	99.353225 
2695.000000	99.353959 
2694.000000	99.355670 
2693.000000	99.358786 
2692.000000	99.362284 
2691.000000	99.363555 
2690.000000	99.360877 
2689.000000	99.356105 
2688.000000	99.353610 
2687.000000	99.355901 
2686.000000	99.361069 
2685.000000	99.365124 
2684.000000	99.366090 
2683.000000	99.365086 
2682.000000	99.364108 
2681.000000	99.363914 
2680.000000	99.363976 
2679.000000	99.363572 
2678.000000	99.362648 
2677.000000	99.361932 
2676.000000	99.362220 
2675.000000	99.363399 
2674.000000	99.364475 
2673.000000	99.364848 
2672.000000	99.365096 
2671.000000	99.365871 
2670.000000	99.366327 
2669.000000	99.364513 
2668.000000	99.359652 
2667.000000	99.353632 
2666.000000	99.349861 
2665.000000	99.350576 
2664.000000	99.355108 
2663.000000	99.360620 
2662.000000	99.364483 
2661.000000	99.365940 
2660.000000	99.365550 
2659.000000	99.363612 
2658.000000	99.360029 
2657.000000	99.355752 
2656.000000	99.353256 
2655.000000	99.354565 
2654.000000	99.358857 
2653.000000	99.362554 
2652.000000	99.362120 
2651.000000	99.357009 
2650.000000	99.350299 
2649.000000	99.346319 
2648.000000	99.347096 
2647.000000	99.350958 
2646.000000	99.354927 
2645.000000	99.358061 
2644.000000	99.361415 
2643.000000	99.365085 
2642.000000	99.367207 
2641.000000	99.366679 
2640.000000	99.365258 
2639.000000	99.365569 
2638.000000	99.367959 
2637.000000	99.370548 
2636.000000	99.371502 
2635.000000	99.370082 
2634.000000	99.366414 
2633.000000	99.361809 
2632.000000	99.358635 
2631.000000	99.358203 
2630.000000	99.359074 
2629.000000	99.358836 
2628.000000	99.357177 
2627.000000	99.355831 
2626.000000	99.355995 
2625.000000	99.357352 
2624.000000	99.359156 
2623.000000	99.360505 
2622.000000	99.359970 
2621.000000	99.356999 
2620.000000	99.353523 
2619.000000	99.351994 
2618.000000	99.351807 
2617.000000	99.350094 
2616.000000	99.346522 
2615.000000	99.344656 
2614.000000	99.347239 
2613.000000	99.352251 
2612.000000	99.355408 
2611.000000	99.355209 
2610.000000	99.353862 
2609.000000	99.354150 
2608.000000	99.356952 
2607.000000	99.361388 
2606.000000	99.366115 
2605.000000	99.370379 
2604.000000	99.374182 
2603.000000	99.377316 
2602.000000	99.378637 
2601.000000	99.377409 
2600.000000	99.375191 
2599.000000	99.374808 
2598.000000	99.377136 
2597.000000	99.380352 
2596.000000	99.382482 
2595.000000	99.382651 
2594.000000	99.379522 
2593.000000	99.371397 
2592.000000	99.359745 
2591.000000	99.350499 
2590.000000	99.349295 
2589.000000	99.356130 
2588.000000	99.366129 
2587.000000	99.374171 
2586.000000	99.377036 
2585.000000	99.372994 
2584.000000	99.362790 
2583.000000	99.351085 
2582.000000	99.343998 
2581.000000	99.343907 
2580.000000	99.347774 
2579.000000	99.350902 
2578.000000	99.351206 
2577.000000	99.349770 
2576.000000	99.348763 
2575.000000	99.349523 
2574.000000	99.351801 
2573.000000	99.354170 
2572.000000	99.355319 
2571.000000	99.354934 
2570.000000	99.353294 
2569.000000	99.350919 
2568.000000	99.349373 
2567.000000	99.351249 
2566.000000	99.357622 
2565.000000	99.365771 
2564.000000	99.371058 
2563.000000	99.371292 
2562.000000	99.368184 
2561.000000	99.364784 
2560.000000	99.363027 
2559.000000	99.363562 
2558.000000	99.365832 
2557.000000	99.367502 
2556.000000	99.365766 
2555.000000	99.360831 
2554.000000	99.356989 
2553.000000	99.358506 
2552.000000	99.364754 
2551.000000	99.370821 
2550.000000	99.372848 
2549.000000	99.371396 
2548.000000	99.369227 
2547.000000	99.367211 
2546.000000	99.363871 
2545.000000	99.358707 
2544.000000	99.354414 
2543.000000	99.354700 
2542.000000	99.360186 
2541.000000	99.367470 
2540.000000	99.372548 
2539.000000	99.374300 
2538.000000	99.373847 
2537.000000	99.371227 
2536.000000	99.364499 
2535.000000	99.353039 
2534.000000	99.340722 
2533.000000	99.334030 
2532.000000	99.336209 
2531.000000	99.344013 
2530.000000	99.351086 
2529.000000	99.354309 
2528.000000	99.355966 
2527.000000	99.359781 
2526.000000	99.366306 
2525.000000	99.373115 
2524.000000	99.378439 
2523.000000	99.382863 
2522.000000	99.387325 
2521.000000	99.390956 
2520.000000	99.391787 
2519.000000	99.388987 
2518.000000	99.383695 
2517.000000	99.377819 
2516.000000	99.372482 
2515.000000	99.367730 
2514.000000	99.363591 
2513.000000	99.360986 
2512.000000	99.360776 
2511.000000	99.361765 
2510.000000	99.361011 
2509.000000	99.357533 
2508.000000	99.354845 
2507.000000	99.357522 
2506.000000	99.364891 
2505.000000	99.370185 
2504.000000	99.367268 
2503.000000	99.356993 
2502.000000	99.345823 
2501.000000	99.339483 
2500.000000	99.339490 
2499.000000	99.344797 
2498.000000	99.354197 
2497.000000	99.366264 
2496.000000	99.378306 
2495.000000	99.386589 
2494.000000	99.387749 
2493.000000	99.380244 
2492.000000	99.365412 
2491.000000	99.347661 
2490.000000	99.333052 
2489.000000	99.326273 
2488.000000	99.327748 
2487.000000	99.333468 
2486.000000	99.338457 
2485.000000	99.341307 
2484.000000	99.345041 
2483.000000	99.352765 
2482.000000	99.362882 
2481.000000	99.370013 
2480.000000	99.370806 
2479.000000	99.367203 
2478.000000	99.363274 
2477.000000	99.360515 
2476.000000	99.357825 
2475.000000	99.354974 
2474.000000	99.353824 
2473.000000	99.355936 
2472.000000	99.360611 
2471.000000	99.365831 
2470.000000	99.369937 
2469.000000	99.371760 
2468.000000	99.370176 
2467.000000	99.364952 
2466.000000	99.358078 
2465.000000	99.353268 
2464.000000	99.353129 
2463.000000	99.356544 
2462.000000	99.359265 
2461.000000	99.357743 
2460.000000	99.352495 
2459.000000	99.347464 
2458.000000	99.346249 
2457.000000	99.349463 
2456.000000	99.355325 
2455.000000	99.361320 
2454.000000	99.364774 
2453.000000	99.363386 
2452.000000	99.356989 
2451.000000	99.348569 
2450.000000	99.342187 
2449.000000	99.339668 
2448.000000	99.339962 
2447.000000	99.341597 
2446.000000	99.344669 
2445.000000	99.350128 
2444.000000	99.357877 
2443.000000	99.366077 
2442.000000	99.372052 
2441.000000	99.373885 
2440.000000	99.371651 
2439.000000	99.367347 
2438.000000	99.363423 
2437.000000	99.361171 
2436.000000	99.360212 
2435.000000	99.358872 
2434.000000	99.354984 
2433.000000	99.347490 
2432.000000	99.338368 
2431.000000	99.332146 
2430.000000	99.331945 
2429.000000	99.336140 
2428.000000	99.340515 
2427.000000	99.343688 
2426.000000	99.348194 
2425.000000	99.355243 
2424.000000	99.360703 
2423.000000	99.358899 
2422.000000	99.349737 
2421.000000	99.339645 
2420.000000	99.334982 
2419.000000	99.336410 
2418.000000	99.340369 
2417.000000	99.344014 
2416.000000	99.346929 
2415.000000	99.349206 
2414.000000	99.350328 
2413.000000	99.350325 
2412.000000	99.350235 
2411.000000	99.350490 
2410.000000	99.349916 
2409.000000	99.347519 
2408.000000	99.344745 
2407.000000	99.344756 
2406.000000	99.349247 
2405.000000	99.356576 
2404.000000	99.363152 
2403.000000	99.366201 
2402.000000	99.365067 
2401.000000	99.360594 
2400.000000	99.354124 
2399.000000	99.347266 
2398.000000	99.342019 
2397.000000	99.340179 
2396.000000	99.342116 
2395.000000	99.346334 
2394.000000	99.350598 
2393.000000	99.353455 
2392.000000	99.354590 
2391.000000	99.354383 
2390.000000	99.353886 
2389.000000	99.354834 
2388.000000	99.358373 
2387.000000	99.363448 
2386.000000	99.367453 
2385.000000	99.368931 
2384.000000	99.368896 
2383.000000	99.369108 
2382.000000	99.370112 
2381.000000	99.371549 
2380.000000	99.373112 
2379.000000	99.373972 
2378.000000	99.372410 
2377.000000	99.368049 
2376.000000	99.363931 
2375.000000	99.364236 
2374.000000	99.369606 
2373.000000	99.376606 
2372.000000	99.382650 
2371.000000	99.389303 
2370.000000	99.398963 
2369.000000	99.409537 
2368.000000	99.414498 
2367.000000	99.408635 
2366.000000	99.393551 
2365.000000	99.377855 
2364.000000	99.371123 
2363.000000	99.375713 
2362.000000	99.385494 
2361.000000	99.392199 
2360.000000	99.392065 
2359.000000	99.388413 
2358.000000	99.386882 
2357.000000	99.390649 
2356.000000	99.399072 
2355.000000	99.408165 
2354.000000	99.414209 
2353.000000	99.414613 
2352.000000	99.410741 
2351.000000	99.405990 
2350.000000	99.401242 
2349.000000	99.396034 
2348.000000	99.390721 
2347.000000	99.388783 
2346.000000	99.391167 
2345.000000	99.393381 
2344.000000	99.391566 
2343.000000	99.386540 
2342.000000	99.383766 
2341.000000	99.384579 
2340.000000	99.386221 
2339.000000	99.386370 
2338.000000	99.386213 
2337.000000	99.387659 
2336.000000	99.389842 
2335.000000	99.391316 
2334.000000	99.392595 
2333.000000	99.394515 
2332.000000	99.394462 
2331.000000	99.388941 
2330.000000	99.376856 
2329.000000	99.364351 
2328.000000	99.357322 
2327.000000	99.359014 
2326.000000	99.365244 
2325.000000	99.368841 
2324.000000	99.365467 
2323.000000	99.357676 
2322.000000	99.353556 
2321.000000	99.357667 
2320.000000	99.367344 
2319.000000	99.375977 
2318.000000	99.379511 
2317.000000	99.379023 
2316.000000	99.376824 
2315.000000	99.374611 
2314.000000	99.371590 
2313.000000	99.367792 
2312.000000	99.363873 
2311.000000	99.362966 
2310.000000	99.367059 
2309.000000	99.375611 
2308.000000	99.383394 
2307.000000	99.385122 
2306.000000	99.379498 
2305.000000	99.371253 
2304.000000	99.365741 
2303.000000	99.364137 
2302.000000	99.363003 
2301.000000	99.359956 
2300.000000	99.355596 
2299.000000	99.351575 
2298.000000	99.347362 
2297.000000	99.343411 
2296.000000	99.342861 
2295.000000	99.348675 
2294.000000	99.357406 
2293.000000	99.361483 
2292.000000	99.357383 
2291.000000	99.349842 
2290.000000	99.345556 
2289.000000	99.345704 
2288.000000	99.346514 
2287.000000	99.345080 
2286.000000	99.341853 
2285.000000	99.338281 
2284.000000	99.335259 
2283.000000	99.333266 
2282.000000	99.331754 
2281.000000	99.328044 
2280.000000	99.319947 
2279.000000	99.310071 
2278.000000	99.305340 
2277.000000	99.310357 
2276.000000	99.322476 
2275.000000	99.334735 
2274.000000	99.342109 
2273.000000	99.343499 
2272.000000	99.338819 
2271.000000	99.327630 
2270.000000	99.311891 
2269.000000	99.298303 
2268.000000	99.295031 
2267.000000	99.305082 
2266.000000	99.323285 
2265.000000	99.340241 
2264.000000	99.349197 
2263.000000	99.349856 
2262.000000	99.346992 
2261.000000	99.346029 
2260.000000	99.348561 
2259.000000	99.350649 
2258.000000	99.346546 
2257.000000	99.335326 
2256.000000	99.322899 
2255.000000	99.315347 
2254.000000	99.311500 
2253.000000	99.305375 
2252.000000	99.295917 
2251.000000	99.290565 
2250.000000	99.297134 
2249.000000	99.314787 
2248.000000	99.335013 
2247.000000	99.349717 
2246.000000	99.355740 
2245.000000	99.353185 
2244.000000	99.343249 
2243.000000	99.328722 
2242.000000	99.314400 
2241.000000	99.304986 
2240.000000	99.302167 
2239.000000	99.303693 
2238.000000	99.305008 
2237.000000	99.302021 
2236.000000	99.293404 
2235.000000	99.281103 
2234.000000	99.269113 
2233.000000	99.261616 
2232.000000	99.261362 
2231.000000	99.268770 
2230.000000	99.282187 
2229.000000	99.298901 
2228.000000	99.315606 
2227.000000	99.327966 
2226.000000	99.331417 
2225.000000	99.324413 
2224.000000	99.310713 
2223.000000	99.296983 
2222.000000	99.288262 
2221.000000	99.286310 
2220.000000	99.290603 
2219.000000	99.298663 
2218.000000	99.306480 
2217.000000	99.311808 
2216.000000	99.317204 
2215.000000	99.326697 
2214.000000	99.338744 
2213.000000	99.345474 
2212.000000	99.340824 
2211.000000	99.327855 
2210.000000	99.316604 
2209.000000	99.315275 
2208.000000	99.323286 
2207.000000	99.331639 
2206.000000	99.330373 
2205.000000	99.317301 
2204.000000	99.299456 
2203.000000	99.285124 
2202.000000	99.276339 
2201.000000	99.270667 
2200.000000	99.266788 
2199.000000	99.263922 
2198.000000	99.258494 
2197.000000	99.248278 
2196.000000	99.239692 
2195.000000	99.243842 
2194.000000	99.263063 
2193.000000	99.286684 
2192.000000	99.302339 
2191.000000	99.306517 
2190.000000	99.302076 
2189.000000	99.292223 
2188.000000	99.281226 
2187.000000	99.275512 
2186.000000	99.278584 
2185.000000	99.287695 
2184.000000	99.298935 
2183.000000	99.311632 
2182.000000	99.323994 
2181.000000	99.329834 
2180.000000	99.325675 
2179.000000	99.316870 
2178.000000	99.310410 
2177.000000	99.304838 
2176.000000	99.293557 
2175.000000	99.276487 
2174.000000	99.262057 
2173.000000	99.257254 
2172.000000	99.260378 
2171.000000	99.264493 
2170.000000	99.264918 
2169.000000	99.262994 
2168.000000	99.264207 
2167.000000	99.271869 
2166.000000	99.281757 
2165.000000	99.285410 
2164.000000	99.280449 
2163.000000	99.274191 
2162.000000	99.274681 
2161.000000	99.282138 
2160.000000	99.292061 
2159.000000	99.302188 
2158.000000	99.311879 
2157.000000	99.319244 
2156.000000	99.324044 
2155.000000	99.328760 
2154.000000	99.332696 
2153.000000	99.330201 
2152.000000	99.319312 
2151.000000	99.308018 
2150.000000	99.307221 
2149.000000	99.319931 
2148.000000	99.340169 
2147.000000	99.358683 
2146.000000	99.366365 
2145.000000	99.357653 
2144.000000	99.336782 
2143.000000	99.317058 
2142.000000	99.308506 
2141.000000	99.308729 
2140.000000	99.309858 
2139.000000	99.310188 
2138.000000	99.312461 
2137.000000	99.314396 
2136.000000	99.310044 
2135.000000	99.300752 
2134.000000	99.296927 
2133.000000	99.306011 
2132.000000	99.323003 
2131.000000	99.334863 
2130.000000	99.331680 
2129.000000	99.313904 
2128.000000	99.291893 
2127.000000	99.278011 
2126.000000	99.276634 
2125.000000	99.282117 
2124.000000	99.288085 
2123.000000	99.296022 
2122.000000	99.310490 
2121.000000	99.328221 
2120.000000	99.338665 
2119.000000	99.336380 
2118.000000	99.327533 
2117.000000	99.322039 
2116.000000	99.323182 
2115.000000	99.327374 
2114.000000	99.330749 
2113.000000	99.332452 
2112.000000	99.332719 
2111.000000	99.330712 
2110.000000	99.325168 
2109.000000	99.316828 
2108.000000	99.309584 
2107.000000	99.307298 
2106.000000	99.308011 
2105.000000	99.303421 
2104.000000	99.287677 
2103.000000	99.266104 
2102.000000	99.251525 
2101.000000	99.251575 
2100.000000	99.262571 
2099.000000	99.275796 
2098.000000	99.285838 
2097.000000	99.291778 
2096.000000	99.294294 
2095.000000	99.293928 
2094.000000	99.290017 
2093.000000	99.280561 
2092.000000	99.265755 
2091.000000	99.251803 
2090.000000	99.247152 
2089.000000	99.252994 
2088.000000	99.261004 
2087.000000	99.263335 
2086.000000	99.261752 
2085.000000	99.263756 
2084.000000	99.272153 
2083.000000	99.282292 
2082.000000	99.288665 
2081.000000	99.290475 
2080.000000	99.290499 
2079.000000	99.291336 
2078.000000	99.294305 
2077.000000	99.300611 
2076.000000	99.311659 
2075.000000	99.327355 
2074.000000	99.343877 
2073.000000	99.354540 
2072.000000	99.354683 
2071.000000	99.345718 
2070.000000	99.333373 
2069.000000	99.322415 
2068.000000	99.314470 
2067.000000	99.309972 
2066.000000	99.309123 
2065.000000	99.310169 
2064.000000	99.309827 
2063.000000	99.307359 
2062.000000	99.306120 
2061.000000	99.309535 
2060.000000	99.317121 
2059.000000	99.325694 
2058.000000	99.332490 
2057.000000	99.335484 
2056.000000	99.332641 
2055.000000	99.323510 
2054.000000	99.311097 
2053.000000	99.300378 
2052.000000	99.294863 
2051.000000	99.295319 
2050.000000	99.300600 
2049.000000	99.307529 
2048.000000	99.310820 
2047.000000	99.306223 
2046.000000	99.294777 
2045.000000	99.282645 
2044.000000	99.275887 
2043.000000	99.275672 
2042.000000	99.278683 
2041.000000	99.281352 
2040.000000	99.283229 
2039.000000	99.286332 
2038.000000	99.291900 
2037.000000	99.298601 
2036.000000	99.303731 
2035.000000	99.305033 
2034.000000	99.301104 
2033.000000	99.291831 
2032.000000	99.279757 
2031.000000	99.269559 
2030.000000	99.264548 
2029.000000	99.264141 
2028.000000	99.265291 
2027.000000	99.265926 
2026.000000	99.266557 
2025.000000	99.269830 
2024.000000	99.278220 
2023.000000	99.289188 
2022.000000	99.292775 
2021.000000	99.278964 
2020.000000	99.251047 
2019.000000	99.227179 
2018.000000	99.223576 
2017.000000	99.237334 
2016.000000	99.250905 
2015.000000	99.253002 
2014.000000	99.247758 
2013.000000	99.243900 
2012.000000	99.243219 
2011.000000	99.242890 
2010.000000	99.243990 
2009.000000	99.252156 
2008.000000	99.270039 
2007.000000	99.292127 
2006.000000	99.307861 
2005.000000	99.310051 
2004.000000	99.300968 
2003.000000	99.289831 
2002.000000	99.284424 
2001.000000	99.284813 
2000.000000	99.285212 
1999.000000	99.280403 
1998.000000	99.269945 
1997.000000	99.259116 
1996.000000	99.256541 
1995.000000	99.268247 
1994.000000	99.291022 
1993.000000	99.312056 
1992.000000	99.318342 
1991.000000	99.307885 
1990.000000	99.289754 
1989.000000	99.275116 
1988.000000	99.270815 
1987.000000	99.277586 
1986.000000	99.289578 
1985.000000	99.297589 
1984.000000	99.297499 
1983.000000	99.294502 
1982.000000	99.295089 
1981.000000	99.296201 
1980.000000	99.288695 
1979.000000	99.271749 
1978.000000	99.257105 
1977.000000	99.255172 
1976.000000	99.261131 
1975.000000	99.261722 
1974.000000	99.253224 
1973.000000	99.247021 
1972.000000	99.256989 
1971.000000	99.283893 
1970.000000	99.312937 
1969.000000	99.326131 
1968.000000	99.317814 
1967.000000	99.298835 
1966.000000	99.285152 
1965.000000	99.283766 
1964.000000	99.290624 
1963.000000	99.298083 
1962.000000	99.300247 
1961.000000	99.294260 
1960.000000	99.282261 
1959.000000	99.271969 
1958.000000	99.271034 
1957.000000	99.279164 
1956.000000	99.288113 
1955.000000	99.290337 
1954.000000	99.285537 
1953.000000	99.278728 
1952.000000	99.273997 
1951.000000	99.271951 
1950.000000	99.271739 
1949.000000	99.272876 
1948.000000	99.275646 
1947.000000	99.279419 
1946.000000	99.280136 
1945.000000	99.271513 
1944.000000	99.251855 
1943.000000	99.229716 
1942.000000	99.218523 
1941.000000	99.222834 
1940.000000	99.234153 
1939.000000	99.242106 
1938.000000	99.245397 
1937.000000	99.250217 
1936.000000	99.260302 
1935.000000	99.271444 
1934.000000	99.276839 
1933.000000	99.276351 
1932.000000	99.277622 
1931.000000	99.287796 
1930.000000	99.305139 
1929.000000	99.319561 
1928.000000	99.323253 
1927.000000	99.317533 
1926.000000	99.309204 
1925.000000	99.302434 
1924.000000	99.296631 
1923.000000	99.292211 
1922.000000	99.292351 
1921.000000	99.297805 
1920.000000	99.303291 
1919.000000	99.301677 
1918.000000	99.291203 
1917.000000	99.277723 
1916.000000	99.268753 
1915.000000	99.266645 
1914.000000	99.269088 
1913.000000	99.273733 
1912.000000	99.279450 
1911.000000	99.284518 
1910.000000	99.285452 
1909.000000	99.280387 
1908.000000	99.274246 
1907.000000	99.275009 
1906.000000	99.284804 
1905.000000	99.296633 
1904.000000	99.301258 
1903.000000	99.297388 
1902.000000	99.290879 
1901.000000	99.287017 
1900.000000	99.287127 
1899.000000	99.290287 
1898.000000	99.295250 
1897.000000	99.300201 
1896.000000	99.302656 
1895.000000	99.301652 
1894.000000	99.298337 
1893.000000	99.294877 
1892.000000	99.293424 
1891.000000	99.294848 
1890.000000	99.296847 
1889.000000	99.295362 
1888.000000	99.290451 
1887.000000	99.287029 
1886.000000	99.287979 
1885.000000	99.290632 
1884.000000	99.291378 
1883.000000	99.291438 
1882.000000	99.294273 
1881.000000	99.299513 
1880.000000	99.304410 
1879.000000	99.308628 
1878.000000	99.313906 
1877.000000	99.320055 
1876.000000	99.323912 
1875.000000	99.323180 
1874.000000	99.318679 
1873.000000	99.312305 
1872.000000	99.305763 
1871.000000	99.301014 
1870.000000	99.298734 
1869.000000	99.296014 
1868.000000	99.290689 
1867.000000	99.287436 
1866.000000	99.291478 
1865.000000	99.299441 
1864.000000	99.301965 
1863.000000	99.293924 
1862.000000	99.279827 
1861.000000	99.269054 
1860.000000	99.268006 
1859.000000	99.276978 
1858.000000	99.291158 
1857.000000	99.303270 
1856.000000	99.308542 
1855.000000	99.308588 
1854.000000	99.308323 
1853.000000	99.308806 
1852.000000	99.307760 
1851.000000	99.304777 
1850.000000	99.302649 
1849.000000	99.304589 
1848.000000	99.310031 
1847.000000	99.315500 
1846.000000	99.317619 
1845.000000	99.315433 
1844.000000	99.310985 
1843.000000	99.308864 
1842.000000	99.311723 
1841.000000	99.316348 
1840.000000	99.318358 
1839.000000	99.316355 
1838.000000	99.312029 
1837.000000	99.307413 
1836.000000	99.303139 
1835.000000	99.300274 
1834.000000	99.300029 
1833.000000	99.301844 
1832.000000	99.303630 
1831.000000	99.303121 
1830.000000	99.299874 
1829.000000	99.296728 
1828.000000	99.296223 
1827.000000	99.297208 
1826.000000	99.297752 
1825.000000	99.298327 
1824.000000	99.299646 
1823.000000	99.300541 
1822.000000	99.298616 
1821.000000	99.293621 
1820.000000	99.289702 
1819.000000	99.292145 
1818.000000	99.301924 
1817.000000	99.312691 
1816.000000	99.316642 
1815.000000	99.314526 
1814.000000	99.313733 
1813.000000	99.318933 
1812.000000	99.326913 
1811.000000	99.331834 
1810.000000	99.333384 
1809.000000	99.333585 
1808.000000	99.331581 
1807.000000	99.326123 
1806.000000	99.319195 
1805.000000	99.314369 
1804.000000	99.313214 
1803.000000	99.315011 
1802.000000	99.316714 
1801.000000	99.314555 
1800.000000	99.307469 
1799.000000	99.299410 
1798.000000	99.296627 
1797.000000	99.300301 
1796.000000	99.306359 
1795.000000	99.310852 
1794.000000	99.312894 
1793.000000	99.313315 
1792.000000	99.312235 
1791.000000	99.310772 
1790.000000	99.311609 
1789.000000	99.314001 
1788.000000	99.315478 
1787.000000	99.316090 
1786.000000	99.318306 
1785.000000	99.322413 
1784.000000	99.325245 
1783.000000	99.324969 
1782.000000	99.321514 
1781.000000	99.316250 
1780.000000	99.310968 
1779.000000	99.306493 
1778.000000	99.304375 
1777.000000	99.305043 
1776.000000	99.307796 
1775.000000	99.309916 
1774.000000	99.308534 
1773.000000	99.304894 
1772.000000	99.303432 
1771.000000	99.306253 
1770.000000	99.311367 
1769.000000	99.314639 
1768.000000	99.313668 
1767.000000	99.309759 
1766.000000	99.306342 
1765.000000	99.305607 
1764.000000	99.306753 
1763.000000	99.307953 
1762.000000	99.308287 
1761.000000	99.309049 
1760.000000	99.311022 
1759.000000	99.312355 
1758.000000	99.312437 
1757.000000	99.313419 
1756.000000	99.318035 
1755.000000	99.323987 
1754.000000	99.326492 
1753.000000	99.324815 
1752.000000	99.323000 
1751.000000	99.322500 
1750.000000	99.320544 
1749.000000	99.316331 
1748.000000	99.313009 
1747.000000	99.313523 
1746.000000	99.315582 
1745.000000	99.316455 
1744.000000	99.315827 
1743.000000	99.314154 
1742.000000	99.311953 
1741.000000	99.309618 
1740.000000	99.307852 
1739.000000	99.308625 
1738.000000	99.313730 
1737.000000	99.320497 
1736.000000	99.324631 
1735.000000	99.325182 
1734.000000	99.321587 
1733.000000	99.315537 
1732.000000	99.313116 
1731.000000	99.312682 
1730.000000	99.310790 
1729.000000	99.307438 
1728.000000	99.305086 
1727.000000	99.305321 
1726.000000	99.306876 
1725.000000	99.308510 
1724.000000	99.308819 
1723.000000	99.307383 
1722.000000	99.306308 
1721.000000	99.306293 
1720.000000	99.306298 
1719.000000	99.306412 
1718.000000	99.308399 
1717.000000	99.310719 
1716.000000	99.310551 
1715.000000	99.309562 
1714.000000	99.310463 
1713.000000	99.312332 
1712.000000	99.312403 
1711.000000	99.311388 
1710.000000	99.311850 
1709.000000	99.313666 
1708.000000	99.314528 
1707.000000	99.313113 
1706.000000	99.310741 
1705.000000	99.308571 
1704.000000	99.306765 
1703.000000	99.305511 
1702.000000	99.305520 
1701.000000	99.307914 
1700.000000	99.307220 
1699.000000	99.303869 
1698.000000	99.306863 
1697.000000	99.312440 
1696.000000	99.313609 
1695.000000	99.309023 
1694.000000	99.305428 
1693.000000	99.305106 
1692.000000	99.304295 
1691.000000	99.303090 
1690.000000	99.303746 
1689.000000	99.305771 
1688.000000	99.307778 
1687.000000	99.307924 
1686.000000	99.307337 
1685.000000	99.309452 
1684.000000	99.310541 
1683.000000	99.308899 
1682.000000	99.308823 
1681.000000	99.307178 
1680.000000	99.304509 
1679.000000	99.303276 
1678.000000	99.302654 
1677.000000	99.300769 
1676.000000	99.298568 
1675.000000	99.297714 
1674.000000	99.298216 
1673.000000	99.300932 
1672.000000	99.305242 
1671.000000	99.309836 
1670.000000	99.312503 
1669.000000	99.310231 
1668.000000	99.306463 
1667.000000	99.304941 
1666.000000	99.304098 
1665.000000	99.301753 
1664.000000	99.298047 
1663.000000	99.295495 
1662.000000	99.295237 
1661.000000	99.296542 
1660.000000	99.299446 
1659.000000	99.302830 
1658.000000	99.304806 
1657.000000	99.304425 
1656.000000	99.301794 
1655.000000	99.297268 
1654.000000	99.294809 
1653.000000	99.292362 
1652.000000	99.287855 
1651.000000	99.292369 
1650.000000	99.298488 
1649.000000	99.300293 
1648.000000	99.300173 
1647.000000	99.299971 
1646.000000	99.298967 
1645.000000	99.299871 
1644.000000	99.303435 
1643.000000	99.307570 
1642.000000	99.309559 
1641.000000	99.307783 
1640.000000	99.303917 
1639.000000	99.300361 
1638.000000	99.298928 
1637.000000	99.300714 
1636.000000	99.305086 
1635.000000	99.307936 
1634.000000	99.308737 
1633.000000	99.308626 
1632.000000	99.305212 
1631.000000	99.299362 
1630.000000	99.293536 
1629.000000	99.289544 
1628.000000	99.288487 
1627.000000	99.291143 
1626.000000	99.295631 
1625.000000	99.298633 
1624.000000	99.299114 
1623.000000	99.298738 
1622.000000	99.299456 
1621.000000	99.301417 
1620.000000	99.303364 
1619.000000	99.303798 
1618.000000	99.303270 
1617.000000	99.302816 
1616.000000	99.303866 
1615.000000	99.308430 
1614.000000	99.314398 
1613.000000	99.318365 
1612.000000	99.321193 
1611.000000	99.325104 
1610.000000	99.328253 
1609.000000	99.327478 
1608.000000	99.324096 
1607.000000	99.322016 
1606.000000	99.321514 
1605.000000	99.320577 
1604.000000	99.319674 
1603.000000	99.319777 
1602.000000	99.320857 
1601.000000	99.322718 
1600.000000	99.325674 
1599.000000	99.328919 
1598.000000	99.330342 
1597.000000	99.329525 
1596.000000	99.328550 
1595.000000	99.329200 
1594.000000	99.330692 
1593.000000	99.331534 
1592.000000	99.332257 
1591.000000	99.334187 
1590.000000	99.336846 
1589.000000	99.338797 
1588.000000	99.340075 
1587.000000	99.341510 
1586.000000	99.342541 
1585.000000	99.341715 
1584.000000	99.340657 
1583.000000	99.341747 
1582.000000	99.343441 
1581.000000	99.343166 
1580.000000	99.340868 
1579.000000	99.336879 
1578.000000	99.330198 
1577.000000	99.322045 
1576.000000	99.316247 
1575.000000	99.316841 
1574.000000	99.322952 
1573.000000	99.329248 
1572.000000	99.333353 
1571.000000	99.336492 
1570.000000	99.338468 
1569.000000	99.337246 
1568.000000	99.335591 
1567.000000	99.335059 
1566.000000	99.333162 
1565.000000	99.329522 
1564.000000	99.327170 
1563.000000	99.327347 
1562.000000	99.326816 
1561.000000	99.323217 
1560.000000	99.323003 
1559.000000	99.326243 
1558.000000	99.324982 
1557.000000	99.327800 
1556.000000	99.332271 
1555.000000	99.333480 
1554.000000	99.330490 
1553.000000	99.326055 
1552.000000	99.322994 
1551.000000	99.321073 
1550.000000	99.320848 
1549.000000	99.323045 
1548.000000	99.326700 
1547.000000	99.328872 
1546.000000	99.326089 
1545.000000	99.318906 
1544.000000	99.312266 
1543.000000	99.311146 
1542.000000	99.317307 
1541.000000	99.328495 
1540.000000	99.336177 
1539.000000	99.336066 
1538.000000	99.335045 
1537.000000	99.336080 
1536.000000	99.336566 
1535.000000	99.336269 
1534.000000	99.334433 
1533.000000	99.329554 
1532.000000	99.323991 
1531.000000	99.320570 
1530.000000	99.319126 
1529.000000	99.317843 
1528.000000	99.315797 
1527.000000	99.314825 
1526.000000	99.316861 
1525.000000	99.321323 
1524.000000	99.326127 
1523.000000	99.330369 
1522.000000	99.334635 
1521.000000	99.336617 
1520.000000	99.334257 
1519.000000	99.328301 
1518.000000	99.319476 
1517.000000	99.311071 
1516.000000	99.306599 
1515.000000	99.306637 
1514.000000	99.308855 
1513.000000	99.311478 
1512.000000	99.313326 
1511.000000	99.312522 
1510.000000	99.308637 
1509.000000	99.303247 
1508.000000	99.301270 
1507.000000	99.305258 
1506.000000	99.309519 
1505.000000	99.310770 
1504.000000	99.311299 
1503.000000	99.311754 
1502.000000	99.312204 
1501.000000	99.312543 
1500.000000	99.311794 
1499.000000	99.309377 
1498.000000	99.306233 
1497.000000	99.303198 
1496.000000	99.298912 
1495.000000	99.295668 
1494.000000	99.297801 
1493.000000	99.304723 
1492.000000	99.312665 
1491.000000	99.318515 
1490.000000	99.321010 
1489.000000	99.319786 
1488.000000	99.314557 
1487.000000	99.307389 
1486.000000	99.301678 
1485.000000	99.296633 
1484.000000	99.291340 
1483.000000	99.287022 
1482.000000	99.285587 
1481.000000	99.287099 
1480.000000	99.288339 
1479.000000	99.287069 
1478.000000	99.283874 
1477.000000	99.280881 
1476.000000	99.279067 
1475.000000	99.279730 
1474.000000	99.283526 
1473.000000	99.288189 
1472.000000	99.289613 
1471.000000	99.287386 
1470.000000	99.285014 
1469.000000	99.283638 
1468.000000	99.282509 
1467.000000	99.281592 
1466.000000	99.281554 
1465.000000	99.282437 
1464.000000	99.284025 
1463.000000	99.285225 
1462.000000	99.285173 
1461.000000	99.283622 
1460.000000	99.281265 
1459.000000	99.278760 
1458.000000	99.274939 
1457.000000	99.266090 
1456.000000	99.252999 
1455.000000	99.243365 
1454.000000	99.239323 
1453.000000	99.240073 
1452.000000	99.245181 
1451.000000	99.252548 
1450.000000	99.259634 
1449.000000	99.264439 
1448.000000	99.265069 
1447.000000	99.261959 
1446.000000	99.257645 
1445.000000	99.255285 
1444.000000	99.256665 
1443.000000	99.259822 
1442.000000	99.262592 
1441.000000	99.264488 
1440.000000	99.266316 
1439.000000	99.268179 
1438.000000	99.271161 
1437.000000	99.275685 
1436.000000	99.277876 
1435.000000	99.274891 
1434.000000	99.268707 
1433.000000	99.262506 
1432.000000	99.258340 
1431.000000	99.256559 
1430.000000	99.256472 
1429.000000	99.257717 
1428.000000	99.258778 
1427.000000	99.258109 
1426.000000	99.254528 
1425.000000	99.249250 
1424.000000	99.245178 
1423.000000	99.241758 
1422.000000	99.236018 
1421.000000	99.225994 
1420.000000	99.213231 
1419.000000	99.201055 
1418.000000	99.192699 
1417.000000	99.188283 
1416.000000	99.182804 
1415.000000	99.172206 
1414.000000	99.157209 
1413.000000	99.142143 
1412.000000	99.130855 
1411.000000	99.123268 
1410.000000	99.117141 
1409.000000	99.111437 
1408.000000	99.106664 
1407.000000	99.104811 
1406.000000	99.107244 
1405.000000	99.113651 
1404.000000	99.122960 
1403.000000	99.133416 
1402.000000	99.144185 
1401.000000	99.155150 
1400.000000	99.165559 
1399.000000	99.172296 
1398.000000	99.170668 
1397.000000	99.156641 
1396.000000	99.129989 
1395.000000	99.100796 
1394.000000	99.086866 
1393.000000	99.097873 
1392.000000	99.125922 
1391.000000	99.155014 
1390.000000	99.174498 
1389.000000	99.182451 
1388.000000	99.181587 
1387.000000	99.175246 
1386.000000	99.167029 
1385.000000	99.160327 
1384.000000	99.156448 
1383.000000	99.153967 
1382.000000	99.151440 
1381.000000	99.149502 
1380.000000	99.150315 
1379.000000	99.155297 
1378.000000	99.163197 
1377.000000	99.171079 
1376.000000	99.176924 
1375.000000	99.181336 
1374.000000	99.186769 
1373.000000	99.195443 
1372.000000	99.206911 
1371.000000	99.218393 
1370.000000	99.226920 
1369.000000	99.231532 
1368.000000	99.234037 
1367.000000	99.236699 
1366.000000	99.240700 
1365.000000	99.246050 
1364.000000	99.252069 
1363.000000	99.257526 
1362.000000	99.261374 
1361.000000	99.263594 
1360.000000	99.265051 
1359.000000	99.267105 
1358.000000	99.271114 
1357.000000	99.277340 
1356.000000	99.284099 
1355.000000	99.288830 
1354.000000	99.291027 
1353.000000	99.292829 
1352.000000	99.295819 
1351.000000	99.299483 
1350.000000	99.302385 
1349.000000	99.304375 
1348.000000	99.306533 
1347.000000	99.308629 
1346.000000	99.309417 
1345.000000	99.308529 
1344.000000	99.306898 
1343.000000	99.305201 
1342.000000	99.303717 
1341.000000	99.303477 
1340.000000	99.305883 
1339.000000	99.310463 
1338.000000	99.314917 
1337.000000	99.317931 
1336.000000	99.319895 
1335.000000	99.320869 
1334.000000	99.320040 
1333.000000	99.317582 
1332.000000	99.315388 
1331.000000	99.314970 
1330.000000	99.315656 
1329.000000	99.315914 
1328.000000	99.315483 
1327.000000	99.315158 
1326.000000	99.315056 
1325.000000	99.314596 
1324.000000	99.313764 
1323.000000	99.313029 
1322.000000	99.312685 
1321.000000	99.312927 
1320.000000	99.314405 
1319.000000	99.317696 
1318.000000	99.322122 
1317.000000	99.325549 
1316.000000	99.325843 
1315.000000	99.322655 
1314.000000	99.317853 
1313.000000	99.314006 
1312.000000	99.312172 
1311.000000	99.311587 
1310.000000	99.311492 
1309.000000	99.312260 
1308.000000	99.314024 
1307.000000	99.315323 
1306.000000	99.314295 
1305.000000	99.311164 
1304.000000	99.308262 
1303.000000	99.307301 
1302.000000	99.307861 
1301.000000	99.308580 
1300.000000	99.308912 
1299.000000	99.309212 
1298.000000	99.309978 
1297.000000	99.311381 
1296.000000	99.313079 
1295.000000	99.314092 
1294.000000	99.313243 
1293.000000	99.310074 
1292.000000	99.305199 
1291.000000	99.300077 
1290.000000	99.296677 
1289.000000	99.296610 
1288.000000	99.299518 
1287.000000	99.302527 
1286.000000	99.302502 
1285.000000	99.299048 
1284.000000	99.294267 
1283.000000	99.289588 
1282.000000	99.284125 
1281.000000	99.276633 
1280.000000	99.267982 
1279.000000	99.260634 
1278.000000	99.256241 
1277.000000	99.254660 
1276.000000	99.254794 
1275.000000	99.255292 
1274.000000	99.254546 
1273.000000	99.251253 
1272.000000	99.245495 
1271.000000	99.238785 
1270.000000	99.232606 
1269.000000	99.227087 
1268.000000	99.221255 
1267.000000	99.214220 
1266.000000	99.206011 
1265.000000	99.197575 
1264.000000	99.190136 
1263.000000	99.184359 
1262.000000	99.179847 
1261.000000	99.175510 
1260.000000	99.170631 
1259.000000	99.165421 
1258.000000	99.160506 
1257.000000	99.156261 
1256.000000	99.152904 
1255.000000	99.150813 
1254.000000	99.150004 
1253.000000	99.149410 
1252.000000	99.147630 
1251.000000	99.144949 
1250.000000	99.143896 
1249.000000	99.146953 
1248.000000	99.153839 
1247.000000	99.161310 
1246.000000	99.165074 
1245.000000	99.161589 
1244.000000	99.149664 
1243.000000	99.132775 
1242.000000	99.119268 
1241.000000	99.116910 
1240.000000	99.125596 
1239.000000	99.136956 
1238.000000	99.142500 
1237.000000	99.140953 
1236.000000	99.136485 
1235.000000	99.132083 
1234.000000	99.127325 
1233.000000	99.121375 
1232.000000	99.114721 
1231.000000	99.107594 
1230.000000	99.099552 
1229.000000	99.091732 
1228.000000	99.087353 
1227.000000	99.088353 
1226.000000	99.092629 
1225.000000	99.095947 
1224.000000	99.095890 
1223.000000	99.092936 
1222.000000	99.088641 
1221.000000	99.084263 
1220.000000	99.080867 
1219.000000	99.079264 
1218.000000	99.079158 
1217.000000	99.078897 
1216.000000	99.076541 
1215.000000	99.071195 
1214.000000	99.063325 
1213.000000	99.053952 
1212.000000	99.043801 
1211.000000	99.033485 
1210.000000	99.024242 
1209.000000	99.017571 
1208.000000	99.013530 
1207.000000	99.009898 
1206.000000	99.003991 
1205.000000	98.995268 
1204.000000	98.985481 
1203.000000	98.976454 
1202.000000	98.968540 
1201.000000	98.961108 
1200.000000	98.953491 
1199.000000	98.945213 
1198.000000	98.936189 
1197.000000	98.926956 
1196.000000	98.917759 
1195.000000	98.907303 
1194.000000	98.893709 
1193.000000	98.877292 
1192.000000	98.861114 
1191.000000	98.847751 
1190.000000	98.836461 
1189.000000	98.824676 
1188.000000	98.811487 
1187.000000	98.798238 
1186.000000	98.786244 
1185.000000	98.775425 
1184.000000	98.765049 
1183.000000	98.754429 
1182.000000	98.742846 
1181.000000	98.730001 
1180.000000	98.716711 
1179.000000	98.704071 
1178.000000	98.691892 
1177.000000	98.679115 
1176.000000	98.665599 
1175.000000	98.651915 
1174.000000	98.637181 
1173.000000	98.619164 
1172.000000	98.597629 
1171.000000	98.575981 
1170.000000	98.557982 
1169.000000	98.543715 
1168.000000	98.530360 
1167.000000	98.516420 
1166.000000	98.503791 
1165.000000	98.495929 
1164.000000	98.495158 
1163.000000	98.501518 
1162.000000	98.512868 
1161.000000	98.525831 
1160.000000	98.537460 
1159.000000	98.546194 
1158.000000	98.550821 
1157.000000	98.548972 
1156.000000	98.538163 
1155.000000	98.519194 
1154.000000	98.497575 
1153.000000	98.480072 
1152.000000	98.469351 
1151.000000	98.462144 
1150.000000	98.452551 
1149.000000	98.437141 
1148.000000	98.417264 
1147.000000	98.396999 
1146.000000	98.379012 
1145.000000	98.362303 
1144.000000	98.343978 
1143.000000	98.323050 
1142.000000	98.302082 
1141.000000	98.284920 
1140.000000	98.273106 
1139.000000	98.264637 
1138.000000	98.255756 
1137.000000	98.243653 
1136.000000	98.227853 
1135.000000	98.209754 
1134.000000	98.190920 
1133.000000	98.171343 
1132.000000	98.149511 
1131.000000	98.124988 
1130.000000	98.100844 
1129.000000	98.081991 
1128.000000	98.069845 
1127.000000	98.059341 
1126.000000	98.042985 
1125.000000	98.018263 
1124.000000	97.989869 
1123.000000	97.964318 
1122.000000	97.943618 
1121.000000	97.924898 
1120.000000	97.904894 
1119.000000	97.883253 
1118.000000	97.861933 
1117.000000	97.842853 
1116.000000	97.826242 
1115.000000	97.810405 
1114.000000	97.793084 
1113.000000	97.773736 
1112.000000	97.754134 
1111.000000	97.735828 
1110.000000	97.717400 
1109.000000	97.695799 
1108.000000	97.670592 
1107.000000	97.645486 
1106.000000	97.624621 
1105.000000	97.607990 
1104.000000	97.591658 
1103.000000	97.572442 
1102.000000	97.551505 
1101.000000	97.532906 
1100.000000	97.519006 
1099.000000	97.508258 
1098.000000	97.497683 
1097.000000	97.486314 
1096.000000	97.474963 
1095.000000	97.463157 
1094.000000	97.448172 
1093.000000	97.427306 
1092.000000	97.399619 
1091.000000	97.365512 
1090.000000	97.326846 
1089.000000	97.288042 
1088.000000	97.254473 
1087.000000	97.227804 
1086.000000	97.204439 
1085.000000	97.180299 
1084.000000	97.155419 
1083.000000	97.131784 
1082.000000	97.108554 
1081.000000	97.082627 
1080.000000	97.053215 
1079.000000	97.022975 
1078.000000	96.994955 
1077.000000	96.970988 
1076.000000	96.952755 
1075.000000	96.941478 
1074.000000	96.936107 
1073.000000	96.933638 
1072.000000	96.930359 
1071.000000	96.920269 
1070.000000	96.894221 
1069.000000	96.846329 
1068.000000	96.783232 
1067.000000	96.723514 
1066.000000	96.684389 
1065.000000	96.669263 
1064.000000	96.668596 
1063.000000	96.669111 
1062.000000	96.659673 
1061.000000	96.632489 
1060.000000	96.585540 
1059.000000	96.526312 
1058.000000	96.469717 
1057.000000	96.428121 
1056.000000	96.402529 
1055.000000	96.384103 
1054.000000	96.363804 
1053.000000	96.339507 
1052.000000	96.314078 
1051.000000	96.289206 
1050.000000	96.263693 
1049.000000	96.236579 
1048.000000	96.208401 
1047.000000	96.179528 
1046.000000	96.150495 
1045.000000	96.123894 
1044.000000	96.102365 
1043.000000	96.084208 
1042.000000	96.064578 
1041.000000	96.042270 
1040.000000	96.021865 
1039.000000	96.007748 
1038.000000	95.999879 
1037.000000	95.997332 
1036.000000	96.001415 
1035.000000	96.011932 
1034.000000	96.024358 
1033.000000	96.034385 
1032.000000	96.041364 
1031.000000	96.043858 
1030.000000	96.037400 
1029.000000	96.023019 
1028.000000	96.013786 
1027.000000	96.024175 
1026.000000	96.053002 
1025.000000	96.083606 
1024.000000	96.101228 
1023.000000	96.104720 
1022.000000	96.101858 
1021.000000	96.099873 
1020.000000	96.102225 
1019.000000	96.109034 
1018.000000	96.117296 
1017.000000	96.123334 
1016.000000	96.126775 
1015.000000	96.130193 
1014.000000	96.134759 
1013.000000	96.139044 
1012.000000	96.142137 
1011.000000	96.144819 
1010.000000	96.147493 
1009.000000	96.150172 
1008.000000	96.154818 
1007.000000	96.164431 
1006.000000	96.179098 
1005.000000	96.195743 
1004.000000	96.212267 
1003.000000	96.229302 
1002.000000	96.247580 
1001.000000	96.266267 
1000.000000	96.284372 
999.000000	 96.301422 
998.000000	 96.316564 
997.000000	 96.329476 
996.000000	 96.342393 
995.000000	 96.358802 
994.000000	 96.379553 
993.000000	 96.402114 
992.000000	 96.423675 
991.000000	 96.443055 
990.000000	 96.459912 
989.000000	 96.474499 
988.000000	 96.488543 
987.000000	 96.504599 
986.000000	 96.524343 
985.000000	 96.548506 
984.000000	 96.577439 
983.000000	 96.609917 
982.000000	 96.642475 
981.000000	 96.672197 
980.000000	 96.699538 
979.000000	 96.726874 
978.000000	 96.755806 
977.000000	 96.787774 
976.000000	 96.824838 
975.000000	 96.866399 
974.000000	 96.906870 
973.000000	 96.940918 
972.000000	 96.970477 
971.000000	 97.002757 
970.000000	 97.041254 
969.000000	 97.082252 
968.000000	 97.120465 
967.000000	 97.154722 
966.000000	 97.187246 
965.000000	 97.220136 
964.000000	 97.253767 
963.000000	 97.286938 
962.000000	 97.317861 
961.000000	 97.346132 
960.000000	 97.373432 
959.000000	 97.400923 
958.000000	 97.426858 
957.000000	 97.448852 
956.000000	 97.467691 
955.000000	 97.486417 
954.000000	 97.506234 
953.000000	 97.526063 
952.000000	 97.545817 
951.000000	 97.566799 
950.000000	 97.588276 
949.000000	 97.606539 
948.000000	 97.618621 
947.000000	 97.625053 
946.000000	 97.628134 
945.000000	 97.629424 
944.000000	 97.630132 
943.000000	 97.632527 
942.000000	 97.639344 
941.000000	 97.651622 
940.000000	 97.667017 
939.000000	 97.680146 
938.000000	 97.686134 
937.000000	 97.685579 
936.000000	 97.685186 
935.000000	 97.691514 
934.000000	 97.704414 
933.000000	 97.718446 
932.000000	 97.730056 
931.000000	 97.740751 
930.000000	 97.753009 
929.000000	 97.765452 
928.000000	 97.773118 
927.000000	 97.771726 
926.000000	 97.761946 
925.000000	 97.750554 
924.000000	 97.746622 
923.000000	 97.754486 
922.000000	 97.770089 
921.000000	 97.785252 
920.000000	 97.794819 
919.000000	 97.798381 
918.000000	 97.797003 
917.000000	 97.791622 
916.000000	 97.784389 
915.000000	 97.778335 
914.000000	 97.774613 
913.000000	 97.771997 
912.000000	 97.769730 
911.000000	 97.769398 
910.000000	 97.773946 
909.000000	 97.786257 
908.000000	 97.807854 
907.000000	 97.836508 
906.000000	 97.865521 
905.000000	 97.888382 
904.000000	 97.904614 
903.000000	 97.919229 
902.000000	 97.936853 
901.000000	 97.958534 
900.000000	 97.983447 
899.000000	 98.010162 
898.000000	 98.035517 
897.000000	 98.055333 
896.000000	 98.067835 
895.000000	 98.075334 
894.000000	 98.082533 
893.000000	 98.094229 
892.000000	 98.113267 
891.000000	 98.137579 
890.000000	 98.159667 
889.000000	 98.172816 
888.000000	 98.178720 
887.000000	 98.186291 
886.000000	 98.202237 
885.000000	 98.225213 
884.000000	 98.249264 
883.000000	 98.269206 
882.000000	 98.281889 
881.000000	 98.286896 
880.000000	 98.289065 
879.000000	 98.297097 
878.000000	 98.315729 
877.000000	 98.340556 
876.000000	 98.363082 
875.000000	 98.379067 
874.000000	 98.389727 
873.000000	 98.397252 
872.000000	 98.402819 
871.000000	 98.408145 
870.000000	 98.415761 
869.000000	 98.427594 
868.000000	 98.444557 
867.000000	 98.466097 
866.000000	 98.488584 
865.000000	 98.506787 
864.000000	 98.520271 
863.000000	 98.536168 
862.000000	 98.560580 
861.000000	 98.587709 
860.000000	 98.603395 
859.000000	 98.601449 
858.000000	 98.591773 
857.000000	 98.589031 
856.000000	 98.597514 
855.000000	 98.611355 
854.000000	 98.625374 
853.000000	 98.638967 
852.000000	 98.650796 
851.000000	 98.657403 
850.000000	 98.659331 
849.000000	 98.662876 
848.000000	 98.672282 
847.000000	 98.683935 
846.000000	 98.691378 
845.000000	 98.692873 
844.000000	 98.690940 
843.000000	 98.687790 
842.000000	 98.685122 
841.000000	 98.685361 
840.000000	 98.688060 
839.000000	 98.686926 
838.000000	 98.676084 
837.000000	 98.658922 
836.000000	 98.645373 
835.000000	 98.639868 
834.000000	 98.637385 
833.000000	 98.633236 
832.000000	 98.631150 
831.000000	 98.637193 
830.000000	 98.649186 
829.000000	 98.657891 
828.000000	 98.658161 
827.000000	 98.654009 
826.000000	 98.651462 
825.000000	 98.650440 
824.000000	 98.646829 
823.000000	 98.640708 
822.000000	 98.638507 
821.000000	 98.645802 
820.000000	 98.660174 
819.000000	 98.673310 
818.000000	 98.679784 
817.000000	 98.681539 
816.000000	 98.682235 
815.000000	 98.679334 
814.000000	 98.665682 
813.000000	 98.639149 
812.000000	 98.606509 
811.000000	 98.575253 
810.000000	 98.543873 
809.000000	 98.503241 
808.000000	 98.446699 
807.000000	 98.376347 
806.000000	 98.299861 
805.000000	 98.223797 
804.000000	 98.151226 
803.000000	 98.084189 
802.000000	 98.026055 
801.000000	 97.980576 
800.000000	 97.948982 
799.000000	 97.929067 
798.000000	 97.918181 
797.000000	 97.916407 
796.000000	 97.924581 
795.000000	 97.939395 
794.000000	 97.954057 
793.000000	 97.965308 
792.000000	 97.976665 
791.000000	 97.992567 
790.000000	 98.011897 
789.000000	 98.029240 
788.000000	 98.039449 
787.000000	 98.038181 
786.000000	 98.021151 
785.000000	 97.987392 
784.000000	 97.942945 
783.000000	 97.898535 
782.000000	 97.863232 
781.000000	 97.840692 
780.000000	 97.829182 
779.000000	 97.823024 
778.000000	 97.816634 
777.000000	 97.810835 
776.000000	 97.813769 
775.000000	 97.832217 
774.000000	 97.863070 
773.000000	 97.896362 
772.000000	 97.925336 
771.000000	 97.950362 
770.000000	 97.974464 
769.000000	 97.998492 
768.000000	 98.020085 
767.000000	 98.034935 
766.000000	 98.040378 
765.000000	 98.040245 
764.000000	 98.044082 
763.000000	 98.057767 
762.000000	 98.075690 
761.000000	 98.085783 
760.000000	 98.082317 
759.000000	 98.071448 
758.000000	 98.065061 
757.000000	 98.071126 
756.000000	 98.087983 
755.000000	 98.104549 
754.000000	 98.107956 
753.000000	 98.095688 
752.000000	 98.080191 
751.000000	 98.078340 
750.000000	 98.095876 
749.000000	 98.123792 
748.000000	 98.148472 
747.000000	 98.162389 
746.000000	 98.166747 
745.000000	 98.168015 
744.000000	 98.172344 
743.000000	 98.181234 
742.000000	 98.192859 
741.000000	 98.208403 
740.000000	 98.233716 
739.000000	 98.271131 
738.000000	 98.312189 
737.000000	 98.342879 
736.000000	 98.354809 
735.000000	 98.348759 
734.000000	 98.331116 
733.000000	 98.312027 
732.000000	 98.304098 
731.000000	 98.314925 
730.000000	 98.339213 
729.000000	 98.363039 
728.000000	 98.377207 
727.000000	 98.382601 
726.000000	 98.383342 
725.000000	 98.381141 
724.000000	 98.376739 
723.000000	 98.370845 
722.000000	 98.362636 
721.000000	 98.352892 
720.000000	 98.349494 
719.000000	 98.362572 
718.000000	 98.391232 
717.000000	 98.421074 
716.000000	 98.437076 
715.000000	 98.434998 
714.000000	 98.420699 
713.000000	 98.404598 
712.000000	 98.398413 
711.000000	 98.409366 
710.000000	 98.431972 
709.000000	 98.449894 
708.000000	 98.450805 
707.000000	 98.436457 
706.000000	 98.414792 
705.000000	 98.388500 
704.000000	 98.357704 
703.000000	 98.328382 
702.000000	 98.309468 
701.000000	 98.301378 
700.000000	 98.292994 
699.000000	 98.272280 
698.000000	 98.237470 
697.000000	 98.198375 
696.000000	 98.168779 
695.000000	 98.156140 
694.000000	 98.157636 
693.000000	 98.165408 
692.000000	 98.174522 
691.000000	 98.185125 
690.000000	 98.198240 
689.000000	 98.214569 
688.000000	 98.236949 
687.000000	 98.266865 
686.000000	 98.297179 
685.000000	 98.314271 
684.000000	 98.311376 
683.000000	 98.297150 
682.000000	 98.287723 
681.000000	 98.292162 
680.000000	 98.305788 
679.000000	 98.315677 
678.000000	 98.311800 
677.000000	 98.296564 
676.000000	 98.287498 
675.000000	 98.301996 
674.000000	 98.335624 
673.000000	 98.362906 
672.000000	 98.365603 
671.000000	 98.355985 
670.000000	 98.365561 
669.000000	 98.416478 
668.000000	 98.476684 
667.000000	 98.492358 
666.000000	 98.465767 
665.000000	 98.425609 
664.000000	 98.394125 
663.000000	 98.389055 
662.000000	 98.408682 
661.000000	 98.428187 
660.000000	 98.423934 
659.000000	 98.397045 
658.000000	 98.363498 
657.000000	 98.331677 
656.000000	 98.303365 
655.000000	 98.285268 
654.000000	 98.282183 
653.000000	 98.287286 
652.000000	 98.292867 
651.000000	 98.300845 
650.000000	 98.311435 

