4000.000000	99.152357 
3999.000000	99.150960 
3998.000000	99.151011 
3997.000000	99.153149 
3996.000000	99.156027 
3995.000000	99.157590 
3994.000000	99.157305 
3993.000000	99.156573 
3992.000000	99.156629 
3991.000000	99.156630 
3990.000000	99.154554 
3989.000000	99.149757 
3988.000000	99.143992 
3987.000000	99.139888 
3986.000000	99.138928 
3985.000000	99.140834 
3984.000000	99.144310 
3983.000000	99.148320 
3982.000000	99.152923 
3981.000000	99.158858 
3980.000000	99.166094 
3979.000000	99.172964 
3978.000000	99.177131 
3977.000000	99.177385 
3976.000000	99.174252 
3975.000000	99.168915 
3974.000000	99.162167 
3973.000000	99.154722 
3972.000000	99.148140 
3971.000000	99.144673 
3970.000000	99.145988 
3969.000000	99.151851 
3968.000000	99.159769 
3967.000000	99.166167 
3966.000000	99.168472 
3965.000000	99.166753 
3964.000000	99.163348 
3963.000000	99.160997 
3962.000000	99.160992 
3961.000000	99.162570 
3960.000000	99.163679 
3959.000000	99.162412 
3958.000000	99.158627 
3957.000000	99.154419 
3956.000000	99.152212 
3955.000000	99.152284 
3954.000000	99.152624 
3953.000000	99.151570 
3952.000000	99.149582 
3951.000000	99.148227 
3950.000000	99.148009 
3949.000000	99.147558 
3948.000000	99.145261 
3947.000000	99.141557 
3946.000000	99.139153 
3945.000000	99.140298 
3944.000000	99.143994 
3943.000000	99.146597 
3942.000000	99.145795 
3941.000000	99.143421 
3940.000000	99.142853 
3939.000000	99.144173 
3938.000000	99.144218 
3937.000000	99.140928 
3936.000000	99.135687 
3935.000000	99.131709 
3934.000000	99.131054 
3933.000000	99.133884 
3932.000000	99.138947 
3931.000000	99.144032 
3930.000000	99.147060 
3929.000000	99.147098 
3928.000000	99.145096 
3927.000000	99.142862 
3926.000000	99.140820 
3925.000000	99.137772 
3924.000000	99.133490 
3923.000000	99.130063 
3922.000000	99.128792 
3921.000000	99.128379 
3920.000000	99.128224 
3919.000000	99.130322 
3918.000000	99.135576 
3917.000000	99.141286 
3916.000000	99.144693 
3915.000000	99.147013 
3914.000000	99.150871 
3913.000000	99.155709 
3912.000000	99.158519 
3911.000000	99.157420 
3910.000000	99.152516 
3909.000000	99.145147 
3908.000000	99.136700 
3907.000000	99.129065 
3906.000000	99.123435 
3905.000000	99.119129 
3904.000000	99.114015 
3903.000000	99.108652 
3902.000000	99.107613 
3901.000000	99.113097 
3900.000000	99.120364 
3899.000000	99.122992 
3898.000000	99.120229 
3897.000000	99.115628 
3896.000000	99.111127 
3895.000000	99.107106 
3894.000000	99.106796 
3893.000000	99.113999 
3892.000000	99.124882 
3891.000000	99.129112 
3890.000000	99.124119 
3889.000000	99.120169 
3888.000000	99.124307 
3887.000000	99.132435 
3886.000000	99.135377 
3885.000000	99.128090 
3884.000000	99.118081 
3883.000000	99.117535 
3882.000000	99.126615 
3881.000000	99.135684 
3880.000000	99.135998 
3879.000000	99.127532 
3878.000000	99.119959 
3877.000000	99.120068 
3876.000000	99.124327 
3875.000000	99.124845 
3874.000000	99.116680 
3873.000000	99.104662 
3872.000000	99.099062 
3871.000000	99.100878 
3870.000000	99.099545 
3869.000000	99.089952 
3868.000000	99.084272 
3867.000000	99.093432 
3866.000000	99.108860 
3865.000000	99.118191 
3864.000000	99.120748 
3863.000000	99.122388 
3862.000000	99.125837 
3861.000000	99.127970 
3860.000000	99.124434 
3859.000000	99.113243 
3858.000000	99.093701 
3857.000000	99.069958 
3856.000000	99.053202 
3855.000000	99.057047 
3854.000000	99.076583 
3853.000000	99.083319 
3852.000000	99.073725 
3851.000000	99.079476 
3850.000000	99.104882 
3849.000000	99.127080 
3848.000000	99.136226 
3847.000000	99.136433 
3846.000000	99.132582 
3845.000000	99.126330 
3844.000000	99.118116 
3843.000000	99.108249 
3842.000000	99.098464 
3841.000000	99.092762 
3840.000000	99.093858 
3839.000000	99.100259 
3838.000000	99.105985 
3837.000000	99.106516 
3836.000000	99.103693 
3835.000000	99.102977 
3834.000000	99.106550 
3833.000000	99.112782 
3832.000000	99.118474 
3831.000000	99.121739 
3830.000000	99.124353 
3829.000000	99.129021 
3828.000000	99.134270 
3827.000000	99.134182 
3826.000000	99.124573 
3825.000000	99.110455 
3824.000000	99.102714 
3823.000000	99.107084 
3822.000000	99.117164 
3821.000000	99.117235 
3820.000000	99.103318 
3819.000000	99.095406 
3818.000000	99.105355 
3817.000000	99.120914 
3816.000000	99.127050 
3815.000000	99.121997 
3814.000000	99.119442 
3813.000000	99.127053 
3812.000000	99.133382 
3811.000000	99.128759 
3810.000000	99.119709 
3809.000000	99.118112 
3808.000000	99.125622 
3807.000000	99.129936 
3806.000000	99.121840 
3805.000000	99.110884 
3804.000000	99.110011 
3803.000000	99.117646 
3802.000000	99.122531 
3801.000000	99.113477 
3800.000000	99.096739 
3799.000000	99.092904 
3798.000000	99.103756 
3797.000000	99.114718 
3796.000000	99.118039 
3795.000000	99.117142 
3794.000000	99.119612 
3793.000000	99.127337 
3792.000000	99.136169 
3791.000000	99.142080 
3790.000000	99.143796 
3789.000000	99.141927 
3788.000000	99.139597 
3787.000000	99.141136 
3786.000000	99.147807 
3785.000000	99.155380 
3784.000000	99.158986 
3783.000000	99.158906 
3782.000000	99.158710 
3781.000000	99.158953 
3780.000000	99.156222 
3779.000000	99.148076 
3778.000000	99.138252 
3777.000000	99.134172 
3776.000000	99.137085 
3775.000000	99.140987 
3774.000000	99.141466 
3773.000000	99.140858 
3772.000000	99.142923 
3771.000000	99.145841 
3770.000000	99.143531 
3769.000000	99.135451 
3768.000000	99.129745 
3767.000000	99.131934 
3766.000000	99.136547 
3765.000000	99.135505 
3764.000000	99.129336 
3763.000000	99.125981 
3762.000000	99.129404 
3761.000000	99.135610 
3760.000000	99.139661 
3759.000000	99.139842 
3758.000000	99.136028 
3757.000000	99.128881 
3756.000000	99.120192 
3755.000000	99.112836 
3754.000000	99.108180 
3753.000000	99.106678 
3752.000000	99.108469 
3751.000000	99.108339 
3750.000000	99.096469 
3749.000000	99.072778 
3748.000000	99.050848 
3747.000000	99.043109 
3746.000000	99.051889 
3745.000000	99.068746 
3744.000000	99.075008 
3743.000000	99.069875 
3742.000000	99.076816 
3741.000000	99.094076 
3740.000000	99.100108 
3739.000000	99.092962 
3738.000000	99.084487 
3737.000000	99.082093 
3736.000000	99.084265 
3735.000000	99.089457 
3734.000000	99.099875 
3733.000000	99.113933 
3732.000000	99.123966 
3731.000000	99.126837 
3730.000000	99.128117 
3729.000000	99.131802 
3728.000000	99.135469 
3727.000000	99.136428 
3726.000000	99.135925 
3725.000000	99.137341 
3724.000000	99.141466 
3723.000000	99.144308 
3722.000000	99.143031 
3721.000000	99.139912 
3720.000000	99.138949 
3719.000000	99.139939 
3718.000000	99.137621 
3717.000000	99.127590 
3716.000000	99.111347 
3715.000000	99.094443 
3714.000000	99.080656 
3713.000000	99.070773 
3712.000000	99.063542 
3711.000000	99.057781 
3710.000000	99.056153 
3709.000000	99.061876 
3708.000000	99.071401 
3707.000000	99.076933 
3706.000000	99.074164 
3705.000000	99.065269 
3704.000000	99.055683 
3703.000000	99.049393 
3702.000000	99.045659 
3701.000000	99.040968 
3700.000000	99.035378 
3699.000000	99.032027 
3698.000000	99.029978 
3697.000000	99.024057 
3696.000000	99.012055 
3695.000000	98.997706 
3694.000000	98.985523 
3693.000000	98.976107 
3692.000000	98.969069 
3691.000000	98.966035 
3690.000000	98.966985 
3689.000000	98.966690 
3688.000000	98.961487 
3687.000000	98.957793 
3686.000000	98.962714 
3685.000000	98.971742 
3684.000000	98.975793 
3683.000000	98.973136 
3682.000000	98.967747 
3681.000000	98.960319 
3680.000000	98.945619 
3679.000000	98.921831 
3678.000000	98.897602 
3677.000000	98.884475 
3676.000000	98.882180 
3675.000000	98.876336 
3674.000000	98.866773 
3673.000000	98.869884 
3672.000000	98.884173 
3671.000000	98.897060 
3670.000000	98.903064 
3669.000000	98.901424 
3668.000000	98.900095 
3667.000000	98.905371 
3666.000000	98.911728 
3665.000000	98.913680 
3664.000000	98.911849 
3663.000000	98.908417 
3662.000000	98.903501 
3661.000000	98.896389 
3660.000000	98.888693 
3659.000000	98.885049 
3658.000000	98.888505 
3657.000000	98.894713 
3656.000000	98.893822 
3655.000000	98.883404 
3654.000000	98.872810 
3653.000000	98.868290 
3652.000000	98.868525 
3651.000000	98.871896 
3650.000000	98.874927 
3649.000000	98.871010 
3648.000000	98.861858 
3647.000000	98.857474 
3646.000000	98.863276 
3645.000000	98.877036 
3644.000000	98.893614 
3643.000000	98.908442 
3642.000000	98.918591 
3641.000000	98.923735 
3640.000000	98.926128 
3639.000000	98.928885 
3638.000000	98.933439 
3637.000000	98.939626 
3636.000000	98.945054 
3635.000000	98.943945 
3634.000000	98.930889 
3633.000000	98.907858 
3632.000000	98.885440 
3631.000000	98.874864 
3630.000000	98.879896 
3629.000000	98.889147 
3628.000000	98.887408 
3627.000000	98.883300 
3626.000000	98.891273 
3625.000000	98.903959 
3624.000000	98.909483 
3623.000000	98.906207 
3622.000000	98.898491 
3621.000000	98.891163 
3620.000000	98.886874 
3619.000000	98.885310 
3618.000000	98.886018 
3617.000000	98.891630 
3616.000000	98.903170 
3615.000000	98.916309 
3614.000000	98.924953 
3613.000000	98.925740 
3612.000000	98.921089 
3611.000000	98.917723 
3610.000000	98.920860 
3609.000000	98.930395 
3608.000000	98.941899 
3607.000000	98.951256 
3606.000000	98.958368 
3605.000000	98.965035 
3604.000000	98.971808 
3603.000000	98.978249 
3602.000000	98.983450 
3601.000000	98.986663 
3600.000000	98.988609 
3599.000000	98.990986 
3598.000000	98.993713 
3597.000000	98.994785 
3596.000000	98.993468 
3595.000000	98.990910 
3594.000000	98.988551 
3593.000000	98.987437 
3592.000000	98.988755 
3591.000000	98.992967 
3590.000000	98.999801 
3589.000000	99.007568 
3588.000000	99.011926 
3587.000000	99.008597 
3586.000000	99.000407 
3585.000000	98.995199 
3584.000000	98.996026 
3583.000000	99.000088 
3582.000000	99.003840 
3581.000000	99.005120 
3580.000000	99.003199 
3579.000000	98.998811 
3578.000000	98.993691 
3577.000000	98.989634 
3576.000000	98.988262 
3575.000000	98.990188 
3574.000000	98.994072 
3573.000000	98.996729 
3572.000000	98.995106 
3571.000000	98.988455 
3570.000000	98.978916 
3569.000000	98.970200 
3568.000000	98.965082 
3567.000000	98.964002 
3566.000000	98.966800 
3565.000000	98.974132 
3564.000000	98.983944 
3563.000000	98.991324 
3562.000000	98.993866 
3561.000000	98.993551 
3560.000000	98.993472 
3559.000000	98.994409 
3558.000000	98.994690 
3557.000000	98.992691 
3556.000000	98.989176 
3555.000000	98.986968 
3554.000000	98.987763 
3553.000000	98.989686 
3552.000000	98.988867 
3551.000000	98.983784 
3550.000000	98.976567 
3549.000000	98.970272 
3548.000000	98.966712 
3547.000000	98.966614 
3546.000000	98.969752 
3545.000000	98.974936 
3544.000000	98.980685 
3543.000000	98.985743 
3542.000000	98.989122 
3541.000000	98.990354 
3540.000000	98.990182 
3539.000000	98.990612 
3538.000000	98.993251 
3537.000000	98.997326 
3536.000000	98.999762 
3535.000000	98.998049 
3534.000000	98.992574 
3533.000000	98.985905 
3532.000000	98.980421 
3531.000000	98.976945 
3530.000000	98.975039 
3529.000000	98.973941 
3528.000000	98.973663 
3527.000000	98.975208 
3526.000000	98.979509 
3525.000000	98.985654 
3524.000000	98.990875 
3523.000000	98.992826 
3522.000000	98.991701 
3521.000000	98.989638 
3520.000000	98.988279 
3519.000000	98.987655 
3518.000000	98.987256 
3517.000000	98.987273 
3516.000000	98.988208 
3515.000000	98.989843 
3514.000000	98.991438 
3513.000000	98.992726 
3512.000000	98.993810 
3511.000000	98.994049 
3510.000000	98.992164 
3509.000000	98.987871 
3508.000000	98.982998 
3507.000000	98.979988 
3506.000000	98.979108 
3505.000000	98.977785 
3504.000000	98.973411 
3503.000000	98.966969 
3502.000000	98.963426 
3501.000000	98.967360 
3500.000000	98.977915 
3499.000000	98.988655 
3498.000000	98.992659 
3497.000000	98.988155 
3496.000000	98.979724 
3495.000000	98.973982 
3494.000000	98.973797 
3493.000000	98.976421 
3492.000000	98.976824 
3491.000000	98.972653 
3490.000000	98.966326 
3489.000000	98.962538 
3488.000000	98.963776 
3487.000000	98.968352 
3486.000000	98.972587 
3485.000000	98.974386 
3484.000000	98.974407 
3483.000000	98.974331 
3482.000000	98.974539 
3481.000000	98.973863 
3480.000000	98.971651 
3479.000000	98.969392 
3478.000000	98.969569 
3477.000000	98.972613 
3476.000000	98.975598 
3475.000000	98.974790 
3474.000000	98.969742 
3473.000000	98.963968 
3472.000000	98.961213 
3471.000000	98.961907 
3470.000000	98.963807 
3469.000000	98.965010 
3468.000000	98.965051 
3467.000000	98.963792 
3466.000000	98.960980 
3465.000000	98.957201 
3464.000000	98.953972 
3463.000000	98.952206 
3462.000000	98.951193 
3461.000000	98.949667 
3460.000000	98.947538 
3459.000000	98.946102 
3458.000000	98.946679 
3457.000000	98.949333 
3456.000000	98.952727 
3455.000000	98.955175 
3454.000000	98.955907 
3453.000000	98.955355 
3452.000000	98.954434 
3451.000000	98.953829 
3450.000000	98.953751 
3449.000000	98.953666 
3448.000000	98.952310 
3447.000000	98.948703 
3446.000000	98.943792 
3445.000000	98.940331 
3444.000000	98.940290 
3443.000000	98.942898 
3442.000000	98.945798 
3441.000000	98.947703 
3440.000000	98.949140 
3439.000000	98.950635 
3438.000000	98.951227 
3437.000000	98.949460 
3436.000000	98.945353 
3435.000000	98.940916 
3434.000000	98.938743 
3433.000000	98.940157 
3432.000000	98.944388 
3431.000000	98.949069 
3430.000000	98.951582 
3429.000000	98.950445 
3428.000000	98.946015 
3427.000000	98.939861 
3426.000000	98.933617 
3425.000000	98.928582 
3424.000000	98.926025 
3423.000000	98.926814 
3422.000000	98.930177 
3421.000000	98.933528 
3420.000000	98.934528 
3419.000000	98.933397 
3418.000000	98.932485 
3417.000000	98.933412 
3416.000000	98.935226 
3415.000000	98.935636 
3414.000000	98.933656 
3413.000000	98.930575 
3412.000000	98.928478 
3411.000000	98.928348 
3410.000000	98.929787 
3409.000000	98.931947 
3408.000000	98.934063 
3407.000000	98.935228 
3406.000000	98.934459 
3405.000000	98.931638 
3404.000000	98.928227 
3403.000000	98.926572 
3402.000000	98.928210 
3401.000000	98.932630 
3400.000000	98.937427 
3399.000000	98.939873 
3398.000000	98.939106 
3397.000000	98.937032 
3396.000000	98.936505 
3395.000000	98.938294 
3394.000000	98.940429 
3393.000000	98.940723 
3392.000000	98.939125 
3391.000000	98.937062 
3390.000000	98.935362 
3389.000000	98.933941 
3388.000000	98.932997 
3387.000000	98.933110 
3386.000000	98.934035 
3385.000000	98.934637 
3384.000000	98.934526 
3383.000000	98.934865 
3382.000000	98.936809 
3381.000000	98.939553 
3380.000000	98.940575 
3379.000000	98.937933 
3378.000000	98.932355 
3377.000000	98.927207 
3376.000000	98.926266 
3375.000000	98.930929 
3374.000000	98.939149 
3373.000000	98.946897 
3372.000000	98.950801 
3371.000000	98.949887 
3370.000000	98.945690 
3369.000000	98.941188 
3368.000000	98.938957 
3367.000000	98.939305 
3366.000000	98.939963 
3365.000000	98.938279 
3364.000000	98.934137 
3363.000000	98.930458 
3362.000000	98.930501 
3361.000000	98.934661 
3360.000000	98.939994 
3359.000000	98.942840 
3358.000000	98.942060 
3357.000000	98.939888 
3356.000000	98.939637 
3355.000000	98.942422 
3354.000000	98.946208 
3353.000000	98.948154 
3352.000000	98.947577 
3351.000000	98.946405 
3350.000000	98.947085 
3349.000000	98.950545 
3348.000000	98.955860 
3347.000000	98.961103 
3346.000000	98.964366 
3345.000000	98.964706 
3344.000000	98.962608 
3343.000000	98.959336 
3342.000000	98.955759 
3341.000000	98.952227 
3340.000000	98.949488 
3339.000000	98.948713 
3338.000000	98.949969 
3337.000000	98.951291 
3336.000000	98.950319 
3335.000000	98.946983 
3334.000000	98.943871 
3333.000000	98.943679 
3332.000000	98.946642 
3331.000000	98.950530 
3330.000000	98.952850 
3329.000000	98.952923 
3328.000000	98.952082 
3327.000000	98.952079 
3326.000000	98.953327 
3325.000000	98.954838 
3324.000000	98.955880 
3323.000000	98.957209 
3322.000000	98.960053 
3321.000000	98.963983 
3320.000000	98.966513 
3319.000000	98.965383 
3318.000000	98.961110 
3317.000000	98.956841 
3316.000000	98.955602 
3315.000000	98.957824 
3314.000000	98.961518 
3313.000000	98.964540 
3312.000000	98.966397 
3311.000000	98.967881 
3310.000000	98.969375 
3309.000000	98.970079 
3308.000000	98.969144 
3307.000000	98.967157 
3306.000000	98.965808 
3305.000000	98.965933 
3304.000000	98.966393 
3303.000000	98.965358 
3302.000000	98.962562 
3301.000000	98.959921 
3300.000000	98.959777 
3299.000000	98.962707 
3298.000000	98.967012 
3297.000000	98.970124 
3296.000000	98.970590 
3295.000000	98.969032 
3294.000000	98.967454 
3293.000000	98.967610 
3292.000000	98.969897 
3291.000000	98.973589 
3290.000000	98.977791 
3289.000000	98.981792 
3288.000000	98.984832 
3287.000000	98.986259 
3286.000000	98.986178 
3285.000000	98.985453 
3284.000000	98.984776 
3283.000000	98.984016 
3282.000000	98.982758 
3281.000000	98.981006 
3280.000000	98.978827 
3279.000000	98.975767 
3278.000000	98.971571 
3277.000000	98.967458 
3276.000000	98.965757 
3275.000000	98.967681 
3274.000000	98.971783 
3273.000000	98.974903 
3272.000000	98.974491 
3271.000000	98.970127 
3270.000000	98.963589 
3269.000000	98.957983 
3268.000000	98.956305 
3267.000000	98.959880 
3266.000000	98.967606 
3265.000000	98.976723 
3264.000000	98.984617 
3263.000000	98.990235 
3262.000000	98.994104 
3261.000000	98.997038 
3260.000000	98.998670 
3259.000000	98.997548 
3258.000000	98.993032 
3257.000000	98.986684 
3256.000000	98.981039 
3255.000000	98.977330 
3254.000000	98.975335 
3253.000000	98.975296 
3252.000000	98.978363 
3251.000000	98.984333 
3250.000000	98.990237 
3249.000000	98.992677 
3248.000000	98.991257 
3247.000000	98.988538 
3246.000000	98.986765 
3245.000000	98.985784 
3244.000000	98.984503 
3243.000000	98.983370 
3242.000000	98.984490 
3241.000000	98.989308 
3240.000000	98.996417 
3239.000000	99.001782 
3238.000000	99.001629 
3237.000000	98.995634 
3236.000000	98.987309 
3235.000000	98.981121 
3234.000000	98.979343 
3233.000000	98.981619 
3232.000000	98.986610 
3231.000000	98.992985 
3230.000000	98.999039 
3229.000000	99.002627 
3228.000000	99.002288 
3227.000000	98.998297 
3226.000000	98.992514 
3225.000000	98.987373 
3224.000000	98.984771 
3223.000000	98.985132 
3222.000000	98.987238 
3221.000000	98.989401 
3220.000000	98.991009 
3219.000000	98.992537 
3218.000000	98.994134 
3217.000000	98.994955 
3216.000000	98.994291 
3215.000000	98.992772 
3214.000000	98.991826 
3213.000000	98.992172 
3212.000000	98.993495 
3211.000000	98.995512 
3210.000000	98.998620 
3209.000000	99.003076 
3208.000000	99.007920 
3207.000000	99.011325 
3206.000000	99.012278 
3205.000000	99.011781 
3204.000000	99.012106 
3203.000000	99.014712 
3202.000000	99.019050 
3201.000000	99.023486 
3200.000000	99.026942 
3199.000000	99.029156 
3198.000000	99.029807 
3197.000000	99.028560 
3196.000000	99.026305 
3195.000000	99.025204 
3194.000000	99.026389 
3193.000000	99.028091 
3192.000000	99.027329 
3191.000000	99.023608 
3190.000000	99.019876 
3189.000000	99.019321 
3188.000000	99.022048 
3187.000000	99.025532 
3186.000000	99.027640 
3185.000000	99.028217 
3184.000000	99.027992 
3183.000000	99.027170 
3182.000000	99.025555 
3181.000000	99.023365 
3180.000000	99.021388 
3179.000000	99.020482 
3178.000000	99.020952 
3177.000000	99.022049 
3176.000000	99.022185 
3175.000000	99.020347 
3174.000000	99.017612 
3173.000000	99.016600 
3172.000000	99.018817 
3171.000000	99.022897 
3170.000000	99.026134 
3169.000000	99.027505 
3168.000000	99.028451 
3167.000000	99.030772 
3166.000000	99.034606 
3165.000000	99.038706 
3164.000000	99.041948 
3163.000000	99.044097 
3162.000000	99.045626 
3161.000000	99.047345 
3160.000000	99.049978 
3159.000000	99.053441 
3158.000000	99.056375 
3157.000000	99.056829 
3156.000000	99.053821 
3155.000000	99.048400 
3154.000000	99.043249 
3153.000000	99.041144 
3152.000000	99.043228 
3151.000000	99.048140 
3150.000000	99.052815 
3149.000000	99.054770 
3148.000000	99.054122 
3147.000000	99.053192 
3146.000000	99.053815 
3145.000000	99.055284 
3144.000000	99.055407 
3143.000000	99.053488 
3142.000000	99.051495 
3141.000000	99.051868 
3140.000000	99.054638 
3139.000000	99.057382 
3138.000000	99.058016 
3137.000000	99.057031 
3136.000000	99.056583 
3135.000000	99.057796 
3134.000000	99.059587 
3133.000000	99.060080 
3132.000000	99.058581 
3131.000000	99.055877 
3130.000000	99.053008 
3129.000000	99.050318 
3128.000000	99.047784 
3127.000000	99.045881 
3126.000000	99.045666 
3125.000000	99.047846 
3124.000000	99.051829 
3123.000000	99.055858 
3122.000000	99.058225 
3121.000000	99.058701 
3120.000000	99.058877 
3119.000000	99.060663 
3118.000000	99.064040 
3117.000000	99.066643 
3116.000000	99.066211 
3115.000000	99.063293 
3114.000000	99.060599 
3113.000000	99.059519 
3112.000000	99.058409 
3111.000000	99.055161 
3110.000000	99.050487 
3109.000000	99.047256 
3108.000000	99.046913 
3107.000000	99.048056 
3106.000000	99.048737 
3105.000000	99.048771 
3104.000000	99.049236 
3103.000000	99.050863 
3102.000000	99.053797 
3101.000000	99.058080 
3100.000000	99.063212 
3099.000000	99.067554 
3098.000000	99.069418 
3097.000000	99.069068 
3096.000000	99.068796 
3095.000000	99.070471 
3094.000000	99.073492 
3093.000000	99.075560 
3092.000000	99.075088 
3091.000000	99.072455 
3090.000000	99.069234 
3089.000000	99.066894 
3088.000000	99.066343 
3087.000000	99.068067 
3086.000000	99.071980 
3085.000000	99.076989 
3084.000000	99.081200 
3083.000000	99.083047 
3082.000000	99.082412 
3081.000000	99.080567 
3080.000000	99.078928 
3079.000000	99.077844 
3078.000000	99.076539 
3077.000000	99.074166 
3076.000000	99.070988 
3075.000000	99.068548 
3074.000000	99.068505 
3073.000000	99.071087 
3072.000000	99.074846 
3071.000000	99.078065 
3070.000000	99.079985 
3069.000000	99.080254 
3068.000000	99.077865 
3067.000000	99.071947 
3066.000000	99.063862 
3065.000000	99.057316 
3064.000000	99.055341 
3063.000000	99.057513 
3062.000000	99.060794 
3061.000000	99.062852 
3060.000000	99.063928 
3059.000000	99.065744 
3058.000000	99.069332 
3057.000000	99.074028 
3056.000000	99.077973 
3055.000000	99.079483 
3054.000000	99.078341 
3053.000000	99.075901 
3052.000000	99.073803 
3051.000000	99.072702 
3050.000000	99.072345 
3049.000000	99.072213 
3048.000000	99.071347 
3047.000000	99.068087 
3046.000000	99.061462 
3045.000000	99.053224 
3044.000000	99.047233 
3043.000000	99.045904 
3042.000000	99.047788 
3041.000000	99.049310 
3040.000000	99.048352 
3039.000000	99.045462 
3038.000000	99.042116 
3037.000000	99.038896 
3036.000000	99.035449 
3035.000000	99.031367 
3034.000000	99.026717 
3033.000000	99.022000 
3032.000000	99.017647 
3031.000000	99.013300 
3030.000000	99.007557 
3029.000000	98.998841 
3028.000000	98.986845 
3027.000000	98.973215 
3026.000000	98.960667 
3025.000000	98.950987 
3024.000000	98.943514 
3023.000000	98.935578 
3022.000000	98.924817 
3021.000000	98.911335 
3020.000000	98.897600 
3019.000000	98.886285 
3018.000000	98.878288 
3017.000000	98.872504 
3016.000000	98.866762 
3015.000000	98.858817 
3014.000000	98.847204 
3013.000000	98.831972 
3012.000000	98.814443 
3011.000000	98.795850 
3010.000000	98.776456 
3009.000000	98.756429 
3008.000000	98.737193 
3007.000000	98.721060 
3006.000000	98.709241 
3005.000000	98.700392 
3004.000000	98.691156 
3003.000000	98.678138 
3002.000000	98.659986 
3001.000000	98.638468 
3000.000000	98.617589 
2999.000000	98.600866 
2998.000000	98.589101 
2997.000000	98.581059 
2996.000000	98.575771 
2995.000000	98.572540 
2994.000000	98.568029 
2993.000000	98.555430 
2992.000000	98.529623 
2991.000000	98.494001 
2990.000000	98.460363 
2989.000000	98.440147 
2988.000000	98.435617 
2987.000000	98.440154 
2986.000000	98.446164 
2985.000000	98.451183 
2984.000000	98.456557 
2983.000000	98.462706 
2982.000000	98.467679 
2981.000000	98.469715 
2980.000000	98.469481 
2979.000000	98.469115 
2978.000000	98.469772 
2977.000000	98.470682 
2976.000000	98.470274 
2975.000000	98.467760 
2974.000000	98.463673 
2973.000000	98.459304 
2972.000000	98.455861 
2971.000000	98.454195 
2970.000000	98.455056 
2969.000000	98.459215 
2968.000000	98.467099 
2967.000000	98.478324 
2966.000000	98.491650 
2965.000000	98.505351 
2964.000000	98.517840 
2963.000000	98.528404 
2962.000000	98.537516 
2961.000000	98.546020 
2960.000000	98.553911 
2959.000000	98.560470 
2958.000000	98.565978 
2957.000000	98.572428 
2956.000000	98.581442 
2955.000000	98.591781 
2954.000000	98.600184 
2953.000000	98.605271 
2952.000000	98.609803 
2951.000000	98.618217 
2950.000000	98.631933 
2949.000000	98.647433 
2948.000000	98.659023 
2947.000000	98.663415 
2946.000000	98.661983 
2945.000000	98.658938 
2944.000000	98.657657 
2943.000000	98.658650 
2942.000000	98.660388 
2941.000000	98.661159 
2940.000000	98.659876 
2939.000000	98.656082 
2938.000000	98.650262 
2937.000000	98.644169 
2936.000000	98.640056 
2935.000000	98.639284 
2934.000000	98.641646 
2933.000000	98.645571 
2932.000000	98.648449 
2931.000000	98.647329 
2930.000000	98.640610 
2929.000000	98.629592 
2928.000000	98.617943 
2927.000000	98.609344 
2926.000000	98.605579 
2925.000000	98.606215 
2924.000000	98.609302 
2923.000000	98.612631 
2922.000000	98.615271 
2921.000000	98.618013 
2920.000000	98.621701 
2919.000000	98.625403 
2918.000000	98.627099 
2917.000000	98.625980 
2916.000000	98.623047 
2915.000000	98.619633 
2914.000000	98.616618 
2913.000000	98.615086 
2912.000000	98.616037 
2911.000000	98.618653 
2910.000000	98.620187 
2909.000000	98.618630 
2908.000000	98.614641 
2907.000000	98.609790 
2906.000000	98.603784 
2905.000000	98.594748 
2904.000000	98.582048 
2903.000000	98.568120 
2902.000000	98.557766 
2901.000000	98.556029 
2900.000000	98.565453 
2899.000000	98.583771 
2898.000000	98.604277 
2897.000000	98.620040 
2896.000000	98.628805 
2895.000000	98.633704 
2894.000000	98.639345 
2893.000000	98.647508 
2892.000000	98.656307 
2891.000000	98.662503 
2890.000000	98.664349 
2889.000000	98.662878 
2888.000000	98.660904 
2887.000000	98.660741 
2886.000000	98.662888 
2885.000000	98.666830 
2884.000000	98.672560 
2883.000000	98.680728 
2882.000000	98.691549 
2881.000000	98.704213 
2880.000000	98.717441 
2879.000000	98.730329 
2878.000000	98.742649 
2877.000000	98.754504 
2876.000000	98.765382 
2875.000000	98.773518 
2874.000000	98.777053 
2873.000000	98.776622 
2872.000000	98.776165 
2871.000000	98.779943 
2870.000000	98.788700 
2869.000000	98.799487 
2868.000000	98.809260 
2867.000000	98.817820 
2866.000000	98.827211 
2865.000000	98.839069 
2864.000000	98.852812 
2863.000000	98.865772 
2862.000000	98.874977 
2861.000000	98.879575 
2860.000000	98.881967 
2859.000000	98.886004 
2858.000000	98.893583 
2857.000000	98.903311 
2856.000000	98.912576 
2855.000000	98.920431 
2854.000000	98.928126 
2853.000000	98.937191 
2852.000000	98.947516 
2851.000000	98.957372 
2850.000000	98.965222 
2849.000000	98.971382 
2848.000000	98.977684 
2847.000000	98.985476 
2846.000000	98.994223 
2845.000000	99.002235 
2844.000000	99.008352 
2843.000000	99.012654 
2842.000000	99.016092 
2841.000000	99.019951 
2840.000000	99.025144 
2839.000000	99.031128 
2838.000000	99.035775 
2837.000000	99.037278 
2836.000000	99.036294 
2835.000000	99.035548 
2834.000000	99.037285 
2833.000000	99.041686 
2832.000000	99.047510 
2831.000000	99.053277 
2830.000000	99.057744 
2829.000000	99.060439 
2828.000000	99.062417 
2827.000000	99.065654 
2826.000000	99.070835 
2825.000000	99.076060 
2824.000000	99.078549 
2823.000000	99.077691 
2822.000000	99.075946 
2821.000000	99.076565 
2820.000000	99.080576 
2819.000000	99.086145 
2818.000000	99.090770 
2817.000000	99.093687 
2816.000000	99.095778 
2815.000000	99.097463 
2814.000000	99.097779 
2813.000000	99.095991 
2812.000000	99.093146 
2811.000000	99.091034 
2810.000000	99.090174 
2809.000000	99.089981 
2808.000000	99.090438 
2807.000000	99.092148 
2806.000000	99.094705 
2805.000000	99.096614 
2804.000000	99.097481 
2803.000000	99.098987 
2802.000000	99.102700 
2801.000000	99.107709 
2800.000000	99.111389 
2799.000000	99.112078 
2798.000000	99.110200 
2797.000000	99.107110 
2796.000000	99.103834 
2795.000000	99.101018 
2794.000000	99.099381 
2793.000000	99.099540 
2792.000000	99.101260 
2791.000000	99.103177 
2790.000000	99.103936 
2789.000000	99.103979 
2788.000000	99.105564 
2787.000000	99.110152 
2786.000000	99.116149 
2785.000000	99.120395 
2784.000000	99.121825 
2783.000000	99.122237 
2782.000000	99.123212 
2781.000000	99.123878 
2780.000000	99.122710 
2779.000000	99.120315 
2778.000000	99.119062 
2777.000000	99.120448 
2776.000000	99.123790 
2775.000000	99.127010 
2774.000000	99.127842 
2773.000000	99.124989 
2772.000000	99.119418 
2771.000000	99.114330 
2770.000000	99.112817 
2769.000000	99.115416 
2768.000000	99.120428 
2767.000000	99.125957 
2766.000000	99.130660 
2765.000000	99.133175 
2764.000000	99.132578 
2763.000000	99.129768 
2762.000000	99.127245 
2761.000000	99.127045 
2760.000000	99.129469 
2759.000000	99.133650 
2758.000000	99.138289 
2757.000000	99.141812 
2756.000000	99.143203 
2755.000000	99.143221 
2754.000000	99.143714 
2753.000000	99.145090 
2752.000000	99.145480 
2751.000000	99.143182 
2750.000000	99.138994 
2749.000000	99.135102 
2748.000000	99.132326 
2747.000000	99.129684 
2746.000000	99.126416 
2745.000000	99.123286 
2744.000000	99.121730 
2743.000000	99.122495 
2742.000000	99.125304 
2741.000000	99.129158 
2740.000000	99.132709 
2739.000000	99.134874 
2738.000000	99.135576 
2737.000000	99.135861 
2736.000000	99.137086 
2735.000000	99.139905 
2734.000000	99.143750 
2733.000000	99.147055 
2732.000000	99.148217 
2731.000000	99.146784 
2730.000000	99.143839 
2729.000000	99.141100 
2728.000000	99.139679 
2727.000000	99.139734 
2726.000000	99.140897 
2725.000000	99.142588 
2724.000000	99.144182 
2723.000000	99.145448 
2722.000000	99.146829 
2721.000000	99.148819 
2720.000000	99.151045 
2719.000000	99.152400 
2718.000000	99.152166 
2717.000000	99.150681 
2716.000000	99.149012 
2715.000000	99.148459 
2714.000000	99.150201 
2713.000000	99.154442 
2712.000000	99.159529 
2711.000000	99.162717 
2710.000000	99.162625 
2709.000000	99.160645 
2708.000000	99.159305 
2707.000000	99.159417 
2706.000000	99.159409 
2705.000000	99.157470 
2704.000000	99.153829 
2703.000000	99.150766 
2702.000000	99.150569 
2701.000000	99.153476 
2700.000000	99.157407 
2699.000000	99.159725 
2698.000000	99.159353 
2697.000000	99.157194 
2696.000000	99.154847 
2695.000000	99.153515 
2694.000000	99.154024 
2693.000000	99.156575 
2692.000000	99.159583 
2691.000000	99.159848 
2690.000000	99.155635 
2689.000000	99.149612 
2688.000000	99.147102 
2687.000000	99.150690 
2686.000000	99.157475 
2685.000000	99.162287 
2684.000000	99.162852 
2683.000000	99.161102 
2682.000000	99.160149 
2681.000000	99.161176 
2680.000000	99.163148 
2679.000000	99.164534 
2678.000000	99.164854 
2677.000000	99.164851 
2676.000000	99.165472 
2675.000000	99.166715 
2674.000000	99.167647 
2673.000000	99.167529 
2672.000000	99.166536 
2671.000000	99.165115 
2670.000000	99.163137 
2669.000000	99.160290 
2668.000000	99.157114 
2667.000000	99.154974 
2666.000000	99.154865 
2665.000000	99.156613 
2664.000000	99.159384 
2663.000000	99.162580 
2662.000000	99.165929 
2661.000000	99.168841 
2660.000000	99.170099 
2659.000000	99.168620 
2658.000000	99.164737 
2657.000000	99.160558 
2656.000000	99.158596 
2655.000000	99.159796 
2654.000000	99.162905 
2653.000000	99.165663 
2652.000000	99.166398 
2651.000000	99.164730 
2650.000000	99.161466 
2649.000000	99.158081 
2648.000000	99.155815 
2647.000000	99.154981 
2646.000000	99.155327 
2645.000000	99.156945 
2644.000000	99.160086 
2643.000000	99.164021 
2642.000000	99.167094 
2641.000000	99.168519 
2640.000000	99.169399 
2639.000000	99.171344 
2638.000000	99.174692 
2637.000000	99.178532 
2636.000000	99.181503 
2635.000000	99.181864 
2634.000000	99.178121 
2633.000000	99.171140 
2632.000000	99.164890 
2631.000000	99.163221 
2630.000000	99.165993 
2629.000000	99.169720 
2628.000000	99.171689 
2627.000000	99.171808 
2626.000000	99.170756 
2625.000000	99.168716 
2624.000000	99.166530 
2623.000000	99.165963 
2622.000000	99.167562 
2621.000000	99.169712 
2620.000000	99.170982 
2619.000000	99.171919 
2618.000000	99.173162 
2617.000000	99.173294 
2616.000000	99.170697 
2615.000000	99.166846 
2614.000000	99.165418 
2613.000000	99.167821 
2612.000000	99.171391 
2611.000000	99.172816 
2610.000000	99.172018 
2609.000000	99.171539 
2608.000000	99.172919 
2607.000000	99.175146 
2606.000000	99.176782 
2605.000000	99.178185 
2604.000000	99.180414 
2603.000000	99.182513 
2602.000000	99.181712 
2601.000000	99.177185 
2600.000000	99.172294 
2599.000000	99.171501 
2598.000000	99.175493 
2597.000000	99.180826 
2596.000000	99.183922 
2595.000000	99.183556 
2594.000000	99.179663 
2593.000000	99.172618 
2592.000000	99.165006 
2591.000000	99.161663 
2590.000000	99.165429 
2589.000000	99.173800 
2588.000000	99.181666 
2587.000000	99.186412 
2586.000000	99.188281 
2585.000000	99.186914 
2584.000000	99.180979 
2583.000000	99.171865 
2582.000000	99.164719 
2581.000000	99.163683 
2580.000000	99.167241 
2579.000000	99.169873 
2578.000000	99.167771 
2577.000000	99.161921 
2576.000000	99.156277 
2575.000000	99.154242 
2574.000000	99.156679 
2573.000000	99.161880 
2572.000000	99.166752 
2571.000000	99.168506 
2570.000000	99.166037 
2569.000000	99.160420 
2568.000000	99.154490 
2567.000000	99.151550 
2566.000000	99.153428 
2565.000000	99.159165 
2564.000000	99.165838 
2563.000000	99.170824 
2562.000000	99.172991 
2561.000000	99.172223 
2560.000000	99.169200 
2559.000000	99.165931 
2558.000000	99.164700 
2557.000000	99.165159 
2556.000000	99.163891 
2555.000000	99.158929 
2554.000000	99.153823 
2553.000000	99.154469 
2552.000000	99.161665 
2551.000000	99.169600 
2550.000000	99.172989 
2549.000000	99.173084 
2548.000000	99.174239 
2547.000000	99.176441 
2546.000000	99.174845 
2545.000000	99.166865 
2544.000000	99.156608 
2543.000000	99.150876 
2542.000000	99.152519 
2541.000000	99.158970 
2540.000000	99.165799 
2539.000000	99.170007 
2538.000000	99.170544 
2537.000000	99.167453 
2536.000000	99.161271 
2535.000000	99.153208 
2534.000000	99.145994 
2533.000000	99.143844 
2532.000000	99.149633 
2531.000000	99.161051 
2530.000000	99.170878 
2529.000000	99.172918 
2528.000000	99.167721 
2527.000000	99.161635 
2526.000000	99.160744 
2525.000000	99.166573 
2524.000000	99.176660 
2523.000000	99.187128 
2522.000000	99.194353 
2521.000000	99.196002 
2520.000000	99.192077 
2519.000000	99.184938 
2518.000000	99.177736 
2517.000000	99.172505 
2516.000000	99.169382 
2515.000000	99.167416 
2514.000000	99.166281 
2513.000000	99.167093 
2512.000000	99.170663 
2511.000000	99.174890 
2510.000000	99.175756 
2509.000000	99.172444 
2508.000000	99.170002 
2507.000000	99.174202 
2506.000000	99.183883 
2505.000000	99.190874 
2504.000000	99.188314 
2503.000000	99.177198 
2502.000000	99.164084 
2501.000000	99.154709 
2500.000000	99.151432 
2499.000000	99.154773 
2498.000000	99.164230 
2497.000000	99.177196 
2496.000000	99.189148 
2495.000000	99.196084 
2494.000000	99.196529 
2493.000000	99.191191 
2492.000000	99.181617 
2491.000000	99.169736 
2490.000000	99.158227 
2489.000000	99.150244 
2488.000000	99.147858 
2487.000000	99.150507 
2486.000000	99.155552 
2485.000000	99.160866 
2484.000000	99.166462 
2483.000000	99.172824 
2482.000000	99.178326 
2481.000000	99.180019 
2480.000000	99.177292 
2479.000000	99.173011 
2478.000000	99.170071 
2477.000000	99.168157 
2476.000000	99.165324 
2475.000000	99.161769 
2474.000000	99.160108 
2473.000000	99.162060 
2472.000000	99.166530 
2471.000000	99.171292 
2470.000000	99.174952 
2469.000000	99.176441 
2468.000000	99.174014 
2467.000000	99.166746 
2466.000000	99.157113 
2465.000000	99.150541 
2464.000000	99.151053 
2463.000000	99.157442 
2462.000000	99.164369 
2461.000000	99.167367 
2460.000000	99.166428 
2459.000000	99.164811 
2458.000000	99.165246 
2457.000000	99.167778 
2456.000000	99.170490 
2455.000000	99.171184 
2454.000000	99.168491 
2453.000000	99.162573 
2452.000000	99.155336 
2451.000000	99.149419 
2450.000000	99.146415 
2449.000000	99.146130 
2448.000000	99.147546 
2447.000000	99.150097 
2446.000000	99.153940 
2445.000000	99.159424 
2444.000000	99.166410 
2443.000000	99.173695 
2442.000000	99.179044 
2441.000000	99.180385 
2440.000000	99.177317 
2439.000000	99.171369 
2438.000000	99.164957 
2437.000000	99.160365 
2436.000000	99.158950 
2435.000000	99.159989 
2434.000000	99.160415 
2433.000000	99.157258 
2432.000000	99.151052 
2431.000000	99.145689 
2430.000000	99.144270 
2429.000000	99.146322 
2428.000000	99.149986 
2427.000000	99.155267 
2426.000000	99.162844 
2425.000000	99.170223 
2424.000000	99.172011 
2423.000000	99.165552 
2422.000000	99.155006 
2421.000000	99.148200 
2420.000000	99.149457 
2419.000000	99.156395 
2418.000000	99.163437 
2417.000000	99.167155 
2416.000000	99.167758 
2415.000000	99.166737 
2414.000000	99.164819 
2413.000000	99.162423 
2412.000000	99.160473 
2411.000000	99.159447 
2410.000000	99.158229 
2409.000000	99.155397 
2408.000000	99.151818 
2407.000000	99.150656 
2406.000000	99.154067 
2405.000000	99.160565 
2404.000000	99.166338 
2403.000000	99.168676 
2402.000000	99.167515 
2401.000000	99.164292 
2400.000000	99.160392 
2399.000000	99.156714 
2398.000000	99.153842 
2397.000000	99.152144 
2396.000000	99.151877 
2395.000000	99.153177 
2394.000000	99.155668 
2393.000000	99.158238 
2392.000000	99.159861 
2391.000000	99.160850 
2390.000000	99.162779 
2389.000000	99.166796 
2388.000000	99.172387 
2387.000000	99.178111 
2386.000000	99.183046 
2385.000000	99.186770 
2384.000000	99.188477 
2383.000000	99.187664 
2382.000000	99.186343 
2381.000000	99.188940 
2380.000000	99.197798 
2379.000000	99.208752 
2378.000000	99.213559 
2377.000000	99.208283 
2376.000000	99.198098 
2375.000000	99.192024 
2374.000000	99.193666 
2373.000000	99.199154 
2372.000000	99.204017 
2371.000000	99.209316 
2370.000000	99.219114 
2369.000000	99.233137 
2368.000000	99.244092 
2367.000000	99.243330 
2366.000000	99.229126 
2365.000000	99.209297 
2364.000000	99.195596 
2363.000000	99.194787 
2362.000000	99.204228 
2361.000000	99.215142 
2360.000000	99.219675 
2359.000000	99.217006 
2358.000000	99.212945 
2357.000000	99.213709 
2356.000000	99.220192 
2355.000000	99.228651 
2354.000000	99.235602 
2353.000000	99.238499 
2352.000000	99.236198 
2351.000000	99.229418 
2350.000000	99.219940 
2349.000000	99.210396 
2348.000000	99.204080 
2347.000000	99.203956 
2346.000000	99.208104 
2345.000000	99.210427 
2344.000000	99.207805 
2343.000000	99.203435 
2342.000000	99.203229 
2341.000000	99.208471 
2340.000000	99.214752 
2339.000000	99.216532 
2338.000000	99.213417 
2337.000000	99.209318 
2336.000000	99.207054 
2335.000000	99.206123 
2334.000000	99.205493 
2333.000000	99.204882 
2332.000000	99.203547 
2331.000000	99.200301 
2330.000000	99.194932 
2329.000000	99.189879 
2328.000000	99.187689 
2327.000000	99.189931 
2326.000000	99.194581 
2325.000000	99.197207 
2324.000000	99.194352 
2323.000000	99.187789 
2322.000000	99.184262 
2321.000000	99.188669 
2320.000000	99.199061 
2319.000000	99.208482 
2318.000000	99.211847 
2317.000000	99.209794 
2316.000000	99.205988 
2315.000000	99.202832 
2314.000000	99.199522 
2313.000000	99.195047 
2312.000000	99.190497 
2311.000000	99.189581 
2310.000000	99.194882 
2309.000000	99.204883 
2308.000000	99.213342 
2307.000000	99.213772 
2306.000000	99.204459 
2305.000000	99.190243 
2304.000000	99.178218 
2303.000000	99.172156 
2302.000000	99.170867 
2301.000000	99.171567 
2300.000000	99.172593 
2299.000000	99.173210 
2298.000000	99.172396 
2297.000000	99.170421 
2296.000000	99.169430 
2295.000000	99.171240 
2294.000000	99.174009 
2293.000000	99.173853 
2292.000000	99.169282 
2291.000000	99.163142 
2290.000000	99.159222 
2289.000000	99.158424 
2288.000000	99.158527 
2287.000000	99.156956 
2286.000000	99.153255 
2285.000000	99.149411 
2284.000000	99.147973 
2283.000000	99.148861 
2282.000000	99.148250 
2281.000000	99.141897 
2280.000000	99.130595 
2279.000000	99.121109 
2278.000000	99.120544 
2277.000000	99.129623 
2276.000000	99.142115 
2275.000000	99.150859 
2274.000000	99.153396 
2273.000000	99.151322 
2272.000000	99.145329 
2271.000000	99.133771 
2270.000000	99.117720 
2269.000000	99.105379 
2268.000000	99.107152 
2267.000000	99.124987 
2266.000000	99.148758 
2265.000000	99.164873 
2264.000000	99.167301 
2263.000000	99.159984 
2262.000000	99.151663 
2261.000000	99.150188 
2260.000000	99.158230 
2259.000000	99.170376 
2258.000000	99.176071 
2257.000000	99.169450 
2256.000000	99.155850 
2255.000000	99.145368 
2254.000000	99.141231 
2253.000000	99.138571 
2252.000000	99.133855 
2251.000000	99.130192 
2250.000000	99.132249 
2249.000000	99.140370 
2248.000000	99.151393 
2247.000000	99.161668 
2246.000000	99.167190 
2245.000000	99.164121 
2244.000000	99.152341 
2243.000000	99.136945 
2242.000000	99.124258 
2241.000000	99.117303 
2240.000000	99.115656 
2239.000000	99.117347 
2238.000000	99.119262 
2237.000000	99.117731 
2236.000000	99.111125 
2235.000000	99.101404 
2234.000000	99.092266 
2233.000000	99.086761 
2232.000000	99.086937 
2231.000000	99.093866 
2230.000000	99.106781 
2229.000000	99.123300 
2228.000000	99.141147 
2227.000000	99.158111 
2226.000000	99.170127 
2225.000000	99.172257 
2224.000000	99.163512 
2223.000000	99.149124 
2222.000000	99.136619 
2221.000000	99.130500 
2220.000000	99.131127 
2219.000000	99.136912 
2218.000000	99.146171 
2217.000000	99.157643 
2216.000000	99.170269 
2215.000000	99.182193 
2214.000000	99.190093 
2213.000000	99.190772 
2212.000000	99.183955 
2211.000000	99.173143 
2210.000000	99.164137 
2209.000000	99.162365 
2208.000000	99.168786 
2207.000000	99.176636 
2206.000000	99.175070 
2205.000000	99.159490 
2204.000000	99.136916 
2203.000000	99.118414 
2202.000000	99.108637 
2201.000000	99.105709 
2200.000000	99.107235 
2199.000000	99.110515 
2198.000000	99.109565 
2197.000000	99.100120 
2196.000000	99.088043 
2195.000000	99.085661 
2194.000000	99.098170 
2193.000000	99.118831 
2192.000000	99.137887 
2191.000000	99.149895 
2190.000000	99.151779 
2189.000000	99.142354 
2188.000000	99.127490 
2187.000000	99.118790 
2186.000000	99.122565 
2185.000000	99.134183 
2184.000000	99.145400 
2183.000000	99.151884 
2182.000000	99.151894 
2181.000000	99.145621 
2180.000000	99.139682 
2179.000000	99.144023 
2178.000000	99.158723 
2177.000000	99.170167 
2176.000000	99.166230 
2175.000000	99.150171 
2174.000000	99.133829 
2173.000000	99.122644 
2172.000000	99.114108 
2171.000000	99.106576 
2170.000000	99.102458 
2169.000000	99.104724 
2168.000000	99.115010 
2167.000000	99.132588 
2166.000000	99.151059 
2165.000000	99.159976 
2164.000000	99.155480 
2163.000000	99.146408 
2162.000000	99.145056 
2161.000000	99.154763 
2160.000000	99.169563 
2159.000000	99.181235 
2158.000000	99.182954 
2157.000000	99.172878 
2156.000000	99.159148 
2155.000000	99.154166 
2154.000000	99.159357 
2153.000000	99.161923 
2152.000000	99.151539 
2151.000000	99.134263 
2150.000000	99.124319 
2149.000000	99.127747 
2148.000000	99.139955 
2147.000000	99.153947 
2146.000000	99.163699 
2145.000000	99.164091 
2144.000000	99.155630 
2143.000000	99.146186 
2142.000000	99.141783 
2141.000000	99.139222 
2140.000000	99.133760 
2139.000000	99.129194 
2138.000000	99.131836 
2137.000000	99.137973 
2136.000000	99.137395 
2135.000000	99.129014 
2134.000000	99.123567 
2133.000000	99.129095 
2132.000000	99.141083 
2131.000000	99.149051 
2130.000000	99.147273 
2129.000000	99.137708 
2128.000000	99.127082 
2127.000000	99.122044 
2126.000000	99.123722 
2125.000000	99.126726 
2124.000000	99.126648 
2123.000000	99.127369 
2122.000000	99.135954 
2121.000000	99.150865 
2120.000000	99.161399 
2119.000000	99.160320 
2118.000000	99.151493 
2117.000000	99.142946 
2116.000000	99.137670 
2115.000000	99.134734 
2114.000000	99.134911 
2113.000000	99.139726 
2112.000000	99.146499 
2111.000000	99.149082 
2110.000000	99.144157 
2109.000000	99.134680 
2108.000000	99.126858 
2107.000000	99.124579 
2106.000000	99.126169 
2105.000000	99.125789 
2104.000000	99.119129 
2103.000000	99.108732 
2102.000000	99.102448 
2101.000000	99.105500 
2100.000000	99.114926 
2099.000000	99.122831 
2098.000000	99.124407 
2097.000000	99.121944 
2096.000000	99.121242 
2095.000000	99.124239 
2094.000000	99.125293 
2093.000000	99.116435 
2092.000000	99.097794 
2091.000000	99.080922 
2090.000000	99.078526 
2089.000000	99.090713 
2088.000000	99.104511 
2087.000000	99.108159 
2086.000000	99.102641 
2085.000000	99.097767 
2084.000000	99.100111 
2083.000000	99.107694 
2082.000000	99.114792 
2081.000000	99.118442 
2080.000000	99.119972 
2079.000000	99.122221 
2078.000000	99.126606 
2077.000000	99.132819 
2076.000000	99.140878 
2075.000000	99.152174 
2074.000000	99.166668 
2073.000000	99.179750 
2072.000000	99.184462 
2071.000000	99.178066 
2070.000000	99.165091 
2069.000000	99.152967 
2068.000000	99.145622 
2067.000000	99.141977 
2066.000000	99.139301 
2065.000000	99.136353 
2064.000000	99.133830 
2063.000000	99.133257 
2062.000000	99.135805 
2061.000000	99.141592 
2060.000000	99.149758 
2059.000000	99.159148 
2058.000000	99.168669 
2057.000000	99.176884 
2056.000000	99.181491 
2055.000000	99.179814 
2054.000000	99.171062 
2053.000000	99.159301 
2052.000000	99.152888 
2051.000000	99.158101 
2050.000000	99.172231 
2049.000000	99.184182 
2048.000000	99.183993 
2047.000000	99.171088 
2046.000000	99.152220 
2045.000000	99.134794 
2044.000000	99.124434 
2043.000000	99.124646 
2042.000000	99.133744 
2041.000000	99.143583 
2040.000000	99.146620 
2039.000000	99.144336 
2038.000000	99.144584 
2037.000000	99.150955 
2036.000000	99.158526 
2035.000000	99.160423 
2034.000000	99.154838 
2033.000000	99.144708 
2032.000000	99.134180 
2031.000000	99.126839 
2030.000000	99.124469 
2029.000000	99.125253 
2028.000000	99.124364 
2027.000000	99.118525 
2026.000000	99.110232 
2025.000000	99.107398 
2024.000000	99.117323 
2023.000000	99.138075 
2022.000000	99.155697 
2021.000000	99.154170 
2020.000000	99.132387 
2019.000000	99.108192 
2018.000000	99.100997 
2017.000000	99.110959 
2016.000000	99.119891 
2015.000000	99.113466 
2014.000000	99.096280 
2013.000000	99.084337 
2012.000000	99.088490 
2011.000000	99.107493 
2010.000000	99.133348 
2009.000000	99.158730 
2008.000000	99.179381 
2007.000000	99.192270 
2006.000000	99.194083 
2005.000000	99.183901 
2004.000000	99.166921 
2003.000000	99.152055 
2002.000000	99.144548 
2001.000000	99.141495 
2000.000000	99.135957 
1999.000000	99.124098 
1998.000000	99.108067 
1997.000000	99.095083 
1996.000000	99.093890 
1995.000000	99.108694 
1994.000000	99.133792 
1993.000000	99.155769 
1992.000000	99.164488 
1991.000000	99.161566 
1990.000000	99.155157 
1989.000000	99.149998 
1988.000000	99.146722 
1987.000000	99.146499 
1986.000000	99.150137 
1985.000000	99.154212 
1984.000000	99.153751 
1983.000000	99.148495 
1982.000000	99.142003 
1981.000000	99.134679 
1980.000000	99.123556 
1979.000000	99.109799 
1978.000000	99.101118 
1977.000000	99.103212 
1976.000000	99.111371 
1975.000000	99.115342 
1974.000000	99.111272 
1973.000000	99.106289 
1972.000000	99.111081 
1971.000000	99.128016 
1970.000000	99.146600 
1969.000000	99.152378 
1968.000000	99.141992 
1967.000000	99.127613 
1966.000000	99.123217 
1965.000000	99.129154 
1964.000000	99.134802 
1963.000000	99.133167 
1962.000000	99.126962 
1961.000000	99.121904 
1960.000000	99.119920 
1959.000000	99.120070 
1958.000000	99.121371 
1957.000000	99.122067 
1956.000000	99.119832 
1955.000000	99.115607 
1954.000000	99.114355 
1953.000000	99.119085 
1952.000000	99.125273 
1951.000000	99.124860 
1950.000000	99.115547 
1949.000000	99.103075 
1948.000000	99.094671 
1947.000000	99.091409 
1946.000000	99.087465 
1945.000000	99.076467 
1944.000000	99.058745 
1943.000000	99.042695 
1942.000000	99.037723 
1941.000000	99.044943 
1940.000000	99.056898 
1939.000000	99.066423 
1938.000000	99.073396 
1937.000000	99.082270 
1936.000000	99.094048 
1935.000000	99.102783 
1934.000000	99.101992 
1933.000000	99.094028 
1932.000000	99.089365 
1931.000000	99.095630 
1930.000000	99.109111 
1929.000000	99.118541 
1928.000000	99.118030 
1927.000000	99.111774 
1926.000000	99.107219 
1925.000000	99.106827 
1924.000000	99.108228 
1923.000000	99.110662 
1922.000000	99.115770 
1921.000000	99.122870 
1920.000000	99.126636 
1919.000000	99.120704 
1918.000000	99.103474 
1917.000000	99.080843 
1916.000000	99.062115 
1915.000000	99.052701 
1914.000000	99.052083 
1913.000000	99.057345 
1912.000000	99.066003 
1911.000000	99.076184 
1910.000000	99.084775 
1909.000000	99.088497 
1908.000000	99.089001 
1907.000000	99.091681 
1906.000000	99.098841 
1905.000000	99.106093 
1904.000000	99.107433 
1903.000000	99.103107 
1902.000000	99.097693 
1901.000000	99.093926 
1900.000000	99.092169 
1899.000000	99.092801 
1898.000000	99.096083 
1897.000000	99.100240 
1896.000000	99.102331 
1895.000000	99.101683 
1894.000000	99.099350 
1893.000000	99.095769 
1892.000000	99.091592 
1891.000000	99.089191 
1890.000000	99.089843 
1889.000000	99.090502 
1888.000000	99.088038 
1887.000000	99.084800 
1886.000000	99.085456 
1885.000000	99.090771 
1884.000000	99.097195 
1883.000000	99.101888 
1882.000000	99.104429 
1881.000000	99.104536 
1880.000000	99.103058 
1879.000000	99.103718 
1878.000000	99.110507 
1877.000000	99.122699 
1876.000000	99.133949 
1875.000000	99.138204 
1874.000000	99.134690 
1873.000000	99.126303 
1872.000000	99.115945 
1871.000000	99.105292 
1870.000000	99.095226 
1869.000000	99.086209 
1868.000000	99.079726 
1867.000000	99.078685 
1866.000000	99.082744 
1865.000000	99.086190 
1864.000000	99.083554 
1863.000000	99.075776 
1862.000000	99.069125 
1861.000000	99.068638 
1860.000000	99.074908 
1859.000000	99.086213 
1858.000000	99.099528 
1857.000000	99.109530 
1856.000000	99.111572 
1855.000000	99.107048 
1854.000000	99.102309 
1853.000000	99.100859 
1852.000000	99.101370 
1851.000000	99.101758 
1850.000000	99.102882 
1849.000000	99.108202 
1848.000000	99.118595 
1847.000000	99.130029 
1846.000000	99.135737 
1845.000000	99.131767 
1844.000000	99.121654 
1843.000000	99.114722 
1842.000000	99.115661 
1841.000000	99.119559 
1840.000000	99.120354 
1839.000000	99.117034 
1838.000000	99.112647 
1837.000000	99.109451 
1836.000000	99.106978 
1835.000000	99.105196 
1834.000000	99.105023 
1833.000000	99.106420 
1832.000000	99.108502 
1831.000000	99.110354 
1830.000000	99.111756 
1829.000000	99.113541 
1828.000000	99.115721 
1827.000000	99.116227 
1826.000000	99.113628 
1825.000000	99.110041 
1824.000000	99.108316 
1823.000000	99.108186 
1822.000000	99.106167 
1821.000000	99.100103 
1820.000000	99.093094 
1819.000000	99.091046 
1818.000000	99.096818 
1817.000000	99.105970 
1816.000000	99.111411 
1815.000000	99.112729 
1814.000000	99.114849 
1813.000000	99.120337 
1812.000000	99.125718 
1811.000000	99.127040 
1810.000000	99.126421 
1809.000000	99.126956 
1808.000000	99.127246 
1807.000000	99.124722 
1806.000000	99.119969 
1805.000000	99.115375 
1804.000000	99.111835 
1803.000000	99.108833 
1802.000000	99.104657 
1801.000000	99.098109 
1800.000000	99.090555 
1799.000000	99.086451 
1798.000000	99.090424 
1797.000000	99.101334 
1796.000000	99.113392 
1795.000000	99.121639 
1794.000000	99.124305 
1793.000000	99.121855 
1792.000000	99.115724 
1791.000000	99.109642 
1790.000000	99.108018 
1789.000000	99.110252 
1788.000000	99.113261 
1787.000000	99.116363 
1786.000000	99.121151 
1785.000000	99.127027 
1784.000000	99.130647 
1783.000000	99.130835 
1782.000000	99.128117 
1781.000000	99.124175 
1780.000000	99.120525 
1779.000000	99.117052 
1778.000000	99.114269 
1777.000000	99.112867 
1776.000000	99.114389 
1775.000000	99.118411 
1774.000000	99.121505 
1773.000000	99.120929 
1772.000000	99.117371 
1771.000000	99.114101 
1770.000000	99.113565 
1769.000000	99.114148 
1768.000000	99.113162 
1767.000000	99.110650 
1766.000000	99.108832 
1765.000000	99.109177 
1764.000000	99.110836 
1763.000000	99.112514 
1762.000000	99.113337 
1761.000000	99.113631 
1760.000000	99.113771 
1759.000000	99.113340 
1758.000000	99.113258 
1757.000000	99.115471 
1756.000000	99.120780 
1755.000000	99.125435 
1754.000000	99.125106 
1753.000000	99.120316 
1752.000000	99.116194 
1751.000000	99.114499 
1750.000000	99.111535 
1749.000000	99.105344 
1748.000000	99.099811 
1747.000000	99.100024 
1746.000000	99.104759 
1745.000000	99.110100 
1744.000000	99.113355 
1743.000000	99.113766 
1742.000000	99.112531 
1741.000000	99.110999 
1740.000000	99.109528 
1739.000000	99.109294 
1738.000000	99.112342 
1737.000000	99.116982 
1736.000000	99.119416 
1735.000000	99.118895 
1734.000000	99.115063 
1733.000000	99.108777 
1732.000000	99.105523 
1731.000000	99.104666 
1730.000000	99.103636 
1729.000000	99.102072 
1728.000000	99.101052 
1727.000000	99.101307 
1726.000000	99.102310 
1725.000000	99.104430 
1724.000000	99.106574 
1723.000000	99.106765 
1722.000000	99.105511 
1721.000000	99.103944 
1720.000000	99.103198 
1719.000000	99.105273 
1718.000000	99.111124 
1717.000000	99.115445 
1716.000000	99.114288 
1715.000000	99.112785 
1714.000000	99.115631 
1713.000000	99.119725 
1712.000000	99.119298 
1711.000000	99.114655 
1710.000000	99.110617 
1709.000000	99.109692 
1708.000000	99.110374 
1707.000000	99.110219 
1706.000000	99.109258 
1705.000000	99.108076 
1704.000000	99.106871 
1703.000000	99.105768 
1702.000000	99.104780 
1701.000000	99.104794 
1700.000000	99.102495 
1699.000000	99.099680 
1698.000000	99.103278 
1697.000000	99.106714 
1696.000000	99.102089 
1695.000000	99.090950 
1694.000000	99.083611 
1693.000000	99.082478 
1692.000000	99.081522 
1691.000000	99.079107 
1690.000000	99.077443 
1689.000000	99.077954 
1688.000000	99.081402 
1687.000000	99.085936 
1686.000000	99.090186 
1685.000000	99.093945 
1684.000000	99.092351 
1683.000000	99.086213 
1682.000000	99.082614 
1681.000000	99.078786 
1680.000000	99.073897 
1679.000000	99.070210 
1678.000000	99.067506 
1677.000000	99.064366 
1676.000000	99.061806 
1675.000000	99.061195 
1674.000000	99.061327 
1673.000000	99.062260 
1672.000000	99.063817 
1671.000000	99.066111 
1670.000000	99.067735 
1669.000000	99.064217 
1668.000000	99.057508 
1667.000000	99.052594 
1666.000000	99.049954 
1665.000000	99.048010 
1664.000000	99.046063 
1663.000000	99.044723 
1662.000000	99.042891 
1661.000000	99.039875 
1660.000000	99.038549 
1659.000000	99.040620 
1658.000000	99.044757 
1657.000000	99.048239 
1656.000000	99.048731 
1655.000000	99.044973 
1654.000000	99.041592 
1653.000000	99.038448 
1652.000000	99.033093 
1651.000000	99.036861 
1650.000000	99.042761 
1649.000000	99.043206 
1648.000000	99.039800 
1647.000000	99.034856 
1646.000000	99.029791 
1645.000000	99.028522 
1644.000000	99.031545 
1643.000000	99.035616 
1642.000000	99.037521 
1641.000000	99.036117 
1640.000000	99.033657 
1639.000000	99.032431 
1638.000000	99.033270 
1637.000000	99.035734 
1636.000000	99.038616 
1635.000000	99.039355 
1634.000000	99.039891 
1633.000000	99.041696 
1632.000000	99.040465 
1631.000000	99.035707 
1630.000000	99.030343 
1629.000000	99.027530 
1628.000000	99.028554 
1627.000000	99.032658 
1626.000000	99.036829 
1625.000000	99.038666 
1624.000000	99.038974 
1623.000000	99.039870 
1622.000000	99.041735 
1621.000000	99.044141 
1620.000000	99.047462 
1619.000000	99.051675 
1618.000000	99.056497 
1617.000000	99.059248 
1616.000000	99.058395 
1615.000000	99.057852 
1614.000000	99.059362 
1613.000000	99.060924 
1612.000000	99.063105 
1611.000000	99.067755 
1610.000000	99.072557 
1609.000000	99.073660 
1608.000000	99.072176 
1607.000000	99.072532 
1606.000000	99.075164 
1605.000000	99.077565 
1604.000000	99.079896 
1603.000000	99.083406 
1602.000000	99.087963 
1601.000000	99.092265 
1600.000000	99.095889 
1599.000000	99.099095 
1598.000000	99.101628 
1597.000000	99.103245 
1596.000000	99.103884 
1595.000000	99.103120 
1594.000000	99.100412 
1593.000000	99.096921 
1592.000000	99.095927 
1591.000000	99.099579 
1590.000000	99.105884 
1589.000000	99.110920 
1588.000000	99.113576 
1587.000000	99.115898 
1586.000000	99.119232 
1585.000000	99.122279 
1584.000000	99.124869 
1583.000000	99.127495 
1582.000000	99.128547 
1581.000000	99.127144 
1580.000000	99.125132 
1579.000000	99.123476 
1578.000000	99.120239 
1577.000000	99.114288 
1576.000000	99.107180 
1575.000000	99.103703 
1574.000000	99.106058 
1573.000000	99.110357 
1572.000000	99.113275 
1571.000000	99.115120 
1570.000000	99.116267 
1569.000000	99.115700 
1568.000000	99.116226 
1567.000000	99.119137 
1566.000000	99.121482 
1565.000000	99.121639 
1564.000000	99.121214 
1563.000000	99.120895 
1562.000000	99.118031 
1561.000000	99.110528 
1560.000000	99.105626 
1559.000000	99.106831 
1558.000000	99.105946 
1557.000000	99.109627 
1556.000000	99.117028 
1555.000000	99.121774 
1554.000000	99.121680 
1553.000000	99.119462 
1552.000000	99.118441 
1551.000000	99.118014 
1550.000000	99.117857 
1549.000000	99.118145 
1548.000000	99.118709 
1547.000000	99.118024 
1546.000000	99.113611 
1545.000000	99.106287 
1544.000000	99.100076 
1543.000000	99.098546 
1542.000000	99.103436 
1541.000000	99.114170 
1540.000000	99.123157 
1539.000000	99.124170 
1538.000000	99.123255 
1537.000000	99.124514 
1536.000000	99.125389 
1535.000000	99.125807 
1534.000000	99.125666 
1533.000000	99.123395 
1532.000000	99.119802 
1531.000000	99.117267 
1530.000000	99.116371 
1529.000000	99.115580 
1528.000000	99.113730 
1527.000000	99.112234 
1526.000000	99.113184 
1525.000000	99.116980 
1524.000000	99.122227 
1523.000000	99.127673 
1522.000000	99.132953 
1521.000000	99.134736 
1520.000000	99.130961 
1519.000000	99.123667 
1518.000000	99.114351 
1517.000000	99.105792 
1516.000000	99.100415 
1515.000000	99.098445 
1514.000000	99.098427 
1513.000000	99.099467 
1512.000000	99.100777 
1511.000000	99.100345 
1510.000000	99.097130 
1509.000000	99.092432 
1508.000000	99.092507 
1507.000000	99.101457 
1506.000000	99.109759 
1505.000000	99.110561 
1504.000000	99.108750 
1503.000000	99.107189 
1502.000000	99.107015 
1501.000000	99.107803 
1500.000000	99.106538 
1499.000000	99.100849 
1498.000000	99.092935 
1497.000000	99.087580 
1496.000000	99.085508 
1495.000000	99.086808 
1494.000000	99.092558 
1493.000000	99.100639 
1492.000000	99.106920 
1491.000000	99.108975 
1490.000000	99.107654 
1489.000000	99.104482 
1488.000000	99.098869 
1487.000000	99.091438 
1486.000000	99.084783 
1485.000000	99.078739 
1484.000000	99.073783 
1483.000000	99.071707 
1482.000000	99.073634 
1481.000000	99.077919 
1480.000000	99.080214 
1479.000000	99.078539 
1478.000000	99.074303 
1477.000000	99.070005 
1476.000000	99.066437 
1475.000000	99.064609 
1474.000000	99.065147 
1473.000000	99.066420 
1472.000000	99.065251 
1471.000000	99.061830 
1470.000000	99.059505 
1469.000000	99.058101 
1468.000000	99.055343 
1467.000000	99.051084 
1466.000000	99.047487 
1465.000000	99.046266 
1464.000000	99.047046 
1463.000000	99.047717 
1462.000000	99.047635 
1461.000000	99.047084 
1460.000000	99.045985 
1459.000000	99.042753 
1458.000000	99.034605 
1457.000000	99.019907 
1456.000000	99.003268 
1455.000000	98.992814 
1454.000000	98.988481 
1453.000000	98.988082 
1452.000000	98.991232 
1451.000000	98.995968 
1450.000000	99.000036 
1449.000000	99.002796 
1448.000000	99.004483 
1447.000000	99.005857 
1446.000000	99.006932 
1445.000000	99.008131 
1444.000000	99.010069 
1443.000000	99.011331 
1442.000000	99.011471 
1441.000000	99.011543 
1440.000000	99.012334 
1439.000000	99.012437 
1438.000000	99.011662 
1437.000000	99.011453 
1436.000000	99.010875 
1435.000000	99.008206 
1434.000000	99.003926 
1433.000000	98.999456 
1432.000000	98.996016 
1431.000000	98.993899 
1430.000000	98.992814 
1429.000000	98.992832 
1428.000000	98.992746 
1427.000000	98.991184 
1426.000000	98.986977 
1425.000000	98.981534 
1424.000000	98.977721 
1423.000000	98.974326 
1422.000000	98.967840 
1421.000000	98.956342 
1420.000000	98.941504 
1419.000000	98.926329 
1418.000000	98.913718 
1417.000000	98.904737 
1416.000000	98.895873 
1415.000000	98.883081 
1414.000000	98.865915 
1413.000000	98.847997 
1412.000000	98.833612 
1411.000000	98.823396 
1410.000000	98.815237 
1409.000000	98.807970 
1408.000000	98.802392 
1407.000000	98.800757 
1406.000000	98.803651 
1405.000000	98.809500 
1404.000000	98.817229 
1403.000000	98.826843 
1402.000000	98.839421 
1401.000000	98.855509 
1400.000000	98.873448 
1399.000000	98.887163 
1398.000000	98.888222 
1397.000000	98.871125 
1396.000000	98.837649 
1395.000000	98.802496 
1394.000000	98.788008 
1393.000000	98.804662 
1392.000000	98.841464 
1391.000000	98.878477 
1390.000000	98.902624 
1389.000000	98.911685 
1388.000000	98.909638 
1387.000000	98.901530 
1386.000000	98.892081 
1385.000000	98.885045 
1384.000000	98.881601 
1383.000000	98.879975 
1382.000000	98.878503 
1381.000000	98.877748 
1380.000000	98.879739 
1379.000000	98.885727 
1378.000000	98.894812 
1377.000000	98.905024 
1376.000000	98.914933 
1375.000000	98.924233 
1374.000000	98.933458 
1373.000000	98.944134 
1372.000000	98.957138 
1371.000000	98.970971 
1370.000000	98.982477 
1369.000000	98.989947 
1368.000000	98.994760 
1367.000000	98.998989 
1366.000000	99.003914 
1365.000000	99.010527 
1364.000000	99.019715 
1363.000000	99.030259 
1362.000000	99.038310 
1361.000000	99.041302 
1360.000000	99.041177 
1359.000000	99.042347 
1358.000000	99.047694 
1357.000000	99.056694 
1356.000000	99.066346 
1355.000000	99.073712 
1354.000000	99.078349 
1353.000000	99.081842 
1352.000000	99.084864 
1351.000000	99.086721 
1350.000000	99.086839 
1349.000000	99.086446 
1348.000000	99.087632 
1347.000000	99.090354 
1346.000000	99.092910 
1345.000000	99.094407 
1344.000000	99.095485 
1343.000000	99.096407 
1342.000000	99.096648 
1341.000000	99.096701 
1340.000000	99.098559 
1339.000000	99.102965 
1338.000000	99.107878 
1337.000000	99.111101 
1336.000000	99.112565 
1335.000000	99.113073 
1334.000000	99.112601 
1333.000000	99.110855 
1332.000000	99.108573 
1331.000000	99.106997 
1330.000000	99.106376 
1329.000000	99.106038 
1328.000000	99.105610 
1327.000000	99.105308 
1326.000000	99.105105 
1325.000000	99.104859 
1324.000000	99.104996 
1323.000000	99.105905 
1322.000000	99.107300 
1321.000000	99.108783 
1320.000000	99.110737 
1319.000000	99.113601 
1318.000000	99.116367 
1317.000000	99.116841 
1316.000000	99.113878 
1315.000000	99.108750 
1314.000000	99.103938 
1313.000000	99.100835 
1312.000000	99.099025 
1311.000000	99.097760 
1310.000000	99.097305 
1309.000000	99.098268 
1308.000000	99.099953 
1307.000000	99.100450 
1306.000000	99.098499 
1305.000000	99.095005 
1304.000000	99.092286 
1303.000000	99.091844 
1302.000000	99.093262 
1301.000000	99.094855 
1300.000000	99.095146 
1299.000000	99.093837 
1298.000000	99.091858 
1297.000000	99.090389 
1296.000000	99.089691 
1295.000000	99.088864 
1294.000000	99.086737 
1293.000000	99.082801 
1292.000000	99.077339 
1291.000000	99.071260 
1290.000000	99.066016 
1289.000000	99.062954 
1288.000000	99.062070 
1287.000000	99.061623 
1286.000000	99.059561 
1285.000000	99.055312 
1284.000000	99.049777 
1283.000000	99.043823 
1282.000000	99.037387 
1281.000000	99.030020 
1280.000000	99.021888 
1279.000000	99.013858 
1278.000000	99.006812 
1277.000000	99.001176 
1276.000000	98.996994 
1275.000000	98.993989 
1274.000000	98.991214 
1273.000000	98.987076 
1272.000000	98.980325 
1271.000000	98.971313 
1270.000000	98.961797 
1269.000000	98.953074 
1268.000000	98.944656 
1267.000000	98.935117 
1266.000000	98.924048 
1265.000000	98.912645 
1264.000000	98.902332 
1263.000000	98.893254 
1262.000000	98.884275 
1261.000000	98.874308 
1260.000000	98.863632 
1259.000000	98.853660 
1258.000000	98.845212 
1257.000000	98.837420 
1256.000000	98.829091 
1255.000000	98.820954 
1254.000000	98.815222 
1253.000000	98.812445 
1252.000000	98.810335 
1251.000000	98.806978 
1250.000000	98.803992 
1249.000000	98.804705 
1248.000000	98.809728 
1247.000000	98.815811 
1246.000000	98.818338 
1245.000000	98.813272 
1244.000000	98.798225 
1243.000000	98.775730 
1242.000000	98.755635 
1241.000000	98.749415 
1240.000000	98.759133 
1239.000000	98.774199 
1238.000000	98.781462 
1237.000000	98.776938 
1236.000000	98.765712 
1235.000000	98.753314 
1234.000000	98.741115 
1233.000000	98.728659 
1232.000000	98.715839 
1231.000000	98.702048 
1230.000000	98.686622 
1229.000000	98.671347 
1228.000000	98.660001 
1227.000000	98.654008 
1226.000000	98.650307 
1225.000000	98.644686 
1224.000000	98.635756 
1223.000000	98.624670 
1222.000000	98.612677 
1221.000000	98.600452 
1220.000000	98.588623 
1219.000000	98.577267 
1218.000000	98.565270 
1217.000000	98.551303 
1216.000000	98.535134 
1215.000000	98.517231 
1214.000000	98.497468 
1213.000000	98.475024 
1212.000000	98.449494 
1211.000000	98.421807 
1210.000000	98.394118 
1209.000000	98.368577 
1208.000000	98.345538 
1207.000000	98.322938 
1206.000000	98.298367 
1205.000000	98.271879 
1204.000000	98.245637 
1203.000000	98.220569 
1202.000000	98.194948 
1201.000000	98.167243 
1200.000000	98.138968 
1199.000000	98.113134 
1198.000000	98.090516 
1197.000000	98.068684 
1196.000000	98.044201 
1195.000000	98.014855 
1194.000000	97.980663 
1193.000000	97.944109 
1192.000000	97.908895 
1191.000000	97.876960 
1190.000000	97.846772 
1189.000000	97.815445 
1188.000000	97.782018 
1187.000000	97.747666 
1186.000000	97.713642 
1185.000000	97.680539 
1184.000000	97.648765 
1183.000000	97.617802 
1182.000000	97.585381 
1181.000000	97.549318 
1180.000000	97.510020 
1179.000000	97.469498 
1178.000000	97.428413 
1177.000000	97.386165 
1176.000000	97.343336 
1175.000000	97.301154 
1174.000000	97.258299 
1173.000000	97.211325 
1172.000000	97.159451 
1171.000000	97.106584 
1170.000000	97.057293 
1169.000000	97.012674 
1168.000000	96.971426 
1167.000000	96.933266 
1166.000000	96.900182 
1165.000000	96.876024 
1164.000000	96.865707 
1163.000000	96.872638 
1162.000000	96.895134 
1161.000000	96.926225 
1160.000000	96.957492 
1159.000000	96.981833 
1158.000000	96.992928 
1157.000000	96.985207 
1156.000000	96.956866 
1155.000000	96.912713 
1154.000000	96.862566 
1153.000000	96.815818 
1152.000000	96.776590 
1151.000000	96.742620 
1150.000000	96.708273 
1149.000000	96.669655 
1148.000000	96.627459 
1147.000000	96.584812 
1146.000000	96.543220 
1145.000000	96.501867 
1144.000000	96.460105 
1143.000000	96.418637 
1142.000000	96.378371 
1141.000000	96.339889 
1140.000000	96.303770 
1139.000000	96.269328 
1138.000000	96.233179 
1137.000000	96.191492 
1136.000000	96.144032 
1135.000000	96.094044 
1134.000000	96.043961 
1133.000000	95.993279 
1132.000000	95.940938 
1131.000000	95.887694 
1130.000000	95.835623 
1129.000000	95.786659 
1128.000000	95.741194 
1127.000000	95.696224 
1126.000000	95.646054 
1125.000000	95.587988 
1124.000000	95.526751 
1123.000000	95.469804 
1122.000000	95.418390 
1121.000000	95.366857 
1120.000000	95.310901 
1119.000000	95.252306 
1118.000000	95.194984 
1117.000000	95.140739 
1116.000000	95.090382 
1115.000000	95.044865 
1114.000000	95.003088 
1113.000000	94.961627 
1112.000000	94.918374 
1111.000000	94.873780 
1110.000000	94.827606 
1109.000000	94.778017 
1108.000000	94.725424 
1107.000000	94.673950 
1106.000000	94.626987 
1105.000000	94.583534 
1104.000000	94.540439 
1103.000000	94.496109 
1102.000000	94.451114 
1101.000000	94.407353 
1100.000000	94.367137 
1099.000000	94.331053 
1098.000000	94.296705 
1097.000000	94.261670 
1096.000000	94.226698 
1095.000000	94.192804 
1094.000000	94.156509 
1093.000000	94.112135 
1092.000000	94.058335 
1091.000000	93.998481 
1090.000000	93.935677 
1089.000000	93.872040 
1088.000000	93.811772 
1087.000000	93.758840 
1086.000000	93.711135 
1085.000000	93.662571 
1084.000000	93.611522 
1083.000000	93.561742 
1082.000000	93.514739 
1081.000000	93.467470 
1080.000000	93.418544 
1079.000000	93.370486 
1078.000000	93.324478 
1077.000000	93.278979 
1076.000000	93.235078 
1075.000000	93.196984 
1074.000000	93.165047 
1073.000000	93.133453 
1072.000000	93.095467 
1071.000000	93.044753 
1070.000000	92.971934 
1069.000000	92.869736 
1068.000000	92.746096 
1067.000000	92.625128 
1066.000000	92.528772 
1065.000000	92.460317 
1064.000000	92.407895 
1063.000000	92.356809 
1062.000000	92.294260 
1061.000000	92.210396 
1060.000000	92.104192 
1059.000000	91.987280 
1058.000000	91.876334 
1057.000000	91.780870 
1056.000000	91.699321 
1055.000000	91.623498 
1054.000000	91.544316 
1053.000000	91.456792 
1052.000000	91.363108 
1051.000000	91.269236 
1050.000000	91.177168 
1049.000000	91.083282 
1048.000000	90.984707 
1047.000000	90.882966 
1046.000000	90.781015 
1045.000000	90.681013 
1044.000000	90.584831 
1043.000000	90.492428 
1042.000000	90.400299 
1041.000000	90.306203 
1040.000000	90.214775 
1039.000000	90.133745 
1038.000000	90.065749 
1037.000000	90.008882 
1036.000000	89.963075 
1035.000000	89.929109 
1034.000000	89.902944 
1033.000000	89.878082 
1032.000000	89.852077 
1031.000000	89.824402 
1030.000000	89.791784 
1029.000000	89.755086 
1028.000000	89.727812 
1027.000000	89.725548 
1026.000000	89.745856 
1025.000000	89.768998 
1024.000000	89.779744 
1023.000000	89.778923 
1022.000000	89.773337 
1021.000000	89.765599 
1020.000000	89.757006 
1019.000000	89.750482 
1018.000000	89.745778 
1017.000000	89.738566 
1016.000000	89.727590 
1015.000000	89.716741 
1014.000000	89.708175 
1013.000000	89.699725 
1012.000000	89.690584 
1011.000000	89.683116 
1010.000000	89.677973 
1009.000000	89.673923 
1008.000000	89.673224 
1007.000000	89.680282 
1006.000000	89.694429 
1005.000000	89.711022 
1004.000000	89.729935 
1003.000000	89.755478 
1002.000000	89.787662 
1001.000000	89.821396 
1000.000000	89.854755 
999.000000	 89.890064 
998.000000	 89.926500 
997.000000	 89.960316 
996.000000	 89.993456 
995.000000	 90.033156 
994.000000	 90.080895 
993.000000	 90.129753 
992.000000	 90.174862 
991.000000	 90.218840 
990.000000	 90.264859 
989.000000	 90.312005 
988.000000	 90.360175 
987.000000	 90.412642 
986.000000	 90.471102 
985.000000	 90.534265 
984.000000	 90.603155 
983.000000	 90.681503 
982.000000	 90.769040 
981.000000	 90.860471 
980.000000	 90.952736 
979.000000	 91.047670 
978.000000	 91.146739 
977.000000	 91.249173 
976.000000	 91.355769 
975.000000	 91.468013 
974.000000	 91.582815 
973.000000	 91.694943 
972.000000	 91.805551 
971.000000	 91.921195 
970.000000	 92.042947 
969.000000	 92.163480 
968.000000	 92.277063 
967.000000	 92.385868 
966.000000	 92.493731 
965.000000	 92.599676 
964.000000	 92.700975 
963.000000	 92.797943 
962.000000	 92.892470 
961.000000	 92.985145 
960.000000	 93.075914 
959.000000	 93.164387 
958.000000	 93.248114 
957.000000	 93.324040 
956.000000	 93.392907 
955.000000	 93.458935 
954.000000	 93.524355 
953.000000	 93.587788 
952.000000	 93.648513 
951.000000	 93.707918 
950.000000	 93.765330 
949.000000	 93.816537 
948.000000	 93.858477 
947.000000	 93.892345 
946.000000	 93.920729 
945.000000	 93.944770 
944.000000	 93.965641 
943.000000	 93.985866 
942.000000	 94.007367 
941.000000	 94.030057 
940.000000	 94.052939 
939.000000	 94.074607 
938.000000	 94.093286 
937.000000	 94.109687 
936.000000	 94.129486 
935.000000	 94.158712 
934.000000	 94.195901 
933.000000	 94.232779 
932.000000	 94.263721 
931.000000	 94.290837 
930.000000	 94.318493 
929.000000	 94.346394 
928.000000	 94.369974 
927.000000	 94.385326 
926.000000	 94.392630 
925.000000	 94.396681 
924.000000	 94.404448 
923.000000	 94.419726 
922.000000	 94.439559 
921.000000	 94.457585 
920.000000	 94.470125 
919.000000	 94.476697 
918.000000	 94.476629 
917.000000	 94.469947 
916.000000	 94.461334 
915.000000	 94.458240 
914.000000	 94.463755 
913.000000	 94.475131 
912.000000	 94.490410 
911.000000	 94.512812 
910.000000	 94.547340 
909.000000	 94.596170 
908.000000	 94.658166 
907.000000	 94.729704 
906.000000	 94.805247 
905.000000	 94.880125 
904.000000	 94.953505 
903.000000	 95.026957 
902.000000	 95.101180 
901.000000	 95.176529 
900.000000	 95.254814 
899.000000	 95.336550 
898.000000	 95.417261 
897.000000	 95.490464 
896.000000	 95.554083 
895.000000	 95.611175 
894.000000	 95.665609 
893.000000	 95.720118 
892.000000	 95.776933 
891.000000	 95.836242 
890.000000	 95.894969 
889.000000	 95.950654 
888.000000	 96.004978 
887.000000	 96.059478 
886.000000	 96.109956 
885.000000	 96.150759 
884.000000	 96.183550 
883.000000	 96.215697 
882.000000	 96.249944 
881.000000	 96.282142 
880.000000	 96.310630 
879.000000	 96.341482 
878.000000	 96.381233 
877.000000	 96.428853 
876.000000	 96.477583 
875.000000	 96.520730 
874.000000	 96.554080 
873.000000	 96.577807 
872.000000	 96.599014 
871.000000	 96.628027 
870.000000	 96.668480 
869.000000	 96.714126 
868.000000	 96.758152 
867.000000	 96.801509 
866.000000	 96.848022 
865.000000	 96.894907 
864.000000	 96.934498 
863.000000	 96.965249 
862.000000	 96.995265 
861.000000	 97.032196 
860.000000	 97.073156 
859.000000	 97.108209 
858.000000	 97.132375 
857.000000	 97.150749 
856.000000	 97.171788 
855.000000	 97.198762 
854.000000	 97.228595 
853.000000	 97.256076 
852.000000	 97.277133 
851.000000	 97.290138 
850.000000	 97.297116 
849.000000	 97.303089 
848.000000	 97.312001 
847.000000	 97.323574 
846.000000	 97.335254 
845.000000	 97.345446 
844.000000	 97.352516 
843.000000	 97.352936 
842.000000	 97.344724 
841.000000	 97.331485 
840.000000	 97.318101 
839.000000	 97.302942 
838.000000	 97.280178 
837.000000	 97.250599 
836.000000	 97.223535 
835.000000	 97.205114 
834.000000	 97.190999 
833.000000	 97.175904 
832.000000	 97.164730 
831.000000	 97.166353 
830.000000	 97.178875 
829.000000	 97.189729 
828.000000	 97.191357 
827.000000	 97.189669 
826.000000	 97.194536 
825.000000	 97.207605 
824.000000	 97.222892 
823.000000	 97.235022 
822.000000	 97.243140 
821.000000	 97.249047 
820.000000	 97.254041 
819.000000	 97.257102 
818.000000	 97.256028 
817.000000	 97.250753 
816.000000	 97.243348 
815.000000	 97.232409 
814.000000	 97.209908 
813.000000	 97.167713 
812.000000	 97.105733 
811.000000	 97.028380 
810.000000	 96.933009 
809.000000	 96.807962 
808.000000	 96.645095 
807.000000	 96.450554 
806.000000	 96.240103 
805.000000	 96.027193 
804.000000	 95.819877 
803.000000	 95.626500 
802.000000	 95.458025 
801.000000	 95.323768 
800.000000	 95.227556 
799.000000	 95.168077 
798.000000	 95.141728 
797.000000	 95.145509 
796.000000	 95.176640 
795.000000	 95.228338 
794.000000	 95.288494 
793.000000	 95.345934 
792.000000	 95.396555 
791.000000	 95.440654 
790.000000	 95.476780 
789.000000	 95.501289 
788.000000	 95.510767 
787.000000	 95.500756 
786.000000	 95.465226 
785.000000	 95.402976 
784.000000	 95.323276 
783.000000	 95.240371 
782.000000	 95.163564 
781.000000	 95.097196 
780.000000	 95.047629 
779.000000	 95.022273 
778.000000	 95.021438 
777.000000	 95.038521 
776.000000	 95.069660 
775.000000	 95.116787 
774.000000	 95.179815 
773.000000	 95.251989 
772.000000	 95.325032 
771.000000	 95.394342 
770.000000	 95.457899 
769.000000	 95.513953 
768.000000	 95.560654 
767.000000	 95.595317 
766.000000	 95.615272 
765.000000	 95.623197 
764.000000	 95.629553 
763.000000	 95.643563 
762.000000	 95.661601 
761.000000	 95.670500 
760.000000	 95.664070 
759.000000	 95.651880 
758.000000	 95.650103 
757.000000	 95.666645 
756.000000	 95.695409 
755.000000	 95.721494 
754.000000	 95.732597 
753.000000	 95.730052 
752.000000	 95.729361 
751.000000	 95.746568 
750.000000	 95.783558 
749.000000	 95.828752 
748.000000	 95.870105 
747.000000	 95.903428 
746.000000	 95.930718 
745.000000	 95.956664 
744.000000	 95.986839 
743.000000	 96.024340 
742.000000	 96.067401 
741.000000	 96.113015 
740.000000	 96.161188 
739.000000	 96.212001 
738.000000	 96.261123 
737.000000	 96.302947 
736.000000	 96.335740 
735.000000	 96.359518 
734.000000	 96.372970 
733.000000	 96.378874 
732.000000	 96.388495 
731.000000	 96.411474 
730.000000	 96.442573 
729.000000	 96.467341 
728.000000	 96.480963 
727.000000	 96.491639 
726.000000	 96.504270 
725.000000	 96.512307 
724.000000	 96.509695 
723.000000	 96.501632 
722.000000	 96.498530 
721.000000	 96.506162 
720.000000	 96.525846 
719.000000	 96.556918 
718.000000	 96.593594 
717.000000	 96.625256 
716.000000	 96.644836 
715.000000	 96.653824 
714.000000	 96.657179 
713.000000	 96.658125 
712.000000	 96.660434 
711.000000	 96.668907 
710.000000	 96.682317 
709.000000	 96.690381 
708.000000	 96.683326 
707.000000	 96.661778 
706.000000	 96.632577 
705.000000	 96.599264 
704.000000	 96.561784 
703.000000	 96.521024 
702.000000	 96.477753 
701.000000	 96.427151 
700.000000	 96.358110 
699.000000	 96.261102 
698.000000	 96.138273 
697.000000	 96.008719 
696.000000	 95.902058 
695.000000	 95.839912 
694.000000	 95.823150 
693.000000	 95.839001 
692.000000	 95.876997 
691.000000	 95.932797 
690.000000	 95.999543 
689.000000	 96.067043 
688.000000	 96.130463 
687.000000	 96.189596 
686.000000	 96.238684 
685.000000	 96.266838 
684.000000	 96.272125 
683.000000	 96.267835 
682.000000	 96.270661 
681.000000	 96.288012 
680.000000	 96.316188 
679.000000	 96.344180 
678.000000	 96.358549 
677.000000	 96.354504 
676.000000	 96.348534 
675.000000	 96.366003 
674.000000	 96.410194 
673.000000	 96.455430 
672.000000	 96.479231 
671.000000	 96.491519 
670.000000	 96.521972 
669.000000	 96.584529 
668.000000	 96.633796 
667.000000	 96.630500 
666.000000	 96.601512 
665.000000	 96.569615 
664.000000	 96.545868 
663.000000	 96.548662 
662.000000	 96.580099 
661.000000	 96.613969 
660.000000	 96.620835 
659.000000	 96.599838 
658.000000	 96.568434 
657.000000	 96.534749 
656.000000	 96.499602 
655.000000	 96.472785 
654.000000	 96.462184 
653.000000	 96.455838 
652.000000	 96.436885 
651.000000	 96.409436 
650.000000	 96.392117 

