4000.000000	99.256965 
3999.000000	99.256728 
3998.000000	99.256696 
3997.000000	99.257165 
3996.000000	99.257769 
3995.000000	99.257820 
3994.000000	99.257132 
3993.000000	99.256258 
3992.000000	99.255866 
3991.000000	99.255949 
3990.000000	99.255878 
3989.000000	99.255122 
3988.000000	99.253746 
3987.000000	99.252286 
3986.000000	99.251290 
3985.000000	99.251035 
3984.000000	99.251418 
3983.000000	99.252142 
3982.000000	99.253050 
3981.000000	99.254241 
3980.000000	99.255791 
3979.000000	99.257460 
3978.000000	99.258801 
3977.000000	99.259504 
3976.000000	99.259525 
3975.000000	99.258868 
3974.000000	99.257472 
3973.000000	99.255432 
3972.000000	99.253247 
3971.000000	99.251660 
3970.000000	99.251201 
3969.000000	99.251865 
3968.000000	99.253108 
3967.000000	99.254156 
3966.000000	99.254501 
3965.000000	99.254150 
3964.000000	99.253423 
3963.000000	99.252666 
3962.000000	99.252107 
3961.000000	99.251835 
3960.000000	99.251751 
3959.000000	99.251524 
3958.000000	99.250908 
3957.000000	99.250087 
3956.000000	99.249525 
3955.000000	99.249422 
3954.000000	99.249468 
3953.000000	99.249214 
3952.000000	99.248522 
3951.000000	99.247632 
3950.000000	99.246855 
3949.000000	99.246219 
3948.000000	99.245518 
3947.000000	99.244727 
3946.000000	99.244171 
3945.000000	99.244117 
3944.000000	99.244381 
3943.000000	99.244451 
3942.000000	99.244074 
3941.000000	99.243530 
3940.000000	99.243178 
3939.000000	99.242908 
3938.000000	99.242365 
3937.000000	99.241474 
3936.000000	99.240525 
3935.000000	99.239807 
3934.000000	99.239325 
3933.000000	99.238992 
3932.000000	99.238820 
3931.000000	99.238814 
3930.000000	99.238801 
3929.000000	99.238502 
3928.000000	99.237843 
3927.000000	99.237008 
3926.000000	99.236144 
3925.000000	99.235295 
3924.000000	99.234543 
3923.000000	99.234021 
3922.000000	99.233642 
3921.000000	99.233207 
3920.000000	99.232746 
3919.000000	99.232436 
3918.000000	99.232280 
3917.000000	99.232106 
3916.000000	99.231822 
3915.000000	99.231498 
3914.000000	99.231183 
3913.000000	99.230842 
3912.000000	99.230443 
3911.000000	99.229997 
3910.000000	99.229532 
3909.000000	99.229080 
3908.000000	99.228644 
3907.000000	99.228221 
3906.000000	99.227815 
3905.000000	99.227425 
3904.000000	99.227050 
3903.000000	99.226696 
3902.000000	99.226362 
3901.000000	99.226044 
3900.000000	99.225729 
3899.000000	99.225403 
3898.000000	99.225060 
3897.000000	99.224705 
3896.000000	99.224350 
3895.000000	99.224003 
3894.000000	99.223661 
3893.000000	99.223322 
3892.000000	99.222986 
3891.000000	99.222652 
3890.000000	99.222323 
3889.000000	99.222007 
3888.000000	99.221708 
3887.000000	99.221421 
3886.000000	99.221138 
3885.000000	99.220859 
3884.000000	99.220586 
3883.000000	99.220323 
3882.000000	99.220060 
3881.000000	99.219785 
3880.000000	99.219492 
3879.000000	99.219187 
3878.000000	99.218880 
3877.000000	99.218576 
3876.000000	99.218266 
3875.000000	99.217946 
3874.000000	99.217621 
3873.000000	99.217305 
3872.000000	99.217015 
3871.000000	99.216757 
3870.000000	99.216531 
3869.000000	99.216342 
3868.000000	99.216198 
3867.000000	99.216092 
3866.000000	99.216009 
3865.000000	99.215927 
3864.000000	99.215838 
3863.000000	99.215753 
3862.000000	99.215675 
3861.000000	99.215576 
3860.000000	99.215434 
3859.000000	99.215245 
3858.000000	99.215013 
3857.000000	99.214771 
3856.000000	99.214622 
3855.000000	99.214667 
3854.000000	99.214865 
3853.000000	99.215008 
3852.000000	99.215129 
3851.000000	99.215371 
3850.000000	99.215682 
3849.000000	99.215956 
3848.000000	99.216174 
3847.000000	99.216353 
3846.000000	99.216505 
3845.000000	99.216637 
3844.000000	99.216760 
3843.000000	99.216879 
3842.000000	99.216992 
3841.000000	99.217099 
3840.000000	99.217210 
3839.000000	99.217337 
3838.000000	99.217481 
3837.000000	99.217639 
3836.000000	99.217807 
3835.000000	99.217986 
3834.000000	99.218179 
3833.000000	99.218384 
3832.000000	99.218600 
3831.000000	99.218818 
3830.000000	99.219032 
3829.000000	99.219237 
3828.000000	99.219433 
3827.000000	99.219622 
3826.000000	99.219806 
3825.000000	99.219993 
3824.000000	99.220197 
3823.000000	99.220429 
3822.000000	99.220684 
3821.000000	99.220948 
3820.000000	99.221218 
3819.000000	99.221511 
3818.000000	99.221833 
3817.000000	99.222170 
3816.000000	99.222502 
3815.000000	99.222819 
3814.000000	99.223124 
3813.000000	99.223413 
3812.000000	99.223673 
3811.000000	99.223902 
3810.000000	99.224109 
3809.000000	99.224305 
3808.000000	99.224492 
3807.000000	99.224671 
3806.000000	99.224853 
3805.000000	99.225061 
3804.000000	99.225309 
3803.000000	99.225594 
3802.000000	99.225907 
3801.000000	99.226242 
3800.000000	99.226606 
3799.000000	99.227009 
3798.000000	99.227437 
3797.000000	99.227868 
3796.000000	99.228287 
3795.000000	99.228694 
3794.000000	99.229092 
3793.000000	99.229475 
3792.000000	99.229830 
3791.000000	99.230140 
3790.000000	99.230394 
3789.000000	99.230604 
3788.000000	99.230779 
3787.000000	99.230946 
3786.000000	99.231193 
3785.000000	99.231519 
3784.000000	99.231776 
3783.000000	99.231917 
3782.000000	99.232110 
3781.000000	99.232396 
3780.000000	99.232476 
3779.000000	99.232004 
3778.000000	99.231125 
3777.000000	99.230427 
3776.000000	99.230008 
3775.000000	99.229406 
3774.000000	99.228522 
3773.000000	99.227931 
3772.000000	99.228028 
3771.000000	99.228265 
3770.000000	99.227703 
3769.000000	99.226432 
3768.000000	99.225711 
3767.000000	99.226171 
3766.000000	99.226846 
3765.000000	99.226625 
3764.000000	99.225798 
3763.000000	99.225554 
3762.000000	99.226124 
3761.000000	99.226601 
3760.000000	99.226495 
3759.000000	99.225918 
3758.000000	99.224759 
3757.000000	99.222790 
3756.000000	99.220304 
3755.000000	99.217997 
3754.000000	99.216111 
3753.000000	99.214757 
3752.000000	99.214234 
3751.000000	99.213699 
3750.000000	99.211049 
3749.000000	99.206290 
3748.000000	99.202571 
3747.000000	99.202177 
3746.000000	99.204554 
3745.000000	99.206974 
3744.000000	99.205921 
3743.000000	99.203248 
3742.000000	99.204326 
3741.000000	99.207459 
3740.000000	99.207849 
3739.000000	99.205870 
3738.000000	99.204465 
3737.000000	99.204763 
3736.000000	99.205592 
3735.000000	99.206413 
3734.000000	99.208065 
3733.000000	99.210212 
3732.000000	99.210977 
3731.000000	99.210186 
3730.000000	99.209846 
3729.000000	99.210670 
3728.000000	99.211126 
3727.000000	99.210094 
3726.000000	99.208464 
3725.000000	99.208014 
3724.000000	99.209001 
3723.000000	99.209756 
3722.000000	99.209283 
3721.000000	99.208401 
3720.000000	99.208361 
3719.000000	99.208943 
3718.000000	99.208417 
3717.000000	99.205475 
3716.000000	99.200498 
3715.000000	99.194866 
3714.000000	99.189598 
3713.000000	99.185593 
3712.000000	99.183426 
3711.000000	99.182765 
3710.000000	99.183229 
3709.000000	99.184429 
3708.000000	99.184988 
3707.000000	99.183536 
3706.000000	99.180198 
3705.000000	99.176410 
3704.000000	99.173611 
3703.000000	99.172267 
3702.000000	99.171586 
3701.000000	99.170386 
3700.000000	99.168776 
3699.000000	99.167480 
3698.000000	99.165865 
3697.000000	99.162627 
3696.000000	99.158006 
3695.000000	99.153689 
3694.000000	99.150586 
3693.000000	99.148025 
3692.000000	99.145393 
3691.000000	99.143078 
3690.000000	99.141365 
3689.000000	99.139465 
3688.000000	99.136986 
3687.000000	99.135442 
3686.000000	99.135783 
3685.000000	99.136335 
3684.000000	99.135219 
3683.000000	99.132732 
3682.000000	99.130188 
3681.000000	99.127693 
3680.000000	99.124053 
3679.000000	99.119114 
3678.000000	99.114569 
3677.000000	99.111885 
3676.000000	99.110028 
3675.000000	99.106456 
3674.000000	99.102816 
3673.000000	99.102513 
3672.000000	99.104163 
3671.000000	99.104942 
3670.000000	99.104283 
3669.000000	99.102770 
3668.000000	99.101954 
3667.000000	99.102223 
3666.000000	99.102213 
3665.000000	99.101344 
3664.000000	99.100202 
3663.000000	99.099276 
3662.000000	99.098319 
3661.000000	99.096845 
3660.000000	99.094907 
3659.000000	99.093234 
3658.000000	99.092363 
3657.000000	99.091791 
3656.000000	99.090349 
3655.000000	99.088135 
3654.000000	99.086630 
3653.000000	99.086173 
3652.000000	99.086023 
3651.000000	99.086018 
3650.000000	99.086037 
3649.000000	99.085182 
3648.000000	99.083428 
3647.000000	99.082104 
3646.000000	99.082170 
3645.000000	99.083419 
3644.000000	99.084948 
3643.000000	99.085937 
3642.000000	99.086157 
3641.000000	99.085988 
3640.000000	99.085968 
3639.000000	99.086320 
3638.000000	99.086971 
3637.000000	99.087978 
3636.000000	99.089191 
3635.000000	99.089678 
3634.000000	99.088399 
3633.000000	99.085513 
3632.000000	99.082553 
3631.000000	99.081075 
3630.000000	99.081677 
3629.000000	99.082772 
3628.000000	99.082121 
3627.000000	99.081452 
3626.000000	99.082828 
3625.000000	99.084551 
3624.000000	99.084932 
3623.000000	99.084443 
3622.000000	99.084228 
3621.000000	99.084858 
3620.000000	99.086196 
3619.000000	99.087631 
3618.000000	99.088909 
3617.000000	99.090741 
3616.000000	99.093423 
3615.000000	99.095965 
3614.000000	99.097107 
3613.000000	99.096441 
3612.000000	99.094932 
3611.000000	99.094259 
3610.000000	99.095365 
3609.000000	99.097977 
3608.000000	99.101068 
3607.000000	99.103729 
3606.000000	99.105742 
3605.000000	99.107173 
3604.000000	99.108182 
3603.000000	99.109284 
3602.000000	99.110851 
3601.000000	99.112652 
3600.000000	99.114459 
3599.000000	99.116498 
3598.000000	99.118722 
3597.000000	99.120573 
3596.000000	99.121661 
3595.000000	99.121899 
3594.000000	99.121482 
3593.000000	99.121176 
3592.000000	99.122117 
3591.000000	99.124778 
3590.000000	99.128639 
3589.000000	99.132262 
3588.000000	99.133679 
3587.000000	99.132058 
3586.000000	99.129525 
3585.000000	99.128897 
3584.000000	99.130084 
3583.000000	99.131182 
3582.000000	99.131103 
3581.000000	99.129870 
3580.000000	99.127955 
3579.000000	99.125897 
3578.000000	99.124189 
3577.000000	99.123246 
3576.000000	99.123397 
3575.000000	99.124474 
3574.000000	99.125629 
3573.000000	99.125809 
3572.000000	99.124643 
3571.000000	99.122765 
3570.000000	99.121252 
3569.000000	99.120679 
3568.000000	99.120711 
3567.000000	99.120744 
3566.000000	99.121138 
3565.000000	99.122869 
3564.000000	99.125405 
3563.000000	99.127000 
3562.000000	99.126984 
3561.000000	99.126177 
3560.000000	99.125607 
3559.000000	99.125496 
3558.000000	99.125389 
3557.000000	99.124900 
3556.000000	99.124224 
3555.000000	99.123921 
3554.000000	99.124194 
3553.000000	99.124563 
3552.000000	99.124355 
3551.000000	99.123448 
3550.000000	99.122262 
3549.000000	99.121246 
3548.000000	99.120652 
3547.000000	99.120560 
3546.000000	99.120791 
3545.000000	99.121069 
3544.000000	99.121302 
3543.000000	99.121554 
3542.000000	99.121800 
3541.000000	99.121891 
3540.000000	99.121777 
3539.000000	99.121602 
3538.000000	99.121518 
3537.000000	99.121517 
3536.000000	99.121455 
3535.000000	99.121239 
3534.000000	99.120902 
3533.000000	99.120540 
3532.000000	99.120240 
3531.000000	99.120038 
3530.000000	99.119906 
3529.000000	99.119780 
3528.000000	99.119633 
3527.000000	99.119494 
3526.000000	99.119385 
3525.000000	99.119276 
3524.000000	99.119132 
3523.000000	99.118945 
3522.000000	99.118736 
3521.000000	99.118526 
3520.000000	99.118318 
3519.000000	99.118108 
3518.000000	99.117893 
3517.000000	99.117677 
3516.000000	99.117462 
3515.000000	99.117247 
3514.000000	99.117027 
3513.000000	99.116798 
3512.000000	99.116553 
3511.000000	99.116290 
3510.000000	99.116008 
3509.000000	99.115711 
3508.000000	99.115401 
3507.000000	99.115078 
3506.000000	99.114739 
3505.000000	99.114379 
3504.000000	99.113998 
3503.000000	99.113600 
3502.000000	99.113193 
3501.000000	99.112782 
3500.000000	99.112362 
3499.000000	99.111925 
3498.000000	99.111462 
3497.000000	99.110971 
3496.000000	99.110455 
3495.000000	99.109925 
3494.000000	99.109386 
3493.000000	99.108846 
3492.000000	99.108305 
3491.000000	99.107765 
3490.000000	99.107223 
3489.000000	99.106680 
3488.000000	99.106132 
3487.000000	99.105574 
3486.000000	99.104994 
3485.000000	99.104384 
3484.000000	99.103754 
3483.000000	99.103132 
3482.000000	99.102544 
3481.000000	99.101978 
3480.000000	99.101380 
3479.000000	99.100703 
3478.000000	99.099980 
3477.000000	99.099301 
3476.000000	99.098704 
3475.000000	99.098102 
3474.000000	99.097390 
3473.000000	99.096601 
3472.000000	99.095885 
3471.000000	99.095281 
3470.000000	99.094636 
3469.000000	99.093810 
3468.000000	99.092867 
3467.000000	99.091990 
3466.000000	99.091248 
3465.000000	99.090532 
3464.000000	99.089680 
3463.000000	99.088575 
3462.000000	99.087179 
3461.000000	99.085560 
3460.000000	99.083938 
3459.000000	99.082681 
3458.000000	99.082133 
3457.000000	99.082343 
3456.000000	99.083008 
3455.000000	99.083590 
3454.000000	99.083666 
3453.000000	99.083241 
3452.000000	99.082624 
3451.000000	99.082119 
3450.000000	99.081816 
3449.000000	99.081574 
3448.000000	99.081124 
3447.000000	99.080253 
3446.000000	99.079012 
3445.000000	99.077759 
3444.000000	99.076871 
3443.000000	99.076394 
3442.000000	99.076052 
3441.000000	99.075569 
3440.000000	99.074961 
3439.000000	99.074441 
3438.000000	99.074082 
3437.000000	99.073686 
3436.000000	99.073020 
3435.000000	99.072110 
3434.000000	99.071233 
3433.000000	99.070632 
3432.000000	99.070277 
3431.000000	99.069939 
3430.000000	99.069426 
3429.000000	99.068735 
3428.000000	99.068000 
3427.000000	99.067335 
3426.000000	99.066769 
3425.000000	99.066318 
3424.000000	99.066066 
3423.000000	99.066084 
3422.000000	99.066275 
3421.000000	99.066346 
3420.000000	99.066037 
3419.000000	99.065337 
3418.000000	99.064492 
3417.000000	99.063808 
3416.000000	99.063401 
3415.000000	99.063151 
3414.000000	99.062856 
3413.000000	99.062439 
3412.000000	99.062015 
3411.000000	99.061749 
3410.000000	99.061710 
3409.000000	99.061850 
3408.000000	99.062036 
3407.000000	99.062051 
3406.000000	99.061686 
3405.000000	99.060928 
3404.000000	99.060102 
3403.000000	99.059674 
3402.000000	99.059866 
3401.000000	99.060536 
3400.000000	99.061342 
3399.000000	99.062001 
3398.000000	99.062407 
3397.000000	99.062574 
3396.000000	99.062561 
3395.000000	99.062411 
3394.000000	99.062165 
3393.000000	99.061939 
3392.000000	99.061904 
3391.000000	99.062081 
3390.000000	99.062263 
3389.000000	99.062249 
3388.000000	99.062120 
3387.000000	99.062115 
3386.000000	99.062279 
3385.000000	99.062407 
3384.000000	99.062387 
3383.000000	99.062400 
3382.000000	99.062648 
3381.000000	99.063006 
3380.000000	99.063097 
3379.000000	99.062672 
3378.000000	99.061862 
3377.000000	99.061133 
3376.000000	99.060974 
3375.000000	99.061566 
3374.000000	99.062693 
3373.000000	99.063898 
3372.000000	99.064811 
3371.000000	99.065306 
3370.000000	99.065465 
3369.000000	99.065509 
3368.000000	99.065653 
3367.000000	99.065832 
3366.000000	99.065588 
3365.000000	99.064480 
3364.000000	99.062686 
3363.000000	99.061043 
3362.000000	99.060264 
3361.000000	99.060308 
3360.000000	99.060646 
3359.000000	99.060945 
3358.000000	99.061364 
3357.000000	99.062243 
3356.000000	99.063642 
3355.000000	99.065134 
3354.000000	99.066072 
3353.000000	99.066167 
3352.000000	99.065862 
3351.000000	99.066048 
3350.000000	99.067292 
3349.000000	99.069341 
3348.000000	99.071368 
3347.000000	99.072665 
3346.000000	99.073040 
3345.000000	99.072720 
3344.000000	99.072087 
3343.000000	99.071437 
3342.000000	99.070869 
3341.000000	99.070334 
3340.000000	99.069802 
3339.000000	99.069357 
3338.000000	99.069074 
3337.000000	99.068873 
3336.000000	99.068599 
3335.000000	99.068283 
3334.000000	99.068235 
3333.000000	99.068793 
3332.000000	99.069960 
3331.000000	99.071331 
3330.000000	99.072389 
3329.000000	99.072937 
3328.000000	99.073221 
3327.000000	99.073638 
3326.000000	99.074330 
3325.000000	99.075106 
3324.000000	99.075731 
3323.000000	99.076184 
3322.000000	99.076597 
3321.000000	99.077011 
3320.000000	99.077294 
3319.000000	99.077342 
3318.000000	99.077276 
3317.000000	99.077391 
3316.000000	99.077880 
3315.000000	99.078672 
3314.000000	99.079484 
3313.000000	99.080045 
3312.000000	99.080327 
3311.000000	99.080503 
3310.000000	99.080754 
3309.000000	99.081123 
3308.000000	99.081542 
3307.000000	99.081941 
3306.000000	99.082327 
3305.000000	99.082726 
3304.000000	99.083101 
3303.000000	99.083359 
3302.000000	99.083464 
3301.000000	99.083529 
3300.000000	99.083757 
3299.000000	99.084261 
3298.000000	99.084963 
3297.000000	99.085674 
3296.000000	99.086269 
3295.000000	99.086756 
3294.000000	99.087220 
3293.000000	99.087748 
3292.000000	99.088350 
3291.000000	99.088933 
3290.000000	99.089375 
3289.000000	99.089647 
3288.000000	99.089849 
3287.000000	99.090089 
3286.000000	99.090363 
3285.000000	99.090586 
3284.000000	99.090716 
3283.000000	99.090825 
3282.000000	99.091053 
3281.000000	99.091481 
3280.000000	99.091988 
3279.000000	99.092278 
3278.000000	99.092146 
3277.000000	99.091737 
3276.000000	99.091491 
3275.000000	99.091740 
3274.000000	99.092426 
3273.000000	99.093209 
3272.000000	99.093741 
3271.000000	99.093826 
3270.000000	99.093431 
3269.000000	99.092767 
3268.000000	99.092308 
3267.000000	99.092517 
3266.000000	99.093521 
3265.000000	99.095076 
3264.000000	99.096775 
3263.000000	99.098278 
3262.000000	99.099385 
3261.000000	99.100028 
3260.000000	99.100257 
3259.000000	99.100179 
3258.000000	99.099912 
3257.000000	99.099590 
3256.000000	99.099393 
3255.000000	99.099488 
3254.000000	99.099940 
3253.000000	99.100675 
3252.000000	99.101514 
3251.000000	99.102238 
3250.000000	99.102704 
3249.000000	99.102940 
3248.000000	99.103127 
3247.000000	99.103425 
3246.000000	99.103821 
3245.000000	99.104176 
3244.000000	99.104412 
3243.000000	99.104619 
3242.000000	99.105001 
3241.000000	99.105703 
3240.000000	99.106672 
3239.000000	99.107635 
3238.000000	99.108289 
3237.000000	99.108550 
3236.000000	99.108589 
3235.000000	99.108621 
3234.000000	99.108725 
3233.000000	99.108927 
3232.000000	99.109374 
3231.000000	99.110242 
3230.000000	99.111488 
3229.000000	99.112797 
3228.000000	99.113800 
3227.000000	99.114321 
3226.000000	99.114379 
3225.000000	99.114105 
3224.000000	99.113713 
3223.000000	99.113488 
3222.000000	99.113650 
3221.000000	99.114249 
3220.000000	99.115169 
3219.000000	99.116192 
3218.000000	99.117075 
3217.000000	99.117639 
3216.000000	99.117884 
3215.000000	99.118015 
3214.000000	99.118275 
3213.000000	99.118735 
3212.000000	99.119313 
3211.000000	99.119979 
3210.000000	99.120814 
3209.000000	99.121843 
3208.000000	99.122896 
3207.000000	99.123710 
3206.000000	99.124180 
3205.000000	99.124492 
3204.000000	99.125018 
3203.000000	99.126027 
3202.000000	99.127475 
3201.000000	99.129051 
3200.000000	99.130407 
3199.000000	99.131301 
3198.000000	99.131626 
3197.000000	99.131498 
3196.000000	99.131332 
3195.000000	99.131633 
3194.000000	99.132498 
3193.000000	99.133402 
3192.000000	99.133659 
3191.000000	99.133116 
3190.000000	99.132349 
3189.000000	99.132180 
3188.000000	99.133036 
3187.000000	99.134669 
3186.000000	99.136334 
3185.000000	99.137292 
3184.000000	99.137300 
3183.000000	99.136705 
3182.000000	99.136074 
3181.000000	99.135709 
3180.000000	99.135588 
3179.000000	99.135674 
3178.000000	99.136029 
3177.000000	99.136572 
3176.000000	99.136947 
3175.000000	99.136902 
3174.000000	99.136770 
3173.000000	99.137301 
3172.000000	99.138886 
3171.000000	99.141100 
3170.000000	99.143040 
3169.000000	99.144178 
3168.000000	99.144734 
3167.000000	99.145266 
3166.000000	99.146049 
3165.000000	99.146901 
3164.000000	99.147523 
3163.000000	99.147866 
3162.000000	99.148150 
3161.000000	99.148648 
3160.000000	99.149463 
3159.000000	99.150463 
3158.000000	99.151358 
3157.000000	99.151890 
3156.000000	99.152005 
3155.000000	99.151869 
3154.000000	99.151764 
3153.000000	99.151923 
3152.000000	99.152411 
3151.000000	99.153100 
3150.000000	99.153751 
3149.000000	99.154197 
3148.000000	99.154475 
3147.000000	99.154755 
3146.000000	99.155142 
3145.000000	99.155576 
3144.000000	99.155940 
3143.000000	99.156226 
3142.000000	99.156544 
3141.000000	99.156975 
3140.000000	99.157463 
3139.000000	99.157878 
3138.000000	99.158158 
3137.000000	99.158361 
3136.000000	99.158601 
3135.000000	99.158922 
3134.000000	99.159277 
3133.000000	99.159587 
3132.000000	99.159820 
3131.000000	99.159998 
3130.000000	99.160146 
3129.000000	99.160254 
3128.000000	99.160326 
3127.000000	99.160437 
3126.000000	99.160700 
3125.000000	99.161149 
3124.000000	99.161666 
3123.000000	99.162049 
3122.000000	99.162170 
3121.000000	99.162071 
3120.000000	99.161971 
3119.000000	99.162115 
3118.000000	99.162577 
3117.000000	99.163154 
3116.000000	99.163506 
3115.000000	99.163476 
3114.000000	99.163193 
3113.000000	99.162858 
3112.000000	99.162515 
3111.000000	99.162182 
3110.000000	99.162077 
3109.000000	99.162430 
3108.000000	99.163073 
3107.000000	99.163514 
3106.000000	99.163496 
3105.000000	99.163292 
3104.000000	99.163346 
3103.000000	99.163845 
3102.000000	99.164755 
3101.000000	99.166044 
3100.000000	99.167609 
3099.000000	99.169050 
3098.000000	99.169856 
3097.000000	99.169914 
3096.000000	99.169670 
3095.000000	99.169698 
3094.000000	99.170159 
3093.000000	99.170807 
3092.000000	99.171377 
3091.000000	99.171773 
3090.000000	99.171946 
3089.000000	99.171859 
3088.000000	99.171671 
3087.000000	99.171723 
3086.000000	99.172203 
3085.000000	99.172932 
3084.000000	99.173622 
3083.000000	99.174188 
3082.000000	99.174656 
3081.000000	99.174957 
3080.000000	99.175021 
3079.000000	99.174925 
3078.000000	99.174667 
3077.000000	99.173946 
3076.000000	99.172613 
3075.000000	99.171314 
3074.000000	99.171181 
3073.000000	99.172685 
3072.000000	99.175132 
3071.000000	99.177478 
3070.000000	99.179186 
3069.000000	99.179883 
3068.000000	99.178805 
3067.000000	99.175460 
3066.000000	99.170900 
3065.000000	99.167453 
3064.000000	99.166669 
3063.000000	99.167882 
3062.000000	99.169098 
3061.000000	99.169181 
3060.000000	99.168820 
3059.000000	99.169381 
3058.000000	99.171280 
3057.000000	99.173678 
3056.000000	99.175545 
3055.000000	99.176656 
3054.000000	99.177434 
3053.000000	99.178050 
3052.000000	99.178082 
3051.000000	99.177219 
3050.000000	99.175987 
3049.000000	99.175308 
3048.000000	99.175169 
3047.000000	99.174206 
3046.000000	99.171158 
3045.000000	99.166622 
3044.000000	99.162789 
3043.000000	99.161202 
3042.000000	99.161259 
3041.000000	99.161248 
3040.000000	99.160406 
3039.000000	99.159465 
3038.000000	99.159360 
3037.000000	99.160008 
3036.000000	99.160368 
3035.000000	99.159202 
3034.000000	99.155773 
3033.000000	99.150360 
3032.000000	99.144344 
3031.000000	99.139448 
3030.000000	99.136257 
3029.000000	99.133488 
3028.000000	99.129206 
3027.000000	99.122813 
3026.000000	99.115668 
3025.000000	99.109744 
3024.000000	99.105813 
3023.000000	99.102913 
3022.000000	99.099216 
3021.000000	99.093334 
3020.000000	99.085295 
3019.000000	99.076822 
3018.000000	99.070422 
3017.000000	99.067399 
3016.000000	99.066382 
3015.000000	99.064168 
3014.000000	99.058472 
3013.000000	99.049681 
3012.000000	99.039787 
3011.000000	99.029991 
3010.000000	99.020035 
3009.000000	99.009796 
3008.000000	99.000506 
3007.000000	98.993804 
3006.000000	98.989958 
3005.000000	98.987449 
3004.000000	98.984059 
3003.000000	98.978072 
3002.000000	98.968970 
3001.000000	98.957866 
3000.000000	98.947228 
2999.000000	98.939241 
2998.000000	98.934108 
2997.000000	98.930454 
2996.000000	98.927361 
2995.000000	98.925033 
2994.000000	98.922892 
2993.000000	98.918054 
2992.000000	98.907375 
2991.000000	98.891355 
2990.000000	98.875051 
2989.000000	98.864111 
2988.000000	98.860177 
2987.000000	98.860558 
2986.000000	98.861768 
2985.000000	98.862879 
2984.000000	98.865066 
2983.000000	98.868742 
2982.000000	98.872313 
2981.000000	98.873824 
2980.000000	98.873081 
2979.000000	98.871476 
2978.000000	98.870102 
2977.000000	98.868833 
2976.000000	98.867216 
2975.000000	98.865420 
2974.000000	98.863820 
2973.000000	98.862207 
2972.000000	98.860064 
2971.000000	98.857493 
2970.000000	98.855353 
2969.000000	98.854528 
2968.000000	98.855402 
2967.000000	98.857974 
2966.000000	98.862003 
2965.000000	98.866932 
2964.000000	98.872108 
2963.000000	98.877335 
2962.000000	98.882930 
2961.000000	98.888870 
2960.000000	98.894176 
2959.000000	98.897740 
2958.000000	98.899898 
2957.000000	98.902569 
2956.000000	98.907162 
2955.000000	98.912431 
2954.000000	98.915254 
2953.000000	98.914191 
2952.000000	98.911855 
2951.000000	98.912842 
2950.000000	98.918868 
2949.000000	98.926605 
2948.000000	98.931016 
2947.000000	98.930291 
2946.000000	98.926879 
2945.000000	98.924340 
2944.000000	98.924017 
2943.000000	98.924992 
2942.000000	98.925991 
2941.000000	98.926186 
2940.000000	98.924682 
2939.000000	98.920641 
2938.000000	98.914340 
2937.000000	98.907587 
2936.000000	98.902664 
2935.000000	98.900872 
2934.000000	98.901910 
2933.000000	98.904100 
2932.000000	98.905198 
2931.000000	98.903672 
2930.000000	98.899696 
2929.000000	98.894850 
2928.000000	98.890722 
2927.000000	98.887997 
2926.000000	98.886804 
2925.000000	98.887202 
2924.000000	98.888875 
2923.000000	98.890889 
2922.000000	98.892475 
2921.000000	98.893905 
2920.000000	98.895975 
2919.000000	98.898751 
2918.000000	98.901425 
2917.000000	98.903432 
2916.000000	98.905113 
2915.000000	98.907109 
2914.000000	98.909616 
2913.000000	98.912445 
2912.000000	98.915310 
2911.000000	98.917705 
2910.000000	98.918927 
2909.000000	98.918775 
2908.000000	98.918040 
2907.000000	98.917789 
2906.000000	98.918092 
2905.000000	98.917823 
2904.000000	98.915863 
2903.000000	98.912501 
2902.000000	98.909666 
2901.000000	98.909762 
2900.000000	98.913984 
2899.000000	98.921448 
2898.000000	98.929608 
2897.000000	98.935957 
2896.000000	98.939807 
2895.000000	98.942431 
2894.000000	98.945576 
2893.000000	98.949789 
2892.000000	98.954108 
2891.000000	98.957253 
2890.000000	98.959019 
2889.000000	98.960432 
2888.000000	98.962656 
2887.000000	98.965898 
2886.000000	98.969471 
2885.000000	98.972699 
2884.000000	98.975492 
2883.000000	98.978135 
2882.000000	98.980897 
2881.000000	98.984077 
2880.000000	98.988137 
2879.000000	98.993425 
2878.000000	98.999672 
2877.000000	99.005890 
2876.000000	99.010888 
2875.000000	99.013998 
2874.000000	99.015450 
2873.000000	99.016288 
2872.000000	99.017799 
2871.000000	99.020749 
2870.000000	99.025039 
2869.000000	99.029983 
2868.000000	99.034882 
2867.000000	99.039428 
2866.000000	99.043779 
2865.000000	99.048417 
2864.000000	99.053734 
2863.000000	99.059473 
2862.000000	99.064616 
2861.000000	99.068131 
2860.000000	99.069943 
2859.000000	99.071067 
2858.000000	99.072705 
2857.000000	99.075297 
2856.000000	99.078495 
2855.000000	99.081957 
2854.000000	99.085961 
2853.000000	99.091104 
2852.000000	99.097464 
2851.000000	99.104153 
2850.000000	99.109902 
2849.000000	99.114252 
2848.000000	99.118015 
2847.000000	99.122430 
2846.000000	99.127834 
2845.000000	99.133345 
2844.000000	99.137835 
2843.000000	99.141039 
2842.000000	99.143701 
2841.000000	99.146787 
2840.000000	99.150590 
2839.000000	99.154521 
2838.000000	99.157749 
2837.000000	99.159969 
2836.000000	99.161473 
2835.000000	99.162620 
2834.000000	99.163568 
2833.000000	99.164595 
2832.000000	99.166253 
2831.000000	99.168881 
2830.000000	99.172219 
2829.000000	99.175831 
2828.000000	99.179665 
2827.000000	99.183745 
2826.000000	99.187457 
2825.000000	99.189714 
2824.000000	99.190038 
2823.000000	99.189292 
2822.000000	99.189228 
2821.000000	99.191220 
2820.000000	99.195231 
2819.000000	99.199763 
2818.000000	99.202946 
2817.000000	99.203963 
2816.000000	99.203384 
2815.000000	99.202231 
2814.000000	99.201113 
2813.000000	99.200437 
2812.000000	99.200795 
2811.000000	99.202381 
2810.000000	99.204251 
2809.000000	99.205049 
2808.000000	99.204547 
2807.000000	99.203874 
2806.000000	99.204097 
2805.000000	99.205185 
2804.000000	99.206613 
2803.000000	99.208261 
2802.000000	99.210229 
2801.000000	99.212149 
2800.000000	99.213269 
2799.000000	99.213197 
2798.000000	99.212281 
2797.000000	99.211318 
2796.000000	99.211008 
2795.000000	99.211588 
2794.000000	99.212782 
2793.000000	99.214031 
2792.000000	99.214864 
2791.000000	99.215133 
2790.000000	99.215027 
2789.000000	99.214970 
2788.000000	99.215407 
2787.000000	99.216460 
2786.000000	99.217770 
2785.000000	99.218830 
2784.000000	99.219513 
2783.000000	99.220082 
2782.000000	99.220686 
2781.000000	99.221108 
2780.000000	99.221127 
2779.000000	99.220936 
2778.000000	99.220972 
2777.000000	99.221423 
2776.000000	99.222113 
2775.000000	99.222782 
2774.000000	99.223265 
2773.000000	99.223498 
2772.000000	99.223577 
2771.000000	99.223828 
2770.000000	99.224604 
2769.000000	99.225968 
2768.000000	99.227706 
2767.000000	99.229548 
2766.000000	99.231176 
2765.000000	99.232121 
2764.000000	99.232050 
2763.000000	99.231220 
2762.000000	99.230460 
2761.000000	99.230470 
2760.000000	99.231368 
2759.000000	99.232867 
2758.000000	99.234497 
2757.000000	99.235671 
2756.000000	99.235966 
2755.000000	99.235601 
2754.000000	99.235260 
2753.000000	99.235233 
2752.000000	99.235084 
2751.000000	99.234391 
2750.000000	99.233459 
2749.000000	99.232921 
2748.000000	99.232894 
2747.000000	99.232960 
2746.000000	99.232858 
2745.000000	99.232794 
2744.000000	99.233013 
2743.000000	99.233465 
2742.000000	99.234003 
2741.000000	99.234621 
2740.000000	99.235362 
2739.000000	99.236187 
2738.000000	99.237021 
2737.000000	99.237826 
2736.000000	99.238550 
2735.000000	99.239083 
2734.000000	99.239325 
2733.000000	99.239264 
2732.000000	99.238988 
2731.000000	99.238663 
2730.000000	99.238502 
2729.000000	99.238656 
2728.000000	99.239115 
2727.000000	99.239737 
2726.000000	99.240321 
2725.000000	99.240695 
2724.000000	99.240811 
2723.000000	99.240797 
2722.000000	99.240882 
2721.000000	99.241195 
2720.000000	99.241644 
2719.000000	99.242032 
2718.000000	99.242246 
2717.000000	99.242317 
2716.000000	99.242357 
2715.000000	99.242491 
2714.000000	99.242806 
2713.000000	99.243304 
2712.000000	99.243861 
2711.000000	99.244285 
2710.000000	99.244484 
2709.000000	99.244546 
2708.000000	99.244627 
2707.000000	99.244770 
2706.000000	99.244895 
2705.000000	99.244939 
2704.000000	99.244931 
2703.000000	99.244939 
2702.000000	99.244996 
2701.000000	99.245086 
2700.000000	99.245175 
2699.000000	99.245236 
2698.000000	99.245267 
2697.000000	99.245285 
2696.000000	99.245308 
2695.000000	99.245351 
2694.000000	99.245422 
2693.000000	99.245515 
2692.000000	99.245599 
2691.000000	99.245645 
2690.000000	99.245653 
2689.000000	99.245653 
2688.000000	99.245680 
2687.000000	99.245743 
2686.000000	99.245825 
2685.000000	99.245892 
2684.000000	99.245917 
2683.000000	99.245897 
2682.000000	99.245845 
2681.000000	99.245780 
2680.000000	99.245715 
2679.000000	99.245662 
2678.000000	99.245624 
2677.000000	99.245597 
2676.000000	99.245565 
2675.000000	99.245511 
2674.000000	99.245427 
2673.000000	99.245321 
2672.000000	99.245209 
2671.000000	99.245107 
2670.000000	99.245012 
2669.000000	99.244920 
2668.000000	99.244827 
2667.000000	99.244740 
2666.000000	99.244668 
2665.000000	99.244621 
2664.000000	99.244602 
2663.000000	99.244604 
2662.000000	99.244614 
2661.000000	99.244620 
2660.000000	99.244613 
2659.000000	99.244589 
2658.000000	99.244550 
2657.000000	99.244503 
2656.000000	99.244455 
2655.000000	99.244416 
2654.000000	99.244389 
2653.000000	99.244373 
2652.000000	99.244358 
2651.000000	99.244338 
2650.000000	99.244312 
2649.000000	99.244282 
2648.000000	99.244255 
2647.000000	99.244237 
2646.000000	99.244234 
2645.000000	99.244252 
2644.000000	99.244291 
2643.000000	99.244344 
2642.000000	99.244405 
2641.000000	99.244468 
2640.000000	99.244534 
2639.000000	99.244609 
2638.000000	99.244696 
2637.000000	99.244794 
2636.000000	99.244899 
2635.000000	99.245002 
2634.000000	99.245094 
2633.000000	99.245173 
2632.000000	99.245246 
2631.000000	99.245321 
2630.000000	99.245405 
2629.000000	99.245499 
2628.000000	99.245603 
2627.000000	99.245718 
2626.000000	99.245838 
2625.000000	99.245958 
2624.000000	99.246071 
2623.000000	99.246174 
2622.000000	99.246267 
2621.000000	99.246350 
2620.000000	99.246423 
2619.000000	99.246487 
2618.000000	99.246549 
2617.000000	99.246595 
2616.000000	99.246589 
2615.000000	99.246519 
2614.000000	99.246458 
2613.000000	99.246504 
2612.000000	99.246679 
2611.000000	99.246916 
2610.000000	99.247149 
2609.000000	99.247361 
2608.000000	99.247526 
2607.000000	99.247586 
2606.000000	99.247532 
2605.000000	99.247464 
2604.000000	99.247510 
2603.000000	99.247663 
2602.000000	99.247762 
2601.000000	99.247667 
2600.000000	99.247449 
2599.000000	99.247330 
2598.000000	99.247425 
2597.000000	99.247634 
2596.000000	99.247798 
2595.000000	99.247840 
2594.000000	99.247709 
2593.000000	99.247372 
2592.000000	99.246942 
2591.000000	99.246714 
2590.000000	99.246897 
2589.000000	99.247410 
2588.000000	99.248029 
2587.000000	99.248607 
2586.000000	99.249013 
2585.000000	99.248957 
2584.000000	99.248224 
2583.000000	99.247039 
2582.000000	99.245993 
2581.000000	99.245439 
2580.000000	99.245177 
2579.000000	99.244806 
2578.000000	99.244251 
2577.000000	99.243819 
2576.000000	99.243850 
2575.000000	99.244461 
2574.000000	99.245463 
2573.000000	99.246407 
2572.000000	99.246837 
2571.000000	99.246595 
2570.000000	99.245890 
2569.000000	99.245070 
2568.000000	99.244411 
2567.000000	99.244109 
2566.000000	99.244284 
2565.000000	99.244847 
2564.000000	99.245517 
2563.000000	99.246072 
2562.000000	99.246489 
2561.000000	99.246752 
2560.000000	99.246714 
2559.000000	99.246350 
2558.000000	99.245984 
2557.000000	99.245921 
2556.000000	99.245949 
2555.000000	99.245619 
2554.000000	99.245013 
2553.000000	99.244788 
2552.000000	99.245292 
2551.000000	99.246042 
2550.000000	99.246352 
2549.000000	99.246193 
2548.000000	99.246035 
2547.000000	99.246019 
2546.000000	99.245752 
2545.000000	99.244941 
2544.000000	99.243909 
2543.000000	99.243340 
2542.000000	99.243681 
2541.000000	99.244838 
2540.000000	99.246289 
2539.000000	99.247411 
2538.000000	99.247774 
2537.000000	99.247234 
2536.000000	99.245877 
2535.000000	99.244066 
2534.000000	99.242597 
2533.000000	99.242482 
2532.000000	99.244216 
2531.000000	99.247218 
2530.000000	99.250123 
2529.000000	99.251881 
2528.000000	99.252462 
2527.000000	99.252489 
2526.000000	99.252546 
2525.000000	99.252945 
2524.000000	99.253925 
2523.000000	99.255610 
2522.000000	99.257668 
2521.000000	99.259272 
2520.000000	99.259689 
2519.000000	99.258869 
2518.000000	99.257430 
2517.000000	99.256112 
2516.000000	99.255230 
2515.000000	99.254676 
2514.000000	99.254324 
2513.000000	99.254255 
2512.000000	99.254511 
2511.000000	99.254755 
2510.000000	99.254507 
2509.000000	99.253827 
2508.000000	99.253502 
2507.000000	99.254243 
2506.000000	99.255821 
2505.000000	99.257186 
2504.000000	99.257527 
2503.000000	99.256912 
2502.000000	99.255976 
2501.000000	99.255293 
2500.000000	99.255094 
2499.000000	99.255415 
2498.000000	99.256194 
2497.000000	99.257206 
2496.000000	99.258078 
2495.000000	99.258478 
2494.000000	99.258291 
2493.000000	99.257627 
2492.000000	99.256734 
2491.000000	99.255873 
2490.000000	99.255231 
2489.000000	99.254877 
2488.000000	99.254779 
2487.000000	99.254852 
2486.000000	99.254995 
2485.000000	99.255151 
2484.000000	99.255350 
2483.000000	99.255636 
2482.000000	99.255935 
2481.000000	99.256066 
2480.000000	99.255958 
2479.000000	99.255764 
2478.000000	99.255684 
2477.000000	99.255698 
2476.000000	99.255601 
2475.000000	99.255273 
2474.000000	99.254856 
2473.000000	99.254611 
2472.000000	99.254651 
2471.000000	99.254916 
2470.000000	99.255298 
2469.000000	99.255662 
2468.000000	99.255755 
2467.000000	99.255300 
2466.000000	99.254292 
2465.000000	99.253187 
2464.000000	99.252566 
2463.000000	99.252616 
2462.000000	99.253037 
2461.000000	99.253320 
2460.000000	99.253212 
2459.000000	99.252808 
2458.000000	99.252331 
2457.000000	99.251923 
2456.000000	99.251585 
2455.000000	99.251215 
2454.000000	99.250683 
2453.000000	99.249952 
2452.000000	99.249169 
2451.000000	99.248579 
2450.000000	99.248306 
2449.000000	99.248238 
2448.000000	99.248197 
2447.000000	99.248174 
2446.000000	99.248366 
2445.000000	99.248937 
2444.000000	99.249807 
2443.000000	99.250645 
2442.000000	99.251095 
2441.000000	99.251022 
2440.000000	99.250564 
2439.000000	99.250011 
2438.000000	99.249629 
2437.000000	99.249553 
2436.000000	99.249743 
2435.000000	99.249952 
2434.000000	99.249807 
2433.000000	99.249073 
2432.000000	99.247870 
2431.000000	99.246669 
2430.000000	99.245959 
2429.000000	99.245907 
2428.000000	99.246379 
2427.000000	99.247187 
2426.000000	99.248196 
2425.000000	99.249176 
2424.000000	99.249745 
2423.000000	99.249655 
2422.000000	99.249060 
2421.000000	99.248493 
2420.000000	99.248418 
2419.000000	99.248843 
2418.000000	99.249474 
2417.000000	99.250049 
2416.000000	99.250492 
2415.000000	99.250801 
2414.000000	99.250962 
2413.000000	99.251013 
2412.000000	99.251064 
2411.000000	99.251193 
2410.000000	99.251374 
2409.000000	99.251569 
2408.000000	99.251819 
2407.000000	99.252195 
2406.000000	99.252674 
2405.000000	99.253150 
2404.000000	99.253573 
2403.000000	99.253923 
2402.000000	99.254137 
2401.000000	99.254155 
2400.000000	99.254022 
2399.000000	99.253899 
2398.000000	99.253930 
2397.000000	99.254135 
2396.000000	99.254465 
2395.000000	99.254884 
2394.000000	99.255367 
2393.000000	99.255846 
2392.000000	99.256235 
2391.000000	99.256514 
2390.000000	99.256736 
2389.000000	99.256972 
2388.000000	99.257254 
2387.000000	99.257552 
2386.000000	99.257793 
2385.000000	99.257912 
2384.000000	99.257890 
2383.000000	99.257766 
2382.000000	99.257625 
2381.000000	99.257569 
2380.000000	99.257621 
2379.000000	99.257670 
2378.000000	99.257538 
2377.000000	99.257186 
2376.000000	99.256837 
2375.000000	99.256812 
2374.000000	99.257218 
2373.000000	99.257847 
2372.000000	99.258465 
2371.000000	99.259138 
2370.000000	99.260079 
2369.000000	99.261103 
2368.000000	99.261412 
2367.000000	99.260218 
2366.000000	99.257556 
2365.000000	99.254642 
2364.000000	99.253082 
2363.000000	99.253477 
2362.000000	99.255129 
2361.000000	99.256638 
2360.000000	99.257115 
2359.000000	99.256891 
2358.000000	99.256878 
2357.000000	99.257622 
2356.000000	99.259021 
2355.000000	99.260475 
2354.000000	99.261636 
2353.000000	99.262317 
2352.000000	99.262199 
2351.000000	99.260551 
2350.000000	99.256817 
2349.000000	99.251942 
2348.000000	99.247915 
2347.000000	99.246511 
2346.000000	99.247995 
2345.000000	99.250756 
2344.000000	99.253066 
2343.000000	99.254301 
2342.000000	99.255727 
2341.000000	99.258039 
2340.000000	99.260614 
2339.000000	99.262594 
2338.000000	99.263915 
2337.000000	99.265531 
2336.000000	99.267616 
2335.000000	99.269386 
2334.000000	99.269763 
2333.000000	99.269298 
2332.000000	99.269067 
2331.000000	99.269812 
2330.000000	99.270432 
2329.000000	99.270759 
2328.000000	99.270758 
2327.000000	99.271205 
2326.000000	99.271702 
2325.000000	99.271512 
2324.000000	99.270658 
2323.000000	99.270217 
2322.000000	99.272331 
2321.000000	99.277994 
2320.000000	99.285877 
2319.000000	99.292840 
2318.000000	99.295863 
2317.000000	99.294654 
2316.000000	99.290801 
2315.000000	99.287226 
2314.000000	99.285247 
2313.000000	99.285423 
2312.000000	99.286741 
2311.000000	99.288594 
2310.000000	99.290140 
2309.000000	99.291484 
2308.000000	99.291991 
2307.000000	99.290885 
2306.000000	99.287456 
2305.000000	99.282762 
2304.000000	99.278399 
2303.000000	99.275270 
2302.000000	99.272643 
2301.000000	99.270077 
2300.000000	99.267691 
2299.000000	99.265751 
2298.000000	99.263628 
2297.000000	99.261389 
2296.000000	99.260146 
2295.000000	99.260933 
2294.000000	99.262694 
2293.000000	99.263264 
2292.000000	99.261614 
2291.000000	99.258653 
2290.000000	99.255731 
2289.000000	99.253395 
2288.000000	99.251691 
2287.000000	99.250610 
2286.000000	99.249867 
2285.000000	99.248787 
2284.000000	99.247099 
2283.000000	99.245297 
2282.000000	99.243849 
2281.000000	99.242340 
2280.000000	99.240140 
2279.000000	99.237712 
2278.000000	99.236562 
2277.000000	99.237576 
2276.000000	99.239878 
2275.000000	99.241572 
2274.000000	99.241488 
2273.000000	99.239872 
2272.000000	99.237355 
2271.000000	99.234000 
2270.000000	99.229895 
2269.000000	99.226400 
2268.000000	99.225578 
2267.000000	99.228047 
2266.000000	99.232016 
2265.000000	99.234864 
2264.000000	99.235466 
2263.000000	99.234679 
2262.000000	99.234303 
2261.000000	99.235921 
2260.000000	99.239760 
2259.000000	99.243696 
2258.000000	99.244334 
2257.000000	99.240285 
2256.000000	99.234139 
2255.000000	99.230193 
2254.000000	99.229932 
2253.000000	99.231255 
2252.000000	99.231901 
2251.000000	99.232101 
2250.000000	99.233342 
2249.000000	99.236015 
2248.000000	99.238982 
2247.000000	99.240679 
2246.000000	99.240015 
2245.000000	99.236871 
2244.000000	99.232177 
2243.000000	99.227031 
2242.000000	99.221722 
2241.000000	99.216190 
2240.000000	99.211110 
2239.000000	99.207507 
2238.000000	99.205434 
2237.000000	99.203955 
2236.000000	99.202347 
2235.000000	99.200588 
2234.000000	99.198830 
2233.000000	99.197434 
2232.000000	99.197426 
2231.000000	99.199773 
2230.000000	99.204293 
2229.000000	99.210035 
2228.000000	99.216282 
2227.000000	99.222230 
2226.000000	99.226181 
2225.000000	99.226634 
2224.000000	99.224214 
2223.000000	99.221315 
2222.000000	99.219706 
2221.000000	99.219452 
2220.000000	99.219977 
2219.000000	99.220921 
2218.000000	99.221982 
2217.000000	99.223120 
2216.000000	99.224986 
2215.000000	99.227971 
2214.000000	99.230685 
2213.000000	99.230691 
2212.000000	99.227158 
2211.000000	99.222111 
2210.000000	99.218795 
2209.000000	99.218978 
2208.000000	99.221887 
2207.000000	99.224917 
2206.000000	99.225499 
2205.000000	99.222906 
2204.000000	99.218457 
2203.000000	99.214055 
2202.000000	99.210758 
2201.000000	99.208984 
2200.000000	99.208993 
2199.000000	99.210134 
2198.000000	99.210437 
2197.000000	99.208494 
2196.000000	99.205534 
2195.000000	99.204294 
2194.000000	99.205890 
2193.000000	99.209218 
2192.000000	99.212797 
2191.000000	99.215854 
2190.000000	99.217575 
2189.000000	99.217122 
2188.000000	99.215084 
2187.000000	99.213543 
2186.000000	99.213879 
2185.000000	99.215612 
2184.000000	99.217723 
2183.000000	99.219805 
2182.000000	99.221397 
2181.000000	99.221774 
2180.000000	99.221280 
2179.000000	99.221313 
2178.000000	99.222037 
2177.000000	99.221655 
2176.000000	99.219049 
2175.000000	99.215732 
2174.000000	99.213926 
2173.000000	99.213748 
2172.000000	99.213738 
2171.000000	99.213237 
2170.000000	99.212982 
2169.000000	99.213891 
2168.000000	99.216343 
2167.000000	99.220111 
2166.000000	99.223982 
2165.000000	99.226317 
2164.000000	99.226879 
2163.000000	99.227252 
2162.000000	99.228849 
2161.000000	99.231290 
2160.000000	99.233418 
2159.000000	99.234912 
2158.000000	99.235966 
2157.000000	99.236442 
2156.000000	99.236353 
2155.000000	99.236211 
2154.000000	99.236151 
2153.000000	99.235637 
2152.000000	99.234513 
2151.000000	99.233594 
2150.000000	99.233789 
2149.000000	99.235126 
2148.000000	99.236948 
2147.000000	99.238487 
2146.000000	99.239262 
2145.000000	99.239178 
2144.000000	99.238559 
2143.000000	99.238024 
2142.000000	99.237944 
2141.000000	99.238164 
2140.000000	99.238386 
2139.000000	99.238558 
2138.000000	99.238771 
2137.000000	99.238943 
2136.000000	99.238886 
2135.000000	99.238606 
2134.000000	99.238315 
2133.000000	99.238158 
2132.000000	99.238086 
2131.000000	99.237948 
2130.000000	99.237625 
2129.000000	99.237101 
2128.000000	99.236457 
2127.000000	99.235817 
2126.000000	99.235229 
2125.000000	99.234636 
2124.000000	99.233978 
2123.000000	99.233374 
2122.000000	99.233025 
2121.000000	99.232895 
2120.000000	99.232629 
2119.000000	99.231945 
2118.000000	99.230931 
2117.000000	99.229918 
2116.000000	99.229092 
2115.000000	99.228454 
2114.000000	99.228039 
2113.000000	99.227910 
2112.000000	99.227917 
2111.000000	99.227663 
2110.000000	99.226832 
2109.000000	99.225460 
2108.000000	99.223909 
2107.000000	99.222630 
2106.000000	99.221843 
2105.000000	99.221233 
2104.000000	99.220116 
2103.000000	99.218181 
2102.000000	99.216019 
2101.000000	99.214626 
2100.000000	99.214428 
2099.000000	99.214992 
2098.000000	99.215616 
2097.000000	99.216078 
2096.000000	99.216578 
2095.000000	99.216999 
2094.000000	99.216468 
2093.000000	99.214098 
2092.000000	99.210448 
2091.000000	99.207789 
2090.000000	99.207986 
2089.000000	99.210474 
2088.000000	99.212643 
2087.000000	99.212826 
2086.000000	99.211957 
2085.000000	99.211856 
2084.000000	99.212874 
2083.000000	99.213916 
2082.000000	99.214251 
2081.000000	99.214340 
2080.000000	99.214855 
2079.000000	99.215643 
2078.000000	99.216108 
2077.000000	99.216337 
2076.000000	99.217421 
2075.000000	99.220403 
2074.000000	99.224814 
2073.000000	99.228492 
2072.000000	99.229453 
2071.000000	99.227709 
2070.000000	99.225033 
2069.000000	99.223022 
2068.000000	99.221894 
2067.000000	99.221231 
2066.000000	99.220913 
2065.000000	99.220908 
2064.000000	99.220897 
2063.000000	99.220749 
2062.000000	99.220980 
2061.000000	99.222251 
2060.000000	99.224594 
2059.000000	99.227326 
2058.000000	99.229477 
2057.000000	99.230297 
2056.000000	99.229617 
2055.000000	99.227866 
2054.000000	99.225512 
2053.000000	99.222517 
2052.000000	99.218793 
2051.000000	99.215130 
2050.000000	99.213022 
2049.000000	99.213127 
2048.000000	99.214325 
2047.000000	99.214728 
2046.000000	99.213552 
2045.000000	99.211510 
2044.000000	99.209717 
2043.000000	99.208628 
2042.000000	99.207967 
2041.000000	99.207358 
2040.000000	99.206909 
2039.000000	99.207201 
2038.000000	99.208610 
2037.000000	99.210702 
2036.000000	99.212360 
2035.000000	99.212593 
2034.000000	99.211279 
2033.000000	99.209299 
2032.000000	99.207972 
2031.000000	99.208001 
2030.000000	99.208734 
2029.000000	99.208680 
2028.000000	99.206911 
2027.000000	99.203910 
2026.000000	99.201155 
2025.000000	99.200243 
2024.000000	99.202058 
2023.000000	99.205827 
2022.000000	99.208818 
2021.000000	99.208250 
2020.000000	99.204263 
2019.000000	99.200177 
2018.000000	99.198814 
2017.000000	99.199141 
2016.000000	99.197891 
2015.000000	99.194165 
2014.000000	99.190605 
2013.000000	99.189955 
2012.000000	99.192348 
2011.000000	99.196042 
2010.000000	99.199771 
2009.000000	99.203881 
2008.000000	99.209300 
2007.000000	99.215906 
2006.000000	99.221852 
2005.000000	99.224920 
2004.000000	99.224817 
2003.000000	99.223344 
2002.000000	99.222025 
2001.000000	99.220239 
2000.000000	99.216718 
1999.000000	99.211833 
1998.000000	99.207473 
1997.000000	99.205271 
1996.000000	99.205588 
1995.000000	99.207857 
1994.000000	99.210967 
1993.000000	99.213408 
1992.000000	99.213992 
1991.000000	99.212789 
1990.000000	99.210958 
1989.000000	99.209711 
1988.000000	99.209671 
1987.000000	99.210713 
1986.000000	99.211902 
1985.000000	99.211989 
1984.000000	99.210632 
1983.000000	99.208886 
1982.000000	99.207973 
1981.000000	99.207709 
1980.000000	99.206848 
1979.000000	99.204806 
1978.000000	99.202377 
1977.000000	99.200670 
1976.000000	99.199887 
1975.000000	99.199617 
1974.000000	99.199803 
1973.000000	99.200902 
1972.000000	99.203169 
1971.000000	99.206052 
1970.000000	99.208153 
1969.000000	99.208170 
1968.000000	99.205917 
1967.000000	99.202576 
1966.000000	99.199953 
1965.000000	99.198777 
1964.000000	99.198489 
1963.000000	99.198271 
1962.000000	99.197966 
1961.000000	99.197940 
1960.000000	99.198421 
1959.000000	99.199273 
1958.000000	99.200242 
1957.000000	99.201134 
1956.000000	99.201764 
1955.000000	99.201981 
1954.000000	99.201787 
1953.000000	99.201376 
1952.000000	99.200904 
1951.000000	99.200339 
1950.000000	99.199609 
1949.000000	99.198845 
1948.000000	99.198475 
1947.000000	99.198816 
1946.000000	99.199432 
1945.000000	99.199188 
1944.000000	99.197453 
1943.000000	99.195313 
1942.000000	99.194873 
1941.000000	99.196865 
1940.000000	99.199727 
1939.000000	99.201361 
1938.000000	99.201530 
1937.000000	99.201901 
1936.000000	99.203941 
1935.000000	99.207184 
1934.000000	99.209916 
1933.000000	99.211381 
1932.000000	99.212509 
1931.000000	99.214424 
1930.000000	99.216646 
1929.000000	99.217397 
1928.000000	99.216043 
1927.000000	99.213907 
1926.000000	99.212822 
1925.000000	99.213245 
1924.000000	99.214256 
1923.000000	99.215220 
1922.000000	99.216171 
1921.000000	99.216903 
1920.000000	99.216557 
1919.000000	99.214528 
1918.000000	99.211340 
1917.000000	99.208449 
1916.000000	99.207028 
1915.000000	99.207120 
1914.000000	99.208017 
1913.000000	99.209213 
1912.000000	99.210718 
1911.000000	99.212598 
1910.000000	99.214245 
1909.000000	99.214736 
1908.000000	99.214306 
1907.000000	99.214291 
1906.000000	99.215535 
1905.000000	99.217304 
1904.000000	99.218191 
1903.000000	99.217933 
1902.000000	99.217293 
1901.000000	99.216846 
1900.000000	99.216585 
1899.000000	99.216360 
1898.000000	99.216229 
1897.000000	99.216299 
1896.000000	99.216498 
1895.000000	99.216712 
1894.000000	99.216829 
1893.000000	99.216819 
1892.000000	99.216878 
1891.000000	99.217235 
1890.000000	99.217681 
1889.000000	99.217670 
1888.000000	99.217118 
1887.000000	99.216528 
1886.000000	99.216242 
1885.000000	99.216171 
1884.000000	99.216252 
1883.000000	99.216730 
1882.000000	99.217580 
1881.000000	99.218163 
1880.000000	99.218131 
1879.000000	99.218115 
1878.000000	99.219025 
1877.000000	99.220961 
1876.000000	99.223061 
1875.000000	99.224465 
1874.000000	99.224886 
1873.000000	99.224294 
1872.000000	99.222934 
1871.000000	99.221587 
1870.000000	99.221065 
1869.000000	99.221146 
1868.000000	99.220932 
1867.000000	99.220568 
1866.000000	99.220930 
1865.000000	99.221837 
1864.000000	99.221955 
1863.000000	99.220404 
1862.000000	99.217961 
1861.000000	99.216413 
1860.000000	99.216852 
1859.000000	99.219104 
1858.000000	99.222101 
1857.000000	99.224580 
1856.000000	99.226016 
1855.000000	99.226901 
1854.000000	99.227934 
1853.000000	99.228906 
1852.000000	99.229213 
1851.000000	99.228887 
1850.000000	99.228693 
1849.000000	99.229454 
1848.000000	99.231147 
1847.000000	99.233007 
1846.000000	99.234223 
1845.000000	99.234625 
1844.000000	99.234739 
1843.000000	99.235336 
1842.000000	99.236518 
1841.000000	99.237431 
1840.000000	99.237463 
1839.000000	99.236822 
1838.000000	99.236198 
1837.000000	99.235974 
1836.000000	99.235971 
1835.000000	99.236033 
1834.000000	99.236207 
1833.000000	99.236492 
1832.000000	99.236754 
1831.000000	99.236738 
1830.000000	99.236410 
1829.000000	99.236339 
1828.000000	99.237029 
1827.000000	99.238176 
1826.000000	99.239102 
1825.000000	99.239499 
1824.000000	99.239484 
1823.000000	99.239246 
1822.000000	99.238719 
1821.000000	99.237933 
1820.000000	99.237457 
1819.000000	99.237919 
1818.000000	99.239358 
1817.000000	99.240943 
1816.000000	99.241682 
1815.000000	99.241616 
1814.000000	99.241570 
1813.000000	99.242189 
1812.000000	99.243299 
1811.000000	99.244358 
1810.000000	99.245247 
1809.000000	99.245883 
1808.000000	99.245889 
1807.000000	99.245101 
1806.000000	99.243855 
1805.000000	99.242665 
1804.000000	99.241870 
1803.000000	99.241671 
1802.000000	99.241881 
1801.000000	99.241936 
1800.000000	99.241446 
1799.000000	99.240777 
1798.000000	99.240704 
1797.000000	99.241383 
1796.000000	99.242413 
1795.000000	99.243480 
1794.000000	99.244505 
1793.000000	99.245279 
1792.000000	99.245367 
1791.000000	99.244860 
1790.000000	99.244459 
1789.000000	99.244385 
1788.000000	99.244425 
1787.000000	99.244559 
1786.000000	99.244964 
1785.000000	99.245475 
1784.000000	99.245630 
1783.000000	99.245352 
1782.000000	99.244773 
1781.000000	99.244040 
1780.000000	99.243235 
1779.000000	99.242431 
1778.000000	99.241919 
1777.000000	99.241861 
1776.000000	99.242242 
1775.000000	99.242728 
1774.000000	99.242876 
1773.000000	99.242597 
1772.000000	99.242181 
1771.000000	99.241945 
1770.000000	99.241924 
1769.000000	99.241854 
1768.000000	99.241540 
1767.000000	99.241068 
1766.000000	99.240668 
1765.000000	99.240474 
1764.000000	99.240395 
1763.000000	99.240238 
1762.000000	99.239838 
1761.000000	99.239310 
1760.000000	99.238929 
1759.000000	99.238792 
1758.000000	99.238897 
1757.000000	99.239158 
1756.000000	99.239435 
1755.000000	99.239432 
1754.000000	99.238942 
1753.000000	99.238134 
1752.000000	99.237502 
1751.000000	99.237098 
1750.000000	99.236485 
1749.000000	99.235538 
1748.000000	99.234694 
1747.000000	99.234374 
1746.000000	99.234318 
1745.000000	99.234115 
1744.000000	99.233690 
1743.000000	99.233222 
1742.000000	99.232912 
1741.000000	99.232735 
1740.000000	99.232478 
1739.000000	99.232210 
1738.000000	99.232278 
1737.000000	99.232524 
1736.000000	99.232517 
1735.000000	99.232299 
1734.000000	99.231906 
1733.000000	99.231377 
1732.000000	99.231226 
1731.000000	99.231270 
1730.000000	99.231241 
1729.000000	99.231116 
1728.000000	99.230970 
1727.000000	99.230822 
1726.000000	99.230624 
1725.000000	99.230498 
1724.000000	99.230400 
1723.000000	99.230162 
1722.000000	99.229819 
1721.000000	99.229386 
1720.000000	99.228883 
1719.000000	99.228565 
1718.000000	99.228779 
1717.000000	99.229193 
1716.000000	99.229115 
1715.000000	99.228584 
1714.000000	99.228009 
1713.000000	99.227412 
1712.000000	99.226587 
1711.000000	99.225684 
1710.000000	99.225034 
1709.000000	99.224712 
1708.000000	99.224523 
1707.000000	99.224224 
1706.000000	99.223721 
1705.000000	99.222992 
1704.000000	99.222119 
1703.000000	99.221252 
1702.000000	99.220540 
1701.000000	99.220104 
1700.000000	99.219606 
1699.000000	99.218893 
1698.000000	99.218320 
1697.000000	99.217731 
1696.000000	99.216877 
1695.000000	99.215784 
1694.000000	99.214804 
1693.000000	99.214017 
1692.000000	99.213232 
1691.000000	99.212447 
1690.000000	99.211723 
1689.000000	99.210998 
1688.000000	99.210242 
1687.000000	99.209445 
1686.000000	99.208715 
1685.000000	99.208177 
1684.000000	99.207563 
1683.000000	99.206755 
1682.000000	99.205949 
1681.000000	99.205015 
1680.000000	99.204004 
1679.000000	99.203053 
1678.000000	99.202134 
1677.000000	99.201145 
1676.000000	99.200168 
1675.000000	99.199368 
1674.000000	99.198732 
1673.000000	99.198229 
1672.000000	99.197781 
1671.000000	99.197356 
1670.000000	99.196866 
1669.000000	99.196073 
1668.000000	99.195064 
1667.000000	99.194084 
1666.000000	99.193120 
1665.000000	99.192089 
1664.000000	99.191018 
1663.000000	99.190102 
1662.000000	99.189360 
1661.000000	99.188652 
1660.000000	99.188098 
1659.000000	99.187783 
1658.000000	99.187598 
1657.000000	99.187409 
1656.000000	99.187120 
1655.000000	99.186729 
1654.000000	99.186722 
1653.000000	99.185916 
1652.000000	99.183562 
1651.000000	99.182718 
1650.000000	99.182613 
1649.000000	99.182177 
1648.000000	99.181758 
1647.000000	99.181464 
1646.000000	99.180759 
1645.000000	99.180239 
1644.000000	99.180242 
1643.000000	99.180467 
1642.000000	99.180340 
1641.000000	99.179480 
1640.000000	99.178264 
1639.000000	99.177051 
1638.000000	99.176192 
1637.000000	99.176370 
1636.000000	99.178274 
1635.000000	99.180780 
1634.000000	99.182590 
1633.000000	99.183160 
1632.000000	99.181801 
1631.000000	99.179459 
1630.000000	99.177610 
1629.000000	99.177000 
1628.000000	99.177535 
1627.000000	99.178985 
1626.000000	99.180567 
1625.000000	99.181432 
1624.000000	99.181700 
1623.000000	99.182122 
1622.000000	99.183004 
1621.000000	99.184095 
1620.000000	99.185104 
1619.000000	99.185771 
1618.000000	99.186635 
1617.000000	99.188150 
1616.000000	99.190668 
1615.000000	99.194607 
1614.000000	99.198456 
1613.000000	99.200450 
1612.000000	99.201397 
1611.000000	99.203095 
1610.000000	99.205143 
1609.000000	99.206089 
1608.000000	99.206513 
1607.000000	99.208030 
1606.000000	99.210051 
1605.000000	99.211171 
1604.000000	99.211976 
1603.000000	99.213478 
1602.000000	99.215718 
1601.000000	99.218281 
1600.000000	99.221259 
1599.000000	99.224524 
1598.000000	99.227116 
1597.000000	99.228380 
1596.000000	99.228573 
1595.000000	99.228165 
1594.000000	99.227250 
1593.000000	99.226278 
1592.000000	99.226456 
1591.000000	99.228348 
1590.000000	99.230787 
1589.000000	99.232381 
1588.000000	99.233476 
1587.000000	99.235281 
1586.000000	99.237648 
1585.000000	99.239098 
1584.000000	99.239572 
1583.000000	99.239917 
1582.000000	99.239888 
1581.000000	99.239074 
1580.000000	99.237930 
1579.000000	99.236864 
1578.000000	99.235830 
1577.000000	99.235236 
1576.000000	99.235403 
1575.000000	99.236325 
1574.000000	99.237487 
1573.000000	99.238058 
1572.000000	99.238034 
1571.000000	99.238120 
1570.000000	99.238593 
1569.000000	99.239028 
1568.000000	99.239489 
1567.000000	99.239792 
1566.000000	99.239547 
1565.000000	99.238986 
1564.000000	99.238722 
1563.000000	99.238873 
1562.000000	99.238997 
1561.000000	99.238913 
1560.000000	99.239207 
1559.000000	99.239649 
1558.000000	99.239656 
1557.000000	99.239900 
1556.000000	99.240190 
1555.000000	99.240298 
1554.000000	99.240198 
1553.000000	99.240023 
1552.000000	99.239887 
1551.000000	99.239781 
1550.000000	99.239747 
1549.000000	99.239819 
1548.000000	99.239962 
1547.000000	99.240079 
1546.000000	99.240095 
1545.000000	99.240032 
1544.000000	99.240001 
1543.000000	99.240095 
1542.000000	99.240326 
1541.000000	99.240642 
1540.000000	99.240916 
1539.000000	99.241114 
1538.000000	99.241326 
1537.000000	99.241565 
1536.000000	99.241771 
1535.000000	99.241949 
1534.000000	99.242102 
1533.000000	99.242204 
1532.000000	99.242291 
1531.000000	99.242436 
1530.000000	99.242672 
1529.000000	99.242943 
1528.000000	99.243147 
1527.000000	99.243300 
1526.000000	99.243525 
1525.000000	99.243872 
1524.000000	99.244258 
1523.000000	99.244665 
1522.000000	99.245257 
1521.000000	99.245887 
1520.000000	99.246145 
1519.000000	99.245846 
1518.000000	99.245023 
1517.000000	99.244104 
1516.000000	99.243547 
1515.000000	99.243437 
1514.000000	99.243547 
1513.000000	99.243774 
1512.000000	99.244054 
1511.000000	99.244138 
1510.000000	99.243879 
1509.000000	99.243455 
1508.000000	99.243568 
1507.000000	99.244647 
1506.000000	99.245792 
1505.000000	99.246068 
1504.000000	99.245676 
1503.000000	99.245115 
1502.000000	99.244767 
1501.000000	99.244748 
1500.000000	99.244661 
1499.000000	99.243944 
1498.000000	99.242563 
1497.000000	99.241061 
1496.000000	99.239800 
1495.000000	99.239236 
1494.000000	99.239769 
1493.000000	99.241067 
1492.000000	99.242364 
1491.000000	99.243058 
1490.000000	99.242935 
1489.000000	99.241950 
1488.000000	99.240009 
1487.000000	99.237627 
1486.000000	99.235685 
1485.000000	99.234035 
1484.000000	99.232435 
1483.000000	99.231036 
1482.000000	99.230142 
1481.000000	99.229703 
1480.000000	99.229085 
1479.000000	99.227953 
1478.000000	99.226492 
1477.000000	99.224971 
1476.000000	99.223324 
1475.000000	99.221968 
1474.000000	99.221616 
1473.000000	99.222142 
1472.000000	99.222100 
1471.000000	99.220572 
1470.000000	99.218260 
1469.000000	99.215789 
1468.000000	99.213277 
1467.000000	99.211028 
1466.000000	99.209625 
1465.000000	99.209356 
1464.000000	99.209885 
1463.000000	99.210215 
1462.000000	99.209880 
1461.000000	99.209028 
1460.000000	99.207942 
1459.000000	99.206458 
1458.000000	99.203815 
1457.000000	99.199139 
1456.000000	99.193437 
1455.000000	99.189356 
1454.000000	99.187147 
1453.000000	99.186749 
1452.000000	99.188442 
1451.000000	99.191195 
1450.000000	99.193212 
1449.000000	99.193329 
1448.000000	99.191378 
1447.000000	99.188674 
1446.000000	99.186582 
1445.000000	99.185953 
1444.000000	99.187004 
1443.000000	99.188347 
1442.000000	99.189008 
1441.000000	99.189168 
1440.000000	99.189455 
1439.000000	99.189682 
1438.000000	99.190666 
1437.000000	99.193390 
1436.000000	99.195646 
1435.000000	99.194775 
1434.000000	99.191101 
1433.000000	99.186347 
1432.000000	99.182043 
1431.000000	99.178805 
1430.000000	99.176528 
1429.000000	99.175132 
1428.000000	99.173816 
1427.000000	99.172177 
1426.000000	99.170133 
1425.000000	99.168612 
1424.000000	99.168404 
1423.000000	99.167754 
1422.000000	99.164911 
1421.000000	99.160199 
1420.000000	99.155484 
1419.000000	99.151243 
1418.000000	99.147306 
1417.000000	99.144101 
1416.000000	99.140311 
1415.000000	99.134537 
1414.000000	99.127385 
1413.000000	99.121040 
1412.000000	99.116877 
1411.000000	99.113814 
1410.000000	99.110379 
1409.000000	99.106883 
1408.000000	99.104477 
1407.000000	99.104241 
1406.000000	99.106140 
1405.000000	99.109317 
1404.000000	99.113127 
1403.000000	99.117152 
1402.000000	99.121690 
1401.000000	99.127086 
1400.000000	99.132687 
1399.000000	99.136420 
1398.000000	99.136478 
1397.000000	99.132453 
1396.000000	99.124992 
1395.000000	99.117100 
1394.000000	99.113652 
1393.000000	99.117462 
1392.000000	99.126525 
1391.000000	99.136034 
1390.000000	99.142704 
1389.000000	99.146069 
1388.000000	99.146786 
1387.000000	99.145378 
1386.000000	99.142975 
1385.000000	99.141475 
1384.000000	99.141921 
1383.000000	99.143391 
1382.000000	99.144308 
1381.000000	99.144275 
1380.000000	99.144487 
1379.000000	99.146358 
1378.000000	99.149960 
1377.000000	99.154138 
1376.000000	99.157785 
1375.000000	99.160758 
1374.000000	99.163764 
1373.000000	99.167775 
1372.000000	99.172932 
1371.000000	99.178316 
1370.000000	99.182714 
1369.000000	99.185745 
1368.000000	99.188188 
1367.000000	99.190782 
1366.000000	99.193656 
1365.000000	99.196714 
1364.000000	99.200071 
1363.000000	99.203743 
1362.000000	99.207270 
1361.000000	99.210007 
1360.000000	99.211862 
1359.000000	99.213667 
1358.000000	99.216650 
1357.000000	99.221321 
1356.000000	99.226709 
1355.000000	99.230967 
1354.000000	99.233419 
1353.000000	99.235217 
1352.000000	99.237346 
1351.000000	99.239422 
1350.000000	99.240454 
1349.000000	99.240694 
1348.000000	99.241387 
1347.000000	99.242646 
1346.000000	99.243722 
1345.000000	99.244482 
1344.000000	99.245547 
1343.000000	99.246879 
1342.000000	99.247888 
1341.000000	99.248795 
1340.000000	99.250538 
1339.000000	99.252869 
1338.000000	99.254361 
1337.000000	99.254719 
1336.000000	99.255212 
1335.000000	99.256550 
1334.000000	99.257898 
1333.000000	99.258347 
1332.000000	99.258089 
1331.000000	99.257564 
1330.000000	99.256625 
1329.000000	99.255405 
1328.000000	99.254862 
1327.000000	99.255480 
1326.000000	99.256115 
1325.000000	99.255480 
1324.000000	99.254039 
1323.000000	99.253214 
1322.000000	99.253608 
1321.000000	99.254830 
1320.000000	99.256597 
1319.000000	99.258860 
1318.000000	99.260991 
1317.000000	99.261781 
1316.000000	99.260530 
1315.000000	99.257770 
1314.000000	99.254867 
1313.000000	99.252975 
1312.000000	99.252287 
1311.000000	99.252282 
1310.000000	99.252552 
1309.000000	99.253106 
1308.000000	99.253690 
1307.000000	99.253472 
1306.000000	99.251916 
1305.000000	99.249939 
1304.000000	99.249359 
1303.000000	99.250886 
1302.000000	99.253422 
1301.000000	99.255349 
1300.000000	99.256032 
1299.000000	99.255910 
1298.000000	99.255951 
1297.000000	99.257120 
1296.000000	99.259630 
1295.000000	99.262305 
1294.000000	99.263330 
1293.000000	99.262016 
1292.000000	99.259323 
1291.000000	99.256686 
1290.000000	99.254944 
1289.000000	99.254613 
1288.000000	99.256051 
1287.000000	99.258570 
1286.000000	99.260290 
1285.000000	99.259907 
1284.000000	99.258013 
1283.000000	99.256082 
1282.000000	99.254558 
1281.000000	99.252831 
1280.000000	99.250838 
1279.000000	99.249430 
1278.000000	99.249073 
1277.000000	99.249232 
1276.000000	99.249311 
1275.000000	99.249421 
1274.000000	99.249768 
1273.000000	99.249886 
1272.000000	99.249044 
1271.000000	99.247231 
1270.000000	99.245301 
1269.000000	99.244057 
1268.000000	99.243347 
1267.000000	99.242093 
1266.000000	99.239294 
1265.000000	99.235128 
1264.000000	99.230979 
1263.000000	99.228130 
1262.000000	99.226430 
1261.000000	99.224573 
1260.000000	99.221774 
1259.000000	99.218619 
1258.000000	99.216077 
1257.000000	99.214330 
1256.000000	99.213005 
1255.000000	99.212009 
1254.000000	99.211313 
1253.000000	99.210265 
1252.000000	99.208226 
1251.000000	99.206077 
1250.000000	99.206070 
1249.000000	99.209548 
1248.000000	99.215350 
1247.000000	99.220755 
1246.000000	99.223352 
1245.000000	99.221517 
1244.000000	99.214371 
1243.000000	99.203216 
1242.000000	99.192664 
1241.000000	99.187920 
1240.000000	99.189954 
1239.000000	99.194500 
1238.000000	99.196618 
1237.000000	99.195333 
1236.000000	99.192852 
1235.000000	99.190595 
1234.000000	99.187757 
1233.000000	99.183257 
1232.000000	99.177141 
1231.000000	99.169872 
1230.000000	99.161873 
1229.000000	99.154426 
1228.000000	99.149688 
1227.000000	99.148691 
1226.000000	99.149749 
1225.000000	99.149704 
1224.000000	99.146589 
1223.000000	99.140626 
1222.000000	99.133109 
1221.000000	99.125076 
1220.000000	99.117100 
1219.000000	99.109648 
1218.000000	99.102983 
1217.000000	99.096664 
1216.000000	99.089419 
1215.000000	99.079852 
1214.000000	99.067388 
1213.000000	99.052463 
1212.000000	99.035889 
1211.000000	99.018555 
1210.000000	99.001837 
1209.000000	98.987399 
1208.000000	98.975686 
1207.000000	98.964844 
1206.000000	98.952216 
1205.000000	98.937087 
1204.000000	98.921135 
1203.000000	98.906013 
1202.000000	98.891466 
1201.000000	98.876299 
1200.000000	98.860308 
1199.000000	98.844350 
1198.000000	98.829003 
1197.000000	98.813903 
1196.000000	98.798059 
1195.000000	98.780353 
1194.000000	98.760260 
1193.000000	98.738683 
1192.000000	98.717591 
1191.000000	98.697958 
1190.000000	98.678432 
1189.000000	98.657082 
1188.000000	98.634181 
1187.000000	98.612164 
1186.000000	98.592899 
1185.000000	98.576086 
1184.000000	98.560273 
1183.000000	98.544092 
1182.000000	98.526289 
1181.000000	98.506017 
1180.000000	98.483845 
1179.000000	98.461453 
1178.000000	98.439596 
1177.000000	98.417238 
1176.000000	98.393224 
1175.000000	98.367688 
1174.000000	98.340963 
1173.000000	98.312312 
1172.000000	98.281264 
1171.000000	98.249599 
1170.000000	98.220379 
1169.000000	98.194871 
1168.000000	98.171561 
1167.000000	98.148552 
1166.000000	98.126435 
1165.000000	98.108599 
1164.000000	98.099033 
1163.000000	98.099657 
1162.000000	98.109061 
1161.000000	98.123362 
1160.000000	98.138191 
1159.000000	98.149815 
1158.000000	98.154915 
1157.000000	98.150422 
1156.000000	98.134663 
1155.000000	98.109320 
1154.000000	98.079987 
1153.000000	98.053325 
1152.000000	98.032304 
1151.000000	98.014227 
1150.000000	97.994161 
1149.000000	97.970298 
1148.000000	97.945044 
1147.000000	97.920917 
1146.000000	97.897069 
1145.000000	97.870882 
1144.000000	97.841593 
1143.000000	97.810766 
1142.000000	97.780294 
1141.000000	97.751756 
1140.000000	97.726864 
1139.000000	97.705913 
1138.000000	97.685629 
1137.000000	97.661052 
1136.000000	97.630437 
1135.000000	97.596837 
1134.000000	97.564152 
1133.000000	97.532946 
1132.000000	97.501038 
1131.000000	97.467032 
1130.000000	97.432207 
1129.000000	97.399289 
1128.000000	97.369566 
1127.000000	97.340844 
1126.000000	97.308819 
1125.000000	97.271569 
1124.000000	97.232055 
1123.000000	97.194755 
1122.000000	97.160475 
1121.000000	97.126522 
1120.000000	97.091313 
1119.000000	97.055972 
1118.000000	97.021382 
1117.000000	96.986938 
1116.000000	96.953101 
1115.000000	96.922141 
1114.000000	96.894778 
1113.000000	96.868501 
1112.000000	96.840763 
1111.000000	96.811678 
1110.000000	96.782072 
1109.000000	96.751351 
1108.000000	96.719258 
1107.000000	96.687900 
1106.000000	96.659587 
1105.000000	96.633515 
1104.000000	96.606591 
1103.000000	96.577101 
1102.000000	96.546334 
1101.000000	96.517053 
1100.000000	96.491179 
1099.000000	96.468584 
1098.000000	96.447473 
1097.000000	96.426172 
1096.000000	96.404527 
1095.000000	96.382764 
1094.000000	96.359624 
1093.000000	96.333002 
1092.000000	96.302134 
1091.000000	96.267844 
1090.000000	96.231334 
1089.000000	96.194457 
1088.000000	96.160348 
1087.000000	96.131121 
1086.000000	96.104983 
1085.000000	96.078205 
1084.000000	96.049978 
1083.000000	96.022661 
1082.000000	95.997081 
1081.000000	95.970590 
1080.000000	95.940573 
1079.000000	95.907455 
1078.000000	95.873617 
1077.000000	95.841618 
1076.000000	95.813792 
1075.000000	95.790860 
1074.000000	95.770065 
1073.000000	95.746791 
1072.000000	95.718051 
1071.000000	95.682008 
1070.000000	95.635068 
1069.000000	95.574183 
1068.000000	95.503338 
1067.000000	95.433914 
1066.000000	95.375554 
1065.000000	95.328365 
1064.000000	95.285643 
1063.000000	95.241044 
1062.000000	95.190907 
1061.000000	95.132926 
1060.000000	95.066722 
1059.000000	94.995644 
1058.000000	94.925816 
1057.000000	94.862603 
1056.000000	94.807663 
1055.000000	94.758041 
1054.000000	94.707988 
1053.000000	94.653504 
1052.000000	94.595713 
1051.000000	94.538288 
1050.000000	94.481729 
1049.000000	94.422535 
1048.000000	94.357860 
1047.000000	94.288402 
1046.000000	94.217022 
1045.000000	94.146879 
1044.000000	94.080091 
1043.000000	94.015933 
1042.000000	93.951484 
1041.000000	93.886397 
1040.000000	93.825239 
1039.000000	93.772260 
1038.000000	93.726221 
1037.000000	93.684051 
1036.000000	93.647057 
1035.000000	93.618688 
1034.000000	93.598158 
1033.000000	93.581324 
1032.000000	93.565887 
1031.000000	93.550647 
1030.000000	93.532528 
1029.000000	93.511336 
1028.000000	93.495562 
1027.000000	93.495304 
1026.000000	93.509136 
1025.000000	93.524596 
1024.000000	93.532140 
1023.000000	93.532380 
1022.000000	93.529780 
1021.000000	93.526662 
1020.000000	93.524520 
1019.000000	93.524396 
1018.000000	93.523830 
1017.000000	93.518852 
1016.000000	93.510534 
1015.000000	93.504573 
1014.000000	93.503304 
1013.000000	93.503098 
1012.000000	93.500504 
1011.000000	93.495913 
1010.000000	93.490605 
1009.000000	93.485798 
1008.000000	93.485612 
1007.000000	93.495229 
1006.000000	93.514237 
1005.000000	93.536387 
1004.000000	93.557303 
1003.000000	93.578202 
1002.000000	93.601345 
1001.000000	93.626625 
1000.000000	93.653408 
999.000000	 93.681042 
998.000000	 93.706934 
997.000000	 93.729085 
996.000000	 93.751329 
995.000000	 93.780997 
994.000000	 93.820116 
993.000000	 93.863255 
992.000000	 93.904896 
991.000000	 93.944489 
990.000000	 93.983385 
989.000000	 94.021694 
988.000000	 94.059950 
987.000000	 94.100117 
986.000000	 94.143601 
985.000000	 94.191240 
984.000000	 94.245112 
983.000000	 94.306398 
982.000000	 94.371691 
981.000000	 94.435885 
980.000000	 94.499148 
979.000000	 94.566868 
978.000000	 94.642282 
977.000000	 94.723199 
976.000000	 94.806074 
975.000000	 94.889016 
974.000000	 94.970597 
973.000000	 95.050248 
972.000000	 95.130480 
971.000000	 95.214546 
970.000000	 95.301199 
969.000000	 95.385566 
968.000000	 95.465688 
967.000000	 95.544283 
966.000000	 95.623462 
965.000000	 95.701606 
964.000000	 95.776433 
963.000000	 95.847749 
962.000000	 95.916246 
961.000000	 95.982505 
960.000000	 96.047669 
959.000000	 96.112059 
958.000000	 96.172901 
957.000000	 96.226789 
956.000000	 96.274868 
955.000000	 96.322242 
954.000000	 96.371527 
953.000000	 96.420343 
952.000000	 96.466141 
951.000000	 96.509753 
950.000000	 96.552313 
949.000000	 96.591775 
948.000000	 96.625055 
947.000000	 96.651758 
946.000000	 96.673814 
945.000000	 96.692844 
944.000000	 96.709836 
943.000000	 96.726707 
942.000000	 96.746366 
941.000000	 96.770580 
940.000000	 96.797701 
939.000000	 96.822649 
938.000000	 96.840561 
937.000000	 96.851938 
936.000000	 96.863375 
935.000000	 96.881466 
934.000000	 96.906439 
933.000000	 96.933438 
932.000000	 96.958883 
931.000000	 96.982963 
930.000000	 97.006482 
929.000000	 97.028130 
928.000000	 97.045380 
927.000000	 97.056397 
926.000000	 97.061289 
925.000000	 97.063381 
924.000000	 97.068756 
923.000000	 97.081896 
922.000000	 97.101199 
921.000000	 97.120477 
920.000000	 97.134911 
919.000000	 97.144018 
918.000000	 97.149526 
917.000000	 97.152951 
916.000000	 97.155539 
915.000000	 97.158457 
914.000000	 97.162419 
913.000000	 97.168508 
912.000000	 97.179413 
911.000000	 97.198412 
910.000000	 97.227287 
909.000000	 97.266298 
908.000000	 97.314928 
907.000000	 97.370605 
906.000000	 97.427973 
905.000000	 97.482330 
904.000000	 97.533466 
903.000000	 97.584323 
902.000000	 97.637143 
901.000000	 97.692782 
900.000000	 97.751718 
899.000000	 97.812283 
898.000000	 97.868966 
897.000000	 97.916237 
896.000000	 97.954271 
895.000000	 97.988579 
894.000000	 98.024206 
893.000000	 98.062262 
892.000000	 98.101568 
891.000000	 98.140934 
890.000000	 98.179649 
889.000000	 98.217756 
888.000000	 98.255923 
887.000000	 98.293674 
886.000000	 98.328658 
885.000000	 98.359514 
884.000000	 98.388265 
883.000000	 98.417394 
882.000000	 98.445763 
881.000000	 98.470805 
880.000000	 98.494337 
879.000000	 98.522339 
878.000000	 98.557750 
877.000000	 98.596307 
876.000000	 98.630790 
875.000000	 98.657423 
874.000000	 98.677691 
873.000000	 98.696188 
872.000000	 98.717464 
871.000000	 98.743277 
870.000000	 98.772051 
869.000000	 98.801790 
868.000000	 98.833116 
867.000000	 98.867683 
866.000000	 98.903931 
865.000000	 98.937065 
864.000000	 98.964199 
863.000000	 98.987480 
862.000000	 99.010617 
861.000000	 99.033542 
860.000000	 99.052648 
859.000000	 99.066327 
858.000000	 99.078348 
857.000000	 99.094494 
856.000000	 99.116712 
855.000000	 99.142033 
854.000000	 99.166639 
853.000000	 99.188687 
852.000000	 99.206692 
851.000000	 99.218270 
850.000000	 99.223272 
849.000000	 99.226363 
848.000000	 99.233201 
847.000000	 99.244411 
846.000000	 99.255878 
845.000000	 99.264215 
844.000000	 99.268785 
843.000000	 99.269193 
842.000000	 99.265221 
841.000000	 99.259522 
840.000000	 99.255560 
839.000000	 99.251442 
838.000000	 99.240613 
837.000000	 99.221383 
836.000000	 99.201419 
835.000000	 99.189109 
834.000000	 99.184249 
833.000000	 99.182186 
832.000000	 99.183789 
831.000000	 99.194037 
830.000000	 99.210724 
829.000000	 99.221804 
828.000000	 99.217602 
827.000000	 99.202047 
826.000000	 99.188649 
825.000000	 99.187054 
824.000000	 99.195985 
823.000000	 99.207726 
822.000000	 99.216353 
821.000000	 99.221344 
820.000000	 99.225129 
819.000000	 99.229227 
818.000000	 99.233603 
817.000000	 99.238377 
816.000000	 99.243303 
815.000000	 99.244555 
814.000000	 99.234794 
813.000000	 99.208937 
812.000000	 99.168495 
811.000000	 99.117919 
810.000000	 99.057615 
809.000000	 98.983082 
808.000000	 98.890688 
807.000000	 98.781935 
806.000000	 98.662002 
805.000000	 98.536717 
804.000000	 98.412438 
803.000000	 98.297038 
802.000000	 98.198673 
801.000000	 98.123066 
800.000000	 98.071637 
799.000000	 98.041419 
798.000000	 98.027795 
797.000000	 98.028640 
796.000000	 98.044078 
795.000000	 98.071015 
794.000000	 98.101607 
793.000000	 98.130385 
792.000000	 98.159554 
791.000000	 98.192821 
790.000000	 98.226540 
789.000000	 98.251585 
788.000000	 98.261824 
787.000000	 98.255922 
786.000000	 98.232883 
785.000000	 98.191957 
784.000000	 98.137571 
783.000000	 98.079891 
782.000000	 98.029158 
781.000000	 97.991577 
780.000000	 97.969526 
779.000000	 97.961450 
778.000000	 97.962158 
777.000000	 97.968201 
776.000000	 97.983150 
775.000000	 98.013184 
774.000000	 98.057547 
773.000000	 98.107772 
772.000000	 98.156323 
771.000000	 98.201503 
770.000000	 98.243752 
769.000000	 98.281855 
768.000000	 98.313940 
767.000000	 98.338988 
766.000000	 98.356763 
765.000000	 98.369015 
764.000000	 98.380474 
763.000000	 98.395165 
762.000000	 98.411292 
761.000000	 98.422881 
760.000000	 98.427111 
759.000000	 98.427900 
758.000000	 98.432412 
757.000000	 98.445678 
756.000000	 98.467066 
755.000000	 98.489154 
754.000000	 98.502040 
753.000000	 98.503017 
752.000000	 98.501274 
751.000000	 98.509554 
750.000000	 98.531768 
749.000000	 98.561535 
748.000000	 98.590892 
747.000000	 98.616284 
746.000000	 98.637648 
745.000000	 98.657115 
744.000000	 98.678906 
743.000000	 98.706122 
742.000000	 98.737225 
741.000000	 98.769082 
740.000000	 98.802462 
739.000000	 98.839940 
738.000000	 98.878910 
737.000000	 98.911616 
736.000000	 98.932626 
735.000000	 98.942806 
734.000000	 98.946953 
733.000000	 98.951464 
732.000000	 98.963061 
731.000000	 98.984105 
730.000000	 99.008445 
729.000000	 99.026792 
728.000000	 99.036943 
727.000000	 99.044338 
726.000000	 99.052457 
725.000000	 99.058396 
724.000000	 99.059293 
723.000000	 99.057511 
722.000000	 99.057577 
721.000000	 99.062888 
720.000000	 99.076909 
719.000000	 99.101953 
718.000000	 99.133786 
717.000000	 99.161837 
716.000000	 99.177441 
715.000000	 99.179669 
714.000000	 99.173835 
713.000000	 99.168121 
712.000000	 99.171362 
711.000000	 99.187928 
710.000000	 99.211639 
709.000000	 99.229209 
708.000000	 99.232289 
707.000000	 99.222269 
706.000000	 99.203011 
705.000000	 99.175678 
704.000000	 99.143551 
703.000000	 99.115019 
702.000000	 99.095746 
701.000000	 99.080562 
700.000000	 99.057309 
699.000000	 99.017770 
698.000000	 98.963941 
697.000000	 98.906920 
696.000000	 98.861324 
695.000000	 98.837041 
694.000000	 98.833860 
693.000000	 98.845145 
692.000000	 98.865903 
691.000000	 98.894209 
690.000000	 98.926436 
689.000000	 98.957634 
688.000000	 98.986921 
687.000000	 99.015345 
686.000000	 99.037764 
685.000000	 99.045508 
684.000000	 99.039514 
683.000000	 99.032941 
682.000000	 99.037634 
681.000000	 99.053964 
680.000000	 99.075209 
679.000000	 99.095043 
678.000000	 99.108373 
677.000000	 99.113158 
676.000000	 99.115550 
675.000000	 99.127009 
674.000000	 99.149164 
673.000000	 99.168083 
672.000000	 99.171431 
671.000000	 99.165482 
670.000000	 99.168334 
669.000000	 99.193756 
668.000000	 99.236374 
667.000000	 99.267912 
666.000000	 99.271379 
665.000000	 99.256376 
664.000000	 99.240417 
663.000000	 99.238564 
662.000000	 99.254598 
661.000000	 99.275275 
660.000000	 99.283114 
659.000000	 99.274057 
658.000000	 99.257168 
657.000000	 99.240931 
656.000000	 99.227313 
655.000000	 99.219198 
654.000000	 99.221094 
653.000000	 99.231148 
652.000000	 99.242543 
651.000000	 99.252437 
650.000000	 99.262365 

