4000.000000	99.332800 
3999.000000	99.332678 
3998.000000	99.332183 
3997.000000	99.331538 
3996.000000	99.331042 
3995.000000	99.330861 
3994.000000	99.331013 
3993.000000	99.331402 
3992.000000	99.331825 
3991.000000	99.332041 
3990.000000	99.331896 
3989.000000	99.331435 
3988.000000	99.330865 
3987.000000	99.330369 
3986.000000	99.329970 
3985.000000	99.329561 
3984.000000	99.328997 
3983.000000	99.328208 
3982.000000	99.327301 
3981.000000	99.326536 
3980.000000	99.326102 
3979.000000	99.325965 
3978.000000	99.325988 
3977.000000	99.326189 
3976.000000	99.326696 
3975.000000	99.327433 
3974.000000	99.328025 
3973.000000	99.328105 
3972.000000	99.327609 
3971.000000	99.326752 
3970.000000	99.325850 
3969.000000	99.325176 
3968.000000	99.324848 
3967.000000	99.324814 
3966.000000	99.324951 
3965.000000	99.325176 
3964.000000	99.325432 
3963.000000	99.325561 
3962.000000	99.325333 
3961.000000	99.324657 
3960.000000	99.323716 
3959.000000	99.322892 
3958.000000	99.322500 
3957.000000	99.322606 
3956.000000	99.322994 
3955.000000	99.323345 
3954.000000	99.323570 
3953.000000	99.323842 
3952.000000	99.324283 
3951.000000	99.324726 
3950.000000	99.324896 
3949.000000	99.324739 
3948.000000	99.324494 
3947.000000	99.324433 
3946.000000	99.324593 
3945.000000	99.324781 
3944.000000	99.324832 
3943.000000	99.324804 
3942.000000	99.324858 
3941.000000	99.325030 
3940.000000	99.325198 
3939.000000	99.325239 
3938.000000	99.325179 
3937.000000	99.325190 
3936.000000	99.325393 
3935.000000	99.325718 
3934.000000	99.325989 
3933.000000	99.326137 
3932.000000	99.326273 
3931.000000	99.326522 
3930.000000	99.326892 
3929.000000	99.327312 
3928.000000	99.327682 
3927.000000	99.327852 
3926.000000	99.327712 
3925.000000	99.327368 
3924.000000	99.327104 
3923.000000	99.327037 
3922.000000	99.327065 
3921.000000	99.327071 
3920.000000	99.327076 
3919.000000	99.327145 
3918.000000	99.327257 
3917.000000	99.327361 
3916.000000	99.327452 
3915.000000	99.327525 
3914.000000	99.327541 
3913.000000	99.327478 
3912.000000	99.327374 
3911.000000	99.327285 
3910.000000	99.327233 
3909.000000	99.327205 
3908.000000	99.327172 
3907.000000	99.327120 
3906.000000	99.327053 
3905.000000	99.326985 
3904.000000	99.326926 
3903.000000	99.326876 
3902.000000	99.326828 
3901.000000	99.326774 
3900.000000	99.326707 
3899.000000	99.326628 
3898.000000	99.326543 
3897.000000	99.326452 
3896.000000	99.326352 
3895.000000	99.326245 
3894.000000	99.326134 
3893.000000	99.326027 
3892.000000	99.325925 
3891.000000	99.325825 
3890.000000	99.325727 
3889.000000	99.325628 
3888.000000	99.325526 
3887.000000	99.325419 
3886.000000	99.325314 
3885.000000	99.325223 
3884.000000	99.325153 
3883.000000	99.325104 
3882.000000	99.325074 
3881.000000	99.325068 
3880.000000	99.325089 
3879.000000	99.325136 
3878.000000	99.325201 
3877.000000	99.325270 
3876.000000	99.325338 
3875.000000	99.325404 
3874.000000	99.325470 
3873.000000	99.325535 
3872.000000	99.325593 
3871.000000	99.325642 
3870.000000	99.325691 
3869.000000	99.325750 
3868.000000	99.325820 
3867.000000	99.325894 
3866.000000	99.325966 
3865.000000	99.326043 
3864.000000	99.326131 
3863.000000	99.326227 
3862.000000	99.326318 
3861.000000	99.326402 
3860.000000	99.326482 
3859.000000	99.326565 
3858.000000	99.326648 
3857.000000	99.326726 
3856.000000	99.326795 
3855.000000	99.326850 
3854.000000	99.326896 
3853.000000	99.326942 
3852.000000	99.326986 
3851.000000	99.327022 
3850.000000	99.327046 
3849.000000	99.327062 
3848.000000	99.327078 
3847.000000	99.327105 
3846.000000	99.327144 
3845.000000	99.327192 
3844.000000	99.327237 
3843.000000	99.327266 
3842.000000	99.327272 
3841.000000	99.327252 
3840.000000	99.327205 
3839.000000	99.327132 
3838.000000	99.327035 
3837.000000	99.326920 
3836.000000	99.326790 
3835.000000	99.326653 
3834.000000	99.326514 
3833.000000	99.326384 
3832.000000	99.326269 
3831.000000	99.326178 
3830.000000	99.326109 
3829.000000	99.326060 
3828.000000	99.326021 
3827.000000	99.325986 
3826.000000	99.325950 
3825.000000	99.325911 
3824.000000	99.325869 
3823.000000	99.325821 
3822.000000	99.325765 
3821.000000	99.325709 
3820.000000	99.325661 
3819.000000	99.325617 
3818.000000	99.325566 
3817.000000	99.325497 
3816.000000	99.325418 
3815.000000	99.325344 
3814.000000	99.325282 
3813.000000	99.325229 
3812.000000	99.325183 
3811.000000	99.325147 
3810.000000	99.325120 
3809.000000	99.325104 
3808.000000	99.325091 
3807.000000	99.325081 
3806.000000	99.325071 
3805.000000	99.325059 
3804.000000	99.325034 
3803.000000	99.324993 
3802.000000	99.324942 
3801.000000	99.324901 
3800.000000	99.324879 
3799.000000	99.324878 
3798.000000	99.324895 
3797.000000	99.324937 
3796.000000	99.325010 
3795.000000	99.325107 
3794.000000	99.325214 
3793.000000	99.325321 
3792.000000	99.325426 
3791.000000	99.325529 
3790.000000	99.325625 
3789.000000	99.325706 
3788.000000	99.325768 
3787.000000	99.325811 
3786.000000	99.325841 
3785.000000	99.325868 
3784.000000	99.325897 
3783.000000	99.325926 
3782.000000	99.325950 
3781.000000	99.325974 
3780.000000	99.326004 
3779.000000	99.326045 
3778.000000	99.326092 
3777.000000	99.326136 
3776.000000	99.326180 
3775.000000	99.326230 
3774.000000	99.326292 
3773.000000	99.326361 
3772.000000	99.326429 
3771.000000	99.326492 
3770.000000	99.326551 
3769.000000	99.326603 
3768.000000	99.326639 
3767.000000	99.326655 
3766.000000	99.326652 
3765.000000	99.326639 
3764.000000	99.326622 
3763.000000	99.326602 
3762.000000	99.326583 
3761.000000	99.326567 
3760.000000	99.326562 
3759.000000	99.326564 
3758.000000	99.326568 
3757.000000	99.326570 
3756.000000	99.326570 
3755.000000	99.326564 
3754.000000	99.326540 
3753.000000	99.326493 
3752.000000	99.326424 
3751.000000	99.326342 
3750.000000	99.326246 
3749.000000	99.326133 
3748.000000	99.326006 
3747.000000	99.325870 
3746.000000	99.325729 
3745.000000	99.325587 
3744.000000	99.325449 
3743.000000	99.325315 
3742.000000	99.325177 
3741.000000	99.325032 
3740.000000	99.324886 
3739.000000	99.324743 
3738.000000	99.324596 
3737.000000	99.324429 
3736.000000	99.324236 
3735.000000	99.324027 
3734.000000	99.323814 
3733.000000	99.323600 
3732.000000	99.323380 
3731.000000	99.323149 
3730.000000	99.322904 
3729.000000	99.322643 
3728.000000	99.322370 
3727.000000	99.322093 
3726.000000	99.321820 
3725.000000	99.321554 
3724.000000	99.321294 
3723.000000	99.321037 
3722.000000	99.320781 
3721.000000	99.320519 
3720.000000	99.320248 
3719.000000	99.319962 
3718.000000	99.319655 
3717.000000	99.319323 
3716.000000	99.318967 
3715.000000	99.318588 
3714.000000	99.318187 
3713.000000	99.317761 
3712.000000	99.317318 
3711.000000	99.316865 
3710.000000	99.316413 
3709.000000	99.315960 
3708.000000	99.315498 
3707.000000	99.315045 
3706.000000	99.314638 
3705.000000	99.314285 
3704.000000	99.313951 
3703.000000	99.313602 
3702.000000	99.313267 
3701.000000	99.313007 
3700.000000	99.312816 
3699.000000	99.312591 
3698.000000	99.312221 
3697.000000	99.311724 
3696.000000	99.311282 
3695.000000	99.311009 
3694.000000	99.310798 
3693.000000	99.310499 
3692.000000	99.310122 
3691.000000	99.309706 
3690.000000	99.309231 
3689.000000	99.308772 
3688.000000	99.308471 
3687.000000	99.308360 
3686.000000	99.308341 
3685.000000	99.308283 
3684.000000	99.308156 
3683.000000	99.308036 
3682.000000	99.307964 
3681.000000	99.307884 
3680.000000	99.307780 
3679.000000	99.307730 
3678.000000	99.307757 
3677.000000	99.307733 
3676.000000	99.307633 
3675.000000	99.307641 
3674.000000	99.307815 
3673.000000	99.308056 
3672.000000	99.308259 
3671.000000	99.308460 
3670.000000	99.308778 
3669.000000	99.309202 
3668.000000	99.309629 
3667.000000	99.310026 
3666.000000	99.310419 
3665.000000	99.310819 
3664.000000	99.311224 
3663.000000	99.311630 
3662.000000	99.312041 
3661.000000	99.312461 
3660.000000	99.312895 
3659.000000	99.313345 
3658.000000	99.313808 
3657.000000	99.314275 
3656.000000	99.314740 
3655.000000	99.315201 
3654.000000	99.315656 
3653.000000	99.316108 
3652.000000	99.316568 
3651.000000	99.317049 
3650.000000	99.317562 
3649.000000	99.318104 
3648.000000	99.318661 
3647.000000	99.319222 
3646.000000	99.319780 
3645.000000	99.320333 
3644.000000	99.320874 
3643.000000	99.321396 
3642.000000	99.321897 
3641.000000	99.322376 
3640.000000	99.322837 
3639.000000	99.323284 
3638.000000	99.323721 
3637.000000	99.324149 
3636.000000	99.324569 
3635.000000	99.324981 
3634.000000	99.325391 
3633.000000	99.325798 
3632.000000	99.326196 
3631.000000	99.326573 
3630.000000	99.326928 
3629.000000	99.327262 
3628.000000	99.327574 
3627.000000	99.327861 
3626.000000	99.328111 
3625.000000	99.328315 
3624.000000	99.328499 
3623.000000	99.328714 
3622.000000	99.328978 
3621.000000	99.329210 
3620.000000	99.329323 
3619.000000	99.329359 
3618.000000	99.329407 
3617.000000	99.329447 
3616.000000	99.329410 
3615.000000	99.329260 
3614.000000	99.329115 
3613.000000	99.329283 
3612.000000	99.330034 
3611.000000	99.331286 
3610.000000	99.332591 
3609.000000	99.333509 
3608.000000	99.333855 
3607.000000	99.333623 
3606.000000	99.332906 
3605.000000	99.331979 
3604.000000	99.331179 
3603.000000	99.330576 
3602.000000	99.329918 
3601.000000	99.329078 
3600.000000	99.328454 
3599.000000	99.328456 
3598.000000	99.328942 
3597.000000	99.329475 
3596.000000	99.329908 
3595.000000	99.330342 
3594.000000	99.330847 
3593.000000	99.331148 
3592.000000	99.330917 
3591.000000	99.330184 
3590.000000	99.329200 
3589.000000	99.328164 
3588.000000	99.327347 
3587.000000	99.327065 
3586.000000	99.327215 
3585.000000	99.327442 
3584.000000	99.327586 
3583.000000	99.327694 
3582.000000	99.327887 
3581.000000	99.328174 
3580.000000	99.328374 
3579.000000	99.328131 
3578.000000	99.327186 
3577.000000	99.325610 
3576.000000	99.323765 
3575.000000	99.322055 
3574.000000	99.320828 
3573.000000	99.320445 
3572.000000	99.321139 
3571.000000	99.322842 
3570.000000	99.325005 
3569.000000	99.326753 
3568.000000	99.327593 
3567.000000	99.327722 
3566.000000	99.327427 
3565.000000	99.326802 
3564.000000	99.326100 
3563.000000	99.325757 
3562.000000	99.326019 
3561.000000	99.326678 
3560.000000	99.327190 
3559.000000	99.327096 
3558.000000	99.326341 
3557.000000	99.325337 
3556.000000	99.324776 
3555.000000	99.325164 
3554.000000	99.326376 
3553.000000	99.327651 
3552.000000	99.328226 
3551.000000	99.327986 
3550.000000	99.327386 
3549.000000	99.326905 
3548.000000	99.326711 
3547.000000	99.326764 
3546.000000	99.326945 
3545.000000	99.327074 
3544.000000	99.327039 
3543.000000	99.326999 
3542.000000	99.327313 
3541.000000	99.328195 
3540.000000	99.329374 
3539.000000	99.330165 
3538.000000	99.329940 
3537.000000	99.328639 
3536.000000	99.326813 
3535.000000	99.325085 
3534.000000	99.323775 
3533.000000	99.322922 
3532.000000	99.322467 
3531.000000	99.322165 
3530.000000	99.321640 
3529.000000	99.320814 
3528.000000	99.320146 
3527.000000	99.320119 
3526.000000	99.320636 
3525.000000	99.321339 
3524.000000	99.322328 
3523.000000	99.323989 
3522.000000	99.326144 
3521.000000	99.328038 
3520.000000	99.329285 
3519.000000	99.330286 
3518.000000	99.331580 
3517.000000	99.333039 
3516.000000	99.334000 
3515.000000	99.334068 
3514.000000	99.333532 
3513.000000	99.332830 
3512.000000	99.331997 
3511.000000	99.330871 
3510.000000	99.329568 
3509.000000	99.328408 
3508.000000	99.327371 
3507.000000	99.325959 
3506.000000	99.323792 
3505.000000	99.321241 
3504.000000	99.319370 
3503.000000	99.319059 
3502.000000	99.320326 
3501.000000	99.322487 
3500.000000	99.324631 
3499.000000	99.325858 
3498.000000	99.325489 
3497.000000	99.323522 
3496.000000	99.320791 
3495.000000	99.318410 
3494.000000	99.316956 
3493.000000	99.316327 
3492.000000	99.316169 
3491.000000	99.316159 
3490.000000	99.316023 
3489.000000	99.315566 
3488.000000	99.314853 
3487.000000	99.314237 
3486.000000	99.314090 
3485.000000	99.314519 
3484.000000	99.315245 
3483.000000	99.315721 
3482.000000	99.315515 
3481.000000	99.314706 
3480.000000	99.313841 
3479.000000	99.313421 
3478.000000	99.313469 
3477.000000	99.313714 
3476.000000	99.313985 
3475.000000	99.314271 
3474.000000	99.314460 
3473.000000	99.314308 
3472.000000	99.313726 
3471.000000	99.312932 
3470.000000	99.312269 
3469.000000	99.311909 
3468.000000	99.311782 
3467.000000	99.311740 
3466.000000	99.311683 
3465.000000	99.311559 
3464.000000	99.311343 
3463.000000	99.311062 
3462.000000	99.310800 
3461.000000	99.310636 
3460.000000	99.310584 
3459.000000	99.310633 
3458.000000	99.310791 
3457.000000	99.311030 
3456.000000	99.311240 
3455.000000	99.311320 
3454.000000	99.311315 
3453.000000	99.311346 
3452.000000	99.311419 
3451.000000	99.311388 
3450.000000	99.311183 
3449.000000	99.310965 
3448.000000	99.310962 
3447.000000	99.311106 
3446.000000	99.310947 
3445.000000	99.310128 
3444.000000	99.308928 
3443.000000	99.308143 
3442.000000	99.308326 
3441.000000	99.309295 
3440.000000	99.310338 
3439.000000	99.310854 
3438.000000	99.310716 
3437.000000	99.310131 
3436.000000	99.309481 
3435.000000	99.309194 
3434.000000	99.309476 
3433.000000	99.310115 
3432.000000	99.310687 
3431.000000	99.310935 
3430.000000	99.310888 
3429.000000	99.310783 
3428.000000	99.311003 
3427.000000	99.311907 
3426.000000	99.313444 
3425.000000	99.314997 
3424.000000	99.315862 
3423.000000	99.315884 
3422.000000	99.315533 
3421.000000	99.315376 
3420.000000	99.315611 
3419.000000	99.316108 
3418.000000	99.316702 
3417.000000	99.317296 
3416.000000	99.317719 
3415.000000	99.317637 
3414.000000	99.316724 
3413.000000	99.314989 
3412.000000	99.312906 
3411.000000	99.311113 
3410.000000	99.309952 
3409.000000	99.309396 
3408.000000	99.309305 
3407.000000	99.309577 
3406.000000	99.310057 
3405.000000	99.310506 
3404.000000	99.310803 
3403.000000	99.311090 
3402.000000	99.311665 
3401.000000	99.312687 
3400.000000	99.313930 
3399.000000	99.314770 
3398.000000	99.314544 
3397.000000	99.313014 
3396.000000	99.310564 
3395.000000	99.308001 
3394.000000	99.306119 
3393.000000	99.305448 
3392.000000	99.306149 
3391.000000	99.307881 
3390.000000	99.309835 
3389.000000	99.311194 
3388.000000	99.311660 
3387.000000	99.311484 
3386.000000	99.311137 
3385.000000	99.311063 
3384.000000	99.311604 
3383.000000	99.312803 
3382.000000	99.314201 
3381.000000	99.315063 
3380.000000	99.315005 
3379.000000	99.314287 
3378.000000	99.313424 
3377.000000	99.312650 
3376.000000	99.311925 
3375.000000	99.311327 
3374.000000	99.311110 
3373.000000	99.311330 
3372.000000	99.311661 
3371.000000	99.311763 
3370.000000	99.311756 
3369.000000	99.312108 
3368.000000	99.313036 
3367.000000	99.314165 
3366.000000	99.314870 
3365.000000	99.314866 
3364.000000	99.314358 
3363.000000	99.313679 
3362.000000	99.312904 
3361.000000	99.311863 
3360.000000	99.310475 
3359.000000	99.309023 
3358.000000	99.308083 
3357.000000	99.308098 
3356.000000	99.308993 
3355.000000	99.310110 
3354.000000	99.310687 
3353.000000	99.310537 
3352.000000	99.310141 
3351.000000	99.310092 
3350.000000	99.310510 
3349.000000	99.311060 
3348.000000	99.311392 
3347.000000	99.311393 
3346.000000	99.311067 
3345.000000	99.310425 
3344.000000	99.309607 
3343.000000	99.308967 
3342.000000	99.308881 
3341.000000	99.309412 
3340.000000	99.310181 
3339.000000	99.310609 
3338.000000	99.310379 
3337.000000	99.309753 
3336.000000	99.309415 
3335.000000	99.309891 
3334.000000	99.311132 
3333.000000	99.312665 
3332.000000	99.314094 
3331.000000	99.315294 
3330.000000	99.316176 
3329.000000	99.316509 
3328.000000	99.316090 
3327.000000	99.314971 
3326.000000	99.313475 
3325.000000	99.312048 
3324.000000	99.311081 
3323.000000	99.310726 
3322.000000	99.310861 
3321.000000	99.311387 
3320.000000	99.312527 
3319.000000	99.314568 
3318.000000	99.317235 
3317.000000	99.319603 
3316.000000	99.320925 
3315.000000	99.321373 
3314.000000	99.321693 
3313.000000	99.322168 
3312.000000	99.322255 
3311.000000	99.321384 
3310.000000	99.319832 
3309.000000	99.318562 
3308.000000	99.318249 
3307.000000	99.318679 
3306.000000	99.319139 
3305.000000	99.319258 
3304.000000	99.319305 
3303.000000	99.319729 
3302.000000	99.320570 
3301.000000	99.321314 
3300.000000	99.321201 
3299.000000	99.319674 
3298.000000	99.316821 
3297.000000	99.313643 
3296.000000	99.311573 
3295.000000	99.311345 
3294.000000	99.312421 
3293.000000	99.313626 
3292.000000	99.314404 
3291.000000	99.315166 
3290.000000	99.316386 
3289.000000	99.317813 
3288.000000	99.318750 
3287.000000	99.318856 
3286.000000	99.318525 
3285.000000	99.318622 
3284.000000	99.319828 
3283.000000	99.321950 
3282.000000	99.323832 
3281.000000	99.324300 
3280.000000	99.323301 
3279.000000	99.321906 
3278.000000	99.321115 
3277.000000	99.320894 
3276.000000	99.320564 
3275.000000	99.319671 
3274.000000	99.318163 
3273.000000	99.316134 
3272.000000	99.313888 
3271.000000	99.312032 
3270.000000	99.311003 
3269.000000	99.310550 
3268.000000	99.310100 
3267.000000	99.309620 
3266.000000	99.309696 
3265.000000	99.310661 
3264.000000	99.312061 
3263.000000	99.313195 
3262.000000	99.313890 
3261.000000	99.314467 
3260.000000	99.315150 
3259.000000	99.315886 
3258.000000	99.316634 
3257.000000	99.317444 
3256.000000	99.318141 
3255.000000	99.318244 
3254.000000	99.317493 
3253.000000	99.316357 
3252.000000	99.315734 
3251.000000	99.316008 
3250.000000	99.316665 
3249.000000	99.316951 
3248.000000	99.316727 
3247.000000	99.316443 
3246.000000	99.316376 
3245.000000	99.316197 
3244.000000	99.315357 
3243.000000	99.313673 
3242.000000	99.311495 
3241.000000	99.309471 
3240.000000	99.308184 
3239.000000	99.307883 
3238.000000	99.308425 
3237.000000	99.309399 
3236.000000	99.310329 
3235.000000	99.310811 
3234.000000	99.310605 
3233.000000	99.309763 
3232.000000	99.308695 
3231.000000	99.307938 
3230.000000	99.307753 
3229.000000	99.308022 
3228.000000	99.308475 
3227.000000	99.308915 
3226.000000	99.309247 
3225.000000	99.309450 
3224.000000	99.309579 
3223.000000	99.309681 
3222.000000	99.309689 
3221.000000	99.309489 
3220.000000	99.309139 
3219.000000	99.308911 
3218.000000	99.309021 
3217.000000	99.309388 
3216.000000	99.309705 
3215.000000	99.309754 
3214.000000	99.309592 
3213.000000	99.309425 
3212.000000	99.309388 
3211.000000	99.309432 
3210.000000	99.309395 
3209.000000	99.309171 
3208.000000	99.308808 
3207.000000	99.308462 
3206.000000	99.308272 
3205.000000	99.308250 
3204.000000	99.308319 
3203.000000	99.308385 
3202.000000	99.308402 
3201.000000	99.308382 
3200.000000	99.308354 
3199.000000	99.308337 
3198.000000	99.308336 
3197.000000	99.308347 
3196.000000	99.308345 
3195.000000	99.308299 
3194.000000	99.308194 
3193.000000	99.308044 
3192.000000	99.307879 
3191.000000	99.307722 
3190.000000	99.307575 
3189.000000	99.307433 
3188.000000	99.307292 
3187.000000	99.307150 
3186.000000	99.306995 
3185.000000	99.306823 
3184.000000	99.306641 
3183.000000	99.306457 
3182.000000	99.306249 
3181.000000	99.305982 
3180.000000	99.305655 
3179.000000	99.305325 
3178.000000	99.305050 
3177.000000	99.304842 
3176.000000	99.304671 
3175.000000	99.304497 
3174.000000	99.304301 
3173.000000	99.304072 
3172.000000	99.303809 
3171.000000	99.303533 
3170.000000	99.303280 
3169.000000	99.303066 
3168.000000	99.302869 
3167.000000	99.302660 
3166.000000	99.302454 
3165.000000	99.302297 
3164.000000	99.302214 
3163.000000	99.302174 
3162.000000	99.302086 
3161.000000	99.301856 
3160.000000	99.301453 
3159.000000	99.300965 
3158.000000	99.300556 
3157.000000	99.300337 
3156.000000	99.300287 
3155.000000	99.300259 
3154.000000	99.300068 
3153.000000	99.299602 
3152.000000	99.298895 
3151.000000	99.298174 
3150.000000	99.297722 
3149.000000	99.297645 
3148.000000	99.297824 
3147.000000	99.298078 
3146.000000	99.298332 
3145.000000	99.298588 
3144.000000	99.298816 
3143.000000	99.298935 
3142.000000	99.298866 
3141.000000	99.298599 
3140.000000	99.298243 
3139.000000	99.298009 
3138.000000	99.298074 
3137.000000	99.298396 
3136.000000	99.298695 
3135.000000	99.298689 
3134.000000	99.298313 
3133.000000	99.297712 
3132.000000	99.297097 
3131.000000	99.296632 
3130.000000	99.296411 
3129.000000	99.296452 
3128.000000	99.296712 
3127.000000	99.297154 
3126.000000	99.297769 
3125.000000	99.298513 
3124.000000	99.299260 
3123.000000	99.299812 
3122.000000	99.299986 
3121.000000	99.299741 
3120.000000	99.299228 
3119.000000	99.298715 
3118.000000	99.298416 
3117.000000	99.298362 
3116.000000	99.298472 
3115.000000	99.298677 
3114.000000	99.298951 
3113.000000	99.299254 
3112.000000	99.299552 
3111.000000	99.299873 
3110.000000	99.300260 
3109.000000	99.300654 
3108.000000	99.300907 
3107.000000	99.300921 
3106.000000	99.300781 
3105.000000	99.300734 
3104.000000	99.300994 
3103.000000	99.301557 
3102.000000	99.302161 
3101.000000	99.302510 
3100.000000	99.302575 
3099.000000	99.302587 
3098.000000	99.302725 
3097.000000	99.302896 
3096.000000	99.302937 
3095.000000	99.302917 
3094.000000	99.303081 
3093.000000	99.303506 
3092.000000	99.303931 
3091.000000	99.304014 
3090.000000	99.303662 
3089.000000	99.303062 
3088.000000	99.302494 
3087.000000	99.302104 
3086.000000	99.301852 
3085.000000	99.301626 
3084.000000	99.301427 
3083.000000	99.301420 
3082.000000	99.301705 
3081.000000	99.302103 
3080.000000	99.302267 
3079.000000	99.302045 
3078.000000	99.301634 
3077.000000	99.301368 
3076.000000	99.301367 
3075.000000	99.301462 
3074.000000	99.301418 
3073.000000	99.301142 
3072.000000	99.300741 
3071.000000	99.300435 
3070.000000	99.300392 
3069.000000	99.300566 
3068.000000	99.300725 
3067.000000	99.300667 
3066.000000	99.300381 
3065.000000	99.299973 
3064.000000	99.299512 
3063.000000	99.299013 
3062.000000	99.298448 
3061.000000	99.297736 
3060.000000	99.296802 
3059.000000	99.295741 
3058.000000	99.294849 
3057.000000	99.294347 
3056.000000	99.294106 
3055.000000	99.293732 
3054.000000	99.292959 
3053.000000	99.291921 
3052.000000	99.291026 
3051.000000	99.290553 
3050.000000	99.290383 
3049.000000	99.290121 
3048.000000	99.289560 
3047.000000	99.288930 
3046.000000	99.288595 
3045.000000	99.288559 
3044.000000	99.288428 
3043.000000	99.287913 
3042.000000	99.287249 
3041.000000	99.286968 
3040.000000	99.287284 
3039.000000	99.287770 
3038.000000	99.287698 
3037.000000	99.286743 
3036.000000	99.285233 
3035.000000	99.283843 
3034.000000	99.282950 
3033.000000	99.282424 
3032.000000	99.281933 
3031.000000	99.281323 
3030.000000	99.280675 
3029.000000	99.280048 
3028.000000	99.279323 
3027.000000	99.278345 
3026.000000	99.277153 
3025.000000	99.275976 
3024.000000	99.275016 
3023.000000	99.274227 
3022.000000	99.273320 
3021.000000	99.272023 
3020.000000	99.270362 
3019.000000	99.268639 
3018.000000	99.267081 
3017.000000	99.265612 
3016.000000	99.264109 
3015.000000	99.262821 
3014.000000	99.262291 
3013.000000	99.262761 
3012.000000	99.263691 
3011.000000	99.263953 
3010.000000	99.262690 
3009.000000	99.260030 
3008.000000	99.257144 
3007.000000	99.255343 
3006.000000	99.254887 
3005.000000	99.254862 
3004.000000	99.254279 
3003.000000	99.253097 
3002.000000	99.251879 
3001.000000	99.250802 
3000.000000	99.249580 
2999.000000	99.248161 
2998.000000	99.246778 
2997.000000	99.245247 
2996.000000	99.242885 
2995.000000	99.239429 
2994.000000	99.235589 
2993.000000	99.232299 
2992.000000	99.229865 
2991.000000	99.228134 
2990.000000	99.227002 
2989.000000	99.226363 
2988.000000	99.225799 
2987.000000	99.224885 
2986.000000	99.223761 
2985.000000	99.223008 
2984.000000	99.222878 
2983.000000	99.222900 
2982.000000	99.222324 
2981.000000	99.220905 
2980.000000	99.219250 
2979.000000	99.218386 
2978.000000	99.218872 
2977.000000	99.220237 
2976.000000	99.221357 
2975.000000	99.221443 
2974.000000	99.220612 
2973.000000	99.219591 
2972.000000	99.219043 
2971.000000	99.219174 
2970.000000	99.219754 
2969.000000	99.220380 
2968.000000	99.220796 
2967.000000	99.221054 
2966.000000	99.221432 
2965.000000	99.222212 
2964.000000	99.223412 
2963.000000	99.224571 
2962.000000	99.224824 
2961.000000	99.223582 
2960.000000	99.221364 
2959.000000	99.219648 
2958.000000	99.219505 
2957.000000	99.220556 
2956.000000	99.221573 
2955.000000	99.221870 
2954.000000	99.221769 
2953.000000	99.221941 
2952.000000	99.222803 
2951.000000	99.224384 
2950.000000	99.226191 
2949.000000	99.227255 
2948.000000	99.226924 
2947.000000	99.225735 
2946.000000	99.225035 
2945.000000	99.225469 
2944.000000	99.226297 
2943.000000	99.226332 
2942.000000	99.225125 
2941.000000	99.223085 
2940.000000	99.221041 
2939.000000	99.219865 
2938.000000	99.219975 
2937.000000	99.220821 
2936.000000	99.221137 
2935.000000	99.220064 
2934.000000	99.217877 
2933.000000	99.215514 
2932.000000	99.213641 
2931.000000	99.212326 
2930.000000	99.211314 
2929.000000	99.210267 
2928.000000	99.208953 
2927.000000	99.207547 
2926.000000	99.206690 
2925.000000	99.206940 
2924.000000	99.208124 
2923.000000	99.209347 
2922.000000	99.209719 
2921.000000	99.209172 
2920.000000	99.208624 
2919.000000	99.209254 
2918.000000	99.211387 
2917.000000	99.214040 
2916.000000	99.215740 
2915.000000	99.215884 
2914.000000	99.215181 
2913.000000	99.214817 
2912.000000	99.215383 
2911.000000	99.216674 
2910.000000	99.218247 
2909.000000	99.219957 
2908.000000	99.221922 
2907.000000	99.224099 
2906.000000	99.225982 
2905.000000	99.226850 
2904.000000	99.226404 
2903.000000	99.225197 
2902.000000	99.224363 
2901.000000	99.224730 
2900.000000	99.226270 
2899.000000	99.228229 
2898.000000	99.229731 
2897.000000	99.230410 
2896.000000	99.230550 
2895.000000	99.230795 
2894.000000	99.231638 
2893.000000	99.233098 
2892.000000	99.234799 
2891.000000	99.236278 
2890.000000	99.237283 
2889.000000	99.237883 
2888.000000	99.238366 
2887.000000	99.238999 
2886.000000	99.239800 
2885.000000	99.240584 
2884.000000	99.241191 
2883.000000	99.241609 
2882.000000	99.241929 
2881.000000	99.242284 
2880.000000	99.242850 
2879.000000	99.243786 
2878.000000	99.245072 
2877.000000	99.246439 
2876.000000	99.247541 
2875.000000	99.248263 
2874.000000	99.248757 
2873.000000	99.249208 
2872.000000	99.249625 
2871.000000	99.249945 
2870.000000	99.250208 
2869.000000	99.250534 
2868.000000	99.251021 
2867.000000	99.251735 
2866.000000	99.252704 
2865.000000	99.253839 
2864.000000	99.254936 
2863.000000	99.255822 
2862.000000	99.256451 
2861.000000	99.256896 
2860.000000	99.257344 
2859.000000	99.257981 
2858.000000	99.258734 
2857.000000	99.259308 
2856.000000	99.259717 
2855.000000	99.260483 
2854.000000	99.261893 
2853.000000	99.263347 
2852.000000	99.263988 
2851.000000	99.263769 
2850.000000	99.263327 
2849.000000	99.263028 
2848.000000	99.262948 
2847.000000	99.263684 
2846.000000	99.266137 
2845.000000	99.270220 
2844.000000	99.274405 
2843.000000	99.277181 
2842.000000	99.278542 
2841.000000	99.279444 
2840.000000	99.280447 
2839.000000	99.281428 
2838.000000	99.282245 
2837.000000	99.282959 
2836.000000	99.283551 
2835.000000	99.283944 
2834.000000	99.284249 
2833.000000	99.284646 
2832.000000	99.285048 
2831.000000	99.285198 
2830.000000	99.285050 
2829.000000	99.284842 
2828.000000	99.284828 
2827.000000	99.285098 
2826.000000	99.285649 
2825.000000	99.286454 
2824.000000	99.287432 
2823.000000	99.288428 
2822.000000	99.289246 
2821.000000	99.289750 
2820.000000	99.289966 
2819.000000	99.290083 
2818.000000	99.290268 
2817.000000	99.290491 
2816.000000	99.290616 
2815.000000	99.290628 
2814.000000	99.290679 
2813.000000	99.290910 
2812.000000	99.291307 
2811.000000	99.291732 
2810.000000	99.292025 
2809.000000	99.292102 
2808.000000	99.292037 
2807.000000	99.292048 
2806.000000	99.292316 
2805.000000	99.292832 
2804.000000	99.293446 
2803.000000	99.293987 
2802.000000	99.294352 
2801.000000	99.294540 
2800.000000	99.294627 
2799.000000	99.294714 
2798.000000	99.294873 
2797.000000	99.295104 
2796.000000	99.295370 
2795.000000	99.295637 
2794.000000	99.295888 
2793.000000	99.296125 
2792.000000	99.296353 
2791.000000	99.296574 
2790.000000	99.296793 
2789.000000	99.297011 
2788.000000	99.297227 
2787.000000	99.297440 
2786.000000	99.297651 
2785.000000	99.297859 
2784.000000	99.298063 
2783.000000	99.298265 
2782.000000	99.298466 
2781.000000	99.298664 
2780.000000	99.298856 
2779.000000	99.299041 
2778.000000	99.299219 
2777.000000	99.299390 
2776.000000	99.299555 
2775.000000	99.299710 
2774.000000	99.299852 
2773.000000	99.299983 
2772.000000	99.300111 
2771.000000	99.300250 
2770.000000	99.300397 
2769.000000	99.300530 
2768.000000	99.300619 
2767.000000	99.300660 
2766.000000	99.300702 
2765.000000	99.300809 
2764.000000	99.301007 
2763.000000	99.301261 
2762.000000	99.301502 
2761.000000	99.301654 
2760.000000	99.301657 
2759.000000	99.301517 
2758.000000	99.301352 
2757.000000	99.301253 
2756.000000	99.301139 
2755.000000	99.300903 
2754.000000	99.300681 
2753.000000	99.300749 
2752.000000	99.301141 
2751.000000	99.301547 
2750.000000	99.301683 
2749.000000	99.301599 
2748.000000	99.301511 
2747.000000	99.301473 
2746.000000	99.301373 
2745.000000	99.301137 
2744.000000	99.300771 
2743.000000	99.300284 
2742.000000	99.299771 
2741.000000	99.299485 
2740.000000	99.299649 
2739.000000	99.300174 
2738.000000	99.300693 
2737.000000	99.300869 
2736.000000	99.300591 
2735.000000	99.299898 
2734.000000	99.298921 
2733.000000	99.297977 
2732.000000	99.297526 
2731.000000	99.297844 
2730.000000	99.298718 
2729.000000	99.299557 
2728.000000	99.299950 
2727.000000	99.300087 
2726.000000	99.300552 
2725.000000	99.301662 
2724.000000	99.303065 
2723.000000	99.304061 
2722.000000	99.304265 
2721.000000	99.303881 
2720.000000	99.303320 
2719.000000	99.302704 
2718.000000	99.301878 
2717.000000	99.300808 
2716.000000	99.299785 
2715.000000	99.299193 
2714.000000	99.299195 
2713.000000	99.299721 
2712.000000	99.300646 
2711.000000	99.301821 
2710.000000	99.302992 
2709.000000	99.303868 
2708.000000	99.304324 
2707.000000	99.304450 
2706.000000	99.304338 
2705.000000	99.303943 
2704.000000	99.303275 
2703.000000	99.302647 
2702.000000	99.302541 
2701.000000	99.303168 
2700.000000	99.304242 
2699.000000	99.305204 
2698.000000	99.305692 
2697.000000	99.305728 
2696.000000	99.305554 
2695.000000	99.305341 
2694.000000	99.305068 
2693.000000	99.304643 
2692.000000	99.304078 
2691.000000	99.303530 
2690.000000	99.303146 
2689.000000	99.302910 
2688.000000	99.302733 
2687.000000	99.302639 
2686.000000	99.302737 
2685.000000	99.303043 
2684.000000	99.303350 
2683.000000	99.303366 
2682.000000	99.303022 
2681.000000	99.302570 
2680.000000	99.302363 
2679.000000	99.302516 
2678.000000	99.302871 
2677.000000	99.303214 
2676.000000	99.303480 
2675.000000	99.303708 
2674.000000	99.303876 
2673.000000	99.303907 
2672.000000	99.303797 
2671.000000	99.303644 
2670.000000	99.303556 
2669.000000	99.303567 
2668.000000	99.303652 
2667.000000	99.303775 
2666.000000	99.303918 
2665.000000	99.304070 
2664.000000	99.304219 
2663.000000	99.304352 
2662.000000	99.304466 
2661.000000	99.304562 
2660.000000	99.304657 
2659.000000	99.304766 
2658.000000	99.304863 
2657.000000	99.304882 
2656.000000	99.304789 
2655.000000	99.304653 
2654.000000	99.304592 
2653.000000	99.304677 
2652.000000	99.304918 
2651.000000	99.305276 
2650.000000	99.305624 
2649.000000	99.305699 
2648.000000	99.305260 
2647.000000	99.304344 
2646.000000	99.303404 
2645.000000	99.302970 
2644.000000	99.303212 
2643.000000	99.303885 
2642.000000	99.304572 
2641.000000	99.305006 
2640.000000	99.305174 
2639.000000	99.305275 
2638.000000	99.305583 
2637.000000	99.306169 
2636.000000	99.306742 
2635.000000	99.306894 
2634.000000	99.306534 
2633.000000	99.306043 
2632.000000	99.305966 
2631.000000	99.306568 
2630.000000	99.307676 
2629.000000	99.308784 
2628.000000	99.309340 
2627.000000	99.309058 
2626.000000	99.308095 
2625.000000	99.306975 
2624.000000	99.306221 
2623.000000	99.305998 
2622.000000	99.306065 
2621.000000	99.306034 
2620.000000	99.305644 
2619.000000	99.304822 
2618.000000	99.303620 
2617.000000	99.302277 
2616.000000	99.301272 
2615.000000	99.301037 
2614.000000	99.301410 
2613.000000	99.301596 
2612.000000	99.301009 
2611.000000	99.300099 
2610.000000	99.299916 
2609.000000	99.300865 
2608.000000	99.302262 
2607.000000	99.303088 
2606.000000	99.303024 
2605.000000	99.302585 
2604.000000	99.302526 
2603.000000	99.303247 
2602.000000	99.304530 
2601.000000	99.305640 
2600.000000	99.305907 
2599.000000	99.305323 
2598.000000	99.304507 
2597.000000	99.303967 
2596.000000	99.303577 
2595.000000	99.302979 
2594.000000	99.302212 
2593.000000	99.301636 
2592.000000	99.301374 
2591.000000	99.301177 
2590.000000	99.300842 
2589.000000	99.300535 
2588.000000	99.300564 
2587.000000	99.300991 
2586.000000	99.301590 
2585.000000	99.302096 
2584.000000	99.302404 
2583.000000	99.302554 
2582.000000	99.302561 
2581.000000	99.302333 
2580.000000	99.301815 
2579.000000	99.301138 
2578.000000	99.300547 
2577.000000	99.300175 
2576.000000	99.299959 
2575.000000	99.299822 
2574.000000	99.299846 
2573.000000	99.300164 
2572.000000	99.300750 
2571.000000	99.301393 
2570.000000	99.301855 
2569.000000	99.302036 
2568.000000	99.301998 
2567.000000	99.301890 
2566.000000	99.301875 
2565.000000	99.302024 
2564.000000	99.302292 
2563.000000	99.302581 
2562.000000	99.302827 
2561.000000	99.303017 
2560.000000	99.303155 
2559.000000	99.303246 
2558.000000	99.303320 
2557.000000	99.303423 
2556.000000	99.303590 
2555.000000	99.303803 
2554.000000	99.304019 
2553.000000	99.304232 
2552.000000	99.304502 
2551.000000	99.304887 
2550.000000	99.305333 
2549.000000	99.305661 
2548.000000	99.305749 
2547.000000	99.305666 
2546.000000	99.305624 
2545.000000	99.305768 
2544.000000	99.306097 
2543.000000	99.306510 
2542.000000	99.306882 
2541.000000	99.307139 
2540.000000	99.307336 
2539.000000	99.307617 
2538.000000	99.308016 
2537.000000	99.308362 
2536.000000	99.308550 
2535.000000	99.308802 
2534.000000	99.309437 
2533.000000	99.310387 
2532.000000	99.311181 
2531.000000	99.311495 
2530.000000	99.311497 
2529.000000	99.311624 
2528.000000	99.312129 
2527.000000	99.312946 
2526.000000	99.313760 
2525.000000	99.314063 
2524.000000	99.313374 
2523.000000	99.311672 
2522.000000	99.309679 
2521.000000	99.308417 
2520.000000	99.308322 
2519.000000	99.308951 
2518.000000	99.309523 
2517.000000	99.309783 
2516.000000	99.310213 
2515.000000	99.311427 
2514.000000	99.313559 
2513.000000	99.316273 
2512.000000	99.319071 
2511.000000	99.321311 
2510.000000	99.322181 
2509.000000	99.321248 
2508.000000	99.319101 
2507.000000	99.317097 
2506.000000	99.316100 
2505.000000	99.315869 
2504.000000	99.315825 
2503.000000	99.315874 
2502.000000	99.316169 
2501.000000	99.316508 
2500.000000	99.316488 
2499.000000	99.316008 
2498.000000	99.315234 
2497.000000	99.314302 
2496.000000	99.313461 
2495.000000	99.313250 
2494.000000	99.314014 
2493.000000	99.315300 
2492.000000	99.316129 
2491.000000	99.315989 
2490.000000	99.315164 
2489.000000	99.314189 
2488.000000	99.313345 
2487.000000	99.312665 
2486.000000	99.312118 
2485.000000	99.311661 
2484.000000	99.311317 
2483.000000	99.311245 
2482.000000	99.311583 
2481.000000	99.312229 
2480.000000	99.312887 
2479.000000	99.313300 
2478.000000	99.313367 
2477.000000	99.313151 
2476.000000	99.312877 
2475.000000	99.312795 
2474.000000	99.312889 
2473.000000	99.312806 
2472.000000	99.312231 
2471.000000	99.311226 
2470.000000	99.310141 
2469.000000	99.309297 
2468.000000	99.308835 
2467.000000	99.308749 
2466.000000	99.308899 
2465.000000	99.309036 
2464.000000	99.309001 
2463.000000	99.308859 
2462.000000	99.308759 
2461.000000	99.308690 
2460.000000	99.308541 
2459.000000	99.308328 
2458.000000	99.308201 
2457.000000	99.308228 
2456.000000	99.308321 
2455.000000	99.308368 
2454.000000	99.308326 
2453.000000	99.308169 
2452.000000	99.307908 
2451.000000	99.307703 
2450.000000	99.307787 
2449.000000	99.308220 
2448.000000	99.308795 
2447.000000	99.309197 
2446.000000	99.309295 
2445.000000	99.309152 
2444.000000	99.308916 
2443.000000	99.308715 
2442.000000	99.308608 
2441.000000	99.308554 
2440.000000	99.308451 
2439.000000	99.308281 
2438.000000	99.308191 
2437.000000	99.308354 
2436.000000	99.308802 
2435.000000	99.309411 
2434.000000	99.309976 
2433.000000	99.310306 
2432.000000	99.310332 
2431.000000	99.310179 
2430.000000	99.310098 
2429.000000	99.310213 
2428.000000	99.310429 
2427.000000	99.310612 
2426.000000	99.310776 
2425.000000	99.310981 
2424.000000	99.311122 
2423.000000	99.311012 
2422.000000	99.310653 
2421.000000	99.310281 
2420.000000	99.310139 
2419.000000	99.310290 
2418.000000	99.310649 
2417.000000	99.311052 
2416.000000	99.311290 
2415.000000	99.311205 
2414.000000	99.310815 
2413.000000	99.310314 
2412.000000	99.309929 
2411.000000	99.309742 
2410.000000	99.309656 
2409.000000	99.309533 
2408.000000	99.309340 
2407.000000	99.309193 
2406.000000	99.309207 
2405.000000	99.309334 
2404.000000	99.309422 
2403.000000	99.309385 
2402.000000	99.309264 
2401.000000	99.309131 
2400.000000	99.309011 
2399.000000	99.308898 
2398.000000	99.308806 
2397.000000	99.308753 
2396.000000	99.308747 
2395.000000	99.308775 
2394.000000	99.308811 
2393.000000	99.308839 
2392.000000	99.308858 
2391.000000	99.308880 
2390.000000	99.308908 
2389.000000	99.308949 
2388.000000	99.309004 
2387.000000	99.309076 
2386.000000	99.309165 
2385.000000	99.309272 
2384.000000	99.309395 
2383.000000	99.309536 
2382.000000	99.309698 
2381.000000	99.309885 
2380.000000	99.310093 
2379.000000	99.310313 
2378.000000	99.310532 
2377.000000	99.310740 
2376.000000	99.310938 
2375.000000	99.311133 
2374.000000	99.311338 
2373.000000	99.311562 
2372.000000	99.311809 
2371.000000	99.312074 
2370.000000	99.312346 
2369.000000	99.312615 
2368.000000	99.312880 
2367.000000	99.313144 
2366.000000	99.313408 
2365.000000	99.313665 
2364.000000	99.313911 
2363.000000	99.314144 
2362.000000	99.314375 
2361.000000	99.314615 
2360.000000	99.314871 
2359.000000	99.315137 
2358.000000	99.315403 
2357.000000	99.315655 
2356.000000	99.315885 
2355.000000	99.316094 
2354.000000	99.316286 
2353.000000	99.316465 
2352.000000	99.316631 
2351.000000	99.316783 
2350.000000	99.316925 
2349.000000	99.317064 
2348.000000	99.317208 
2347.000000	99.317359 
2346.000000	99.317516 
2345.000000	99.317671 
2344.000000	99.317818 
2343.000000	99.317955 
2342.000000	99.318082 
2341.000000	99.318201 
2340.000000	99.318321 
2339.000000	99.318443 
2338.000000	99.318552 
2337.000000	99.318614 
2336.000000	99.318597 
2335.000000	99.318513 
2334.000000	99.318394 
2333.000000	99.318254 
2332.000000	99.318126 
2331.000000	99.318131 
2330.000000	99.318375 
2329.000000	99.318759 
2328.000000	99.318965 
2327.000000	99.318768 
2326.000000	99.318303 
2325.000000	99.317923 
2324.000000	99.317797 
2323.000000	99.317685 
2322.000000	99.317242 
2321.000000	99.316433 
2320.000000	99.315586 
2319.000000	99.315029 
2318.000000	99.314779 
2317.000000	99.314683 
2316.000000	99.314639 
2315.000000	99.314690 
2314.000000	99.314791 
2313.000000	99.314747 
2312.000000	99.314352 
2311.000000	99.313657 
2310.000000	99.312983 
2309.000000	99.312751 
2308.000000	99.313133 
2307.000000	99.313787 
2306.000000	99.313915 
2305.000000	99.312894 
2304.000000	99.310904 
2303.000000	99.308921 
2302.000000	99.307843 
2301.000000	99.307712 
2300.000000	99.307926 
2299.000000	99.308031 
2298.000000	99.307944 
2297.000000	99.307449 
2296.000000	99.305999 
2295.000000	99.303322 
2294.000000	99.299982 
2293.000000	99.297113 
2292.000000	99.295467 
2291.000000	99.294946 
2290.000000	99.294942 
2289.000000	99.294958 
2288.000000	99.294910 
2287.000000	99.294849 
2286.000000	99.294560 
2285.000000	99.293563 
2284.000000	99.291639 
2283.000000	99.289271 
2282.000000	99.287371 
2281.000000	99.286452 
2280.000000	99.286216 
2279.000000	99.285998 
2278.000000	99.285480 
2277.000000	99.284858 
2276.000000	99.284402 
2275.000000	99.284093 
2274.000000	99.283710 
2273.000000	99.283224 
2272.000000	99.282995 
2271.000000	99.283392 
2270.000000	99.284216 
2269.000000	99.284662 
2268.000000	99.284051 
2267.000000	99.282444 
2266.000000	99.280492 
2265.000000	99.278876 
2264.000000	99.277969 
2263.000000	99.277853 
2262.000000	99.278264 
2261.000000	99.278608 
2260.000000	99.278548 
2259.000000	99.278474 
2258.000000	99.279012 
2257.000000	99.280133 
2256.000000	99.281125 
2255.000000	99.281404 
2254.000000	99.280964 
2253.000000	99.280052 
2252.000000	99.278899 
2251.000000	99.277884 
2250.000000	99.277559 
2249.000000	99.278211 
2248.000000	99.279565 
2247.000000	99.281008 
2246.000000	99.282005 
2245.000000	99.282260 
2244.000000	99.281777 
2243.000000	99.280893 
2242.000000	99.280047 
2241.000000	99.279399 
2240.000000	99.278824 
2239.000000	99.278166 
2238.000000	99.277288 
2237.000000	99.276081 
2236.000000	99.274819 
2235.000000	99.274302 
2234.000000	99.275095 
2233.000000	99.276791 
2232.000000	99.278402 
2231.000000	99.279459 
2230.000000	99.280121 
2229.000000	99.280440 
2228.000000	99.280253 
2227.000000	99.279765 
2226.000000	99.279483 
2225.000000	99.279489 
2224.000000	99.279425 
2223.000000	99.279314 
2222.000000	99.279677 
2221.000000	99.280436 
2220.000000	99.280462 
2219.000000	99.278929 
2218.000000	99.276436 
2217.000000	99.274279 
2216.000000	99.272952 
2215.000000	99.272253 
2214.000000	99.272301 
2213.000000	99.273374 
2212.000000	99.274932 
2211.000000	99.275863 
2210.000000	99.275708 
2209.000000	99.274784 
2208.000000	99.273225 
2207.000000	99.270927 
2206.000000	99.268518 
2205.000000	99.267267 
2204.000000	99.267495 
2203.000000	99.268064 
2202.000000	99.267951 
2201.000000	99.267716 
2200.000000	99.268645 
2199.000000	99.270785 
2198.000000	99.272533 
2197.000000	99.272354 
2196.000000	99.270191 
2195.000000	99.267071 
2194.000000	99.263914 
2193.000000	99.261136 
2192.000000	99.259216 
2191.000000	99.258757 
2190.000000	99.259570 
2189.000000	99.260299 
2188.000000	99.259618 
2187.000000	99.257481 
2186.000000	99.254721 
2185.000000	99.251852 
2184.000000	99.249035 
2183.000000	99.247016 
2182.000000	99.246851 
2181.000000	99.248477 
2180.000000	99.250554 
2179.000000	99.252079 
2178.000000	99.253334 
2177.000000	99.254878 
2176.000000	99.256501 
2175.000000	99.257569 
2174.000000	99.257836 
2173.000000	99.257521 
2172.000000	99.256969 
2171.000000	99.256530 
2170.000000	99.256442 
2169.000000	99.256530 
2168.000000	99.256350 
2167.000000	99.255913 
2166.000000	99.255877 
2165.000000	99.256610 
2164.000000	99.257344 
2163.000000	99.256839 
2162.000000	99.254795 
2161.000000	99.252397 
2160.000000	99.251434 
2159.000000	99.252743 
2158.000000	99.255641 
2157.000000	99.258349 
2156.000000	99.259514 
2155.000000	99.259085 
2154.000000	99.257909 
2153.000000	99.256981 
2152.000000	99.256939 
2151.000000	99.257928 
2150.000000	99.259455 
2149.000000	99.260477 
2148.000000	99.260188 
2147.000000	99.258813 
2146.000000	99.257355 
2145.000000	99.256639 
2144.000000	99.256989 
2143.000000	99.258636 
2142.000000	99.261627 
2141.000000	99.265228 
2140.000000	99.268253 
2139.000000	99.270347 
2138.000000	99.272367 
2137.000000	99.275194 
2136.000000	99.278500 
2135.000000	99.281001 
2134.000000	99.281626 
2133.000000	99.280221 
2132.000000	99.277607 
2131.000000	99.275161 
2130.000000	99.273763 
2129.000000	99.273061 
2128.000000	99.272153 
2127.000000	99.271003 
2126.000000	99.270696 
2125.000000	99.272037 
2124.000000	99.274391 
2123.000000	99.276144 
2122.000000	99.276149 
2121.000000	99.274519 
2120.000000	99.272467 
2119.000000	99.271519 
2118.000000	99.272483 
2117.000000	99.275006 
2116.000000	99.277917 
2115.000000	99.280238 
2114.000000	99.281677 
2113.000000	99.282217 
2112.000000	99.281928 
2111.000000	99.281246 
2110.000000	99.280970 
2109.000000	99.281568 
2108.000000	99.282685 
2107.000000	99.283570 
2106.000000	99.283876 
2105.000000	99.283847 
2104.000000	99.283859 
2103.000000	99.283986 
2102.000000	99.284031 
2101.000000	99.283808 
2100.000000	99.283323 
2099.000000	99.282748 
2098.000000	99.282281 
2097.000000	99.282022 
2096.000000	99.281931 
2095.000000	99.281885 
2094.000000	99.281720 
2093.000000	99.281343 
2092.000000	99.280782 
2091.000000	99.280130 
2090.000000	99.279493 
2089.000000	99.278924 
2088.000000	99.278423 
2087.000000	99.277982 
2086.000000	99.277606 
2085.000000	99.277293 
2084.000000	99.276998 
2083.000000	99.276642 
2082.000000	99.276170 
2081.000000	99.275574 
2080.000000	99.274910 
2079.000000	99.274285 
2078.000000	99.273778 
2077.000000	99.273336 
2076.000000	99.272779 
2075.000000	99.271976 
2074.000000	99.270953 
2073.000000	99.269847 
2072.000000	99.268792 
2071.000000	99.267877 
2070.000000	99.267157 
2069.000000	99.266595 
2068.000000	99.265980 
2067.000000	99.265076 
2066.000000	99.263900 
2065.000000	99.262770 
2064.000000	99.261941 
2063.000000	99.261348 
2062.000000	99.260805 
2061.000000	99.260320 
2060.000000	99.260006 
2059.000000	99.259736 
2058.000000	99.259120 
2057.000000	99.257912 
2056.000000	99.256346 
2055.000000	99.254922 
2054.000000	99.253846 
2053.000000	99.252870 
2052.000000	99.251755 
2051.000000	99.250733 
2050.000000	99.250370 
2049.000000	99.251035 
2048.000000	99.252619 
2047.000000	99.254476 
2046.000000	99.255534 
2045.000000	99.254989 
2044.000000	99.252983 
2043.000000	99.250694 
2042.000000	99.249274 
2041.000000	99.248762 
2040.000000	99.248451 
2039.000000	99.247946 
2038.000000	99.247320 
2037.000000	99.246509 
2036.000000	99.245446 
2035.000000	99.244741 
2034.000000	99.245196 
2033.000000	99.246497 
2032.000000	99.247393 
2031.000000	99.247479 
2030.000000	99.247526 
2029.000000	99.247775 
2028.000000	99.247167 
2027.000000	99.245040 
2026.000000	99.242343 
2025.000000	99.240491 
2024.000000	99.239656 
2023.000000	99.238972 
2022.000000	99.237737 
2021.000000	99.235743 
2020.000000	99.233166 
2019.000000	99.230831 
2018.000000	99.229937 
2017.000000	99.230782 
2016.000000	99.232234 
2015.000000	99.233178 
2014.000000	99.233872 
2013.000000	99.234967 
2012.000000	99.235973 
2011.000000	99.235680 
2010.000000	99.233773 
2009.000000	99.231361 
2008.000000	99.229949 
2007.000000	99.230132 
2006.000000	99.231258 
2005.000000	99.231937 
2004.000000	99.231132 
2003.000000	99.229079 
2002.000000	99.227239 
2001.000000	99.226876 
2000.000000	99.227768 
1999.000000	99.228470 
1998.000000	99.227926 
1997.000000	99.226722 
1996.000000	99.226497 
1995.000000	99.228116 
1994.000000	99.230712 
1993.000000	99.232530 
1992.000000	99.232939 
1991.000000	99.233140 
1990.000000	99.234502 
1989.000000	99.236743 
1988.000000	99.238387 
1987.000000	99.238605 
1986.000000	99.237748 
1985.000000	99.236384 
1984.000000	99.234714 
1983.000000	99.233078 
1982.000000	99.232198 
1981.000000	99.232413 
1980.000000	99.233303 
1979.000000	99.234251 
1978.000000	99.235060 
1977.000000	99.235814 
1976.000000	99.236480 
1975.000000	99.236871 
1974.000000	99.236697 
1973.000000	99.235628 
1972.000000	99.233713 
1971.000000	99.231839 
1970.000000	99.231174 
1969.000000	99.232024 
1968.000000	99.233569 
1967.000000	99.234752 
1966.000000	99.235234 
1965.000000	99.235190 
1964.000000	99.234816 
1963.000000	99.234479 
1962.000000	99.234799 
1961.000000	99.236055 
1960.000000	99.237768 
1959.000000	99.239176 
1958.000000	99.239939 
1957.000000	99.240151 
1956.000000	99.240065 
1955.000000	99.240079 
1954.000000	99.240676 
1953.000000	99.242051 
1952.000000	99.243841 
1951.000000	99.245333 
1950.000000	99.246120 
1949.000000	99.246318 
1948.000000	99.246318 
1947.000000	99.246437 
1946.000000	99.246743 
1945.000000	99.247155 
1944.000000	99.247590 
1943.000000	99.248030 
1942.000000	99.248537 
1941.000000	99.249190 
1940.000000	99.250001 
1939.000000	99.250875 
1938.000000	99.251644 
1937.000000	99.252218 
1936.000000	99.252683 
1935.000000	99.253211 
1934.000000	99.253846 
1933.000000	99.254438 
1932.000000	99.254846 
1931.000000	99.255120 
1930.000000	99.255463 
1929.000000	99.255988 
1928.000000	99.256627 
1927.000000	99.257226 
1926.000000	99.257709 
1925.000000	99.258111 
1924.000000	99.258496 
1923.000000	99.258900 
1922.000000	99.259318 
1921.000000	99.259706 
1920.000000	99.260033 
1919.000000	99.260282 
1918.000000	99.260452 
1917.000000	99.260528 
1916.000000	99.260507 
1915.000000	99.260477 
1914.000000	99.260561 
1913.000000	99.260789 
1912.000000	99.261066 
1911.000000	99.261260 
1910.000000	99.261292 
1909.000000	99.261106 
1908.000000	99.260747 
1907.000000	99.260487 
1906.000000	99.260687 
1905.000000	99.261459 
1904.000000	99.262478 
1903.000000	99.263248 
1902.000000	99.263608 
1901.000000	99.263732 
1900.000000	99.263889 
1899.000000	99.264195 
1898.000000	99.264633 
1897.000000	99.265088 
1896.000000	99.265334 
1895.000000	99.265239 
1894.000000	99.264964 
1893.000000	99.264880 
1892.000000	99.265343 
1891.000000	99.266495 
1890.000000	99.268091 
1889.000000	99.269498 
1888.000000	99.270188 
1887.000000	99.270231 
1886.000000	99.269935 
1885.000000	99.269310 
1884.000000	99.268272 
1883.000000	99.267180 
1882.000000	99.266529 
1881.000000	99.266333 
1880.000000	99.266515 
1879.000000	99.267245 
1878.000000	99.268345 
1877.000000	99.268853 
1876.000000	99.267848 
1875.000000	99.265773 
1874.000000	99.264089 
1873.000000	99.263351 
1872.000000	99.262906 
1871.000000	99.262728 
1870.000000	99.264201 
1869.000000	99.268279 
1868.000000	99.273442 
1867.000000	99.277194 
1866.000000	99.278976 
1865.000000	99.279468 
1864.000000	99.278974 
1863.000000	99.277620 
1862.000000	99.276014 
1861.000000	99.274713 
1860.000000	99.273631 
1859.000000	99.272529 
1858.000000	99.271493 
1857.000000	99.270596 
1856.000000	99.269726 
1855.000000	99.268896 
1854.000000	99.268352 
1853.000000	99.267903 
1852.000000	99.267502 
1851.000000	99.267477 
1850.000000	99.268061 
1849.000000	99.269056 
1848.000000	99.270077 
1847.000000	99.271069 
1846.000000	99.272031 
1845.000000	99.272641 
1844.000000	99.272655 
1843.000000	99.272164 
1842.000000	99.271396 
1841.000000	99.270604 
1840.000000	99.270075 
1839.000000	99.270026 
1838.000000	99.270523 
1837.000000	99.271223 
1836.000000	99.271678 
1835.000000	99.271852 
1834.000000	99.271966 
1833.000000	99.272049 
1832.000000	99.271961 
1831.000000	99.271618 
1830.000000	99.271205 
1829.000000	99.271008 
1828.000000	99.271035 
1827.000000	99.271152 
1826.000000	99.271221 
1825.000000	99.271185 
1824.000000	99.271079 
1823.000000	99.270963 
1822.000000	99.270871 
1821.000000	99.270803 
1820.000000	99.270750 
1819.000000	99.270706 
1818.000000	99.270674 
1817.000000	99.270655 
1816.000000	99.270650 
1815.000000	99.270657 
1814.000000	99.270667 
1813.000000	99.270669 
1812.000000	99.270654 
1811.000000	99.270617 
1810.000000	99.270561 
1809.000000	99.270490 
1808.000000	99.270404 
1807.000000	99.270305 
1806.000000	99.270196 
1805.000000	99.270080 
1804.000000	99.269957 
1803.000000	99.269834 
1802.000000	99.269718 
1801.000000	99.269618 
1800.000000	99.269534 
1799.000000	99.269458 
1798.000000	99.269388 
1797.000000	99.269319 
1796.000000	99.269254 
1795.000000	99.269194 
1794.000000	99.269145 
1793.000000	99.269108 
1792.000000	99.269084 
1791.000000	99.269068 
1790.000000	99.269060 
1789.000000	99.269056 
1788.000000	99.269048 
1787.000000	99.269025 
1786.000000	99.268985 
1785.000000	99.268928 
1784.000000	99.268858 
1783.000000	99.268779 
1782.000000	99.268692 
1781.000000	99.268601 
1780.000000	99.268506 
1779.000000	99.268413 
1778.000000	99.268324 
1777.000000	99.268238 
1776.000000	99.268147 
1775.000000	99.268045 
1774.000000	99.267923 
1773.000000	99.267776 
1772.000000	99.267613 
1771.000000	99.267449 
1770.000000	99.267295 
1769.000000	99.267160 
1768.000000	99.267041 
1767.000000	99.266936 
1766.000000	99.266843 
1765.000000	99.266758 
1764.000000	99.266675 
1763.000000	99.266586 
1762.000000	99.266491 
1761.000000	99.266394 
1760.000000	99.266301 
1759.000000	99.266211 
1758.000000	99.266120 
1757.000000	99.266024 
1756.000000	99.265924 
1755.000000	99.265821 
1754.000000	99.265718 
1753.000000	99.265618 
1752.000000	99.265520 
1751.000000	99.265423 
1750.000000	99.265323 
1749.000000	99.265219 
1748.000000	99.265117 
1747.000000	99.265023 
1746.000000	99.264949 
1745.000000	99.264902 
1744.000000	99.264886 
1743.000000	99.264902 
1742.000000	99.264947 
1741.000000	99.265021 
1740.000000	99.265118 
1739.000000	99.265237 
1738.000000	99.265369 
1737.000000	99.265507 
1736.000000	99.265657 
1735.000000	99.265810 
1734.000000	99.265979 
1733.000000	99.266189 
1732.000000	99.266411 
1731.000000	99.266651 
1730.000000	99.266927 
1729.000000	99.267216 
1728.000000	99.267538 
1727.000000	99.267965 
1726.000000	99.268512 
1725.000000	99.269125 
1724.000000	99.269650 
1723.000000	99.269960 
1722.000000	99.270083 
1721.000000	99.270218 
1720.000000	99.270557 
1719.000000	99.271096 
1718.000000	99.271814 
1717.000000	99.272711 
1716.000000	99.273484 
1715.000000	99.274042 
1714.000000	99.274682 
1713.000000	99.275536 
1712.000000	99.276442 
1711.000000	99.277287 
1710.000000	99.278131 
1709.000000	99.278994 
1708.000000	99.279836 
1707.000000	99.280629 
1706.000000	99.281507 
1705.000000	99.282573 
1704.000000	99.283634 
1703.000000	99.284683 
1702.000000	99.285848 
1701.000000	99.286929 
1700.000000	99.287857 
1699.000000	99.288446 
1698.000000	99.288859 
1697.000000	99.289414 
1696.000000	99.290060 
1695.000000	99.290973 
1694.000000	99.292156 
1693.000000	99.293440 
1692.000000	99.294667 
1691.000000	99.295728 
1690.000000	99.296735 
1689.000000	99.297698 
1688.000000	99.298630 
1687.000000	99.299619 
1686.000000	99.300744 
1685.000000	99.301780 
1684.000000	99.303244 
1683.000000	99.305116 
1682.000000	99.306316 
1681.000000	99.306884 
1680.000000	99.307396 
1679.000000	99.308208 
1678.000000	99.309437 
1677.000000	99.311131 
1676.000000	99.313187 
1675.000000	99.315326 
1674.000000	99.316603 
1673.000000	99.317000 
1672.000000	99.317541 
1671.000000	99.318626 
1670.000000	99.319622 
1669.000000	99.319854 
1668.000000	99.319663 
1667.000000	99.319952 
1666.000000	99.321128 
1665.000000	99.323070 
1664.000000	99.324997 
1663.000000	99.326420 
1662.000000	99.327137 
1661.000000	99.327011 
1660.000000	99.326842 
1659.000000	99.327418 
1658.000000	99.328434 
1657.000000	99.329418 
1656.000000	99.331295 
1655.000000	99.334222 
1654.000000	99.335463 
1653.000000	99.335380 
1652.000000	99.334424 
1651.000000	99.331831 
1650.000000	99.329939 
1649.000000	99.329526 
1648.000000	99.329066 
1647.000000	99.328089 
1646.000000	99.328001 
1645.000000	99.328835 
1644.000000	99.329507 
1643.000000	99.330005 
1642.000000	99.330419 
1641.000000	99.330265 
1640.000000	99.329319 
1639.000000	99.327925 
1638.000000	99.327021 
1637.000000	99.326446 
1636.000000	99.325950 
1635.000000	99.326100 
1634.000000	99.326675 
1633.000000	99.327462 
1632.000000	99.328401 
1631.000000	99.329283 
1630.000000	99.329751 
1629.000000	99.329371 
1628.000000	99.328028 
1627.000000	99.326380 
1626.000000	99.325005 
1625.000000	99.323995 
1624.000000	99.323154 
1623.000000	99.322724 
1622.000000	99.322669 
1621.000000	99.322373 
1620.000000	99.321989 
1619.000000	99.321781 
1618.000000	99.321121 
1617.000000	99.319165 
1616.000000	99.316532 
1615.000000	99.314387 
1614.000000	99.313203 
1613.000000	99.312873 
1612.000000	99.313006 
1611.000000	99.313405 
1610.000000	99.313773 
1609.000000	99.313769 
1608.000000	99.313392 
1607.000000	99.312926 
1606.000000	99.312255 
1605.000000	99.311264 
1604.000000	99.310424 
1603.000000	99.310107 
1602.000000	99.310112 
1601.000000	99.310061 
1600.000000	99.309990 
1599.000000	99.310120 
1598.000000	99.310359 
1597.000000	99.310428 
1596.000000	99.310162 
1595.000000	99.309624 
1594.000000	99.309008 
1593.000000	99.308541 
1592.000000	99.308387 
1591.000000	99.308540 
1590.000000	99.308802 
1589.000000	99.308969 
1588.000000	99.309037 
1587.000000	99.309117 
1586.000000	99.309254 
1585.000000	99.309390 
1584.000000	99.309518 
1583.000000	99.309672 
1582.000000	99.309839 
1581.000000	99.309999 
1580.000000	99.310180 
1579.000000	99.310412 
1578.000000	99.310684 
1577.000000	99.310971 
1576.000000	99.311267 
1575.000000	99.311571 
1574.000000	99.311879 
1573.000000	99.312198 
1572.000000	99.312536 
1571.000000	99.312890 
1570.000000	99.313257 
1569.000000	99.313636 
1568.000000	99.314022 
1567.000000	99.314407 
1566.000000	99.314779 
1565.000000	99.315128 
1564.000000	99.315452 
1563.000000	99.315759 
1562.000000	99.316062 
1561.000000	99.316371 
1560.000000	99.316690 
1559.000000	99.317025 
1558.000000	99.317370 
1557.000000	99.317707 
1556.000000	99.318028 
1555.000000	99.318335 
1554.000000	99.318628 
1553.000000	99.318905 
1552.000000	99.319169 
1551.000000	99.319424 
1550.000000	99.319674 
1549.000000	99.319918 
1548.000000	99.320154 
1547.000000	99.320381 
1546.000000	99.320594 
1545.000000	99.320790 
1544.000000	99.320967 
1543.000000	99.321125 
1542.000000	99.321264 
1541.000000	99.321385 
1540.000000	99.321493 
1539.000000	99.321591 
1538.000000	99.321673 
1537.000000	99.321736 
1536.000000	99.321779 
1535.000000	99.321805 
1534.000000	99.321823 
1533.000000	99.321834 
1532.000000	99.321827 
1531.000000	99.321786 
1530.000000	99.321715 
1529.000000	99.321631 
1528.000000	99.321530 
1527.000000	99.321401 
1526.000000	99.321236 
1525.000000	99.321034 
1524.000000	99.320803 
1523.000000	99.320540 
1522.000000	99.320272 
1521.000000	99.320114 
1520.000000	99.320087 
1519.000000	99.320111 
1518.000000	99.320135 
1517.000000	99.320095 
1516.000000	99.319898 
1515.000000	99.319524 
1514.000000	99.319075 
1513.000000	99.318732 
1512.000000	99.318506 
1511.000000	99.318286 
1510.000000	99.318109 
1509.000000	99.318167 
1508.000000	99.318299 
1507.000000	99.318120 
1506.000000	99.317911 
1505.000000	99.317441 
1504.000000	99.316607 
1503.000000	99.315787 
1502.000000	99.315163 
1501.000000	99.314712 
1500.000000	99.314326 
1499.000000	99.313881 
1498.000000	99.313375 
1497.000000	99.313014 
1496.000000	99.312629 
1495.000000	99.311913 
1494.000000	99.311109 
1493.000000	99.310694 
1492.000000	99.310630 
1491.000000	99.310365 
1490.000000	99.309614 
1489.000000	99.308779 
1488.000000	99.308136 
1487.000000	99.307693 
1486.000000	99.307636 
1485.000000	99.307781 
1484.000000	99.307942 
1483.000000	99.308055 
1482.000000	99.307980 
1481.000000	99.307557 
1480.000000	99.306706 
1479.000000	99.305616 
1478.000000	99.304542 
1477.000000	99.303625 
1476.000000	99.302797 
1475.000000	99.302268 
1474.000000	99.302105 
1473.000000	99.301928 
1472.000000	99.301484 
1471.000000	99.300886 
1470.000000	99.300531 
1469.000000	99.300651 
1468.000000	99.301008 
1467.000000	99.301341 
1466.000000	99.301543 
1465.000000	99.301540 
1464.000000	99.301471 
1463.000000	99.301320 
1462.000000	99.301122 
1461.000000	99.300781 
1460.000000	99.300069 
1459.000000	99.298760 
1458.000000	99.297154 
1457.000000	99.296653 
1456.000000	99.297607 
1455.000000	99.298607 
1454.000000	99.299303 
1453.000000	99.300334 
1452.000000	99.301630 
1451.000000	99.302451 
1450.000000	99.302352 
1449.000000	99.301780 
1448.000000	99.301215 
1447.000000	99.300963 
1446.000000	99.300916 
1445.000000	99.301026 
1444.000000	99.301333 
1443.000000	99.301323 
1442.000000	99.300622 
1441.000000	99.299454 
1440.000000	99.298446 
1439.000000	99.297800 
1438.000000	99.297453 
1437.000000	99.297570 
1436.000000	99.298249 
1435.000000	99.298711 
1434.000000	99.298733 
1433.000000	99.299053 
1432.000000	99.299876 
1431.000000	99.300478 
1430.000000	99.300240 
1429.000000	99.299705 
1428.000000	99.299473 
1427.000000	99.299585 
1426.000000	99.299525 
1425.000000	99.299069 
1424.000000	99.298894 
1423.000000	99.299185 
1422.000000	99.299545 
1421.000000	99.299775 
1420.000000	99.299860 
1419.000000	99.299419 
1418.000000	99.298172 
1417.000000	99.296476 
1416.000000	99.294916 
1415.000000	99.293726 
1414.000000	99.292924 
1413.000000	99.292564 
1412.000000	99.292291 
1411.000000	99.291212 
1410.000000	99.289255 
1409.000000	99.288002 
1408.000000	99.288520 
1407.000000	99.290278 
1406.000000	99.291745 
1405.000000	99.292179 
1404.000000	99.292305 
1403.000000	99.292546 
1402.000000	99.292675 
1401.000000	99.292526 
1400.000000	99.292225 
1399.000000	99.292033 
1398.000000	99.292067 
1397.000000	99.292241 
1396.000000	99.292242 
1395.000000	99.291958 
1394.000000	99.291572 
1393.000000	99.291498 
1392.000000	99.291955 
1391.000000	99.292639 
1390.000000	99.293243 
1389.000000	99.293906 
1388.000000	99.294832 
1387.000000	99.295833 
1386.000000	99.296468 
1385.000000	99.296569 
1384.000000	99.296418 
1383.000000	99.296262 
1382.000000	99.296304 
1381.000000	99.296717 
1380.000000	99.297468 
1379.000000	99.298356 
1378.000000	99.299156 
1377.000000	99.299756 
1376.000000	99.300140 
1375.000000	99.300400 
1374.000000	99.300679 
1373.000000	99.301098 
1372.000000	99.301606 
1371.000000	99.302142 
1370.000000	99.302727 
1369.000000	99.303465 
1368.000000	99.304453 
1367.000000	99.305527 
1366.000000	99.306390 
1365.000000	99.306923 
1364.000000	99.307262 
1363.000000	99.307680 
1362.000000	99.308337 
1361.000000	99.309144 
1360.000000	99.309947 
1359.000000	99.310731 
1358.000000	99.311513 
1357.000000	99.312202 
1356.000000	99.312699 
1355.000000	99.313052 
1354.000000	99.313437 
1353.000000	99.313991 
1352.000000	99.314670 
1351.000000	99.315375 
1350.000000	99.316029 
1349.000000	99.316578 
1348.000000	99.317011 
1347.000000	99.317378 
1346.000000	99.317773 
1345.000000	99.318238 
1344.000000	99.318719 
1343.000000	99.319144 
1342.000000	99.319518 
1341.000000	99.319896 
1340.000000	99.320299 
1339.000000	99.320686 
1338.000000	99.321040 
1337.000000	99.321420 
1336.000000	99.321892 
1335.000000	99.322446 
1334.000000	99.323009 
1333.000000	99.323500 
1332.000000	99.323899 
1331.000000	99.324235 
1330.000000	99.324552 
1329.000000	99.324875 
1328.000000	99.325205 
1327.000000	99.325541 
1326.000000	99.325894 
1325.000000	99.326272 
1324.000000	99.326656 
1323.000000	99.327004 
1322.000000	99.327295 
1321.000000	99.327550 
1320.000000	99.327817 
1319.000000	99.328109 
1318.000000	99.328392 
1317.000000	99.328632 
1316.000000	99.328848 
1315.000000	99.329089 
1314.000000	99.329380 
1313.000000	99.329690 
1312.000000	99.329961 
1311.000000	99.330168 
1310.000000	99.330340 
1309.000000	99.330511 
1308.000000	99.330672 
1307.000000	99.330807 
1306.000000	99.330931 
1305.000000	99.331084 
1304.000000	99.331290 
1303.000000	99.331516 
1302.000000	99.331667 
1301.000000	99.331645 
1300.000000	99.331421 
1299.000000	99.331121 
1298.000000	99.330989 
1297.000000	99.331200 
1296.000000	99.331669 
1295.000000	99.332088 
1294.000000	99.332251 
1293.000000	99.332222 
1292.000000	99.332162 
1291.000000	99.332145 
1290.000000	99.332238 
1289.000000	99.332520 
1288.000000	99.332889 
1287.000000	99.333061 
1286.000000	99.332920 
1285.000000	99.332648 
1284.000000	99.332372 
1283.000000	99.331936 
1282.000000	99.331204 
1281.000000	99.330346 
1280.000000	99.329683 
1279.000000	99.329441 
1278.000000	99.329715 
1277.000000	99.330342 
1276.000000	99.330677 
1275.000000	99.329996 
1274.000000	99.328402 
1273.000000	99.327009 
1272.000000	99.326781 
1271.000000	99.327492 
1270.000000	99.328245 
1269.000000	99.328738 
1268.000000	99.329362 
1267.000000	99.330205 
1266.000000	99.330795 
1265.000000	99.330965 
1264.000000	99.331185 
1263.000000	99.331652 
1262.000000	99.331648 
1261.000000	99.330279 
1260.000000	99.327530 
1259.000000	99.324239 
1258.000000	99.321206 
1257.000000	99.318685 
1256.000000	99.316629 
1255.000000	99.315007 
1254.000000	99.313822 
1253.000000	99.313128 
1252.000000	99.313136 
1251.000000	99.314029 
1250.000000	99.315496 
1249.000000	99.316639 
1248.000000	99.316655 
1247.000000	99.315522 
1246.000000	99.313816 
1245.000000	99.311979 
1244.000000	99.309998 
1243.000000	99.307922 
1242.000000	99.306281 
1241.000000	99.305668 
1240.000000	99.306114 
1239.000000	99.307127 
1238.000000	99.308176 
1237.000000	99.308833 
1236.000000	99.308650 
1235.000000	99.307442 
1234.000000	99.305720 
1233.000000	99.304325 
1232.000000	99.303450 
1231.000000	99.302471 
1230.000000	99.300967 
1229.000000	99.299419 
1228.000000	99.298508 
1227.000000	99.298024 
1226.000000	99.296962 
1225.000000	99.294607 
1224.000000	99.291209 
1223.000000	99.287748 
1222.000000	99.285150 
1221.000000	99.283682 
1220.000000	99.282930 
1219.000000	99.282271 
1218.000000	99.281438 
1217.000000	99.280538 
1216.000000	99.279604 
1215.000000	99.278407 
1214.000000	99.276816 
1213.000000	99.275040 
1212.000000	99.273283 
1211.000000	99.271358 
1210.000000	99.268980 
1209.000000	99.266298 
1208.000000	99.263872 
1207.000000	99.262140 
1206.000000	99.261086 
1205.000000	99.260306 
1204.000000	99.259240 
1203.000000	99.257446 
1202.000000	99.254902 
1201.000000	99.252062 
1200.000000	99.249503 
1199.000000	99.247468 
1198.000000	99.245802 
1197.000000	99.244249 
1196.000000	99.242615 
1195.000000	99.240701 
1194.000000	99.238328 
1193.000000	99.235559 
1192.000000	99.232748 
1191.000000	99.230198 
1190.000000	99.227829 
1189.000000	99.225356 
1188.000000	99.222743 
1187.000000	99.220249 
1186.000000	99.217900 
1185.000000	99.215206 
1184.000000	99.211721 
1183.000000	99.207805 
1182.000000	99.204485 
1181.000000	99.202370 
1180.000000	99.200974 
1179.000000	99.199184 
1178.000000	99.196290 
1177.000000	99.192475 
1176.000000	99.188541 
1175.000000	99.185394 
1174.000000	99.183538 
1173.000000	99.182701 
1172.000000	99.181868 
1171.000000	99.179942 
1170.000000	99.176518 
1169.000000	99.172114 
1168.000000	99.167877 
1167.000000	99.164937 
1166.000000	99.163677 
1165.000000	99.163371 
1164.000000	99.162741 
1163.000000	99.161201 
1162.000000	99.159374 
1161.000000	99.158186 
1160.000000	99.157703 
1159.000000	99.157064 
1158.000000	99.155323 
1157.000000	99.152157 
1156.000000	99.148106 
1155.000000	99.144451 
1154.000000	99.142340 
1153.000000	99.141619 
1152.000000	99.140857 
1151.000000	99.138872 
1150.000000	99.135767 
1149.000000	99.132122 
1148.000000	99.127940 
1147.000000	99.123200 
1146.000000	99.118780 
1145.000000	99.115643 
1144.000000	99.113355 
1143.000000	99.110581 
1142.000000	99.107051 
1141.000000	99.103862 
1140.000000	99.101651 
1139.000000	99.099561 
1138.000000	99.096483 
1137.000000	99.092356 
1136.000000	99.087725 
1135.000000	99.082921 
1134.000000	99.078237 
1133.000000	99.074141 
1132.000000	99.070639 
1131.000000	99.066938 
1130.000000	99.062477 
1129.000000	99.057928 
1128.000000	99.054491 
1127.000000	99.052253 
1126.000000	99.049823 
1125.000000	99.045695 
1124.000000	99.039620 
1123.000000	99.032630 
1122.000000	99.025952 
1121.000000	99.020059 
1120.000000	99.014839 
1119.000000	99.010372 
1118.000000	99.007124 
1117.000000	99.005254 
1116.000000	99.004118 
1115.000000	99.002698 
1114.000000	99.000222 
1113.000000	98.996113 
1112.000000	98.989898 
1111.000000	98.981936 
1110.000000	98.973882 
1109.000000	98.967507 
1108.000000	98.962998 
1107.000000	98.959145 
1106.000000	98.955188 
1105.000000	98.951438 
1104.000000	98.948158 
1103.000000	98.945044 
1102.000000	98.941974 
1101.000000	98.939432 
1100.000000	98.937736 
1099.000000	98.936430 
1098.000000	98.934763 
1097.000000	98.932354 
1096.000000	98.929273 
1095.000000	98.925795 
1094.000000	98.922305 
1093.000000	98.919052 
1092.000000	98.915732 
1091.000000	98.911672 
1090.000000	98.906650 
1089.000000	98.901258 
1088.000000	98.896326 
1087.000000	98.892107 
1086.000000	98.888275 
1085.000000	98.884465 
1084.000000	98.880547 
1083.000000	98.876569 
1082.000000	98.872755 
1081.000000	98.869510 
1080.000000	98.867064 
1079.000000	98.865042 
1078.000000	98.862634 
1077.000000	98.859305 
1076.000000	98.855179 
1075.000000	98.850701 
1074.000000	98.846217 
1073.000000	98.841988 
1072.000000	98.838256 
1071.000000	98.834821 
1070.000000	98.830756 
1069.000000	98.825200 
1068.000000	98.818822 
1067.000000	98.814006 
1066.000000	98.812800 
1065.000000	98.814522 
1064.000000	98.815710 
1063.000000	98.812939 
1062.000000	98.805552 
1061.000000	98.795787 
1060.000000	98.786826 
1059.000000	98.780721 
1058.000000	98.777808 
1057.000000	98.777208 
1056.000000	98.777746 
1055.000000	98.778695 
1054.000000	98.779595 
1053.000000	98.779389 
1052.000000	98.776518 
1051.000000	98.770768 
1050.000000	98.764641 
1049.000000	98.761451 
1048.000000	98.761830 
1047.000000	98.762913 
1046.000000	98.761100 
1045.000000	98.755264 
1044.000000	98.747576 
1043.000000	98.741956 
1042.000000	98.741286 
1041.000000	98.745160 
1040.000000	98.750063 
1039.000000	98.752526 
1038.000000	98.752315 
1037.000000	98.751785 
1036.000000	98.752600 
1035.000000	98.754424 
1034.000000	98.756693 
1033.000000	98.759894 
1032.000000	98.764258 
1031.000000	98.768455 
1030.000000	98.770858 
1029.000000	98.771564 
1028.000000	98.772272 
1027.000000	98.774482 
1026.000000	98.778384 
1025.000000	98.783031 
1024.000000	98.787156 
1023.000000	98.790342 
1022.000000	98.793834 
1021.000000	98.799427 
1020.000000	98.806921 
1019.000000	98.813508 
1018.000000	98.816697 
1017.000000	98.817067 
1016.000000	98.817352 
1015.000000	98.819478 
1014.000000	98.823453 
1013.000000	98.828582 
1012.000000	98.834238 
1011.000000	98.839488 
1010.000000	98.843256 
1009.000000	98.845323 
1008.000000	98.846481 
1007.000000	98.847557 
1006.000000	98.849024 
1005.000000	98.851621 
1004.000000	98.856349 
1003.000000	98.863295 
1002.000000	98.870943 
1001.000000	98.877385 
1000.000000	98.881953 
999.000000	 98.885282 
998.000000	 98.888204 
997.000000	 98.891089 
996.000000	 98.894137 
995.000000	 98.897617 
994.000000	 98.901534 
993.000000	 98.905397 
992.000000	 98.908703 
991.000000	 98.911744 
990.000000	 98.915692 
989.000000	 98.921589 
988.000000	 98.929212 
987.000000	 98.936891 
986.000000	 98.942697 
985.000000	 98.946236 
984.000000	 98.949281 
983.000000	 98.954298 
982.000000	 98.962110 
981.000000	 98.971043 
980.000000	 98.978577 
979.000000	 98.984013 
978.000000	 98.989011 
977.000000	 98.995572 
976.000000	 99.003844 
975.000000	 99.012044 
974.000000	 99.018267 
973.000000	 99.022123 
972.000000	 99.024900 
971.000000	 99.028371 
970.000000	 99.033184 
969.000000	 99.038476 
968.000000	 99.043220 
967.000000	 99.047665 
966.000000	 99.052871 
965.000000	 99.058975 
964.000000	 99.064880 
963.000000	 99.069853 
962.000000	 99.074450 
961.000000	 99.079336 
960.000000	 99.084161 
959.000000	 99.088475 
958.000000	 99.092930 
957.000000	 99.098346 
956.000000	 99.104087 
955.000000	 99.108668 
954.000000	 99.111879 
953.000000	 99.115098 
952.000000	 99.119218 
951.000000	 99.123258 
950.000000	 99.125703 
949.000000	 99.126568 
948.000000	 99.127497 
947.000000	 99.129898 
946.000000	 99.133353 
945.000000	 99.136193 
944.000000	 99.137583 
943.000000	 99.138711 
942.000000	 99.141542 
941.000000	 99.146447 
940.000000	 99.151627 
939.000000	 99.154994 
938.000000	 99.156105 
937.000000	 99.155975 
936.000000	 99.155831 
935.000000	 99.156451 
934.000000	 99.158300 
933.000000	 99.161430 
932.000000	 99.165202 
931.000000	 99.168566 
930.000000	 99.170862 
929.000000	 99.172171 
928.000000	 99.173007 
927.000000	 99.173982 
926.000000	 99.175527 
925.000000	 99.177661 
924.000000	 99.180047 
923.000000	 99.182335 
922.000000	 99.184426 
921.000000	 99.186329 
920.000000	 99.188020 
919.000000	 99.189564 
918.000000	 99.191186 
917.000000	 99.193055 
916.000000	 99.195096 
915.000000	 99.197136 
914.000000	 99.199108 
913.000000	 99.201063 
912.000000	 99.203038 
911.000000	 99.205032 
910.000000	 99.207038 
909.000000	 99.209056 
908.000000	 99.211087 
907.000000	 99.213134 
906.000000	 99.215197 
905.000000	 99.217274 
904.000000	 99.219363 
903.000000	 99.221464 
902.000000	 99.223581 
901.000000	 99.225716 
900.000000	 99.227865 
899.000000	 99.230023 
898.000000	 99.232187 
897.000000	 99.234357 
896.000000	 99.236528 
895.000000	 99.238698 
894.000000	 99.240871 
893.000000	 99.243058 
892.000000	 99.245258 
891.000000	 99.247466 
890.000000	 99.249678 
889.000000	 99.251889 
888.000000	 99.254080 
887.000000	 99.256221 
886.000000	 99.258344 
885.000000	 99.260551 
884.000000	 99.262917 
883.000000	 99.265366 
882.000000	 99.267705 
881.000000	 99.269842 
880.000000	 99.271860 
879.000000	 99.273931 
878.000000	 99.276112 
877.000000	 99.278294 
876.000000	 99.280327 
875.000000	 99.282219 
874.000000	 99.284164 
873.000000	 99.286269 
872.000000	 99.288315 
871.000000	 99.290021 
870.000000	 99.291468 
869.000000	 99.292937 
868.000000	 99.294379 
867.000000	 99.295505 
866.000000	 99.296358 
865.000000	 99.297383 
864.000000	 99.298832 
863.000000	 99.300515 
862.000000	 99.302272 
861.000000	 99.304364 
860.000000	 99.306975 
859.000000	 99.309488 
858.000000	 99.310867 
857.000000	 99.310771 
856.000000	 99.309904 
855.000000	 99.309607 
854.000000	 99.311553 
853.000000	 99.316804 
852.000000	 99.323829 
851.000000	 99.328767 
850.000000	 99.329332 
849.000000	 99.326947 
848.000000	 99.324147 
847.000000	 99.321279 
846.000000	 99.317767 
845.000000	 99.314755 
844.000000	 99.313826 
843.000000	 99.314380 
842.000000	 99.314885 
841.000000	 99.315807 
840.000000	 99.318633 
839.000000	 99.322560 
838.000000	 99.324762 
837.000000	 99.323684 
836.000000	 99.319946 
835.000000	 99.314662 
834.000000	 99.308991 
833.000000	 99.304591 
832.000000	 99.302250 
831.000000	 99.300795 
830.000000	 99.299639 
829.000000	 99.301300 
828.000000	 99.308181 
827.000000	 99.317447 
826.000000	 99.323076 
825.000000	 99.323642 
824.000000	 99.323922 
823.000000	 99.327723 
822.000000	 99.333243 
821.000000	 99.337521 
820.000000	 99.341273 
819.000000	 99.346234 
818.000000	 99.350261 
817.000000	 99.348461 
816.000000	 99.338835 
815.000000	 99.325078 
814.000000	 99.313446 
813.000000	 99.307306 
812.000000	 99.305310 
811.000000	 99.303638 
810.000000	 99.298629 
809.000000	 99.288059 
808.000000	 99.272278 
807.000000	 99.255130 
806.000000	 99.241766 
805.000000	 99.233998 
804.000000	 99.229040 
803.000000	 99.223673 
802.000000	 99.217830 
801.000000	 99.212618 
800.000000	 99.207506 
799.000000	 99.202663 
798.000000	 99.201885 
797.000000	 99.208872 
796.000000	 99.221219 
795.000000	 99.231758 
794.000000	 99.236351 
793.000000	 99.236792 
792.000000	 99.235988 
791.000000	 99.234737 
790.000000	 99.234022 
789.000000	 99.235836 
788.000000	 99.239526 
787.000000	 99.240832 
786.000000	 99.237006 
785.000000	 99.230178 
784.000000	 99.223742 
783.000000	 99.218318 
782.000000	 99.213600 
781.000000	 99.211374 
780.000000	 99.213511 
779.000000	 99.218501 
778.000000	 99.222769 
777.000000	 99.224679 
776.000000	 99.225233 
775.000000	 99.225841 
774.000000	 99.227484 
773.000000	 99.231192 
772.000000	 99.237303 
771.000000	 99.244352 
770.000000	 99.250028 
769.000000	 99.253203 
768.000000	 99.254152 
767.000000	 99.253529 
766.000000	 99.252280 
765.000000	 99.251984 
764.000000	 99.254011 
763.000000	 99.258219 
762.000000	 99.263056 
761.000000	 99.266814 
760.000000	 99.268617 
759.000000	 99.268712 
758.000000	 99.268406 
757.000000	 99.269343 
756.000000	 99.272194 
755.000000	 99.276150 
754.000000	 99.279773 
753.000000	 99.282326 
752.000000	 99.283861 
751.000000	 99.284421 
750.000000	 99.283926 
749.000000	 99.283002 
748.000000	 99.283215 
747.000000	 99.285753 
746.000000	 99.290103 
745.000000	 99.294340 
744.000000	 99.297123 
743.000000	 99.298971 
742.000000	 99.301236 
741.000000	 99.304247 
740.000000	 99.307048 
739.000000	 99.308906 
738.000000	 99.310302 
737.000000	 99.312166 
736.000000	 99.314550 
735.000000	 99.316571 
734.000000	 99.317423 
733.000000	 99.317043 
732.000000	 99.315969 
731.000000	 99.314954 
730.000000	 99.314494 
729.000000	 99.314378 
728.000000	 99.313952 
727.000000	 99.313274 
726.000000	 99.313641 
725.000000	 99.316195 
724.000000	 99.320479 
723.000000	 99.324814 
722.000000	 99.327910 
721.000000	 99.329626 
720.000000	 99.330347 
719.000000	 99.330432 
718.000000	 99.330246 
717.000000	 99.330045 
716.000000	 99.329730 
715.000000	 99.329196 
714.000000	 99.328854 
713.000000	 99.329342 
712.000000	 99.330701 
711.000000	 99.332255 
710.000000	 99.333287 
709.000000	 99.333638 
708.000000	 99.333527 
707.000000	 99.333158 
706.000000	 99.332674 
705.000000	 99.332233 
704.000000	 99.331998 
703.000000	 99.332071 
702.000000	 99.332394 
701.000000	 99.332726 
700.000000	 99.332835 
699.000000	 99.332690 
698.000000	 99.332438 
697.000000	 99.332233 
696.000000	 99.332142 
695.000000	 99.332128 
694.000000	 99.332137 
693.000000	 99.332144 
692.000000	 99.332140 
691.000000	 99.332110 
690.000000	 99.332044 
689.000000	 99.331941 
688.000000	 99.331813 
687.000000	 99.331680 
686.000000	 99.331569 
685.000000	 99.331493 
684.000000	 99.331430 
683.000000	 99.331336 
682.000000	 99.331182 
681.000000	 99.330968 
680.000000	 99.330723 
679.000000	 99.330475 
678.000000	 99.330252 
677.000000	 99.330075 
676.000000	 99.329951 
675.000000	 99.329871 
674.000000	 99.329812 
673.000000	 99.329751 
672.000000	 99.329665 
671.000000	 99.329537 
670.000000	 99.329362 
669.000000	 99.329158 
668.000000	 99.328965 
667.000000	 99.328822 
666.000000	 99.328751 
665.000000	 99.328757 
664.000000	 99.328833 
663.000000	 99.328956 
662.000000	 99.329085 
661.000000	 99.329183 
660.000000	 99.329236 
659.000000	 99.329265 
658.000000	 99.329330 
657.000000	 99.329497 
656.000000	 99.329792 
655.000000	 99.330174 
654.000000	 99.330574 
653.000000	 99.330937 
652.000000	 99.331246 
651.000000	 99.331509 
650.000000	 99.331752 

