4000.000000	99.910590 
3999.000000	99.910417 
3998.000000	99.908495 
3997.000000	99.905575 
3996.000000	99.903058 
3995.000000	99.902261 
3994.000000	99.903524 
3993.000000	99.906083 
3992.000000	99.908745 
3991.000000	99.910615 
3990.000000	99.911356 
3989.000000	99.911138 
3988.000000	99.910526 
3987.000000	99.910163 
3986.000000	99.910288 
3985.000000	99.910463 
3984.000000	99.909841 
3983.000000	99.907903 
3982.000000	99.905026 
3981.000000	99.902254 
3980.000000	99.900343 
3979.000000	99.899206 
3978.000000	99.898542 
3977.000000	99.898847 
3976.000000	99.901257 
3975.000000	99.906047 
3974.000000	99.911494 
3973.000000	99.914626 
3972.000000	99.913371 
3971.000000	99.908031 
3970.000000	99.900910 
3969.000000	99.894703 
3968.000000	99.891059 
3967.000000	99.890145 
3966.000000	99.891122 
3965.000000	99.892889 
3964.000000	99.894437 
3963.000000	99.894791 
3962.000000	99.893130 
3961.000000	99.889336 
3960.000000	99.884552 
3959.000000	99.880776 
3958.000000	99.879437 
3957.000000	99.880320 
3956.000000	99.882155 
3955.000000	99.884331 
3954.000000	99.887676 
3953.000000	99.893252 
3952.000000	99.900386 
3951.000000	99.906299 
3950.000000	99.908288 
3949.000000	99.906511 
3948.000000	99.904032 
3947.000000	99.903643 
3946.000000	99.905326 
3945.000000	99.907089 
3944.000000	99.907494 
3943.000000	99.906760 
3942.000000	99.905821 
3941.000000	99.904934 
3940.000000	99.903655 
3939.000000	99.901801 
3938.000000	99.899904 
3937.000000	99.898736 
3936.000000	99.898577 
3935.000000	99.899049 
3934.000000	99.899400 
3933.000000	99.899146 
3932.000000	99.898786 
3931.000000	99.899841 
3930.000000	99.903709 
3929.000000	99.910013 
3928.000000	99.915968 
3927.000000	99.918015 
3926.000000	99.914707 
3925.000000	99.907947 
3924.000000	99.901196 
3923.000000	99.896770 
3922.000000	99.894871 
3921.000000	99.894212 
3920.000000	99.893172 
3919.000000	99.891277 
3918.000000	99.890342 
3917.000000	99.893042 
3916.000000	99.899682 
3915.000000	99.906991 
3914.000000	99.910992 
3913.000000	99.910067 
3912.000000	99.905833 
3911.000000	99.901587 
3910.000000	99.900033 
3909.000000	99.901669 
3908.000000	99.904729 
3907.000000	99.906657 
3906.000000	99.906200 
3905.000000	99.904515 
3904.000000	99.903743 
3903.000000	99.904648 
3902.000000	99.906473 
3901.000000	99.908974 
3900.000000	99.912670 
3899.000000	99.916657 
3898.000000	99.918575 
3897.000000	99.917232 
3896.000000	99.914034 
3895.000000	99.910879 
3894.000000	99.908138 
3893.000000	99.905390 
3892.000000	99.904111 
3891.000000	99.906612 
3890.000000	99.911773 
3889.000000	99.915057 
3888.000000	99.913384 
3887.000000	99.908677 
3886.000000	99.905598 
3885.000000	99.905031 
3884.000000	99.902811 
3883.000000	99.896136 
3882.000000	99.888220 
3881.000000	99.885685 
3880.000000	99.891252 
3879.000000	99.899647 
3878.000000	99.903228 
3877.000000	99.899910 
3876.000000	99.894828 
3875.000000	99.895155 
3874.000000	99.902114 
3873.000000	99.909090 
3872.000000	99.909557 
3871.000000	99.905084 
3870.000000	99.902798 
3869.000000	99.905082 
3868.000000	99.907329 
3867.000000	99.906089 
3866.000000	99.903520 
3865.000000	99.903069 
3864.000000	99.905136 
3863.000000	99.907931 
3862.000000	99.910420 
3861.000000	99.912468 
3860.000000	99.914410 
3859.000000	99.917152 
3858.000000	99.921477 
3857.000000	99.926439 
3856.000000	99.929199 
3855.000000	99.928531 
3854.000000	99.927411 
3853.000000	99.928185 
3852.000000	99.928136 
3851.000000	99.924546 
3850.000000	99.918827 
3849.000000	99.913633 
3848.000000	99.909956 
3847.000000	99.907666 
3846.000000	99.907189 
3845.000000	99.909525 
3844.000000	99.915400 
3843.000000	99.923226 
3842.000000	99.928546 
3841.000000	99.927204 
3840.000000	99.919642 
3839.000000	99.911423 
3838.000000	99.908703 
3837.000000	99.912346 
3836.000000	99.917392 
3835.000000	99.918254 
3834.000000	99.913089 
3833.000000	99.904728 
3832.000000	99.898062 
3831.000000	99.895636 
3830.000000	99.895967 
3829.000000	99.896090 
3828.000000	99.895848 
3827.000000	99.898565 
3826.000000	99.906464 
3825.000000	99.916410 
3824.000000	99.922241 
3823.000000	99.920859 
3822.000000	99.916016 
3821.000000	99.914361 
3820.000000	99.916950 
3819.000000	99.919502 
3818.000000	99.919498 
3817.000000	99.919177 
3816.000000	99.920783 
3815.000000	99.921507 
3814.000000	99.918055 
3813.000000	99.913171 
3812.000000	99.912521 
3811.000000	99.917445 
3810.000000	99.923152 
3809.000000	99.924206 
3808.000000	99.921538 
3807.000000	99.921222 
3806.000000	99.925605 
3805.000000	99.930271 
3804.000000	99.930386 
3803.000000	99.926126 
3802.000000	99.921867 
3801.000000	99.919481 
3800.000000	99.915754 
3799.000000	99.908937 
3798.000000	99.902231 
3797.000000	99.900052 
3796.000000	99.902738 
3795.000000	99.906133 
3794.000000	99.906442 
3793.000000	99.903680 
3792.000000	99.900145 
3791.000000	99.897590 
3790.000000	99.896197 
3789.000000	99.894909 
3788.000000	99.892248 
3787.000000	99.887743 
3786.000000	99.883310 
3785.000000	99.882257 
3784.000000	99.885850 
3783.000000	99.891689 
3782.000000	99.896566 
3781.000000	99.899717 
3780.000000	99.902538 
3779.000000	99.905204 
3778.000000	99.905445 
3777.000000	99.901828 
3776.000000	99.896904 
3775.000000	99.895107 
3774.000000	99.897774 
3773.000000	99.901737 
3772.000000	99.903617 
3771.000000	99.904080 
3770.000000	99.906209 
3769.000000	99.910454 
3768.000000	99.913747 
3767.000000	99.913710 
3766.000000	99.911677 
3765.000000	99.910484 
3764.000000	99.910516 
3763.000000	99.909655 
3762.000000	99.906778 
3761.000000	99.902930 
3760.000000	99.899718 
3759.000000	99.898494 
3758.000000	99.900621 
3757.000000	99.906262 
3756.000000	99.913490 
3755.000000	99.920178 
3754.000000	99.926081 
3753.000000	99.931989 
3752.000000	99.937005 
3751.000000	99.939351 
3750.000000	99.939837 
3749.000000	99.939848 
3748.000000	99.937139 
3747.000000	99.928281 
3746.000000	99.915206 
3745.000000	99.907014 
3744.000000	99.908080 
3743.000000	99.910414 
3742.000000	99.908178 
3741.000000	99.905984 
3740.000000	99.909841 
3739.000000	99.918887 
3738.000000	99.926752 
3737.000000	99.928612 
3736.000000	99.924672 
3735.000000	99.917849 
3734.000000	99.911010 
3733.000000	99.906798 
3732.000000	99.906516 
3731.000000	99.908079 
3730.000000	99.907559 
3729.000000	99.903471 
3728.000000	99.898500 
3727.000000	99.896118 
3726.000000	99.895584 
3725.000000	99.893052 
3724.000000	99.887927 
3723.000000	99.884368 
3722.000000	99.886110 
3721.000000	99.891955 
3720.000000	99.897500 
3719.000000	99.900406 
3718.000000	99.902321 
3717.000000	99.905241 
3716.000000	99.908164 
3715.000000	99.908471 
3714.000000	99.905155 
3713.000000	99.899549 
3712.000000	99.893210 
3711.000000	99.886309 
3710.000000	99.878821 
3709.000000	99.872234 
3708.000000	99.869074 
3707.000000	99.870532 
3706.000000	99.875052 
3705.000000	99.879495 
3704.000000	99.881698 
3703.000000	99.882136 
3702.000000	99.883043 
3701.000000	99.885383 
3700.000000	99.886876 
3699.000000	99.884486 
3698.000000	99.878537 
3697.000000	99.872746 
3696.000000	99.870258 
3695.000000	99.871328 
3694.000000	99.874867 
3693.000000	99.879918 
3692.000000	99.884706 
3691.000000	99.885759 
3690.000000	99.880750 
3689.000000	99.872631 
3688.000000	99.867288 
3687.000000	99.866655 
3686.000000	99.868219 
3685.000000	99.869430 
3684.000000	99.869125 
3683.000000	99.866716 
3682.000000	99.862543 
3681.000000	99.859443 
3680.000000	99.860726 
3679.000000	99.865266 
3678.000000	99.867280 
3677.000000	99.863071 
3676.000000	99.856378 
3675.000000	99.852996 
3674.000000	99.852486 
3673.000000	99.851051 
3672.000000	99.848674 
3671.000000	99.849211 
3670.000000	99.854203 
3669.000000	99.859891 
3668.000000	99.863007 
3667.000000	99.864710 
3666.000000	99.867341 
3665.000000	99.870554 
3664.000000	99.871245 
3663.000000	99.866969 
3662.000000	99.858917 
3661.000000	99.851344 
3660.000000	99.847983 
3659.000000	99.849738 
3658.000000	99.855349 
3657.000000	99.863404 
3656.000000	99.872452 
3655.000000	99.880152 
3654.000000	99.884229 
3653.000000	99.884311 
3652.000000	99.882412 
3651.000000	99.881537 
3650.000000	99.882916 
3649.000000	99.884900 
3648.000000	99.885460 
3647.000000	99.884475 
3646.000000	99.883357 
3645.000000	99.883153 
3644.000000	99.883591 
3643.000000	99.883358 
3642.000000	99.880905 
3641.000000	99.875735 
3640.000000	99.869406 
3639.000000	99.864614 
3638.000000	99.862540 
3637.000000	99.861983 
3636.000000	99.862014 
3635.000000	99.864223 
3634.000000	99.870291 
3633.000000	99.878105 
3632.000000	99.883009 
3631.000000	99.883038 
3630.000000	99.881944 
3629.000000	99.884011 
3628.000000	99.886307 
3627.000000	99.882821 
3626.000000	99.873618 
3625.000000	99.864271 
3624.000000	99.859591 
3623.000000	99.860178 
3622.000000	99.863759 
3621.000000	99.868352 
3620.000000	99.873420 
3619.000000	99.878942 
3618.000000	99.884200 
3617.000000	99.887527 
3616.000000	99.887472 
3615.000000	99.884281 
3614.000000	99.880029 
3613.000000	99.877348 
3612.000000	99.878003 
3611.000000	99.882441 
3610.000000	99.889943 
3609.000000	99.898223 
3608.000000	99.903668 
3607.000000	99.903911 
3606.000000	99.899763 
3605.000000	99.893813 
3604.000000	99.887839 
3603.000000	99.882236 
3602.000000	99.877524 
3601.000000	99.875502 
3600.000000	99.877641 
3599.000000	99.883248 
3598.000000	99.889675 
3597.000000	99.894186 
3596.000000	99.895903 
3595.000000	99.896249 
3594.000000	99.896912 
3593.000000	99.897717 
3592.000000	99.897021 
3591.000000	99.893775 
3590.000000	99.888989 
3589.000000	99.885069 
3588.000000	99.883686 
3587.000000	99.884560 
3586.000000	99.886452 
3585.000000	99.888475 
3584.000000	99.890168 
3583.000000	99.891158 
3582.000000	99.891372 
3581.000000	99.891156 
3580.000000	99.890512 
3579.000000	99.888455 
3578.000000	99.883836 
3577.000000	99.876778 
3576.000000	99.868991 
3575.000000	99.862681 
3574.000000	99.859345 
3573.000000	99.859496 
3572.000000	99.863032 
3571.000000	99.869298 
3570.000000	99.877052 
3569.000000	99.884689 
3568.000000	99.890395 
3567.000000	99.892640 
3566.000000	99.891258 
3565.000000	99.887741 
3564.000000	99.884428 
3563.000000	99.883338 
3562.000000	99.885037 
3561.000000	99.888183 
3560.000000	99.890388 
3559.000000	99.889971 
3558.000000	99.887272 
3557.000000	99.884416 
3556.000000	99.883762 
3555.000000	99.886368 
3554.000000	99.891363 
3553.000000	99.896302 
3552.000000	99.898353 
3551.000000	99.895910 
3550.000000	99.889609 
3549.000000	99.881995 
3548.000000	99.876030 
3547.000000	99.873435 
3546.000000	99.874083 
3545.000000	99.876632 
3544.000000	99.879644 
3543.000000	99.882231 
3542.000000	99.884119 
3541.000000	99.885479 
3540.000000	99.886659 
3539.000000	99.887857 
3538.000000	99.888778 
3537.000000	99.888609 
3536.000000	99.886633 
3535.000000	99.883085 
3534.000000	99.879195 
3533.000000	99.876142 
3532.000000	99.873985 
3531.000000	99.871857 
3530.000000	99.869218 
3529.000000	99.866566 
3528.000000	99.864739 
3527.000000	99.863952 
3526.000000	99.864110 
3525.000000	99.865626 
3524.000000	99.869040 
3523.000000	99.873794 
3522.000000	99.878184 
3521.000000	99.880863 
3520.000000	99.882035 
3519.000000	99.882916 
3518.000000	99.884283 
3517.000000	99.885735 
3516.000000	99.886303 
3515.000000	99.885546 
3514.000000	99.883984 
3513.000000	99.882645 
3512.000000	99.882190 
3511.000000	99.882334 
3510.000000	99.882102 
3509.000000	99.880733 
3508.000000	99.878160 
3507.000000	99.874750 
3506.000000	99.871027 
3505.000000	99.867798 
3504.000000	99.866180 
3503.000000	99.867067 
3502.000000	99.870504 
3501.000000	99.875523 
3500.000000	99.880409 
3499.000000	99.883257 
3498.000000	99.882909 
3497.000000	99.879883 
3496.000000	99.876050 
3495.000000	99.872872 
3494.000000	99.870084 
3493.000000	99.866584 
3492.000000	99.862381 
3491.000000	99.858944 
3490.000000	99.857568 
3489.000000	99.858017 
3488.000000	99.859069 
3487.000000	99.860032 
3486.000000	99.861361 
3485.000000	99.863901 
3484.000000	99.867678 
3483.000000	99.871286 
3482.000000	99.872448 
3481.000000	99.869707 
3480.000000	99.863898 
3479.000000	99.857905 
3478.000000	99.854874 
3477.000000	99.856540 
3476.000000	99.862608 
3475.000000	99.870894 
3474.000000	99.878031 
3473.000000	99.881013 
3472.000000	99.879119 
3471.000000	99.874444 
3470.000000	99.870050 
3469.000000	99.867452 
3468.000000	99.865992 
3467.000000	99.864375 
3466.000000	99.862353 
3465.000000	99.860763 
3464.000000	99.860349 
3463.000000	99.860840 
3462.000000	99.861153 
3461.000000	99.860505 
3460.000000	99.859341 
3459.000000	99.859078 
3458.000000	99.860622 
3457.000000	99.863159 
3456.000000	99.864687 
3455.000000	99.863925 
3454.000000	99.861633 
3453.000000	99.859816 
3452.000000	99.859675 
3451.000000	99.860589 
3450.000000	99.861229 
3449.000000	99.861241 
3448.000000	99.861240 
3447.000000	99.861209 
3446.000000	99.859853 
3445.000000	99.856372 
3444.000000	99.852348 
3443.000000	99.850829 
3442.000000	99.853275 
3441.000000	99.857945 
3440.000000	99.861734 
3439.000000	99.863147 
3438.000000	99.863067 
3437.000000	99.863120 
3436.000000	99.863961 
3435.000000	99.865091 
3434.000000	99.865744 
3433.000000	99.865643 
3432.000000	99.865097 
3431.000000	99.864727 
3430.000000	99.865184 
3429.000000	99.866985 
3428.000000	99.870323 
3427.000000	99.874719 
3426.000000	99.878796 
3425.000000	99.880724 
3424.000000	99.879450 
3423.000000	99.875841 
3422.000000	99.872423 
3421.000000	99.871434 
3420.000000	99.872885 
3419.000000	99.874704 
3418.000000	99.874973 
3417.000000	99.873678 
3416.000000	99.871890 
3415.000000	99.869631 
3414.000000	99.865553 
3413.000000	99.859187 
3412.000000	99.852706 
3411.000000	99.849332 
3410.000000	99.850091 
3409.000000	99.853076 
3408.000000	99.855995 
3407.000000	99.858492 
3406.000000	99.861353 
3405.000000	99.864318 
3404.000000	99.865925 
3403.000000	99.865505 
3402.000000	99.864425 
3401.000000	99.864797 
3400.000000	99.867229 
3399.000000	99.870080 
3398.000000	99.870775 
3397.000000	99.867785 
3396.000000	99.861706 
3395.000000	99.854808 
3394.000000	99.849611 
3393.000000	99.847641 
3392.000000	99.849006 
3391.000000	99.852641 
3390.000000	99.856840 
3389.000000	99.859883 
3388.000000	99.860705 
3387.000000	99.859419 
3386.000000	99.857431 
3385.000000	99.856888 
3384.000000	99.859383 
3383.000000	99.864465 
3382.000000	99.869417 
3381.000000	99.871188 
3380.000000	99.868966 
3379.000000	99.864621 
3378.000000	99.860484 
3377.000000	99.857356 
3376.000000	99.855128 
3375.000000	99.854357 
3374.000000	99.855829 
3373.000000	99.858653 
3372.000000	99.860292 
3371.000000	99.859326 
3370.000000	99.857486 
3369.000000	99.858050 
3368.000000	99.862339 
3367.000000	99.868375 
3366.000000	99.872884 
3365.000000	99.874172 
3364.000000	99.873008 
3363.000000	99.871244 
3362.000000	99.869987 
3361.000000	99.868992 
3360.000000	99.867518 
3359.000000	99.865556 
3358.000000	99.864030 
3357.000000	99.863647 
3356.000000	99.863779 
3355.000000	99.862979 
3354.000000	99.860796 
3353.000000	99.858662 
3352.000000	99.858425 
3351.000000	99.860037 
3350.000000	99.861294 
3349.000000	99.860201 
3348.000000	99.857194 
3347.000000	99.854554 
3346.000000	99.853881 
3345.000000	99.854735 
3344.000000	99.855699 
3343.000000	99.856085 
3342.000000	99.856281 
3341.000000	99.856844 
3340.000000	99.857773 
3339.000000	99.858645 
3338.000000	99.859261 
3337.000000	99.860100 
3336.000000	99.862016 
3335.000000	99.865199 
3334.000000	99.868523 
3333.000000	99.870370 
3332.000000	99.870237 
3331.000000	99.869135 
3330.000000	99.868203 
3329.000000	99.867399 
3328.000000	99.865884 
3327.000000	99.863279 
3326.000000	99.860094 
3325.000000	99.857152 
3324.000000	99.855088 
3323.000000	99.854296 
3322.000000	99.854984 
3321.000000	99.857265 
3320.000000	99.861200 
3319.000000	99.866254 
3318.000000	99.870555 
3317.000000	99.871645 
3316.000000	99.869082 
3315.000000	99.865898 
3314.000000	99.866122 
3313.000000	99.870460 
3312.000000	99.875398 
3311.000000	99.877021 
3310.000000	99.875036 
3309.000000	99.872468 
3308.000000	99.872113 
3307.000000	99.874096 
3306.000000	99.876503 
3305.000000	99.877490 
3304.000000	99.876715 
3303.000000	99.875419 
3302.000000	99.875188 
3301.000000	99.876045 
3300.000000	99.875661 
3299.000000	99.871167 
3298.000000	99.862309 
3297.000000	99.852506 
3296.000000	99.846274 
3295.000000	99.845599 
3294.000000	99.848995 
3293.000000	99.853674 
3292.000000	99.858024 
3291.000000	99.862038 
3290.000000	99.866123 
3289.000000	99.870023 
3288.000000	99.872761 
3287.000000	99.873413 
3286.000000	99.872162 
3285.000000	99.870703 
3284.000000	99.871134 
3283.000000	99.873977 
3282.000000	99.877425 
3281.000000	99.878916 
3280.000000	99.877308 
3279.000000	99.873378 
3278.000000	99.868775 
3277.000000	99.865190 
3276.000000	99.863974 
3275.000000	99.865261 
3274.000000	99.867191 
3273.000000	99.867089 
3272.000000	99.864086 
3271.000000	99.859973 
3270.000000	99.856998 
3269.000000	99.855572 
3268.000000	99.854781 
3267.000000	99.854353 
3266.000000	99.854911 
3265.000000	99.856456 
3264.000000	99.857860 
3263.000000	99.858330 
3262.000000	99.858520 
3261.000000	99.859555 
3260.000000	99.861464 
3259.000000	99.863237 
3258.000000	99.864240 
3257.000000	99.864874 
3256.000000	99.865617 
3255.000000	99.865975 
3254.000000	99.864985 
3253.000000	99.862668 
3252.000000	99.860390 
3251.000000	99.859510 
3250.000000	99.860034 
3249.000000	99.860998 
3248.000000	99.861854 
3247.000000	99.862826 
3246.000000	99.863877 
3245.000000	99.863998 
3244.000000	99.861970 
3243.000000	99.857613 
3242.000000	99.852088 
3241.000000	99.847224 
3240.000000	99.844726 
3239.000000	99.845627 
3238.000000	99.849955 
3237.000000	99.856592 
3236.000000	99.863346 
3235.000000	99.867403 
3234.000000	99.866604 
3233.000000	99.861164 
3232.000000	99.854010 
3231.000000	99.848654 
3230.000000	99.846524 
3229.000000	99.846784 
3228.000000	99.848380 
3227.000000	99.851079 
3226.000000	99.854451 
3225.000000	99.857220 
3224.000000	99.858480 
3223.000000	99.858662 
3222.000000	99.858524 
3221.000000	99.858021 
3220.000000	99.857185 
3219.000000	99.857286 
3218.000000	99.859546 
3217.000000	99.862865 
3216.000000	99.864389 
3215.000000	99.862793 
3214.000000	99.860041 
3213.000000	99.859204 
3212.000000	99.861039 
3211.000000	99.863249 
3210.000000	99.862836 
3209.000000	99.858846 
3208.000000	99.853122 
3207.000000	99.848802 
3206.000000	99.848011 
3205.000000	99.850505 
3204.000000	99.854137 
3203.000000	99.856571 
3202.000000	99.856816 
3201.000000	99.855566 
3200.000000	99.854342 
3199.000000	99.854260 
3198.000000	99.855411 
3197.000000	99.857137 
3196.000000	99.858545 
3195.000000	99.858711 
3194.000000	99.857009 
3193.000000	99.853803 
3192.000000	99.850517 
3191.000000	99.848363 
3190.000000	99.847174 
3189.000000	99.846107 
3188.000000	99.845144 
3187.000000	99.845094 
3186.000000	99.846397 
3185.000000	99.849104 
3184.000000	99.853672 
3183.000000	99.859976 
3182.000000	99.865254 
3181.000000	99.865175 
3180.000000	99.858372 
3179.000000	99.848779 
3178.000000	99.842183 
3177.000000	99.841240 
3176.000000	99.844756 
3175.000000	99.850299 
3174.000000	99.855652 
3173.000000	99.858788 
3172.000000	99.858947 
3171.000000	99.857836 
3170.000000	99.857914 
3169.000000	99.859170 
3168.000000	99.859103 
3167.000000	99.856295 
3166.000000	99.852590 
3165.000000	99.851102 
3164.000000	99.852977 
3163.000000	99.856557 
3162.000000	99.858938 
3161.000000	99.858094 
3160.000000	99.854296 
3159.000000	99.849917 
3158.000000	99.847324 
3157.000000	99.846778 
3156.000000	99.846784 
3155.000000	99.846179 
3154.000000	99.844920 
3153.000000	99.843063 
3152.000000	99.840356 
3151.000000	99.837297 
3150.000000	99.835367 
3149.000000	99.835465 
3148.000000	99.836857 
3147.000000	99.838382 
3146.000000	99.840032 
3145.000000	99.842630 
3144.000000	99.846269 
3143.000000	99.849720 
3142.000000	99.851305 
3141.000000	99.850166 
3140.000000	99.847040 
3139.000000	99.843989 
3138.000000	99.842873 
3137.000000	99.843665 
3136.000000	99.844500 
3135.000000	99.843539 
3134.000000	99.840465 
3133.000000	99.836098 
3132.000000	99.831313 
3131.000000	99.826867 
3130.000000	99.823864 
3129.000000	99.823539 
3128.000000	99.826362 
3127.000000	99.831586 
3126.000000	99.837805 
3125.000000	99.843786 
3124.000000	99.848630 
3123.000000	99.851335 
3122.000000	99.850786 
3121.000000	99.846794 
3120.000000	99.841131 
3119.000000	99.836871 
3118.000000	99.836030 
3117.000000	99.837896 
3116.000000	99.839989 
3115.000000	99.840501 
3114.000000	99.839578 
3113.000000	99.838623 
3112.000000	99.838977 
3111.000000	99.841190 
3110.000000	99.844874 
3109.000000	99.848794 
3108.000000	99.851195 
3107.000000	99.850560 
3106.000000	99.846907 
3105.000000	99.842826 
3104.000000	99.842428 
3103.000000	99.847755 
3102.000000	99.856023 
3101.000000	99.861724 
3100.000000	99.862082 
3099.000000	99.859154 
3098.000000	99.855990 
3097.000000	99.852772 
3096.000000	99.848512 
3095.000000	99.845002 
3094.000000	99.846061 
3093.000000	99.852491 
3092.000000	99.859963 
3091.000000	99.862865 
3090.000000	99.859238 
3089.000000	99.851511 
3088.000000	99.843562 
3087.000000	99.837735 
3086.000000	99.833961 
3085.000000	99.831086 
3084.000000	99.829090 
3083.000000	99.829671 
3082.000000	99.833980 
3081.000000	99.840226 
3080.000000	99.844919 
3079.000000	99.846578 
3078.000000	99.846916 
3077.000000	99.848147 
3076.000000	99.850478 
3075.000000	99.852654 
3074.000000	99.853624 
3073.000000	99.852959 
3072.000000	99.850814 
3071.000000	99.848341 
3070.000000	99.847227 
3069.000000	99.847944 
3068.000000	99.849119 
3067.000000	99.849333 
3066.000000	99.848802 
3065.000000	99.848466 
3064.000000	99.848165 
3063.000000	99.846729 
3062.000000	99.843476 
3061.000000	99.838840 
3060.000000	99.834005 
3059.000000	99.830650 
3058.000000	99.830425 
3057.000000	99.833465 
3056.000000	99.837461 
3055.000000	99.839239 
3054.000000	99.837626 
3053.000000	99.834373 
3052.000000	99.832176 
3051.000000	99.832035 
3050.000000	99.832457 
3049.000000	99.831018 
3048.000000	99.826933 
3047.000000	99.822245 
3046.000000	99.820079 
3045.000000	99.821426 
3044.000000	99.824089 
3043.000000	99.825335 
3042.000000	99.825145 
3041.000000	99.826037 
3040.000000	99.829672 
3039.000000	99.834429 
3038.000000	99.836766 
3037.000000	99.834690 
3036.000000	99.829556 
3035.000000	99.824568 
3034.000000	99.821825 
3033.000000	99.820996 
3032.000000	99.820587 
3031.000000	99.819891 
3030.000000	99.819345 
3029.000000	99.819372 
3028.000000	99.819547 
3027.000000	99.818954 
3026.000000	99.817039 
3025.000000	99.814174 
3024.000000	99.811520 
3023.000000	99.809903 
3022.000000	99.808331 
3021.000000	99.804210 
3020.000000	99.796060 
3019.000000	99.785900 
3018.000000	99.777781 
3017.000000	99.773721 
3016.000000	99.772240 
3015.000000	99.771376 
3014.000000	99.771656 
3013.000000	99.774616 
3012.000000	99.778993 
3011.000000	99.780250 
3010.000000	99.774787 
3009.000000	99.764029 
3008.000000	99.753509 
3007.000000	99.747801 
3006.000000	99.746640 
3005.000000	99.746195 
3004.000000	99.743738 
3003.000000	99.740316 
3002.000000	99.738706 
3001.000000	99.739782 
3000.000000	99.741733 
2999.000000	99.742173 
2998.000000	99.739812 
2997.000000	99.734421 
2996.000000	99.726704 
2995.000000	99.718601 
2994.000000	99.712434 
2993.000000	99.708926 
2992.000000	99.706631 
2991.000000	99.703787 
2990.000000	99.700083 
2989.000000	99.696271 
2988.000000	99.692989 
2987.000000	99.690781 
2986.000000	99.690534 
2985.000000	99.692706 
2984.000000	99.696147 
2983.000000	99.698426 
2982.000000	99.697697 
2981.000000	99.694230 
2980.000000	99.690327 
2979.000000	99.688662 
2978.000000	99.690011 
2977.000000	99.692162 
2976.000000	99.691540 
2975.000000	99.686570 
2974.000000	99.679342 
2973.000000	99.673624 
2972.000000	99.671446 
2971.000000	99.671860 
2970.000000	99.672538 
2969.000000	99.671888 
2968.000000	99.669780 
2967.000000	99.667039 
2966.000000	99.664715 
2965.000000	99.663665 
2964.000000	99.664326 
2963.000000	99.666357 
2962.000000	99.668381 
2961.000000	99.668669 
2960.000000	99.666760 
2959.000000	99.664294 
2958.000000	99.663572 
2957.000000	99.665321 
2956.000000	99.668466 
2955.000000	99.671894 
2954.000000	99.675403 
2953.000000	99.678700 
2952.000000	99.680662 
2951.000000	99.680396 
2950.000000	99.678403 
2949.000000	99.676000 
2948.000000	99.673947 
2947.000000	99.672106 
2946.000000	99.669928 
2945.000000	99.666747 
2944.000000	99.662050 
2943.000000	99.656119 
2942.000000	99.650095 
2941.000000	99.644836 
2940.000000	99.639947 
2939.000000	99.634364 
2938.000000	99.627493 
2937.000000	99.619213 
2936.000000	99.609301 
2935.000000	99.597808 
2934.000000	99.585880 
2933.000000	99.575166 
2932.000000	99.566001 
2931.000000	99.556785 
2930.000000	99.545627 
2929.000000	99.532440 
2928.000000	99.519188 
2927.000000	99.508174 
2926.000000	99.500381 
2925.000000	99.495480 
2924.000000	99.493097 
2923.000000	99.493450 
2922.000000	99.496537 
2921.000000	99.501425 
2920.000000	99.507162 
2919.000000	99.514138 
2918.000000	99.523577 
2917.000000	99.535543 
2916.000000	99.548300 
2915.000000	99.559924 
2914.000000	99.569796 
2913.000000	99.578196 
2912.000000	99.585450 
2911.000000	99.592258 
2910.000000	99.600130 
2909.000000	99.610309 
2908.000000	99.622189 
2907.000000	99.633369 
2906.000000	99.641198 
2905.000000	99.644073 
2904.000000	99.641995 
2903.000000	99.637034 
2902.000000	99.633292 
2901.000000	99.634906 
2900.000000	99.643121 
2899.000000	99.655174 
2898.000000	99.666306 
2897.000000	99.673033 
2896.000000	99.674919 
2895.000000	99.674210 
2894.000000	99.674199 
2893.000000	99.677205 
2892.000000	99.683068 
2891.000000	99.689308 
2890.000000	99.693320 
2889.000000	99.694828 
2888.000000	99.696068 
2887.000000	99.699382 
2886.000000	99.704892 
2885.000000	99.710628 
2884.000000	99.714480 
2883.000000	99.715554 
2882.000000	99.714107 
2881.000000	99.711261 
2880.000000	99.708976 
2879.000000	99.709227 
2878.000000	99.712351 
2877.000000	99.716488 
2876.000000	99.719233 
2875.000000	99.719633 
2874.000000	99.718253 
2873.000000	99.715989 
2872.000000	99.713614 
2871.000000	99.712087 
2870.000000	99.712170 
2869.000000	99.713524 
2868.000000	99.714872 
2867.000000	99.715217 
2866.000000	99.714345 
2865.000000	99.712084 
2864.000000	99.707874 
2863.000000	99.701523 
2862.000000	99.693985 
2861.000000	99.686878 
2860.000000	99.681199 
2859.000000	99.676613 
2858.000000	99.671979 
2857.000000	99.666669 
2856.000000	99.661328 
2855.000000	99.657038 
2854.000000	99.653921 
2853.000000	99.651475 
2852.000000	99.650542 
2851.000000	99.653625 
2850.000000	99.662097 
2849.000000	99.674025 
2848.000000	99.686314 
2847.000000	99.698460 
2846.000000	99.712316 
2845.000000	99.728231 
2844.000000	99.743521 
2843.000000	99.755522 
2842.000000	99.764438 
2841.000000	99.772036 
2840.000000	99.778799 
2839.000000	99.783743 
2838.000000	99.786282 
2837.000000	99.787004 
2836.000000	99.786964 
2835.000000	99.787228 
2834.000000	99.788758 
2833.000000	99.791654 
2832.000000	99.794557 
2831.000000	99.795755 
2830.000000	99.795146 
2829.000000	99.794507 
2828.000000	99.795666 
2827.000000	99.798754 
2826.000000	99.802263 
2825.000000	99.804419 
2824.000000	99.804437 
2823.000000	99.802905 
2822.000000	99.801318 
2821.000000	99.801136 
2820.000000	99.802928 
2819.000000	99.806021 
2818.000000	99.808872 
2817.000000	99.810094 
2816.000000	99.809562 
2815.000000	99.808559 
2814.000000	99.808639 
2813.000000	99.810345 
2812.000000	99.813011 
2811.000000	99.815342 
2810.000000	99.815865 
2809.000000	99.813487 
2808.000000	99.808575 
2807.000000	99.803393 
2806.000000	99.800670 
2805.000000	99.801591 
2804.000000	99.805463 
2803.000000	99.810806 
2802.000000	99.815799 
2801.000000	99.818156 
2800.000000	99.816280 
2799.000000	99.811123 
2798.000000	99.805919 
2797.000000	99.803541 
2796.000000	99.804683 
2795.000000	99.808577 
2794.000000	99.814086 
2793.000000	99.819559 
2792.000000	99.822954 
2791.000000	99.823265 
2790.000000	99.821394 
2789.000000	99.818992 
2788.000000	99.816976 
2787.000000	99.815513 
2786.000000	99.814551 
2785.000000	99.813780 
2784.000000	99.812932 
2783.000000	99.812741 
2782.000000	99.814627 
2781.000000	99.818618 
2780.000000	99.822553 
2779.000000	99.824451 
2778.000000	99.824852 
2777.000000	99.825609 
2776.000000	99.827031 
2775.000000	99.827698 
2774.000000	99.826866 
2773.000000	99.825587 
2772.000000	99.825220 
2771.000000	99.825892 
2770.000000	99.826803 
2769.000000	99.827330 
2768.000000	99.827515 
2767.000000	99.827801 
2766.000000	99.828430 
2765.000000	99.828982 
2764.000000	99.828749 
2763.000000	99.827751 
2762.000000	99.826853 
2761.000000	99.826501 
2760.000000	99.825998 
2759.000000	99.824633 
2758.000000	99.822770 
2757.000000	99.821028 
2756.000000	99.819149 
2755.000000	99.816869 
2754.000000	99.815286 
2753.000000	99.815867 
2752.000000	99.818205 
2751.000000	99.820175 
2750.000000	99.820504 
2749.000000	99.819964 
2748.000000	99.819813 
2747.000000	99.820288 
2746.000000	99.821061 
2745.000000	99.822036 
2744.000000	99.823010 
2743.000000	99.823389 
2742.000000	99.822958 
2741.000000	99.822322 
2740.000000	99.821985 
2739.000000	99.821523 
2738.000000	99.820234 
2737.000000	99.818174 
2736.000000	99.815966 
2735.000000	99.813972 
2734.000000	99.812211 
2733.000000	99.810891 
2732.000000	99.810507 
2731.000000	99.811414 
2730.000000	99.813492 
2729.000000	99.816117 
2728.000000	99.818368 
2727.000000	99.819574 
2726.000000	99.819905 
2725.000000	99.820218 
2724.000000	99.821192 
2723.000000	99.822742 
2722.000000	99.824273 
2721.000000	99.825085 
2720.000000	99.824525 
2719.000000	99.822293 
2718.000000	99.818970 
2717.000000	99.815926 
2716.000000	99.814393 
2715.000000	99.814717 
2714.000000	99.816504 
2713.000000	99.819058 
2712.000000	99.821581 
2711.000000	99.823493 
2710.000000	99.824855 
2709.000000	99.826094 
2708.000000	99.827087 
2707.000000	99.827020 
2706.000000	99.825527 
2705.000000	99.823481 
2704.000000	99.822234 
2703.000000	99.822468 
2702.000000	99.824181 
2701.000000	99.827113 
2700.000000	99.830469 
2699.000000	99.832738 
2698.000000	99.832884 
2697.000000	99.831610 
2696.000000	99.830497 
2695.000000	99.829832 
2694.000000	99.828329 
2693.000000	99.825263 
2692.000000	99.821879 
2691.000000	99.820001 
2690.000000	99.819945 
2689.000000	99.820543 
2688.000000	99.820835 
2687.000000	99.820973 
2686.000000	99.821600 
2685.000000	99.822859 
2684.000000	99.823939 
2683.000000	99.823386 
2682.000000	99.820294 
2681.000000	99.815660 
2680.000000	99.812067 
2679.000000	99.811344 
2678.000000	99.812849 
2677.000000	99.814746 
2676.000000	99.816440 
2675.000000	99.818576 
2674.000000	99.820899 
2673.000000	99.821761 
2672.000000	99.820310 
2671.000000	99.817882 
2670.000000	99.816330 
2669.000000	99.815814 
2668.000000	99.815254 
2667.000000	99.814337 
2666.000000	99.813978 
2665.000000	99.815081 
2664.000000	99.817795 
2663.000000	99.821866 
2662.000000	99.826784 
2661.000000	99.831479 
2660.000000	99.834573 
2659.000000	99.835219 
2658.000000	99.833418 
2657.000000	99.829719 
2656.000000	99.825129 
2655.000000	99.821159 
2654.000000	99.819261 
2653.000000	99.819993 
2652.000000	99.822825 
2651.000000	99.826312 
2650.000000	99.828016 
2649.000000	99.825165 
2648.000000	99.816952 
2647.000000	99.806424 
2646.000000	99.798988 
2645.000000	99.798391 
2644.000000	99.804354 
2643.000000	99.813726 
2642.000000	99.822820 
2641.000000	99.828816 
2640.000000	99.830759 
2639.000000	99.830327 
2638.000000	99.830660 
2637.000000	99.833192 
2636.000000	99.835934 
2635.000000	99.835707 
2634.000000	99.831909 
2633.000000	99.827596 
2632.000000	99.827007 
2631.000000	99.832134 
2630.000000	99.841027 
2629.000000	99.848815 
2628.000000	99.850938 
2627.000000	99.846319 
2626.000000	99.837700 
2625.000000	99.828981 
2624.000000	99.822572 
2623.000000	99.819040 
2622.000000	99.817982 
2621.000000	99.818214 
2620.000000	99.817794 
2619.000000	99.815216 
2618.000000	99.810903 
2617.000000	99.807007 
2616.000000	99.805384 
2615.000000	99.805784 
2614.000000	99.806057 
2613.000000	99.804398 
2612.000000	99.801821 
2611.000000	99.802114 
2610.000000	99.808271 
2609.000000	99.818669 
2608.000000	99.827659 
2607.000000	99.830646 
2606.000000	99.828156 
2605.000000	99.824667 
2604.000000	99.824100 
2603.000000	99.826766 
2602.000000	99.829814 
2601.000000	99.829929 
2600.000000	99.826212 
2599.000000	99.821152 
2598.000000	99.818423 
2597.000000	99.819401 
2596.000000	99.822250 
2595.000000	99.824322 
2594.000000	99.824287 
2593.000000	99.821767 
2592.000000	99.816724 
2591.000000	99.810460 
2590.000000	99.805831 
2589.000000	99.804778 
2588.000000	99.806307 
2587.000000	99.808245 
2586.000000	99.810177 
2585.000000	99.813183 
2584.000000	99.817399 
2583.000000	99.821605 
2582.000000	99.824764 
2581.000000	99.826236 
2580.000000	99.824863 
2579.000000	99.819879 
2578.000000	99.812885 
2577.000000	99.807043 
2576.000000	99.803925 
2575.000000	99.802748 
2574.000000	99.802970 
2573.000000	99.805666 
2572.000000	99.811352 
2571.000000	99.817989 
2570.000000	99.822396 
2569.000000	99.822821 
2568.000000	99.819529 
2567.000000	99.814097 
2566.000000	99.809140 
2565.000000	99.807523 
2564.000000	99.810314 
2563.000000	99.815737 
2562.000000	99.820810 
2561.000000	99.823494 
2560.000000	99.822986 
2559.000000	99.819407 
2558.000000	99.814508 
2557.000000	99.811437 
2556.000000	99.811785 
2555.000000	99.813354 
2554.000000	99.812870 
2553.000000	99.810876 
2552.000000	99.811647 
2551.000000	99.817351 
2550.000000	99.824158 
2549.000000	99.825900 
2548.000000	99.820931 
2547.000000	99.813935 
2546.000000	99.811091 
2545.000000	99.814457 
2544.000000	99.820919 
2543.000000	99.825509 
2542.000000	99.825467 
2541.000000	99.821965 
2540.000000	99.818513 
2539.000000	99.817411 
2538.000000	99.817555 
2537.000000	99.816031 
2536.000000	99.811974 
2535.000000	99.808136 
2534.000000	99.808043 
2533.000000	99.811925 
2532.000000	99.816235 
2531.000000	99.817323 
2530.000000	99.815148 
2529.000000	99.813347 
2528.000000	99.816051 
2527.000000	99.824491 
2526.000000	99.835704 
2525.000000	99.843897 
2524.000000	99.843976 
2523.000000	99.835407 
2522.000000	99.823157 
2521.000000	99.813974 
2520.000000	99.810875 
2519.000000	99.811485 
2518.000000	99.811906 
2517.000000	99.811326 
2516.000000	99.812059 
2515.000000	99.816067 
2514.000000	99.823079 
2513.000000	99.831801 
2512.000000	99.840820 
2511.000000	99.847718 
2510.000000	99.849461 
2509.000000	99.845461 
2508.000000	99.839079 
2507.000000	99.834323 
2506.000000	99.831858 
2505.000000	99.830025 
2504.000000	99.828771 
2503.000000	99.829815 
2502.000000	99.832861 
2501.000000	99.834492 
2500.000000	99.832010 
2499.000000	99.826423 
2498.000000	99.820526 
2497.000000	99.816025 
2496.000000	99.813967 
2495.000000	99.815834 
2494.000000	99.821647 
2493.000000	99.827978 
2492.000000	99.830444 
2491.000000	99.828145 
2490.000000	99.823836 
2489.000000	99.819932 
2488.000000	99.816387 
2487.000000	99.812690 
2486.000000	99.809822 
2485.000000	99.809047 
2484.000000	99.809907 
2483.000000	99.810640 
2482.000000	99.810312 
2481.000000	99.809912 
2480.000000	99.811286 
2479.000000	99.815088 
2478.000000	99.819877 
2477.000000	99.823631 
2476.000000	99.826175 
2475.000000	99.829117 
2474.000000	99.832892 
2473.000000	99.835069 
2472.000000	99.832865 
2471.000000	99.826543 
2470.000000	99.819061 
2469.000000	99.813206 
2468.000000	99.810560 
2467.000000	99.812319 
2466.000000	99.818586 
2465.000000	99.826616 
2464.000000	99.832011 
2463.000000	99.832549 
2462.000000	99.829580 
2461.000000	99.825379 
2460.000000	99.820851 
2459.000000	99.816485 
2458.000000	99.813796 
2457.000000	99.814375 
2456.000000	99.818127 
2455.000000	99.822974 
2454.000000	99.825702 
2453.000000	99.823351 
2452.000000	99.815740 
2451.000000	99.807416 
2450.000000	99.805228 
2449.000000	99.812227 
2448.000000	99.824466 
2447.000000	99.834607 
2446.000000	99.837857 
2445.000000	99.834029 
2444.000000	99.825876 
2443.000000	99.817226 
2442.000000	99.811475 
2441.000000	99.809411 
2440.000000	99.808487 
2439.000000	99.806019 
2438.000000	99.803409 
2437.000000	99.805782 
2436.000000	99.816715 
2435.000000	99.833827 
2434.000000	99.849800 
2433.000000	99.857477 
2432.000000	99.854551 
2431.000000	99.844457 
2430.000000	99.833207 
2429.000000	99.825037 
2428.000000	99.820735 
2427.000000	99.819627 
2426.000000	99.821841 
2425.000000	99.827511 
2424.000000	99.834464 
2423.000000	99.838620 
2422.000000	99.837566 
2421.000000	99.833108 
2420.000000	99.829622 
2419.000000	99.830144 
2418.000000	99.834302 
2417.000000	99.839407 
2416.000000	99.842642 
2415.000000	99.842398 
2414.000000	99.838751 
2413.000000	99.833551 
2412.000000	99.829487 
2411.000000	99.827861 
2410.000000	99.827145 
2409.000000	99.824722 
2408.000000	99.820425 
2407.000000	99.817333 
2406.000000	99.818312 
2405.000000	99.822603 
2404.000000	99.826796 
2403.000000	99.828522 
2402.000000	99.828046 
2401.000000	99.826809 
2400.000000	99.825786 
2399.000000	99.825070 
2398.000000	99.823727 
2397.000000	99.820157 
2396.000000	99.814050 
2395.000000	99.808140 
2394.000000	99.806490 
2393.000000	99.810359 
2392.000000	99.816741 
2391.000000	99.821377 
2390.000000	99.822236 
2389.000000	99.819906 
2388.000000	99.816206 
2387.000000	99.813222 
2386.000000	99.812331 
2385.000000	99.812918 
2384.000000	99.812813 
2383.000000	99.811036 
2382.000000	99.809440 
2381.000000	99.810652 
2380.000000	99.815033 
2379.000000	99.820597 
2378.000000	99.825130 
2377.000000	99.827038 
2376.000000	99.824912 
2375.000000	99.818667 
2374.000000	99.811514 
2373.000000	99.808450 
2372.000000	99.811156 
2371.000000	99.815604 
2370.000000	99.816525 
2369.000000	99.813843 
2368.000000	99.812956 
2367.000000	99.818086 
2366.000000	99.826428 
2365.000000	99.830011 
2364.000000	99.823473 
2363.000000	99.809626 
2362.000000	99.797443 
2361.000000	99.794421 
2360.000000	99.800892 
2359.000000	99.811377 
2358.000000	99.819649 
2357.000000	99.822804 
2356.000000	99.821668 
2355.000000	99.818873 
2354.000000	99.817127 
2353.000000	99.817830 
2352.000000	99.820784 
2351.000000	99.824307 
2350.000000	99.826319 
2349.000000	99.825845 
2348.000000	99.823151 
2347.000000	99.819891 
2346.000000	99.818067 
2345.000000	99.818844 
2344.000000	99.821853 
2343.000000	99.825695 
2342.000000	99.829592 
2341.000000	99.833208 
2340.000000	99.836299 
2339.000000	99.837853 
2338.000000	99.836065 
2337.000000	99.830007 
2336.000000	99.821688 
2335.000000	99.814700 
2334.000000	99.810380 
2333.000000	99.806603 
2332.000000	99.802456 
2331.000000	99.801701 
2330.000000	99.808613 
2329.000000	99.820913 
2328.000000	99.830002 
2327.000000	99.830536 
2326.000000	99.825682 
2325.000000	99.822411 
2324.000000	99.823047 
2323.000000	99.823614 
2322.000000	99.820262 
2321.000000	99.814010 
2320.000000	99.809163 
2319.000000	99.808150 
2318.000000	99.810041 
2317.000000	99.812396 
2316.000000	99.813790 
2315.000000	99.814807 
2314.000000	99.817135 
2313.000000	99.821392 
2312.000000	99.825730 
2311.000000	99.827652 
2310.000000	99.827306 
2309.000000	99.828147 
2308.000000	99.833069 
2307.000000	99.840346 
2306.000000	99.844529 
2305.000000	99.842106 
2304.000000	99.835732 
2303.000000	99.831831 
2302.000000	99.833985 
2301.000000	99.839580 
2300.000000	99.843608 
2299.000000	99.844760 
2298.000000	99.845986 
2297.000000	99.849162 
2296.000000	99.851287 
2295.000000	99.847743 
2294.000000	99.838377 
2293.000000	99.828611 
2292.000000	99.823928 
2291.000000	99.824356 
2290.000000	99.825147 
2289.000000	99.822503 
2288.000000	99.817786 
2287.000000	99.815579 
2286.000000	99.817949 
2285.000000	99.821589 
2284.000000	99.821421 
2283.000000	99.816497 
2282.000000	99.811080 
2281.000000	99.809570 
2280.000000	99.811711 
2279.000000	99.813758 
2278.000000	99.813496 
2277.000000	99.812416 
2276.000000	99.812889 
2275.000000	99.814664 
2274.000000	99.815362 
2273.000000	99.814250 
2272.000000	99.814289 
2271.000000	99.819382 
2270.000000	99.829468 
2269.000000	99.839095 
2268.000000	99.841460 
2267.000000	99.833820 
2266.000000	99.819279 
2265.000000	99.804505 
2264.000000	99.795922 
2263.000000	99.796061 
2262.000000	99.801499 
2261.000000	99.805215 
2260.000000	99.803480 
2259.000000	99.800538 
2258.000000	99.804338 
2257.000000	99.817072 
2256.000000	99.831934 
2255.000000	99.840025 
2254.000000	99.838566 
2253.000000	99.831400 
2252.000000	99.823772 
2251.000000	99.818984 
2250.000000	99.818803 
2249.000000	99.823758 
2248.000000	99.831898 
2247.000000	99.838798 
2246.000000	99.840464 
2245.000000	99.836776 
2244.000000	99.831592 
2243.000000	99.828872 
2242.000000	99.828984 
2241.000000	99.829525 
2240.000000	99.829221 
2239.000000	99.828966 
2238.000000	99.828475 
2237.000000	99.824851 
2236.000000	99.816909 
2235.000000	99.808781 
2234.000000	99.805806 
2233.000000	99.807920 
2232.000000	99.810748 
2231.000000	99.812535 
2230.000000	99.815668 
2229.000000	99.821093 
2228.000000	99.825948 
2227.000000	99.828361 
2226.000000	99.830621 
2225.000000	99.835705 
2224.000000	99.844169 
2223.000000	99.856128 
2222.000000	99.871830 
2221.000000	99.887023 
2220.000000	99.891943 
2219.000000	99.879978 
2218.000000	99.856070 
2217.000000	99.833045 
2216.000000	99.820374 
2215.000000	99.818867 
2214.000000	99.824094 
2213.000000	99.830586 
2212.000000	99.833604 
2211.000000	99.831250 
2210.000000	99.826033 
2209.000000	99.822441 
2208.000000	99.822969 
2207.000000	99.827875 
2206.000000	99.837287 
2205.000000	99.850307 
2204.000000	99.862725 
2203.000000	99.869329 
2202.000000	99.869414 
2201.000000	99.867692 
2200.000000	99.868605 
2199.000000	99.871272 
2198.000000	99.871019 
2197.000000	99.864808 
2196.000000	99.854153 
2195.000000	99.843051 
2194.000000	99.834085 
2193.000000	99.827410 
2192.000000	99.823513 
2191.000000	99.824996 
2190.000000	99.833036 
2189.000000	99.842648 
2188.000000	99.845319 
2187.000000	99.837781 
2186.000000	99.825161 
2185.000000	99.813988 
2184.000000	99.805548 
2183.000000	99.798817 
2182.000000	99.796404 
2181.000000	99.802729 
2180.000000	99.817535 
2179.000000	99.835216 
2178.000000	99.849856 
2177.000000	99.858332 
2176.000000	99.860430 
2175.000000	99.859152 
2174.000000	99.859680 
2173.000000	99.864987 
2172.000000	99.873130 
2171.000000	99.880584 
2170.000000	99.885690 
2169.000000	99.886342 
2168.000000	99.878416 
2167.000000	99.862449 
2166.000000	99.849720 
2165.000000	99.853332 
2164.000000	99.870939 
2163.000000	99.883462 
2162.000000	99.875366 
2161.000000	99.852260 
2160.000000	99.834712 
2159.000000	99.836741 
2158.000000	99.853830 
2157.000000	99.870285 
2156.000000	99.873857 
2155.000000	99.863515 
2154.000000	99.848165 
2153.000000	99.839550 
2152.000000	99.843145 
2151.000000	99.854429 
2150.000000	99.864433 
2149.000000	99.867887 
2148.000000	99.865029 
2147.000000	99.857400 
2146.000000	99.845601 
2145.000000	99.831926 
2144.000000	99.821902 
2143.000000	99.820449 
2142.000000	99.827147 
2141.000000	99.836937 
2140.000000	99.845453 
2139.000000	99.852395 
2138.000000	99.859662 
2137.000000	99.867971 
2136.000000	99.876066 
2135.000000	99.881544 
2134.000000	99.881292 
2133.000000	99.872956 
2132.000000	99.858144 
2131.000000	99.842922 
2130.000000	99.832698 
2129.000000	99.826860 
2128.000000	99.820862 
2127.000000	99.814000 
2126.000000	99.812181 
2125.000000	99.820883 
2124.000000	99.836863 
2123.000000	99.849246 
2122.000000	99.848833 
2121.000000	99.835698 
2120.000000	99.818666 
2119.000000	99.808543 
2118.000000	99.811078 
2117.000000	99.824301 
2116.000000	99.841448 
2115.000000	99.856266 
2114.000000	99.865381 
2113.000000	99.867084 
2112.000000	99.861278 
2111.000000	99.852075 
2110.000000	99.847530 
2109.000000	99.852920 
2108.000000	99.864498 
2107.000000	99.873033 
2106.000000	99.873960 
2105.000000	99.871517 
2104.000000	99.872229 
2103.000000	99.876940 
2102.000000	99.880892 
2101.000000	99.879624 
2100.000000	99.872643 
2099.000000	99.862615 
2098.000000	99.853760 
2097.000000	99.850926 
2096.000000	99.857076 
2095.000000	99.869664 
2094.000000	99.880545 
2093.000000	99.881694 
2092.000000	99.871901 
2091.000000	99.857520 
2090.000000	99.846784 
2089.000000	99.843624 
2088.000000	99.846322 
2087.000000	99.850917 
2086.000000	99.854906 
2085.000000	99.858217 
2084.000000	99.862028 
2083.000000	99.867027 
2082.000000	99.872329 
2081.000000	99.876152 
2080.000000	99.877980 
2079.000000	99.879509 
2078.000000	99.882360 
2077.000000	99.885292 
2076.000000	99.885171 
2075.000000	99.880659 
2074.000000	99.873450 
2073.000000	99.866013 
2072.000000	99.860145 
2071.000000	99.857799 
2070.000000	99.860248 
2069.000000	99.864722 
2068.000000	99.864975 
2067.000000	99.858414 
2066.000000	99.850832 
2065.000000	99.850240 
2064.000000	99.856571 
2063.000000	99.862040 
2062.000000	99.862243 
2061.000000	99.862041 
2060.000000	99.867908 
2059.000000	99.877797 
2058.000000	99.882789 
2057.000000	99.878057 
2056.000000	99.868436 
2055.000000	99.862191 
2054.000000	99.862019 
2053.000000	99.863929 
2052.000000	99.863249 
2051.000000	99.859525 
2050.000000	99.856418 
2049.000000	99.859053 
2048.000000	99.870743 
2047.000000	99.889520 
2046.000000	99.907244 
2045.000000	99.914645 
2044.000000	99.909418 
2043.000000	99.898140 
2042.000000	99.889080 
2041.000000	99.885054 
2040.000000	99.884720 
2039.000000	99.887964 
2038.000000	99.895825 
2037.000000	99.906226 
2036.000000	99.914708 
2035.000000	99.920028 
2034.000000	99.924815 
2033.000000	99.929801 
2032.000000	99.932270 
2031.000000	99.932013 
2030.000000	99.933594 
2029.000000	99.939104 
2028.000000	99.942770 
2027.000000	99.937578 
2026.000000	99.924998 
2025.000000	99.913455 
2024.000000	99.907751 
2023.000000	99.904195 
2022.000000	99.896528 
2021.000000	99.883259 
2020.000000	99.868637 
2019.000000	99.859231 
2018.000000	99.860176 
2017.000000	99.871416 
2016.000000	99.886451 
2015.000000	99.897646 
2014.000000	99.903247 
2013.000000	99.907055 
2012.000000	99.911178 
2011.000000	99.911955 
2010.000000	99.904950 
2009.000000	99.892283 
2008.000000	99.881962 
2007.000000	99.879448 
2006.000000	99.881661 
2005.000000	99.880093 
2004.000000	99.868935 
2003.000000	99.849894 
2002.000000	99.830369 
2001.000000	99.817758 
2000.000000	99.814344 
1999.000000	99.816972 
1998.000000	99.821741 
1997.000000	99.828477 
1996.000000	99.839825 
1995.000000	99.856010 
1994.000000	99.871902 
1993.000000	99.880715 
1992.000000	99.881027 
1991.000000	99.878505 
1990.000000	99.879842 
1989.000000	99.887074 
1988.000000	99.898180 
1987.000000	99.910202 
1986.000000	99.920193 
1985.000000	99.925458 
1984.000000	99.925607 
1983.000000	99.923576 
1982.000000	99.922600 
1981.000000	99.922818 
1980.000000	99.922655 
1979.000000	99.922357 
1978.000000	99.923251 
1977.000000	99.924047 
1976.000000	99.921622 
1975.000000	99.915615 
1974.000000	99.908338 
1973.000000	99.899907 
1972.000000	99.887881 
1971.000000	99.873446 
1970.000000	99.864373 
1969.000000	99.868516 
1968.000000	99.884753 
1967.000000	99.902040 
1966.000000	99.907862 
1965.000000	99.897626 
1964.000000	99.877352 
1963.000000	99.859286 
1962.000000	99.853965 
1961.000000	99.862848 
1960.000000	99.877456 
1959.000000	99.886955 
1958.000000	99.886325 
1957.000000	99.877569 
1956.000000	99.865861 
1955.000000	99.856668 
1954.000000	99.854884 
1953.000000	99.862992 
1952.000000	99.878728 
1951.000000	99.895705 
1950.000000	99.907076 
1949.000000	99.908890 
1948.000000	99.901292 
1947.000000	99.888117 
1946.000000	99.875303 
1945.000000	99.867668 
1944.000000	99.865632 
1943.000000	99.865395 
1942.000000	99.863500 
1941.000000	99.861041 
1940.000000	99.861726 
1939.000000	99.866227 
1938.000000	99.870541 
1937.000000	99.870878 
1936.000000	99.869234 
1935.000000	99.871465 
1934.000000	99.879238 
1933.000000	99.886650 
1932.000000	99.886909 
1931.000000	99.880687 
1930.000000	99.874879 
1929.000000	99.873867 
1928.000000	99.875072 
1927.000000	99.873828 
1926.000000	99.869812 
1925.000000	99.866729 
1924.000000	99.867199 
1923.000000	99.869735 
1922.000000	99.870699 
1921.000000	99.868304 
1920.000000	99.864163 
1919.000000	99.861552 
1918.000000	99.862036 
1917.000000	99.863157 
1916.000000	99.861064 
1915.000000	99.855570 
1914.000000	99.850747 
1913.000000	99.850887 
1912.000000	99.856536 
1911.000000	99.864159 
1910.000000	99.868644 
1909.000000	99.866245 
1908.000000	99.857428 
1907.000000	99.847785 
1906.000000	99.844584 
1905.000000	99.850383 
1904.000000	99.860056 
1903.000000	99.865618 
1902.000000	99.863799 
1901.000000	99.858048 
1900.000000	99.853962 
1899.000000	99.854126 
1898.000000	99.857062 
1897.000000	99.859157 
1896.000000	99.857319 
1895.000000	99.851556 
1894.000000	99.845762 
1893.000000	99.844809 
1892.000000	99.850278 
1891.000000	99.859262 
1890.000000	99.866865 
1889.000000	99.870034 
1888.000000	99.869380 
1887.000000	99.867200 
1886.000000	99.864717 
1885.000000	99.861744 
1884.000000	99.857985 
1883.000000	99.853916 
1882.000000	99.850542 
1881.000000	99.849012 
1880.000000	99.850462 
1879.000000	99.855160 
1878.000000	99.861046 
1877.000000	99.863993 
1876.000000	99.861094 
1875.000000	99.853642 
1874.000000	99.845679 
1873.000000	99.839747 
1872.000000	99.835718 
1871.000000	99.834048 
1870.000000	99.837823 
1869.000000	99.848382 
1868.000000	99.859876 
1867.000000	99.864447 
1866.000000	99.861826 
1865.000000	99.858463 
1864.000000	99.859320 
1863.000000	99.863414 
1862.000000	99.866771 
1861.000000	99.867550 
1860.000000	99.866487 
1859.000000	99.863712 
1858.000000	99.858076 
1857.000000	99.850206 
1856.000000	99.843725 
1855.000000	99.841859 
1854.000000	99.843893 
1853.000000	99.846293 
1852.000000	99.846867 
1851.000000	99.846433 
1850.000000	99.846591 
1849.000000	99.847404 
1848.000000	99.847671 
1847.000000	99.846568 
1846.000000	99.844382 
1845.000000	99.842242 
1844.000000	99.841082 
1843.000000	99.839998 
1842.000000	99.836689 
1841.000000	99.830304 
1840.000000	99.823157 
1839.000000	99.819460 
1838.000000	99.821685 
1837.000000	99.828068 
1836.000000	99.834865 
1835.000000	99.840336 
1834.000000	99.844902 
1833.000000	99.848203 
1832.000000	99.847845 
1831.000000	99.841723 
1830.000000	99.832415 
1829.000000	99.827333 
1828.000000	99.831495 
1827.000000	99.842597 
1826.000000	99.853237 
1825.000000	99.856252 
1824.000000	99.850790 
1823.000000	99.842613 
1822.000000	99.837379 
1821.000000	99.836245 
1820.000000	99.837223 
1819.000000	99.838419 
1818.000000	99.839477 
1817.000000	99.840508 
1816.000000	99.840982 
1815.000000	99.840227 
1814.000000	99.838295 
1813.000000	99.836015 
1812.000000	99.834304 
1811.000000	99.833228 
1810.000000	99.831748 
1809.000000	99.828822 
1808.000000	99.825047 
1807.000000	99.822794 
1806.000000	99.824110 
1805.000000	99.828400 
1804.000000	99.832701 
1803.000000	99.834330 
1802.000000	99.833065 
1801.000000	99.831040 
1800.000000	99.830440 
1799.000000	99.831363 
1798.000000	99.832125 
1797.000000	99.831158 
1796.000000	99.828644 
1795.000000	99.826325 
1794.000000	99.825549 
1793.000000	99.826015 
1792.000000	99.826963 
1791.000000	99.828790 
1790.000000	99.831866 
1789.000000	99.834701 
1788.000000	99.835152 
1787.000000	99.833007 
1786.000000	99.830723 
1785.000000	99.831147 
1784.000000	99.834569 
1783.000000	99.838523 
1782.000000	99.839758 
1781.000000	99.836207 
1780.000000	99.828697 
1779.000000	99.820983 
1778.000000	99.816805 
1777.000000	99.817356 
1776.000000	99.821787 
1775.000000	99.828378 
1774.000000	99.833963 
1773.000000	99.833452 
1772.000000	99.825035 
1771.000000	99.815340 
1770.000000	99.812334 
1769.000000	99.816494 
1768.000000	99.822519 
1767.000000	99.826297 
1766.000000	99.828733 
1765.000000	99.831882 
1764.000000	99.834067 
1763.000000	99.831112 
1762.000000	99.822278 
1761.000000	99.812905 
1760.000000	99.808309 
1759.000000	99.808668 
1758.000000	99.810996 
1757.000000	99.812085 
1756.000000	99.810052 
1755.000000	99.805183 
1754.000000	99.799398 
1753.000000	99.794800 
1752.000000	99.792630 
1751.000000	99.792436 
1750.000000	99.791783 
1749.000000	99.788021 
1748.000000	99.780887 
1747.000000	99.772889 
1746.000000	99.767128 
1745.000000	99.764731 
1744.000000	99.764230 
1743.000000	99.763534 
1742.000000	99.762424 
1741.000000	99.762521 
1740.000000	99.764777 
1739.000000	99.768018 
1738.000000	99.770654 
1737.000000	99.772801 
1736.000000	99.775311 
1735.000000	99.778347 
1734.000000	99.781692 
1733.000000	99.785209 
1732.000000	99.788708 
1731.000000	99.791568 
1730.000000	99.792764 
1729.000000	99.792034 
1728.000000	99.791083 
1727.000000	99.792510 
1726.000000	99.797688 
1725.000000	99.805061 
1724.000000	99.810235 
1723.000000	99.809196 
1722.000000	99.801993 
1721.000000	99.792372 
1720.000000	99.784881 
1719.000000	99.783329 
1718.000000	99.789656 
1717.000000	99.800077 
1716.000000	99.806665 
1715.000000	99.806653 
1714.000000	99.804019 
1713.000000	99.803252 
1712.000000	99.805538 
1711.000000	99.809389 
1710.000000	99.813041 
1709.000000	99.815561 
1708.000000	99.816635 
1707.000000	99.816414 
1706.000000	99.816479 
1705.000000	99.819365 
1704.000000	99.825455 
1703.000000	99.832939 
1702.000000	99.839966 
1701.000000	99.844684 
1700.000000	99.845034 
1699.000000	99.840292 
1698.000000	99.831822 
1697.000000	99.821740 
1696.000000	99.814390 
1695.000000	99.814168 
1694.000000	99.819473 
1693.000000	99.825168 
1692.000000	99.828230 
1691.000000	99.828684 
1690.000000	99.828118 
1689.000000	99.827797 
1688.000000	99.827937 
1687.000000	99.828760 
1686.000000	99.831032 
1685.000000	99.834882 
1684.000000	99.838415 
1683.000000	99.839180 
1682.000000	99.837279 
1681.000000	99.834213 
1680.000000	99.831097 
1679.000000	99.828983 
1678.000000	99.829400 
1677.000000	99.833782 
1676.000000	99.842152 
1675.000000	99.851055 
1674.000000	99.855776 
1673.000000	99.855827 
1672.000000	99.853935 
1671.000000	99.851941 
1670.000000	99.849798 
1669.000000	99.846921 
1668.000000	99.844274 
1667.000000	99.843679 
1666.000000	99.845546 
1665.000000	99.848719 
1664.000000	99.851735 
1663.000000	99.853750 
1662.000000	99.854090 
1661.000000	99.851857 
1660.000000	99.847408 
1659.000000	99.843424 
1658.000000	99.843513 
1657.000000	99.849288 
1656.000000	99.858960 
1655.000000	99.868095 
1654.000000	99.869570 
1653.000000	99.859910 
1652.000000	99.847540 
1651.000000	99.841014 
1650.000000	99.839370 
1649.000000	99.839202 
1648.000000	99.838515 
1647.000000	99.837769 
1646.000000	99.838082 
1645.000000	99.839356 
1644.000000	99.841104 
1643.000000	99.843050 
1642.000000	99.844186 
1641.000000	99.843102 
1640.000000	99.839406 
1639.000000	99.834927 
1638.000000	99.832422 
1637.000000	99.832858 
1636.000000	99.834070 
1635.000000	99.833816 
1634.000000	99.833725 
1633.000000	99.836337 
1632.000000	99.841125 
1631.000000	99.845522 
1630.000000	99.847115 
1629.000000	99.844959 
1628.000000	99.840214 
1627.000000	99.835257 
1626.000000	99.831632 
1625.000000	99.829148 
1624.000000	99.827032 
1623.000000	99.825857 
1622.000000	99.827073 
1621.000000	99.830597 
1620.000000	99.834405 
1619.000000	99.835774 
1618.000000	99.832362 
1617.000000	99.824304 
1616.000000	99.815761 
1615.000000	99.811010 
1614.000000	99.810213 
1613.000000	99.811284 
1612.000000	99.812672 
1611.000000	99.814012 
1610.000000	99.815691 
1609.000000	99.817971 
1608.000000	99.820348 
1607.000000	99.821495 
1606.000000	99.820059 
1605.000000	99.816115 
1604.000000	99.811597 
1603.000000	99.808811 
1602.000000	99.808258 
1601.000000	99.808415 
1600.000000	99.808113 
1599.000000	99.808136 
1598.000000	99.809647 
1597.000000	99.811770 
1596.000000	99.811891 
1595.000000	99.808538 
1594.000000	99.803175 
1593.000000	99.798675 
1592.000000	99.796920 
1591.000000	99.798206 
1590.000000	99.801585 
1589.000000	99.805134 
1588.000000	99.807026 
1587.000000	99.807105 
1586.000000	99.806731 
1585.000000	99.806803 
1584.000000	99.806621 
1583.000000	99.805034 
1582.000000	99.802212 
1581.000000	99.799493 
1580.000000	99.797611 
1579.000000	99.796160 
1578.000000	99.794886 
1577.000000	99.794694 
1576.000000	99.796249 
1575.000000	99.797817 
1574.000000	99.797079 
1573.000000	99.793728 
1572.000000	99.789006 
1571.000000	99.785401 
1570.000000	99.786834 
1569.000000	99.795242 
1568.000000	99.807334 
1567.000000	99.817638 
1566.000000	99.822451 
1565.000000	99.820803 
1564.000000	99.815223 
1563.000000	99.809413 
1562.000000	99.805552 
1561.000000	99.803818 
1560.000000	99.804040 
1559.000000	99.808107 
1558.000000	99.813815 
1557.000000	99.815931 
1556.000000	99.815707 
1555.000000	99.815966 
1554.000000	99.816065 
1553.000000	99.814489 
1552.000000	99.810635 
1551.000000	99.806473 
1550.000000	99.804915 
1549.000000	99.807109 
1548.000000	99.810916 
1547.000000	99.813555 
1546.000000	99.814136 
1545.000000	99.814139 
1544.000000	99.815586 
1543.000000	99.817628 
1542.000000	99.816356 
1541.000000	99.808908 
1540.000000	99.799464 
1539.000000	99.795748 
1538.000000	99.798104 
1537.000000	99.802064 
1536.000000	99.805503 
1535.000000	99.808780 
1534.000000	99.813048 
1533.000000	99.817660 
1532.000000	99.820451 
1531.000000	99.821209 
1530.000000	99.821949 
1529.000000	99.823736 
1528.000000	99.825545 
1527.000000	99.825839 
1526.000000	99.824495 
1525.000000	99.822501 
1524.000000	99.820257 
1523.000000	99.817405 
1522.000000	99.814685 
1521.000000	99.814176 
1520.000000	99.816197 
1519.000000	99.819147 
1518.000000	99.822133 
1517.000000	99.825031 
1516.000000	99.827070 
1515.000000	99.826897 
1514.000000	99.824133 
1513.000000	99.820121 
1512.000000	99.817543 
1511.000000	99.819165 
1510.000000	99.825786 
1509.000000	99.835300 
1508.000000	99.842499 
1507.000000	99.841031 
1506.000000	99.831143 
1505.000000	99.820473 
1504.000000	99.813962 
1503.000000	99.811246 
1502.000000	99.810803 
1501.000000	99.811973 
1500.000000	99.814587 
1499.000000	99.818293 
1498.000000	99.821992 
1497.000000	99.823207 
1496.000000	99.819129 
1495.000000	99.810556 
1494.000000	99.802221 
1493.000000	99.797936 
1492.000000	99.797613 
1491.000000	99.798033 
1490.000000	99.796436 
1489.000000	99.793571 
1488.000000	99.791222 
1487.000000	99.789626 
1486.000000	99.788986 
1485.000000	99.790237 
1484.000000	99.793731 
1483.000000	99.797792 
1482.000000	99.799468 
1481.000000	99.797446 
1480.000000	99.793417 
1479.000000	99.789772 
1478.000000	99.787339 
1477.000000	99.786058 
1476.000000	99.785978 
1475.000000	99.786224 
1474.000000	99.783833 
1473.000000	99.776219 
1472.000000	99.765715 
1471.000000	99.757483 
1470.000000	99.753479 
1469.000000	99.752590 
1468.000000	99.753602 
1467.000000	99.755717 
1466.000000	99.757690 
1465.000000	99.758032 
1464.000000	99.756885 
1463.000000	99.756020 
1462.000000	99.756463 
1461.000000	99.757312 
1460.000000	99.756961 
1459.000000	99.754610 
1458.000000	99.750695 
1457.000000	99.746710 
1456.000000	99.744420 
1455.000000	99.745441 
1454.000000	99.750887 
1453.000000	99.759900 
1452.000000	99.768680 
1451.000000	99.772620 
1450.000000	99.770229 
1449.000000	99.764533 
1448.000000	99.760274 
1447.000000	99.759795 
1446.000000	99.761549 
1445.000000	99.762886 
1444.000000	99.762457 
1443.000000	99.760359 
1442.000000	99.757644 
1441.000000	99.755563 
1440.000000	99.754803 
1439.000000	99.755040 
1438.000000	99.754996 
1437.000000	99.753645 
1436.000000	99.752019 
1435.000000	99.752112 
1434.000000	99.754534 
1433.000000	99.758447 
1432.000000	99.762130 
1431.000000	99.763847 
1430.000000	99.763173 
1429.000000	99.761449 
1428.000000	99.760449 
1427.000000	99.760672 
1426.000000	99.761036 
1425.000000	99.760396 
1424.000000	99.759536 
1423.000000	99.760484 
1422.000000	99.763626 
1421.000000	99.766922 
1420.000000	99.767468 
1419.000000	99.763976 
1418.000000	99.757670 
1417.000000	99.749951 
1416.000000	99.741655 
1415.000000	99.734571 
1414.000000	99.730685 
1413.000000	99.729689 
1412.000000	99.728568 
1411.000000	99.724700 
1410.000000	99.719034 
1409.000000	99.715351 
1408.000000	99.716395 
1407.000000	99.721244 
1406.000000	99.726136 
1405.000000	99.728111 
1404.000000	99.728110 
1403.000000	99.729304 
1402.000000	99.732949 
1401.000000	99.737437 
1400.000000	99.740641 
1399.000000	99.742165 
1398.000000	99.742350 
1397.000000	99.739819 
1396.000000	99.732744 
1395.000000	99.723290 
1394.000000	99.717826 
1393.000000	99.720125 
1392.000000	99.727607 
1391.000000	99.735349 
1390.000000	99.740589 
1389.000000	99.743418 
1388.000000	99.744958 
1387.000000	99.745503 
1386.000000	99.744231 
1385.000000	99.740491 
1384.000000	99.735084 
1383.000000	99.730370 
1382.000000	99.728973 
1381.000000	99.731568 
1380.000000	99.736208 
1379.000000	99.740404 
1378.000000	99.743324 
1377.000000	99.745530 
1376.000000	99.747329 
1375.000000	99.748288 
1374.000000	99.748112 
1373.000000	99.747191 
1372.000000	99.746228 
1371.000000	99.746052 
1370.000000	99.747567 
1369.000000	99.751265 
1368.000000	99.756646 
1367.000000	99.762038 
1366.000000	99.765332 
1365.000000	99.765201 
1364.000000	99.762165 
1363.000000	99.759001 
1362.000000	99.758740 
1361.000000	99.761522 
1360.000000	99.765135 
1359.000000	99.768073 
1358.000000	99.770078 
1357.000000	99.770626 
1356.000000	99.768876 
1355.000000	99.765603 
1354.000000	99.763764 
1353.000000	99.765881 
1352.000000	99.771434 
1351.000000	99.777691 
1350.000000	99.782130 
1349.000000	99.783477 
1348.000000	99.781892 
1347.000000	99.779113 
1346.000000	99.777567 
1345.000000	99.778090 
1344.000000	99.778990 
1343.000000	99.778243 
1342.000000	99.776012 
1341.000000	99.774103 
1340.000000	99.773437 
1339.000000	99.773176 
1338.000000	99.772467 
1337.000000	99.771928 
1336.000000	99.772823 
1335.000000	99.775495 
1334.000000	99.778864 
1333.000000	99.781000 
1332.000000	99.780368 
1331.000000	99.777121 
1330.000000	99.773073 
1329.000000	99.769966 
1328.000000	99.768154 
1327.000000	99.767416 
1326.000000	99.768214 
1325.000000	99.771007 
1324.000000	99.774680 
1323.000000	99.776790 
1322.000000	99.775991 
1321.000000	99.773692 
1320.000000	99.772678 
1319.000000	99.774046 
1318.000000	99.776002 
1317.000000	99.776186 
1316.000000	99.774702 
1315.000000	99.773914 
1314.000000	99.775335 
1313.000000	99.777777 
1312.000000	99.779173 
1311.000000	99.779313 
1310.000000	99.779421 
1309.000000	99.779714 
1308.000000	99.779109 
1307.000000	99.777433 
1306.000000	99.776213 
1305.000000	99.776597 
1304.000000	99.777801 
1303.000000	99.778213 
1302.000000	99.776970 
1301.000000	99.773973 
1300.000000	99.769722 
1299.000000	99.766029 
1298.000000	99.765551 
1297.000000	99.769167 
1296.000000	99.774406 
1295.000000	99.777591 
1294.000000	99.777214 
1293.000000	99.774645 
1292.000000	99.772353 
1291.000000	99.772212 
1290.000000	99.774513 
1289.000000	99.777421 
1288.000000	99.778069 
1287.000000	99.775431 
1286.000000	99.771656 
1285.000000	99.769559 
1284.000000	99.769409 
1283.000000	99.769155 
1282.000000	99.767136 
1281.000000	99.763481 
1280.000000	99.759501 
1279.000000	99.756988 
1278.000000	99.757462 
1277.000000	99.760555 
1276.000000	99.763400 
1275.000000	99.763097 
1274.000000	99.759817 
1273.000000	99.756265 
1272.000000	99.754276 
1271.000000	99.753407 
1270.000000	99.752829 
1269.000000	99.752765 
1268.000000	99.753380 
1267.000000	99.753713 
1266.000000	99.752845 
1265.000000	99.751287 
1264.000000	99.750143 
1263.000000	99.749302 
1262.000000	99.747374 
1261.000000	99.743371 
1260.000000	99.737838 
1259.000000	99.732179 
1258.000000	99.727171 
1257.000000	99.722482 
1256.000000	99.717655 
1255.000000	99.713163 
1254.000000	99.710082 
1253.000000	99.708879 
1252.000000	99.709204 
1251.000000	99.710841 
1250.000000	99.713951 
1249.000000	99.717939 
1248.000000	99.720956 
1247.000000	99.721232 
1246.000000	99.718477 
1245.000000	99.713496 
1244.000000	99.707252 
1243.000000	99.701188 
1242.000000	99.697665 
1241.000000	99.698618 
1240.000000	99.703626 
1239.000000	99.709943 
1238.000000	99.714347 
1237.000000	99.714764 
1236.000000	99.710995 
1235.000000	99.705073 
1234.000000	99.700359 
1233.000000	99.698725 
1232.000000	99.698522 
1231.000000	99.696509 
1230.000000	99.691921 
1229.000000	99.687502 
1228.000000	99.686114 
1227.000000	99.687314 
1226.000000	99.687810 
1225.000000	99.684681 
1224.000000	99.677796 
1223.000000	99.669624 
1222.000000	99.663052 
1221.000000	99.659089 
1220.000000	99.656479 
1219.000000	99.653635 
1218.000000	99.650551 
1217.000000	99.648242 
1216.000000	99.646642 
1215.000000	99.644106 
1214.000000	99.639260 
1213.000000	99.632508 
1212.000000	99.625298 
1211.000000	99.618494 
1210.000000	99.612021 
1209.000000	99.605738 
1208.000000	99.600039 
1207.000000	99.595439 
1206.000000	99.591743 
1205.000000	99.587788 
1204.000000	99.582251 
1203.000000	99.574855 
1202.000000	99.566638 
1201.000000	99.558877 
1200.000000	99.552038 
1199.000000	99.546048 
1198.000000	99.541069 
1197.000000	99.537237 
1196.000000	99.533610 
1195.000000	99.528182 
1194.000000	99.519575 
1193.000000	99.508651 
1192.000000	99.498099 
1191.000000	99.490218 
1190.000000	99.485050 
1189.000000	99.480656 
1188.000000	99.474968 
1187.000000	99.467034 
1186.000000	99.456630 
1185.000000	99.443618 
1184.000000	99.428626 
1183.000000	99.414046 
1182.000000	99.403030 
1181.000000	99.396729 
1180.000000	99.392866 
1179.000000	99.387496 
1178.000000	99.378226 
1177.000000	99.365856 
1176.000000	99.353312 
1175.000000	99.343122 
1174.000000	99.335419 
1173.000000	99.327962 
1172.000000	99.318083 
1171.000000	99.304669 
1170.000000	99.288586 
1169.000000	99.272009 
1168.000000	99.257789 
1167.000000	99.248651 
1166.000000	99.245812 
1165.000000	99.248341 
1164.000000	99.254407 
1163.000000	99.262749 
1162.000000	99.272314 
1161.000000	99.281150 
1160.000000	99.286887 
1159.000000	99.288272 
1158.000000	99.285411 
1157.000000	99.278875 
1156.000000	99.269774 
1155.000000	99.260440 
1154.000000	99.253243 
1153.000000	99.248234 
1152.000000	99.243137 
1151.000000	99.235901 
1150.000000	99.226048 
1149.000000	99.213687 
1148.000000	99.199267 
1147.000000	99.184960 
1146.000000	99.174112 
1145.000000	99.167774 
1144.000000	99.163209 
1143.000000	99.157252 
1142.000000	99.149944 
1141.000000	99.143318 
1140.000000	99.137719 
1139.000000	99.131312 
1138.000000	99.122709 
1137.000000	99.112135 
1136.000000	99.100075 
1135.000000	99.086642 
1134.000000	99.072656 
1133.000000	99.059724 
1132.000000	99.048448 
1131.000000	99.037689 
1130.000000	99.026632 
1129.000000	99.016833 
1128.000000	99.010753 
1127.000000	99.007960 
1126.000000	99.003840 
1125.000000	98.993184 
1124.000000	98.975101 
1123.000000	98.953854 
1122.000000	98.934843 
1121.000000	98.920543 
1120.000000	98.910557 
1119.000000	98.904054 
1118.000000	98.900413 
1117.000000	98.897964 
1116.000000	98.894087 
1115.000000	98.887334 
1114.000000	98.878392 
1113.000000	98.868237 
1112.000000	98.856274 
1111.000000	98.841284 
1110.000000	98.823815 
1109.000000	98.806718 
1108.000000	98.793113 
1107.000000	98.783895 
1106.000000	98.776959 
1105.000000	98.768894 
1104.000000	98.757888 
1103.000000	98.745342 
1102.000000	98.734573 
1101.000000	98.727968 
1100.000000	98.725441 
1099.000000	98.725039 
1098.000000	98.724431 
1097.000000	98.721815 
1096.000000	98.716455 
1095.000000	98.708915 
1094.000000	98.700623 
1093.000000	98.692796 
1092.000000	98.685687 
1091.000000	98.678665 
1090.000000	98.670792 
1089.000000	98.661467 
1088.000000	98.650804 
1087.000000	98.639390 
1086.000000	98.627613 
1085.000000	98.615507 
1084.000000	98.603413 
1083.000000	98.592343 
1082.000000	98.583333 
1081.000000	98.576705 
1080.000000	98.571953 
1079.000000	98.567704 
1078.000000	98.561713 
1077.000000	98.552020 
1076.000000	98.538703 
1075.000000	98.523888 
1074.000000	98.509772 
1073.000000	98.497357 
1072.000000	98.486695 
1071.000000	98.476254 
1070.000000	98.461728 
1069.000000	98.438621 
1068.000000	98.408342 
1067.000000	98.379710 
1066.000000	98.361242 
1065.000000	98.352467 
1064.000000	98.345059 
1063.000000	98.331361 
1062.000000	98.309327 
1061.000000	98.280725 
1060.000000	98.248854 
1059.000000	98.218676 
1058.000000	98.195391 
1057.000000	98.180595 
1056.000000	98.171137 
1055.000000	98.162305 
1054.000000	98.150643 
1053.000000	98.133874 
1052.000000	98.111104 
1051.000000	98.084753 
1050.000000	98.060102 
1049.000000	98.040696 
1048.000000	98.025147 
1047.000000	98.009253 
1046.000000	97.989919 
1045.000000	97.966982 
1044.000000	97.943446 
1043.000000	97.924596 
1042.000000	97.914412 
1041.000000	97.911220 
1040.000000	97.908291 
1039.000000	97.900144 
1038.000000	97.887400 
1037.000000	97.874630 
1036.000000	97.865127 
1035.000000	97.859505 
1034.000000	97.857839 
1033.000000	97.860188 
1032.000000	97.864527 
1031.000000	97.866372 
1030.000000	97.862192 
1029.000000	97.853080 
1028.000000	97.844385 
1027.000000	97.841518 
1026.000000	97.845676 
1025.000000	97.853196 
1024.000000	97.859176 
1023.000000	97.862046 
1022.000000	97.864397 
1021.000000	97.868877 
1020.000000	97.873925 
1019.000000	97.874959 
1018.000000	97.869908 
1017.000000	97.862007 
1016.000000	97.856227 
1015.000000	97.854240 
1014.000000	97.854198 
1013.000000	97.854462 
1012.000000	97.855402 
1011.000000	97.857410 
1010.000000	97.859275 
1009.000000	97.859575 
1008.000000	97.858307 
1007.000000	97.856030 
1006.000000	97.852714 
1005.000000	97.848990 
1004.000000	97.847703 
1003.000000	97.852108 
1002.000000	97.862147 
1001.000000	97.873814 
1000.000000	97.882576 
999.000000	 97.886752 
998.000000	 97.887812 
997.000000	 97.888649 
996.000000	 97.891736 
995.000000	 97.897721 
994.000000	 97.904997 
993.000000	 97.911173 
992.000000	 97.915408 
991.000000	 97.919246 
990.000000	 97.925379 
989.000000	 97.935780 
988.000000	 97.950130 
987.000000	 97.965062 
986.000000	 97.975984 
985.000000	 97.981665 
984.000000	 97.986803 
983.000000	 97.998003 
982.000000	 98.016794 
981.000000	 98.038345 
980.000000	 98.057409 
979.000000	 98.073494 
978.000000	 98.089582 
977.000000	 98.107961 
976.000000	 98.128698 
975.000000	 98.150434 
974.000000	 98.171058 
973.000000	 98.188876 
972.000000	 98.204551 
971.000000	 98.220731 
970.000000	 98.238533 
969.000000	 98.255940 
968.000000	 98.271284 
967.000000	 98.286473 
966.000000	 98.304306 
965.000000	 98.324034 
964.000000	 98.342725 
963.000000	 98.360352 
962.000000	 98.379962 
961.000000	 98.402375 
960.000000	 98.424093 
959.000000	 98.441902 
958.000000	 98.456992 
957.000000	 98.472642 
956.000000	 98.489646 
955.000000	 98.505985 
954.000000	 98.519909 
953.000000	 98.531491 
952.000000	 98.541556 
951.000000	 98.550468 
950.000000	 98.558129 
949.000000	 98.564813 
948.000000	 98.571975 
947.000000	 98.581428 
946.000000	 98.592519 
945.000000	 98.601047 
944.000000	 98.603511 
943.000000	 98.602510 
942.000000	 98.605143 
941.000000	 98.615086 
940.000000	 98.628662 
939.000000	 98.639601 
938.000000	 98.645059 
937.000000	 98.645737 
936.000000	 98.643364 
935.000000	 98.640895 
934.000000	 98.642756 
933.000000	 98.651403 
932.000000	 98.664355 
931.000000	 98.676790 
930.000000	 98.686079 
929.000000	 98.691954 
928.000000	 98.694157 
927.000000	 98.693124 
926.000000	 98.692145 
925.000000	 98.695557 
924.000000	 98.704412 
923.000000	 98.715609 
922.000000	 98.724802 
921.000000	 98.728588 
920.000000	 98.725356 
919.000000	 98.717065 
918.000000	 98.709708 
917.000000	 98.708812 
916.000000	 98.714004 
915.000000	 98.720332 
914.000000	 98.725104 
913.000000	 98.730792 
912.000000	 98.740248 
911.000000	 98.751560 
910.000000	 98.759807 
909.000000	 98.763233 
908.000000	 98.766062 
907.000000	 98.774699 
906.000000	 98.791446 
905.000000	 98.812350 
904.000000	 98.831258 
903.000000	 98.845051 
902.000000	 98.854218 
901.000000	 98.860241 
900.000000	 98.865663 
899.000000	 98.875974 
898.000000	 98.896187 
897.000000	 98.923360 
896.000000	 98.946850 
895.000000	 98.959607 
894.000000	 98.966276 
893.000000	 98.976512 
892.000000	 98.993242 
891.000000	 99.011669 
890.000000	 99.026754 
889.000000	 99.036214 
888.000000	 99.038303 
887.000000	 99.033534 
886.000000	 99.028787 
885.000000	 99.033305 
884.000000	 99.048598 
883.000000	 99.066453 
882.000000	 99.078573 
881.000000	 99.084775 
880.000000	 99.090457 
879.000000	 99.099505 
878.000000	 99.111344 
877.000000	 99.122620 
876.000000	 99.130867 
875.000000	 99.137865 
874.000000	 99.148361 
873.000000	 99.163332 
872.000000	 99.177001 
871.000000	 99.184206 
870.000000	 99.187858 
869.000000	 99.193989 
868.000000	 99.202094 
867.000000	 99.207014 
866.000000	 99.208810 
865.000000	 99.213156 
864.000000	 99.221796 
863.000000	 99.230093 
862.000000	 99.235604 
861.000000	 99.242117 
860.000000	 99.252514 
859.000000	 99.263600 
858.000000	 99.271186 
857.000000	 99.275530 
856.000000	 99.279261 
855.000000	 99.284718 
854.000000	 99.295163 
853.000000	 99.312707 
852.000000	 99.332224 
851.000000	 99.343345 
850.000000	 99.342520 
849.000000	 99.337779 
848.000000	 99.337386 
847.000000	 99.339196 
846.000000	 99.336154 
845.000000	 99.327572 
844.000000	 99.319177 
843.000000	 99.315519 
842.000000	 99.317845 
841.000000	 99.326639 
840.000000	 99.340418 
839.000000	 99.353206 
838.000000	 99.358004 
837.000000	 99.352526 
836.000000	 99.338990 
835.000000	 99.320668 
834.000000	 99.301938 
833.000000	 99.289038 
832.000000	 99.286277 
831.000000	 99.292342 
830.000000	 99.303146 
829.000000	 99.316257 
828.000000	 99.329028 
827.000000	 99.335779 
826.000000	 99.333464 
825.000000	 99.328830 
824.000000	 99.332465 
823.000000	 99.345156 
822.000000	 99.356910 
821.000000	 99.360547 
820.000000	 99.359678 
819.000000	 99.361370 
818.000000	 99.366203 
817.000000	 99.368509 
816.000000	 99.363939 
815.000000	 99.353977 
814.000000	 99.342893 
813.000000	 99.331672 
812.000000	 99.316323 
811.000000	 99.292397 
810.000000	 99.259820 
809.000000	 99.221968 
808.000000	 99.180979 
807.000000	 99.136004 
806.000000	 99.085719 
805.000000	 99.030765 
804.000000	 98.974225 
803.000000	 98.921447 
802.000000	 98.878176 
801.000000	 98.846347 
800.000000	 98.822869 
799.000000	 98.805329 
798.000000	 98.797506 
797.000000	 98.805089 
796.000000	 98.826110 
795.000000	 98.850073 
794.000000	 98.867520 
793.000000	 98.876716 
792.000000	 98.880461 
791.000000	 98.881811 
790.000000	 98.884774 
789.000000	 98.893099 
788.000000	 98.903978 
787.000000	 98.907138 
786.000000	 98.895056 
785.000000	 98.871342 
784.000000	 98.845067 
783.000000	 98.820097 
782.000000	 98.794761 
781.000000	 98.769607 
780.000000	 98.749716 
779.000000	 98.739340 
778.000000	 98.738297 
777.000000	 98.743775 
776.000000	 98.752463 
775.000000	 98.761189 
774.000000	 98.769114 
773.000000	 98.779792 
772.000000	 98.798018 
771.000000	 98.823608 
770.000000	 98.850127 
769.000000	 98.870039 
768.000000	 98.879678 
767.000000	 98.880328 
766.000000	 98.877336 
765.000000	 98.877963 
764.000000	 98.887037 
763.000000	 98.903167 
762.000000	 98.919759 
761.000000	 98.929895 
760.000000	 98.930343 
759.000000	 98.923028 
758.000000	 98.914662 
757.000000	 98.913301 
756.000000	 98.922340 
755.000000	 98.937927 
754.000000	 98.953640 
753.000000	 98.966522 
752.000000	 98.976432 
751.000000	 98.981466 
750.000000	 98.978700 
749.000000	 98.970134 
748.000000	 98.963968 
747.000000	 98.967343 
746.000000	 98.979213 
745.000000	 98.992648 
744.000000	 99.003373 
743.000000	 99.013506 
742.000000	 99.026605 
741.000000	 99.041679 
740.000000	 99.054568 
739.000000	 99.064149 
738.000000	 99.073672 
737.000000	 99.084924 
736.000000	 99.094417 
735.000000	 99.098143 
734.000000	 99.097780 
733.000000	 99.098414 
732.000000	 99.101365 
731.000000	 99.103208 
730.000000	 99.101236 
729.000000	 99.095849 
728.000000	 99.088042 
727.000000	 99.079573 
726.000000	 99.076350 
725.000000	 99.086152 
724.000000	 99.110050 
723.000000	 99.139334 
722.000000	 99.163256 
721.000000	 99.177390 
720.000000	 99.183263 
719.000000	 99.183337 
718.000000	 99.179052 
717.000000	 99.171523 
716.000000	 99.161826 
715.000000	 99.152193 
714.000000	 99.147642 
713.000000	 99.153605 
712.000000	 99.170293 
711.000000	 99.191449 
710.000000	 99.209697 
709.000000	 99.220686 
708.000000	 99.221603 
707.000000	 99.210195 
706.000000	 99.188544 
705.000000	 99.165344 
704.000000	 99.151282 
703.000000	 99.151790 
702.000000	 99.163173 
701.000000	 99.173258 
700.000000	 99.166779 
699.000000	 99.135598 
698.000000	 99.086728 
697.000000	 99.037961 
696.000000	 99.004296 
695.000000	 98.990131 
694.000000	 98.992570 
693.000000	 99.006756 
692.000000	 99.026781 
691.000000	 99.046335 
690.000000	 99.061478 
689.000000	 99.070859 
688.000000	 99.074167 
687.000000	 99.074733 
686.000000	 99.081058 
685.000000	 99.097694 
684.000000	 99.115449 
683.000000	 99.119513 
682.000000	 99.108172 
681.000000	 99.095061 
680.000000	 99.091361 
679.000000	 99.095485 
678.000000	 99.103693 
677.000000	 99.119016 
676.000000	 99.141871 
675.000000	 99.161866 
674.000000	 99.169487 
673.000000	 99.169940 
672.000000	 99.176256 
671.000000	 99.192440 
670.000000	 99.209415 
669.000000	 99.211366 
668.000000	 99.187816 
667.000000	 99.150183 
666.000000	 99.121947 
665.000000	 99.115371 
664.000000	 99.129951 
663.000000	 99.157411 
662.000000	 99.184278 
661.000000	 99.197179 
660.000000	 99.187063 
659.000000	 99.154764 
658.000000	 99.117155 
657.000000	 99.097447 
656.000000	 99.103383 
655.000000	 99.122427 
654.000000	 99.140145 
653.000000	 99.154289 
652.000000	 99.167731 
651.000000	 99.181075 
650.000000	 99.198562 

