4000.000000	99.485464 
3999.000000	99.485014 
3998.000000	99.484555 
3997.000000	99.483783 
3996.000000	99.482549 
3995.000000	99.481089 
3994.000000	99.479922 
3993.000000	99.479430 
3992.000000	99.479490 
3991.000000	99.479519 
3990.000000	99.479015 
3989.000000	99.478122 
3988.000000	99.477552 
3987.000000	99.477910 
3986.000000	99.479149 
3985.000000	99.480567 
3984.000000	99.481302 
3983.000000	99.480906 
3982.000000	99.479493 
3981.000000	99.477587 
3980.000000	99.475736 
3979.000000	99.474180 
3978.000000	99.472957 
3977.000000	99.472193 
3976.000000	99.472134 
3975.000000	99.472858 
3974.000000	99.474107 
3973.000000	99.475391 
3972.000000	99.476259 
3971.000000	99.476510 
3970.000000	99.476206 
3969.000000	99.475528 
3968.000000	99.474647 
3967.000000	99.473681 
3966.000000	99.472759 
3965.000000	99.472094 
3964.000000	99.471831 
3963.000000	99.471778 
3962.000000	99.471464 
3961.000000	99.470563 
3960.000000	99.469207 
3959.000000	99.467869 
3958.000000	99.466973 
3957.000000	99.466598 
3956.000000	99.466580 
3955.000000	99.466743 
3954.000000	99.467014 
3953.000000	99.467341 
3952.000000	99.467579 
3951.000000	99.467579 
3950.000000	99.467318 
3949.000000	99.466911 
3948.000000	99.466474 
3947.000000	99.466025 
3946.000000	99.465626 
3945.000000	99.465504 
3944.000000	99.465867 
3943.000000	99.466482 
3942.000000	99.466777 
3941.000000	99.466447 
3940.000000	99.465669 
3939.000000	99.464672 
3938.000000	99.463419 
3937.000000	99.461836 
3936.000000	99.460301 
3935.000000	99.459571 
3934.000000	99.460240 
3933.000000	99.462272 
3932.000000	99.464911 
3931.000000	99.467027 
3930.000000	99.467769 
3929.000000	99.467043 
3928.000000	99.465548 
3927.000000	99.464316 
3926.000000	99.464102 
3925.000000	99.464889 
3924.000000	99.465846 
3923.000000	99.466072 
3922.000000	99.465333 
3921.000000	99.464181 
3920.000000	99.463494 
3919.000000	99.463905 
3918.000000	99.465490 
3917.000000	99.467712 
3916.000000	99.469707 
3915.000000	99.470868 
3914.000000	99.471282 
3913.000000	99.471503 
3912.000000	99.471869 
3911.000000	99.472204 
3910.000000	99.472169 
3909.000000	99.471728 
3908.000000	99.471157 
3907.000000	99.470507 
3906.000000	99.469305 
3905.000000	99.466913 
3904.000000	99.463190 
3903.000000	99.459086 
3902.000000	99.456268 
3901.000000	99.455804 
3900.000000	99.457474 
3899.000000	99.459940 
3898.000000	99.461803 
3897.000000	99.462619 
3896.000000	99.462687 
3895.000000	99.462407 
3894.000000	99.461999 
3893.000000	99.461463 
3892.000000	99.460660 
3891.000000	99.459481 
3890.000000	99.458138 
3889.000000	99.457058 
3888.000000	99.456641 
3887.000000	99.457127 
3886.000000	99.458233 
3885.000000	99.459138 
3884.000000	99.459295 
3883.000000	99.459039 
3882.000000	99.459147 
3881.000000	99.459910 
3880.000000	99.460761 
3879.000000	99.460926 
3878.000000	99.460371 
3877.000000	99.459729 
3876.000000	99.459653 
3875.000000	99.460154 
3874.000000	99.460538 
3873.000000	99.460167 
3872.000000	99.459253 
3871.000000	99.458645 
3870.000000	99.458881 
3869.000000	99.459775 
3868.000000	99.460844 
3867.000000	99.461822 
3866.000000	99.462766 
3865.000000	99.463737 
3864.000000	99.464488 
3863.000000	99.464757 
3862.000000	99.464647 
3861.000000	99.464568 
3860.000000	99.464836 
3859.000000	99.465397 
3858.000000	99.465866 
3857.000000	99.465873 
3856.000000	99.465389 
3855.000000	99.464921 
3854.000000	99.464999 
3853.000000	99.465483 
3852.000000	99.466079 
3851.000000	99.466790 
3850.000000	99.467570 
3849.000000	99.468347 
3848.000000	99.469018 
3847.000000	99.469431 
3846.000000	99.469461 
3845.000000	99.469128 
3844.000000	99.468678 
3843.000000	99.468486 
3842.000000	99.468698 
3841.000000	99.469100 
3840.000000	99.469370 
3839.000000	99.469375 
3838.000000	99.469238 
3837.000000	99.469199 
3836.000000	99.469397 
3835.000000	99.469834 
3834.000000	99.470513 
3833.000000	99.471489 
3832.000000	99.472702 
3831.000000	99.473837 
3830.000000	99.474516 
3829.000000	99.474617 
3828.000000	99.474311 
3827.000000	99.473877 
3826.000000	99.473475 
3825.000000	99.473089 
3824.000000	99.472723 
3823.000000	99.472596 
3822.000000	99.472915 
3821.000000	99.473495 
3820.000000	99.473953 
3819.000000	99.474192 
3818.000000	99.474341 
3817.000000	99.474530 
3816.000000	99.474701 
3815.000000	99.474659 
3814.000000	99.474367 
3813.000000	99.474050 
3812.000000	99.473984 
3811.000000	99.474249 
3810.000000	99.474667 
3809.000000	99.474980 
3808.000000	99.475051 
3807.000000	99.474888 
3806.000000	99.474541 
3805.000000	99.474057 
3804.000000	99.473537 
3803.000000	99.473167 
3802.000000	99.473044 
3801.000000	99.473049 
3800.000000	99.472998 
3799.000000	99.472833 
3798.000000	99.472614 
3797.000000	99.472409 
3796.000000	99.472211 
3795.000000	99.471963 
3794.000000	99.471634 
3793.000000	99.471258 
3792.000000	99.470909 
3791.000000	99.470655 
3790.000000	99.470508 
3789.000000	99.470420 
3788.000000	99.470320 
3787.000000	99.470164 
3786.000000	99.469951 
3785.000000	99.469708 
3784.000000	99.469466 
3783.000000	99.469242 
3782.000000	99.469035 
3781.000000	99.468849 
3780.000000	99.468685 
3779.000000	99.468509 
3778.000000	99.468268 
3777.000000	99.467920 
3776.000000	99.467462 
3775.000000	99.466949 
3774.000000	99.466466 
3773.000000	99.466094 
3772.000000	99.465871 
3771.000000	99.465754 
3770.000000	99.465601 
3769.000000	99.465279 
3768.000000	99.464809 
3767.000000	99.464346 
3766.000000	99.464017 
3765.000000	99.463829 
3764.000000	99.463673 
3763.000000	99.463440 
3762.000000	99.463126 
3761.000000	99.462842 
3760.000000	99.462699 
3759.000000	99.462692 
3758.000000	99.462744 
3757.000000	99.462805 
3756.000000	99.462816 
3755.000000	99.462693 
3754.000000	99.462471 
3753.000000	99.462365 
3752.000000	99.462477 
3751.000000	99.462408 
3750.000000	99.461787 
3749.000000	99.460965 
3748.000000	99.460420 
3747.000000	99.460170 
3746.000000	99.460170 
3745.000000	99.460352 
3744.000000	99.460290 
3743.000000	99.459743 
3742.000000	99.458888 
3741.000000	99.457748 
3740.000000	99.456111 
3739.000000	99.453833 
3738.000000	99.451457 
3737.000000	99.450253 
3736.000000	99.450845 
3735.000000	99.451990 
3734.000000	99.451725 
3733.000000	99.449970 
3732.000000	99.448480 
3731.000000	99.448510 
3730.000000	99.449619 
3729.000000	99.450531 
3728.000000	99.450631 
3727.000000	99.450151 
3726.000000	99.449294 
3725.000000	99.448039 
3724.000000	99.446758 
3723.000000	99.446287 
3722.000000	99.446932 
3721.000000	99.448064 
3720.000000	99.448603 
3719.000000	99.447873 
3718.000000	99.446220 
3717.000000	99.444470 
3716.000000	99.442838 
3715.000000	99.440867 
3714.000000	99.438460 
3713.000000	99.436580 
3712.000000	99.436124 
3711.000000	99.436558 
3710.000000	99.436510 
3709.000000	99.435022 
3708.000000	99.432048 
3707.000000	99.428203 
3706.000000	99.424308 
3705.000000	99.421139 
3704.000000	99.419184 
3703.000000	99.418281 
3702.000000	99.417332 
3701.000000	99.415080 
3700.000000	99.411292 
3699.000000	99.406775 
3698.000000	99.402605 
3697.000000	99.399541 
3696.000000	99.397628 
3695.000000	99.396408 
3694.000000	99.395562 
3693.000000	99.395058 
3692.000000	99.394605 
3691.000000	99.393403 
3690.000000	99.390777 
3689.000000	99.387200 
3688.000000	99.384284 
3687.000000	99.382918 
3686.000000	99.382315 
3685.000000	99.381556 
3684.000000	99.380638 
3683.000000	99.379962 
3682.000000	99.379411 
3681.000000	99.378154 
3680.000000	99.375220 
3679.000000	99.370131 
3678.000000	99.363787 
3677.000000	99.359102 
3676.000000	99.358596 
3675.000000	99.360568 
3674.000000	99.361042 
3673.000000	99.358544 
3672.000000	99.354840 
3671.000000	99.353539 
3670.000000	99.356292 
3669.000000	99.360824 
3668.000000	99.364559 
3667.000000	99.367376 
3666.000000	99.370206 
3665.000000	99.373294 
3664.000000	99.375847 
3663.000000	99.376928 
3662.000000	99.376387 
3661.000000	99.374747 
3660.000000	99.372678 
3659.000000	99.370994 
3658.000000	99.370892 
3657.000000	99.373116 
3656.000000	99.376620 
3655.000000	99.379277 
3654.000000	99.379936 
3653.000000	99.379052 
3652.000000	99.377722 
3651.000000	99.376532 
3650.000000	99.375162 
3649.000000	99.373793 
3648.000000	99.373979 
3647.000000	99.376589 
3646.000000	99.380686 
3645.000000	99.385084 
3644.000000	99.389454 
3643.000000	99.393894 
3642.000000	99.398429 
3641.000000	99.402831 
3640.000000	99.406792 
3639.000000	99.409861 
3638.000000	99.411481 
3637.000000	99.411596 
3636.000000	99.410997 
3635.000000	99.410660 
3634.000000	99.410634 
3633.000000	99.410236 
3632.000000	99.409451 
3631.000000	99.409551 
3630.000000	99.411812 
3629.000000	99.415129 
3628.000000	99.416779 
3627.000000	99.416403 
3626.000000	99.415837 
3625.000000	99.416377 
3624.000000	99.417830 
3623.000000	99.419275 
3622.000000	99.420203 
3621.000000	99.421096 
3620.000000	99.422571 
3619.000000	99.424203 
3618.000000	99.425005 
3617.000000	99.424871 
3616.000000	99.424629 
3615.000000	99.425096 
3614.000000	99.426233 
3613.000000	99.427269 
3612.000000	99.427656 
3611.000000	99.427654 
3610.000000	99.427876 
3609.000000	99.428525 
3608.000000	99.429258 
3607.000000	99.429722 
3606.000000	99.429977 
3605.000000	99.430288 
3604.000000	99.430778 
3603.000000	99.431379 
3602.000000	99.431968 
3601.000000	99.432494 
3600.000000	99.432912 
3599.000000	99.433091 
3598.000000	99.432952 
3597.000000	99.432595 
3596.000000	99.432260 
3595.000000	99.432219 
3594.000000	99.432578 
3593.000000	99.433185 
3592.000000	99.433713 
3591.000000	99.433829 
3590.000000	99.433480 
3589.000000	99.433067 
3588.000000	99.433112 
3587.000000	99.433433 
3586.000000	99.433302 
3585.000000	99.432547 
3584.000000	99.431877 
3583.000000	99.432035 
3582.000000	99.433092 
3581.000000	99.434401 
3580.000000	99.435232 
3579.000000	99.435362 
3578.000000	99.435000 
3577.000000	99.434485 
3576.000000	99.434109 
3575.000000	99.434101 
3574.000000	99.434453 
3573.000000	99.434702 
3572.000000	99.434254 
3571.000000	99.432897 
3570.000000	99.430925 
3569.000000	99.429065 
3568.000000	99.428241 
3567.000000	99.428796 
3566.000000	99.430102 
3565.000000	99.431438 
3564.000000	99.432907 
3563.000000	99.435207 
3562.000000	99.438686 
3561.000000	99.442548 
3560.000000	99.445265 
3559.000000	99.445963 
3558.000000	99.445249 
3557.000000	99.444625 
3556.000000	99.445125 
3555.000000	99.446500 
3554.000000	99.447643 
3553.000000	99.447466 
3552.000000	99.445618 
3551.000000	99.442692 
3550.000000	99.439722 
3549.000000	99.437484 
3548.000000	99.436366 
3547.000000	99.436478 
3546.000000	99.437613 
3545.000000	99.439007 
3544.000000	99.439739 
3543.000000	99.439634 
3542.000000	99.439560 
3541.000000	99.440499 
3540.000000	99.442575 
3539.000000	99.444951 
3538.000000	99.446711 
3537.000000	99.447579 
3536.000000	99.447793 
3535.000000	99.447623 
3534.000000	99.447158 
3533.000000	99.446568 
3532.000000	99.446239 
3531.000000	99.446539 
3530.000000	99.447343 
3529.000000	99.447961 
3528.000000	99.447737 
3527.000000	99.446760 
3526.000000	99.445809 
3525.000000	99.445603 
3524.000000	99.446171 
3523.000000	99.446956 
3522.000000	99.447439 
3521.000000	99.447539 
3520.000000	99.447539 
3519.000000	99.447777 
3518.000000	99.448429 
3517.000000	99.449393 
3516.000000	99.450261 
3515.000000	99.450559 
3514.000000	99.450052 
3513.000000	99.448942 
3512.000000	99.447760 
3511.000000	99.446990 
3510.000000	99.446760 
3509.000000	99.446850 
3508.000000	99.446966 
3507.000000	99.447031 
3506.000000	99.447206 
3505.000000	99.447629 
3504.000000	99.448223 
3503.000000	99.448803 
3502.000000	99.449359 
3501.000000	99.450092 
3500.000000	99.451121 
3499.000000	99.452208 
3498.000000	99.452851 
3497.000000	99.452705 
3496.000000	99.451858 
3495.000000	99.450769 
3494.000000	99.449938 
3493.000000	99.449599 
3492.000000	99.449717 
3491.000000	99.450152 
3490.000000	99.450808 
3489.000000	99.451647 
3488.000000	99.452581 
3487.000000	99.453378 
3486.000000	99.453775 
3485.000000	99.453717 
3484.000000	99.453459 
3483.000000	99.453370 
3482.000000	99.453570 
3481.000000	99.453837 
3480.000000	99.453899 
3479.000000	99.453721 
3478.000000	99.453443 
3477.000000	99.453160 
3476.000000	99.452935 
3475.000000	99.452983 
3474.000000	99.453592 
3473.000000	99.454722 
3472.000000	99.455802 
3471.000000	99.456210 
3470.000000	99.455957 
3469.000000	99.455711 
3468.000000	99.456078 
3467.000000	99.456920 
3466.000000	99.457578 
3465.000000	99.457697 
3464.000000	99.457569 
3463.000000	99.457670 
3462.000000	99.458058 
3461.000000	99.458409 
3460.000000	99.458534 
3459.000000	99.458615 
3458.000000	99.458902 
3457.000000	99.459301 
3456.000000	99.459414 
3455.000000	99.458937 
3454.000000	99.457950 
3453.000000	99.456870 
3452.000000	99.456078 
3451.000000	99.455685 
3450.000000	99.455565 
3449.000000	99.455537 
3448.000000	99.455489 
3447.000000	99.455382 
3446.000000	99.455246 
3445.000000	99.455198 
3444.000000	99.455374 
3443.000000	99.455742 
3442.000000	99.456013 
3441.000000	99.455866 
3440.000000	99.455281 
3439.000000	99.454560 
3438.000000	99.453966 
3437.000000	99.453445 
3436.000000	99.452831 
3435.000000	99.452263 
3434.000000	99.452172 
3433.000000	99.452835 
3432.000000	99.454033 
3431.000000	99.455161 
3430.000000	99.455713 
3429.000000	99.455648 
3428.000000	99.455332 
3427.000000	99.455165 
3426.000000	99.455155 
3425.000000	99.454912 
3424.000000	99.454115 
3423.000000	99.452921 
3422.000000	99.451883 
3421.000000	99.451456 
3420.000000	99.451697 
3419.000000	99.452385 
3418.000000	99.453245 
3417.000000	99.453994 
3416.000000	99.454387 
3415.000000	99.454345 
3414.000000	99.454027 
3413.000000	99.453674 
3412.000000	99.453417 
3411.000000	99.453280 
3410.000000	99.453266 
3409.000000	99.453293 
3408.000000	99.453096 
3407.000000	99.452399 
3406.000000	99.451237 
3405.000000	99.450069 
3404.000000	99.449457 
3403.000000	99.449615 
3402.000000	99.450321 
3401.000000	99.451173 
3400.000000	99.451911 
3399.000000	99.452476 
3398.000000	99.452846 
3397.000000	99.452967 
3396.000000	99.452827 
3395.000000	99.452481 
3394.000000	99.451964 
3393.000000	99.451234 
3392.000000	99.450290 
3391.000000	99.449332 
3390.000000	99.448708 
3389.000000	99.448662 
3388.000000	99.449178 
3387.000000	99.450021 
3386.000000	99.450896 
3385.000000	99.451591 
3384.000000	99.451986 
3383.000000	99.451996 
3382.000000	99.451572 
3381.000000	99.450788 
3380.000000	99.449926 
3379.000000	99.449380 
3378.000000	99.449348 
3377.000000	99.449693 
3376.000000	99.450075 
3375.000000	99.450281 
3374.000000	99.450374 
3373.000000	99.450520 
3372.000000	99.450782 
3371.000000	99.451082 
3370.000000	99.451286 
3369.000000	99.451293 
3368.000000	99.451112 
3367.000000	99.450877 
3366.000000	99.450771 
3365.000000	99.450875 
3364.000000	99.451096 
3363.000000	99.451277 
3362.000000	99.451350 
3361.000000	99.451352 
3360.000000	99.451303 
3359.000000	99.451151 
3358.000000	99.450872 
3357.000000	99.450587 
3356.000000	99.450494 
3355.000000	99.450663 
3354.000000	99.450957 
3353.000000	99.451148 
3352.000000	99.451144 
3351.000000	99.451043 
3350.000000	99.451032 
3349.000000	99.451217 
3348.000000	99.451568 
3347.000000	99.451981 
3346.000000	99.452338 
3345.000000	99.452534 
3344.000000	99.452511 
3343.000000	99.452327 
3342.000000	99.452131 
3341.000000	99.451978 
3340.000000	99.451724 
3339.000000	99.451234 
3338.000000	99.450669 
3337.000000	99.450415 
3336.000000	99.450695 
3335.000000	99.451336 
3334.000000	99.451996 
3333.000000	99.452562 
3332.000000	99.453153 
3331.000000	99.453771 
3330.000000	99.454146 
3329.000000	99.454004 
3328.000000	99.453403 
3327.000000	99.452700 
3326.000000	99.452176 
3325.000000	99.451774 
3324.000000	99.451227 
3323.000000	99.450412 
3322.000000	99.449539 
3321.000000	99.449001 
3320.000000	99.449057 
3319.000000	99.449649 
3318.000000	99.450460 
3317.000000	99.451140 
3316.000000	99.451491 
3315.000000	99.451521 
3314.000000	99.451437 
3313.000000	99.451574 
3312.000000	99.452162 
3311.000000	99.453060 
3310.000000	99.453748 
3309.000000	99.453748 
3308.000000	99.453038 
3307.000000	99.451989 
3306.000000	99.451031 
3305.000000	99.450396 
3304.000000	99.450136 
3303.000000	99.450169 
3302.000000	99.450251 
3301.000000	99.450062 
3300.000000	99.449439 
3299.000000	99.448510 
3298.000000	99.447613 
3297.000000	99.447063 
3296.000000	99.446959 
3295.000000	99.447133 
3294.000000	99.447264 
3293.000000	99.447131 
3292.000000	99.446816 
3291.000000	99.446567 
3290.000000	99.446464 
3289.000000	99.446297 
3288.000000	99.445843 
3287.000000	99.445153 
3286.000000	99.444514 
3285.000000	99.444136 
3284.000000	99.443976 
3283.000000	99.443852 
3282.000000	99.443679 
3281.000000	99.443534 
3280.000000	99.443531 
3279.000000	99.443666 
3278.000000	99.443798 
3277.000000	99.443766 
3276.000000	99.443497 
3275.000000	99.443030 
3274.000000	99.442454 
3273.000000	99.441871 
3272.000000	99.441404 
3271.000000	99.441159 
3270.000000	99.441137 
3269.000000	99.441195 
3268.000000	99.441157 
3267.000000	99.440957 
3266.000000	99.440637 
3265.000000	99.440253 
3264.000000	99.439888 
3263.000000	99.439710 
3262.000000	99.439899 
3261.000000	99.440451 
3260.000000	99.441086 
3259.000000	99.441447 
3258.000000	99.441359 
3257.000000	99.440914 
3256.000000	99.440343 
3255.000000	99.439803 
3254.000000	99.439314 
3253.000000	99.438899 
3252.000000	99.438745 
3251.000000	99.439120 
3250.000000	99.440027 
3249.000000	99.441051 
3248.000000	99.441702 
3247.000000	99.441860 
3246.000000	99.441727 
3245.000000	99.441464 
3244.000000	99.441061 
3243.000000	99.440565 
3242.000000	99.440167 
3241.000000	99.439954 
3240.000000	99.439820 
3239.000000	99.439785 
3238.000000	99.440205 
3237.000000	99.441432 
3236.000000	99.443312 
3235.000000	99.445123 
3234.000000	99.446090 
3233.000000	99.445928 
3232.000000	99.444986 
3231.000000	99.444030 
3230.000000	99.443702 
3229.000000	99.444045 
3228.000000	99.444510 
3227.000000	99.444448 
3226.000000	99.443639 
3225.000000	99.442375 
3224.000000	99.441175 
3223.000000	99.440426 
3222.000000	99.440206 
3221.000000	99.440319 
3220.000000	99.440472 
3219.000000	99.440520 
3218.000000	99.440560 
3217.000000	99.440827 
3216.000000	99.441544 
3215.000000	99.442796 
3214.000000	99.444388 
3213.000000	99.445772 
3212.000000	99.446311 
3211.000000	99.445727 
3210.000000	99.444292 
3209.000000	99.442637 
3208.000000	99.441357 
3207.000000	99.440742 
3206.000000	99.440732 
3205.000000	99.440997 
3204.000000	99.441166 
3203.000000	99.441112 
3202.000000	99.440974 
3201.000000	99.440897 
3200.000000	99.440896 
3199.000000	99.440979 
3198.000000	99.441240 
3197.000000	99.441724 
3196.000000	99.442296 
3195.000000	99.442730 
3194.000000	99.442883 
3193.000000	99.442711 
3192.000000	99.442214 
3191.000000	99.441481 
3190.000000	99.440718 
3189.000000	99.440115 
3188.000000	99.439704 
3187.000000	99.439431 
3186.000000	99.439281 
3185.000000	99.439254 
3184.000000	99.439271 
3183.000000	99.439213 
3182.000000	99.439053 
3181.000000	99.438885 
3180.000000	99.438837 
3179.000000	99.438996 
3178.000000	99.439325 
3177.000000	99.439546 
3176.000000	99.439248 
3175.000000	99.438306 
3174.000000	99.437179 
3173.000000	99.436591 
3172.000000	99.436760 
3171.000000	99.437164 
3170.000000	99.437154 
3169.000000	99.436716 
3168.000000	99.436393 
3167.000000	99.436511 
3166.000000	99.436757 
3165.000000	99.436634 
3164.000000	99.436159 
3163.000000	99.435851 
3162.000000	99.436052 
3161.000000	99.436541 
3160.000000	99.436899 
3159.000000	99.437023 
3158.000000	99.437016 
3157.000000	99.436734 
3156.000000	99.435856 
3155.000000	99.434439 
3154.000000	99.433040 
3153.000000	99.432082 
3152.000000	99.431354 
3151.000000	99.430402 
3150.000000	99.429268 
3149.000000	99.428539 
3148.000000	99.428718 
3147.000000	99.429798 
3146.000000	99.431382 
3145.000000	99.432972 
3144.000000	99.434182 
3143.000000	99.434881 
3142.000000	99.435198 
3141.000000	99.435345 
3140.000000	99.435405 
3139.000000	99.435319 
3138.000000	99.435007 
3137.000000	99.434467 
3136.000000	99.433813 
3135.000000	99.433308 
3134.000000	99.433272 
3133.000000	99.433794 
3132.000000	99.434542 
3131.000000	99.434996 
3130.000000	99.434932 
3129.000000	99.434616 
3128.000000	99.434528 
3127.000000	99.434972 
3126.000000	99.435907 
3125.000000	99.436994 
3124.000000	99.437755 
3123.000000	99.437848 
3122.000000	99.437297 
3121.000000	99.436500 
3120.000000	99.435974 
3119.000000	99.435952 
3118.000000	99.436296 
3117.000000	99.436705 
3116.000000	99.437009 
3115.000000	99.437264 
3114.000000	99.437599 
3113.000000	99.437997 
3112.000000	99.438279 
3111.000000	99.438300 
3110.000000	99.438101 
3109.000000	99.437842 
3108.000000	99.437633 
3107.000000	99.437464 
3106.000000	99.437265 
3105.000000	99.437012 
3104.000000	99.436772 
3103.000000	99.436683 
3102.000000	99.436889 
3101.000000	99.437437 
3100.000000	99.438190 
3099.000000	99.438871 
3098.000000	99.439261 
3097.000000	99.439330 
3096.000000	99.439190 
3095.000000	99.438986 
3094.000000	99.438784 
3093.000000	99.438533 
3092.000000	99.438139 
3091.000000	99.437617 
3090.000000	99.437187 
3089.000000	99.437148 
3088.000000	99.437619 
3087.000000	99.438355 
3086.000000	99.438897 
3085.000000	99.438959 
3084.000000	99.438610 
3083.000000	99.438037 
3082.000000	99.437254 
3081.000000	99.436214 
3080.000000	99.435171 
3079.000000	99.434696 
3078.000000	99.435269 
3077.000000	99.436900 
3076.000000	99.439084 
3075.000000	99.440989 
3074.000000	99.441717 
3073.000000	99.440764 
3072.000000	99.438513 
3071.000000	99.436042 
3070.000000	99.434132 
3069.000000	99.432614 
3068.000000	99.430975 
3067.000000	99.429405 
3066.000000	99.428833 
3065.000000	99.429934 
3064.000000	99.432364 
3063.000000	99.434891 
3062.000000	99.436059 
3061.000000	99.434875 
3060.000000	99.431444 
3059.000000	99.427214 
3058.000000	99.424325 
3057.000000	99.424315 
3056.000000	99.427183 
3055.000000	99.431416 
3054.000000	99.434801 
3053.000000	99.435585 
3052.000000	99.433360 
3051.000000	99.429158 
3050.000000	99.424747 
3049.000000	99.421739 
3048.000000	99.420947 
3047.000000	99.421847 
3046.000000	99.422424 
3045.000000	99.420411 
3044.000000	99.415573 
3043.000000	99.410512 
3042.000000	99.408349 
3041.000000	99.409499 
3040.000000	99.411413 
3039.000000	99.411390 
3038.000000	99.408752 
3037.000000	99.404259 
3036.000000	99.398586 
3035.000000	99.392139 
3034.000000	99.385650 
3033.000000	99.379894 
3032.000000	99.374782 
3031.000000	99.369347 
3030.000000	99.362885 
3029.000000	99.355948 
3028.000000	99.350137 
3027.000000	99.346830 
3026.000000	99.345742 
3025.000000	99.344622 
3024.000000	99.340792 
3023.000000	99.333348 
3022.000000	99.323775 
3021.000000	99.314253 
3020.000000	99.305522 
3019.000000	99.296700 
3018.000000	99.287044 
3017.000000	99.277237 
3016.000000	99.268540 
3015.000000	99.260926 
3014.000000	99.252780 
3013.000000	99.242874 
3012.000000	99.232269 
3011.000000	99.223550 
3010.000000	99.218022 
3009.000000	99.214280 
3008.000000	99.209791 
3007.000000	99.203320 
3006.000000	99.195304 
3005.000000	99.186393 
3004.000000	99.176577 
3003.000000	99.165857 
3002.000000	99.155082 
3001.000000	99.145630 
3000.000000	99.138346 
2999.000000	99.132905 
2998.000000	99.128219 
2997.000000	99.123490 
2996.000000	99.118779 
2995.000000	99.114133 
2994.000000	99.108161 
2993.000000	99.098238 
2992.000000	99.082916 
2991.000000	99.064068 
2990.000000	99.046254 
2989.000000	99.033925 
2988.000000	99.029264 
2987.000000	99.031778 
2986.000000	99.038777 
2985.000000	99.046479 
2984.000000	99.051825 
2983.000000	99.053845 
2982.000000	99.053235 
2981.000000	99.051083 
2980.000000	99.048487 
2979.000000	99.046843 
2978.000000	99.047167 
2977.000000	99.048754 
2976.000000	99.049337 
2975.000000	99.047174 
2974.000000	99.042717 
2973.000000	99.038121 
2972.000000	99.035527 
2971.000000	99.035847 
2970.000000	99.038510 
2969.000000	99.041967 
2968.000000	99.044859 
2967.000000	99.047089 
2966.000000	99.049641 
2965.000000	99.053323 
2964.000000	99.057993 
2963.000000	99.062983 
2962.000000	99.067847 
2961.000000	99.072557 
2960.000000	99.077233 
2959.000000	99.081778 
2958.000000	99.085655 
2957.000000	99.088291 
2956.000000	99.090058 
2955.000000	99.092524 
2954.000000	99.097068 
2953.000000	99.103353 
2952.000000	99.109788 
2951.000000	99.115388 
2950.000000	99.120454 
2949.000000	99.125403 
2948.000000	99.129701 
2947.000000	99.132247 
2946.000000	99.132412 
2945.000000	99.130555 
2944.000000	99.127823 
2943.000000	99.125351 
2942.000000	99.123250 
2941.000000	99.120465 
2940.000000	99.116084 
2939.000000	99.110741 
2938.000000	99.106191 
2937.000000	99.103634 
2936.000000	99.103029 
2935.000000	99.103699 
2934.000000	99.104629 
2933.000000	99.104256 
2932.000000	99.101101 
2931.000000	99.095003 
2930.000000	99.087252 
2929.000000	99.079532 
2928.000000	99.073233 
2927.000000	99.069314 
2926.000000	99.067668 
2925.000000	99.066654 
2924.000000	99.064531 
2923.000000	99.061663 
2922.000000	99.060200 
2921.000000	99.061181 
2920.000000	99.063124 
2919.000000	99.063996 
2918.000000	99.063709 
2917.000000	99.063831 
2916.000000	99.065492 
2915.000000	99.068303 
2914.000000	99.071010 
2913.000000	99.072725 
2912.000000	99.073737 
2911.000000	99.075288 
2910.000000	99.078198 
2909.000000	99.081684 
2908.000000	99.083967 
2907.000000	99.084204 
2906.000000	99.083073 
2905.000000	99.081374 
2904.000000	99.078933 
2903.000000	99.075584 
2902.000000	99.072665 
2901.000000	99.072925 
2900.000000	99.078191 
2899.000000	99.088021 
2898.000000	99.099565 
2897.000000	99.109023 
2896.000000	99.114090 
2895.000000	99.115460 
2894.000000	99.116027 
2893.000000	99.118342 
2892.000000	99.122906 
2891.000000	99.128587 
2890.000000	99.133871 
2889.000000	99.137471 
2888.000000	99.138704 
2887.000000	99.138230 
2886.000000	99.138136 
2885.000000	99.140403 
2884.000000	99.145281 
2883.000000	99.151525 
2882.000000	99.157947 
2881.000000	99.164245 
2880.000000	99.170473 
2879.000000	99.176483 
2878.000000	99.182145 
2877.000000	99.187636 
2876.000000	99.193189 
2875.000000	99.198735 
2874.000000	99.203973 
2873.000000	99.208626 
2872.000000	99.212510 
2871.000000	99.215501 
2870.000000	99.217690 
2869.000000	99.219661 
2868.000000	99.222473 
2867.000000	99.227086 
2866.000000	99.233478 
2865.000000	99.240356 
2864.000000	99.246019 
2863.000000	99.249697 
2862.000000	99.251884 
2861.000000	99.253519 
2860.000000	99.255244 
2859.000000	99.257527 
2858.000000	99.260731 
2857.000000	99.264506 
2856.000000	99.267581 
2855.000000	99.269109 
2854.000000	99.270177 
2853.000000	99.273180 
2852.000000	99.279508 
2851.000000	99.288377 
2850.000000	99.297935 
2849.000000	99.307025 
2848.000000	99.315665 
2847.000000	99.324193 
2846.000000	99.332403 
2845.000000	99.339415 
2844.000000	99.344144 
2843.000000	99.346110 
2842.000000	99.346302 
2841.000000	99.347204 
2840.000000	99.351226 
2839.000000	99.358604 
2838.000000	99.366972 
2837.000000	99.373416 
2836.000000	99.376955 
2835.000000	99.378812 
2834.000000	99.380506 
2833.000000	99.382278 
2832.000000	99.383571 
2831.000000	99.384326 
2830.000000	99.385028 
2829.000000	99.385776 
2828.000000	99.386198 
2827.000000	99.386446 
2826.000000	99.387605 
2825.000000	99.390612 
2824.000000	99.395037 
2823.000000	99.399273 
2822.000000	99.401944 
2821.000000	99.402998 
2820.000000	99.403570 
2819.000000	99.404858 
2818.000000	99.407084 
2817.000000	99.409531 
2816.000000	99.411517 
2815.000000	99.413067 
2814.000000	99.414460 
2813.000000	99.415490 
2812.000000	99.415744 
2811.000000	99.415520 
2810.000000	99.415866 
2809.000000	99.417452 
2808.000000	99.419756 
2807.000000	99.421569 
2806.000000	99.422092 
2805.000000	99.421456 
2804.000000	99.420540 
2803.000000	99.420413 
2802.000000	99.421618 
2801.000000	99.423703 
2800.000000	99.425595 
2799.000000	99.426601 
2798.000000	99.426896 
2797.000000	99.426956 
2796.000000	99.426816 
2795.000000	99.426166 
2794.000000	99.425063 
2793.000000	99.424195 
2792.000000	99.424293 
2791.000000	99.425420 
2790.000000	99.426941 
2789.000000	99.428134 
2788.000000	99.428832 
2787.000000	99.429410 
2786.000000	99.430198 
2785.000000	99.431020 
2784.000000	99.431396 
2783.000000	99.431090 
2782.000000	99.430379 
2781.000000	99.429826 
2780.000000	99.429859 
2779.000000	99.430556 
2778.000000	99.431684 
2777.000000	99.432896 
2776.000000	99.433955 
2775.000000	99.434806 
2774.000000	99.435455 
2773.000000	99.435866 
2772.000000	99.436037 
2771.000000	99.436072 
2770.000000	99.436084 
2769.000000	99.436066 
2768.000000	99.435972 
2767.000000	99.435892 
2766.000000	99.436010 
2765.000000	99.436373 
2764.000000	99.436805 
2763.000000	99.437070 
2762.000000	99.437085 
2761.000000	99.436955 
2760.000000	99.436859 
2759.000000	99.436912 
2758.000000	99.437117 
2757.000000	99.437433 
2756.000000	99.437823 
2755.000000	99.438234 
2754.000000	99.438574 
2753.000000	99.438770 
2752.000000	99.438854 
2751.000000	99.438971 
2750.000000	99.439234 
2749.000000	99.439610 
2748.000000	99.439971 
2747.000000	99.440236 
2746.000000	99.440438 
2745.000000	99.440638 
2744.000000	99.440851 
2743.000000	99.441053 
2742.000000	99.441246 
2741.000000	99.441460 
2740.000000	99.441713 
2739.000000	99.441987 
2738.000000	99.442256 
2737.000000	99.442522 
2736.000000	99.442802 
2735.000000	99.443105 
2734.000000	99.443412 
2733.000000	99.443694 
2732.000000	99.443942 
2731.000000	99.444173 
2730.000000	99.444410 
2729.000000	99.444663 
2728.000000	99.444933 
2727.000000	99.445225 
2726.000000	99.445544 
2725.000000	99.445883 
2724.000000	99.446225 
2723.000000	99.446564 
2722.000000	99.446914 
2721.000000	99.447281 
2720.000000	99.447642 
2719.000000	99.447962 
2718.000000	99.448229 
2717.000000	99.448456 
2716.000000	99.448679 
2715.000000	99.448933 
2714.000000	99.449241 
2713.000000	99.449604 
2712.000000	99.449998 
2711.000000	99.450392 
2710.000000	99.450768 
2709.000000	99.451126 
2708.000000	99.451468 
2707.000000	99.451787 
2706.000000	99.452069 
2705.000000	99.452312 
2704.000000	99.452543 
2703.000000	99.452805 
2702.000000	99.453120 
2701.000000	99.453467 
2700.000000	99.453802 
2699.000000	99.454106 
2698.000000	99.454398 
2697.000000	99.454704 
2696.000000	99.455015 
2695.000000	99.455297 
2694.000000	99.455533 
2693.000000	99.455747 
2692.000000	99.455975 
2691.000000	99.456233 
2690.000000	99.456501 
2689.000000	99.456758 
2688.000000	99.457005 
2687.000000	99.457266 
2686.000000	99.457552 
2685.000000	99.457850 
2684.000000	99.458151 
2683.000000	99.458451 
2682.000000	99.458750 
2681.000000	99.459043 
2680.000000	99.459333 
2679.000000	99.459625 
2678.000000	99.459934 
2677.000000	99.460262 
2676.000000	99.460608 
2675.000000	99.460965 
2674.000000	99.461324 
2673.000000	99.461681 
2672.000000	99.462030 
2671.000000	99.462369 
2670.000000	99.462699 
2669.000000	99.463026 
2668.000000	99.463354 
2667.000000	99.463689 
2666.000000	99.464035 
2665.000000	99.464393 
2664.000000	99.464764 
2663.000000	99.465143 
2662.000000	99.465527 
2661.000000	99.465917 
2660.000000	99.466314 
2659.000000	99.466719 
2658.000000	99.467132 
2657.000000	99.467550 
2656.000000	99.467974 
2655.000000	99.468407 
2654.000000	99.468851 
2653.000000	99.469305 
2652.000000	99.469766 
2651.000000	99.470233 
2650.000000	99.470706 
2649.000000	99.471181 
2648.000000	99.471651 
2647.000000	99.472113 
2646.000000	99.472570 
2645.000000	99.473027 
2644.000000	99.473487 
2643.000000	99.473945 
2642.000000	99.474394 
2641.000000	99.474831 
2640.000000	99.475260 
2639.000000	99.475687 
2638.000000	99.476117 
2637.000000	99.476546 
2636.000000	99.476968 
2635.000000	99.477374 
2634.000000	99.477763 
2633.000000	99.478138 
2632.000000	99.478503 
2631.000000	99.478861 
2630.000000	99.479218 
2629.000000	99.479576 
2628.000000	99.479928 
2627.000000	99.480259 
2626.000000	99.480568 
2625.000000	99.480876 
2624.000000	99.481193 
2623.000000	99.481489 
2622.000000	99.481732 
2621.000000	99.481945 
2620.000000	99.482208 
2619.000000	99.482558 
2618.000000	99.482927 
2617.000000	99.483201 
2616.000000	99.483364 
2615.000000	99.483545 
2614.000000	99.483866 
2613.000000	99.484257 
2612.000000	99.484499 
2611.000000	99.484461 
2610.000000	99.484226 
2609.000000	99.483950 
2608.000000	99.483702 
2607.000000	99.483509 
2606.000000	99.483442 
2605.000000	99.483604 
2604.000000	99.484022 
2603.000000	99.484573 
2602.000000	99.485005 
2601.000000	99.485112 
2600.000000	99.484965 
2599.000000	99.484866 
2598.000000	99.484964 
2597.000000	99.484986 
2596.000000	99.484566 
2595.000000	99.483721 
2594.000000	99.482823 
2593.000000	99.482212 
2592.000000	99.481927 
2591.000000	99.481849 
2590.000000	99.481867 
2589.000000	99.481914 
2588.000000	99.481915 
2587.000000	99.481792 
2586.000000	99.481533 
2585.000000	99.481211 
2584.000000	99.480935 
2583.000000	99.480767 
2582.000000	99.480655 
2581.000000	99.480465 
2580.000000	99.480125 
2579.000000	99.479699 
2578.000000	99.479297 
2577.000000	99.478932 
2576.000000	99.478528 
2575.000000	99.478050 
2574.000000	99.477577 
2573.000000	99.477210 
2572.000000	99.476989 
2571.000000	99.476871 
2570.000000	99.476735 
2569.000000	99.476433 
2568.000000	99.475893 
2567.000000	99.475208 
2566.000000	99.474573 
2565.000000	99.474084 
2564.000000	99.473678 
2563.000000	99.473270 
2562.000000	99.472879 
2561.000000	99.472552 
2560.000000	99.472230 
2559.000000	99.471781 
2558.000000	99.471133 
2557.000000	99.470348 
2556.000000	99.469610 
2555.000000	99.469125 
2554.000000	99.468982 
2553.000000	99.469021 
2552.000000	99.468911 
2551.000000	99.468496 
2550.000000	99.467886 
2549.000000	99.467181 
2548.000000	99.466280 
2547.000000	99.465113 
2546.000000	99.463883 
2545.000000	99.462914 
2544.000000	99.462343 
2543.000000	99.462062 
2542.000000	99.461838 
2541.000000	99.461434 
2540.000000	99.460766 
2539.000000	99.460049 
2538.000000	99.459616 
2537.000000	99.459448 
2536.000000	99.459109 
2535.000000	99.458324 
2534.000000	99.457376 
2533.000000	99.456715 
2532.000000	99.456350 
2531.000000	99.455969 
2530.000000	99.455535 
2529.000000	99.455365 
2528.000000	99.455591 
2527.000000	99.455879 
2526.000000	99.455788 
2525.000000	99.455258 
2524.000000	99.454652 
2523.000000	99.454438 
2522.000000	99.454825 
2521.000000	99.455647 
2520.000000	99.456445 
2519.000000	99.456742 
2518.000000	99.456322 
2517.000000	99.455321 
2516.000000	99.454146 
2515.000000	99.453228 
2514.000000	99.452741 
2513.000000	99.452599 
2512.000000	99.452716 
2511.000000	99.453151 
2510.000000	99.453928 
2509.000000	99.454804 
2508.000000	99.455439 
2507.000000	99.455760 
2506.000000	99.455952 
2505.000000	99.456102 
2504.000000	99.456062 
2503.000000	99.455718 
2502.000000	99.455187 
2501.000000	99.454693 
2500.000000	99.454398 
2499.000000	99.454409 
2498.000000	99.454771 
2497.000000	99.455336 
2496.000000	99.455780 
2495.000000	99.455899 
2494.000000	99.455773 
2493.000000	99.455615 
2492.000000	99.455523 
2491.000000	99.455465 
2490.000000	99.455431 
2489.000000	99.455483 
2488.000000	99.455661 
2487.000000	99.455934 
2486.000000	99.456199 
2485.000000	99.456301 
2484.000000	99.456133 
2483.000000	99.455728 
2482.000000	99.455269 
2481.000000	99.454931 
2480.000000	99.454738 
2479.000000	99.454615 
2478.000000	99.454485 
2477.000000	99.454322 
2476.000000	99.454134 
2475.000000	99.453933 
2474.000000	99.453718 
2473.000000	99.453481 
2472.000000	99.453209 
2471.000000	99.452912 
2470.000000	99.452614 
2469.000000	99.452323 
2468.000000	99.452032 
2467.000000	99.451728 
2466.000000	99.451410 
2465.000000	99.451087 
2464.000000	99.450768 
2463.000000	99.450457 
2462.000000	99.450157 
2461.000000	99.449871 
2460.000000	99.449591 
2459.000000	99.449299 
2458.000000	99.448977 
2457.000000	99.448623 
2456.000000	99.448255 
2455.000000	99.447892 
2454.000000	99.447541 
2453.000000	99.447197 
2452.000000	99.446841 
2451.000000	99.446450 
2450.000000	99.446019 
2449.000000	99.445560 
2448.000000	99.445108 
2447.000000	99.444702 
2446.000000	99.444360 
2445.000000	99.444070 
2444.000000	99.443790 
2443.000000	99.443481 
2442.000000	99.443123 
2441.000000	99.442709 
2440.000000	99.442258 
2439.000000	99.441830 
2438.000000	99.441489 
2437.000000	99.441240 
2436.000000	99.441017 
2435.000000	99.440747 
2434.000000	99.440417 
2433.000000	99.440054 
2432.000000	99.439703 
2431.000000	99.439415 
2430.000000	99.439223 
2429.000000	99.439092 
2428.000000	99.438904 
2427.000000	99.438566 
2426.000000	99.438110 
2425.000000	99.437659 
2424.000000	99.437287 
2423.000000	99.436990 
2422.000000	99.436779 
2421.000000	99.436688 
2420.000000	99.436648 
2419.000000	99.436442 
2418.000000	99.435923 
2417.000000	99.435182 
2416.000000	99.434476 
2415.000000	99.433957 
2414.000000	99.433552 
2413.000000	99.433115 
2412.000000	99.432628 
2411.000000	99.432207 
2410.000000	99.431938 
2409.000000	99.431772 
2408.000000	99.431561 
2407.000000	99.431192 
2406.000000	99.430644 
2405.000000	99.430012 
2404.000000	99.429513 
2403.000000	99.429371 
2402.000000	99.429525 
2401.000000	99.429522 
2400.000000	99.428927 
2399.000000	99.427835 
2398.000000	99.426791 
2397.000000	99.426177 
2396.000000	99.425931 
2395.000000	99.425830 
2394.000000	99.425696 
2393.000000	99.425351 
2392.000000	99.424742 
2391.000000	99.424160 
2390.000000	99.424007 
2389.000000	99.424309 
2388.000000	99.424835 
2387.000000	99.425600 
2386.000000	99.426740 
2385.000000	99.427857 
2384.000000	99.428184 
2383.000000	99.427614 
2382.000000	99.426963 
2381.000000	99.426871 
2380.000000	99.426907 
2379.000000	99.426358 
2378.000000	99.425435 
2377.000000	99.425019 
2376.000000	99.425454 
2375.000000	99.426291 
2374.000000	99.426999 
2373.000000	99.427281 
2372.000000	99.426767 
2371.000000	99.425223 
2370.000000	99.423225 
2369.000000	99.421952 
2368.000000	99.422089 
2367.000000	99.423519 
2366.000000	99.425863 
2365.000000	99.428796 
2364.000000	99.431795 
2363.000000	99.434095 
2362.000000	99.435163 
2361.000000	99.435068 
2360.000000	99.434560 
2359.000000	99.434352 
2358.000000	99.434403 
2357.000000	99.434220 
2356.000000	99.433935 
2355.000000	99.434483 
2354.000000	99.436013 
2353.000000	99.437731 
2352.000000	99.438845 
2351.000000	99.439448 
2350.000000	99.440124 
2349.000000	99.440992 
2348.000000	99.441909 
2347.000000	99.442704 
2346.000000	99.443580 
2345.000000	99.444876 
2344.000000	99.446575 
2343.000000	99.448606 
2342.000000	99.450478 
2341.000000	99.451642 
2340.000000	99.451813 
2339.000000	99.451587 
2338.000000	99.451804 
2337.000000	99.452426 
2336.000000	99.452616 
2335.000000	99.451742 
2334.000000	99.450336 
2333.000000	99.449606 
2332.000000	99.450326 
2331.000000	99.451761 
2330.000000	99.452812 
2329.000000	99.453086 
2328.000000	99.453841 
2327.000000	99.456112 
2326.000000	99.459874 
2325.000000	99.463645 
2324.000000	99.465870 
2323.000000	99.466328 
2322.000000	99.466177 
2321.000000	99.466549 
2320.000000	99.466933 
2319.000000	99.466034 
2318.000000	99.463795 
2317.000000	99.461599 
2316.000000	99.460838 
2315.000000	99.461368 
2314.000000	99.462282 
2313.000000	99.462852 
2312.000000	99.463286 
2311.000000	99.463801 
2310.000000	99.464314 
2309.000000	99.464272 
2308.000000	99.463435 
2307.000000	99.462042 
2306.000000	99.460891 
2305.000000	99.460617 
2304.000000	99.461304 
2303.000000	99.462388 
2302.000000	99.463289 
2301.000000	99.463784 
2300.000000	99.464221 
2299.000000	99.465034 
2298.000000	99.466296 
2297.000000	99.467269 
2296.000000	99.467035 
2295.000000	99.465387 
2294.000000	99.463342 
2293.000000	99.462272 
2292.000000	99.462794 
2291.000000	99.464502 
2290.000000	99.466542 
2289.000000	99.468089 
2288.000000	99.468588 
2287.000000	99.468006 
2286.000000	99.466887 
2285.000000	99.465720 
2284.000000	99.464255 
2283.000000	99.462112 
2282.000000	99.459772 
2281.000000	99.458315 
2280.000000	99.458032 
2279.000000	99.458103 
2278.000000	99.457770 
2277.000000	99.457228 
2276.000000	99.457045 
2275.000000	99.457252 
2274.000000	99.457438 
2273.000000	99.457291 
2272.000000	99.456668 
2271.000000	99.455525 
2270.000000	99.454230 
2269.000000	99.453520 
2268.000000	99.453725 
2267.000000	99.454293 
2266.000000	99.454398 
2265.000000	99.453682 
2264.000000	99.452110 
2263.000000	99.449480 
2262.000000	99.445786 
2261.000000	99.441969 
2260.000000	99.439688 
2259.000000	99.439960 
2258.000000	99.442201 
2257.000000	99.444965 
2256.000000	99.447293 
2255.000000	99.449223 
2254.000000	99.451054 
2253.000000	99.452642 
2252.000000	99.453719 
2251.000000	99.454378 
2250.000000	99.454764 
2249.000000	99.454617 
2248.000000	99.453632 
2247.000000	99.452233 
2246.000000	99.451011 
2245.000000	99.449879 
2244.000000	99.448502 
2243.000000	99.447352 
2242.000000	99.447432 
2241.000000	99.448881 
2240.000000	99.450915 
2239.000000	99.453189 
2238.000000	99.456022 
2237.000000	99.458851 
2236.000000	99.459771 
2235.000000	99.457591 
2234.000000	99.453437 
2233.000000	99.449751 
2232.000000	99.447741 
2231.000000	99.446718 
2230.000000	99.445597 
2229.000000	99.444083 
2228.000000	99.442581 
2227.000000	99.441601 
2226.000000	99.441350 
2225.000000	99.441669 
2224.000000	99.442216 
2223.000000	99.442761 
2222.000000	99.443218 
2221.000000	99.443397 
2220.000000	99.443072 
2219.000000	99.442356 
2218.000000	99.441733 
2217.000000	99.441533 
2216.000000	99.441593 
2215.000000	99.441542 
2214.000000	99.441206 
2213.000000	99.440688 
2212.000000	99.440152 
2211.000000	99.439654 
2210.000000	99.439198 
2209.000000	99.438789 
2208.000000	99.438425 
2207.000000	99.438089 
2206.000000	99.437763 
2205.000000	99.437417 
2204.000000	99.437010 
2203.000000	99.436605 
2202.000000	99.436468 
2201.000000	99.436753 
2200.000000	99.437051 
2199.000000	99.436795 
2198.000000	99.435912 
2197.000000	99.434850 
2196.000000	99.434093 
2195.000000	99.433854 
2194.000000	99.434155 
2193.000000	99.434820 
2192.000000	99.435274 
2191.000000	99.434844 
2190.000000	99.433623 
2189.000000	99.432813 
2188.000000	99.433708 
2187.000000	99.436144 
2186.000000	99.438096 
2185.000000	99.437198 
2184.000000	99.432901 
2183.000000	99.427165 
2182.000000	99.422780 
2181.000000	99.421028 
2180.000000	99.421436 
2179.000000	99.423336 
2178.000000	99.426564 
2177.000000	99.430388 
2176.000000	99.432869 
2175.000000	99.432114 
2174.000000	99.427933 
2173.000000	99.422371 
2172.000000	99.419085 
2171.000000	99.421573 
2170.000000	99.430434 
2169.000000	99.441723 
2168.000000	99.449598 
2167.000000	99.451640 
2166.000000	99.450348 
2165.000000	99.449583 
2164.000000	99.451124 
2163.000000	99.454935 
2162.000000	99.459629 
2161.000000	99.460790 
2160.000000	99.452198 
2159.000000	99.432269 
2158.000000	99.408075 
2157.000000	99.389264 
2156.000000	99.378732 
2155.000000	99.373471 
2154.000000	99.371495 
2153.000000	99.373729 
2152.000000	99.379978 
2151.000000	99.386846 
2150.000000	99.390925 
2149.000000	99.392456 
2148.000000	99.394707 
2147.000000	99.400155 
2146.000000	99.407693 
2145.000000	99.413430 
2144.000000	99.414517 
2143.000000	99.411939 
2142.000000	99.408841 
2141.000000	99.406369 
2140.000000	99.402628 
2139.000000	99.396388 
2138.000000	99.390107 
2137.000000	99.387601 
2136.000000	99.389447 
2135.000000	99.392366 
2134.000000	99.393118 
2133.000000	99.391917 
2132.000000	99.391613 
2131.000000	99.394124 
2130.000000	99.398100 
2129.000000	99.400048 
2128.000000	99.397952 
2127.000000	99.393620 
2126.000000	99.390903 
2125.000000	99.391855 
2124.000000	99.395495 
2123.000000	99.400006 
2122.000000	99.404611 
2121.000000	99.408932 
2120.000000	99.412177 
2119.000000	99.413955 
2118.000000	99.414949 
2117.000000	99.415967 
2116.000000	99.416957 
2115.000000	99.417577 
2114.000000	99.418056 
2113.000000	99.418844 
2112.000000	99.419795 
2111.000000	99.420477 
2110.000000	99.420914 
2109.000000	99.421362 
2108.000000	99.421582 
2107.000000	99.420888 
2106.000000	99.418994 
2105.000000	99.416591 
2104.000000	99.415034 
2103.000000	99.415369 
2102.000000	99.417476 
2101.000000	99.420009 
2100.000000	99.421522 
2099.000000	99.421800 
2098.000000	99.421732 
2097.000000	99.422062 
2096.000000	99.422690 
2095.000000	99.423319 
2094.000000	99.424116 
2093.000000	99.425296 
2092.000000	99.426519 
2091.000000	99.427238 
2090.000000	99.427493 
2089.000000	99.427865 
2088.000000	99.428550 
2087.000000	99.428910 
2086.000000	99.428230 
2085.000000	99.426765 
2084.000000	99.425776 
2083.000000	99.426368 
2082.000000	99.428494 
2081.000000	99.430970 
2080.000000	99.432586 
2079.000000	99.433265 
2078.000000	99.433925 
2077.000000	99.435319 
2076.000000	99.437175 
2075.000000	99.438544 
2074.000000	99.438638 
2073.000000	99.437281 
2072.000000	99.435008 
2071.000000	99.432852 
2070.000000	99.431813 
2069.000000	99.432001 
2068.000000	99.432510 
2067.000000	99.432281 
2066.000000	99.431030 
2065.000000	99.429448 
2064.000000	99.428701 
2063.000000	99.429547 
2062.000000	99.431619 
2061.000000	99.433474 
2060.000000	99.433962 
2059.000000	99.433559 
2058.000000	99.433772 
2057.000000	99.435223 
2056.000000	99.436929 
2055.000000	99.437677 
2054.000000	99.437522 
2053.000000	99.437384 
2052.000000	99.437669 
2051.000000	99.437935 
2050.000000	99.437742 
2049.000000	99.437131 
2048.000000	99.436297 
2047.000000	99.435350 
2046.000000	99.434439 
2045.000000	99.433707 
2044.000000	99.433086 
2043.000000	99.432412 
2042.000000	99.431724 
2041.000000	99.431206 
2040.000000	99.430882 
2039.000000	99.430577 
2038.000000	99.430131 
2037.000000	99.429509 
2036.000000	99.428745 
2035.000000	99.427872 
2034.000000	99.426924 
2033.000000	99.425979 
2032.000000	99.425123 
2031.000000	99.424378 
2030.000000	99.423705 
2029.000000	99.423028 
2028.000000	99.422269 
2027.000000	99.421423 
2026.000000	99.420532 
2025.000000	99.419678 
2024.000000	99.418912 
2023.000000	99.418247 
2022.000000	99.417681 
2021.000000	99.417207 
2020.000000	99.416753 
2019.000000	99.416187 
2018.000000	99.415505 
2017.000000	99.414886 
2016.000000	99.414408 
2015.000000	99.413930 
2014.000000	99.413383 
2013.000000	99.412879 
2012.000000	99.412372 
2011.000000	99.411596 
2010.000000	99.410550 
2009.000000	99.409708 
2008.000000	99.409445 
2007.000000	99.409517 
2006.000000	99.409384 
2005.000000	99.408819 
2004.000000	99.407988 
2003.000000	99.407185 
2002.000000	99.406642 
2001.000000	99.406250 
2000.000000	99.405342 
1999.000000	99.403173 
1998.000000	99.399782 
1997.000000	99.396210 
1996.000000	99.393808 
1995.000000	99.393515 
1994.000000	99.395522 
1993.000000	99.398913 
1992.000000	99.401702 
1991.000000	99.402162 
1990.000000	99.400220 
1989.000000	99.397292 
1988.000000	99.395253 
1987.000000	99.395767 
1986.000000	99.399835 
1985.000000	99.406880 
1984.000000	99.414265 
1983.000000	99.419061 
1982.000000	99.420037 
1981.000000	99.417744 
1980.000000	99.413582 
1979.000000	99.409216 
1978.000000	99.406046 
1977.000000	99.403893 
1976.000000	99.400805 
1975.000000	99.395484 
1974.000000	99.389593 
1973.000000	99.386462 
1972.000000	99.387508 
1971.000000	99.390930 
1970.000000	99.393829 
1969.000000	99.395087 
1968.000000	99.395806 
1967.000000	99.397222 
1966.000000	99.398809 
1965.000000	99.398961 
1964.000000	99.397359 
1963.000000	99.395729 
1962.000000	99.395865 
1961.000000	99.397431 
1960.000000	99.398510 
1959.000000	99.397927 
1958.000000	99.395908 
1957.000000	99.392887 
1956.000000	99.388982 
1955.000000	99.384548 
1954.000000	99.380019 
1953.000000	99.375334 
1952.000000	99.370641 
1951.000000	99.367513 
1950.000000	99.367935 
1949.000000	99.371725 
1948.000000	99.375917 
1947.000000	99.377681 
1946.000000	99.376875 
1945.000000	99.374902 
1944.000000	99.372610 
1943.000000	99.370228 
1942.000000	99.368338 
1941.000000	99.367418 
1940.000000	99.367039 
1939.000000	99.366523 
1938.000000	99.365884 
1937.000000	99.365601 
1936.000000	99.365846 
1935.000000	99.366316 
1934.000000	99.366598 
1933.000000	99.366468 
1932.000000	99.366060 
1931.000000	99.365995 
1930.000000	99.366973 
1929.000000	99.368850 
1928.000000	99.370463 
1927.000000	99.370805 
1926.000000	99.369965 
1925.000000	99.368701 
1924.000000	99.367588 
1923.000000	99.366822 
1922.000000	99.366598 
1921.000000	99.367050 
1920.000000	99.367952 
1919.000000	99.368778 
1918.000000	99.369152 
1917.000000	99.369140 
1916.000000	99.369037 
1915.000000	99.369081 
1914.000000	99.369344 
1913.000000	99.369765 
1912.000000	99.370190 
1911.000000	99.370477 
1910.000000	99.370603 
1909.000000	99.370635 
1908.000000	99.370645 
1907.000000	99.370678 
1906.000000	99.370761 
1905.000000	99.370878 
1904.000000	99.370910 
1903.000000	99.370727 
1902.000000	99.370312 
1901.000000	99.369815 
1900.000000	99.369451 
1899.000000	99.369345 
1898.000000	99.369486 
1897.000000	99.369711 
1896.000000	99.369787 
1895.000000	99.369604 
1894.000000	99.369352 
1893.000000	99.369378 
1892.000000	99.369786 
1891.000000	99.370295 
1890.000000	99.370589 
1889.000000	99.370708 
1888.000000	99.370875 
1887.000000	99.371181 
1886.000000	99.371580 
1885.000000	99.371904 
1884.000000	99.371814 
1883.000000	99.371107 
1882.000000	99.370124 
1881.000000	99.369452 
1880.000000	99.369302 
1879.000000	99.369468 
1878.000000	99.369666 
1877.000000	99.369533 
1876.000000	99.368677 
1875.000000	99.367392 
1874.000000	99.366981 
1873.000000	99.368352 
1872.000000	99.370438 
1871.000000	99.370996 
1870.000000	99.369172 
1869.000000	99.366438 
1868.000000	99.364170 
1867.000000	99.361815 
1866.000000	99.358796 
1865.000000	99.355743 
1864.000000	99.353577 
1863.000000	99.352915 
1862.000000	99.354465 
1861.000000	99.358754 
1860.000000	99.364879 
1859.000000	99.370700 
1858.000000	99.374942 
1857.000000	99.377745 
1856.000000	99.379550 
1855.000000	99.380742 
1854.000000	99.381732 
1853.000000	99.382385 
1852.000000	99.381816 
1851.000000	99.379591 
1850.000000	99.376790 
1849.000000	99.375097 
1848.000000	99.374914 
1847.000000	99.375379 
1846.000000	99.375896 
1845.000000	99.376176 
1844.000000	99.375284 
1843.000000	99.372791 
1842.000000	99.370293 
1841.000000	99.369718 
1840.000000	99.371474 
1839.000000	99.374514 
1838.000000	99.377435 
1837.000000	99.379520 
1836.000000	99.380758 
1835.000000	99.381494 
1834.000000	99.382174 
1833.000000	99.383127 
1832.000000	99.384434 
1831.000000	99.385595 
1830.000000	99.385736 
1829.000000	99.384732 
1828.000000	99.383572 
1827.000000	99.383097 
1826.000000	99.383352 
1825.000000	99.384183 
1824.000000	99.385389 
1823.000000	99.386551 
1822.000000	99.387239 
1821.000000	99.387039 
1820.000000	99.385647 
1819.000000	99.383212 
1818.000000	99.380749 
1817.000000	99.379632 
1816.000000	99.380167 
1815.000000	99.381395 
1814.000000	99.382505 
1813.000000	99.383854 
1812.000000	99.386272 
1811.000000	99.389572 
1810.000000	99.392662 
1809.000000	99.394842 
1808.000000	99.395903 
1807.000000	99.395698 
1806.000000	99.394499 
1805.000000	99.393239 
1804.000000	99.392741 
1803.000000	99.392974 
1802.000000	99.393460 
1801.000000	99.394042 
1800.000000	99.394597 
1799.000000	99.394724 
1798.000000	99.394386 
1797.000000	99.394035 
1796.000000	99.394049 
1795.000000	99.394546 
1794.000000	99.395544 
1793.000000	99.396894 
1792.000000	99.398205 
1791.000000	99.399011 
1790.000000	99.399254 
1789.000000	99.399333 
1788.000000	99.399639 
1787.000000	99.400190 
1786.000000	99.400688 
1785.000000	99.400813 
1784.000000	99.400517 
1783.000000	99.400133 
1782.000000	99.400081 
1781.000000	99.400411 
1780.000000	99.400796 
1779.000000	99.400931 
1778.000000	99.400884 
1777.000000	99.400885 
1776.000000	99.401020 
1775.000000	99.401241 
1774.000000	99.401482 
1773.000000	99.401679 
1772.000000	99.401773 
1771.000000	99.401772 
1770.000000	99.401755 
1769.000000	99.401762 
1768.000000	99.401775 
1767.000000	99.401745 
1766.000000	99.401664 
1765.000000	99.401593 
1764.000000	99.401581 
1763.000000	99.401612 
1762.000000	99.401640 
1761.000000	99.401676 
1760.000000	99.401779 
1759.000000	99.401929 
1758.000000	99.402034 
1757.000000	99.402013 
1756.000000	99.401858 
1755.000000	99.401638 
1754.000000	99.401379 
1753.000000	99.401046 
1752.000000	99.400779 
1751.000000	99.401001 
1750.000000	99.401873 
1749.000000	99.402880 
1748.000000	99.403404 
1747.000000	99.403315 
1746.000000	99.402814 
1745.000000	99.402159 
1744.000000	99.401621 
1743.000000	99.401405 
1742.000000	99.401487 
1741.000000	99.401727 
1740.000000	99.402024 
1739.000000	99.402315 
1738.000000	99.402558 
1737.000000	99.402705 
1736.000000	99.402732 
1735.000000	99.402652 
1734.000000	99.402621 
1733.000000	99.403021 
1732.000000	99.404057 
1731.000000	99.405475 
1730.000000	99.406856 
1729.000000	99.407869 
1728.000000	99.408492 
1727.000000	99.408955 
1726.000000	99.409444 
1725.000000	99.409934 
1724.000000	99.410358 
1723.000000	99.410773 
1722.000000	99.411307 
1721.000000	99.411997 
1720.000000	99.412759 
1719.000000	99.413454 
1718.000000	99.413988 
1717.000000	99.414425 
1716.000000	99.414894 
1715.000000	99.415421 
1714.000000	99.415998 
1713.000000	99.416614 
1712.000000	99.417249 
1711.000000	99.417892 
1710.000000	99.418540 
1709.000000	99.419192 
1708.000000	99.419850 
1707.000000	99.420516 
1706.000000	99.421193 
1705.000000	99.421882 
1704.000000	99.422576 
1703.000000	99.423267 
1702.000000	99.423955 
1701.000000	99.424654 
1700.000000	99.425377 
1699.000000	99.426127 
1698.000000	99.426895 
1697.000000	99.427674 
1696.000000	99.428454 
1695.000000	99.429225 
1694.000000	99.429979 
1693.000000	99.430713 
1692.000000	99.431426 
1691.000000	99.432115 
1690.000000	99.432777 
1689.000000	99.433409 
1688.000000	99.434013 
1687.000000	99.434595 
1686.000000	99.435168 
1685.000000	99.435739 
1684.000000	99.436323 
1683.000000	99.436932 
1682.000000	99.437549 
1681.000000	99.438159 
1680.000000	99.438758 
1679.000000	99.439358 
1678.000000	99.439968 
1677.000000	99.440586 
1676.000000	99.441197 
1675.000000	99.441795 
1674.000000	99.442390 
1673.000000	99.443020 
1672.000000	99.443684 
1671.000000	99.444382 
1670.000000	99.445122 
1669.000000	99.445864 
1668.000000	99.446645 
1667.000000	99.447513 
1666.000000	99.448224 
1665.000000	99.448499 
1664.000000	99.448452 
1663.000000	99.448637 
1662.000000	99.449516 
1661.000000	99.450926 
1660.000000	99.452265 
1659.000000	99.453300 
1658.000000	99.454223 
1657.000000	99.454866 
1656.000000	99.454538 
1655.000000	99.453215 
1654.000000	99.452574 
1653.000000	99.453327 
1652.000000	99.453772 
1651.000000	99.454516 
1650.000000	99.454818 
1649.000000	99.453884 
1648.000000	99.452132 
1647.000000	99.450565 
1646.000000	99.449589 
1645.000000	99.449661 
1644.000000	99.451064 
1643.000000	99.453237 
1642.000000	99.455347 
1641.000000	99.456933 
1640.000000	99.457910 
1639.000000	99.458362 
1638.000000	99.458499 
1637.000000	99.458649 
1636.000000	99.458607 
1635.000000	99.458106 
1634.000000	99.458447 
1633.000000	99.459985 
1632.000000	99.461408 
1631.000000	99.461945 
1630.000000	99.461885 
1629.000000	99.461761 
1628.000000	99.461652 
1627.000000	99.461544 
1626.000000	99.461770 
1625.000000	99.462719 
1624.000000	99.464296 
1623.000000	99.465859 
1622.000000	99.467006 
1621.000000	99.467743 
1620.000000	99.467716 
1619.000000	99.466810 
1618.000000	99.465974 
1617.000000	99.465992 
1616.000000	99.466181 
1615.000000	99.466142 
1614.000000	99.465703 
1613.000000	99.464420 
1612.000000	99.462702 
1611.000000	99.461421 
1610.000000	99.460805 
1609.000000	99.460256 
1608.000000	99.459358 
1607.000000	99.458460 
1606.000000	99.457969 
1605.000000	99.457879 
1604.000000	99.458146 
1603.000000	99.458855 
1602.000000	99.459692 
1601.000000	99.459933 
1600.000000	99.459500 
1599.000000	99.459300 
1598.000000	99.460004 
1597.000000	99.461286 
1596.000000	99.462513 
1595.000000	99.463584 
1594.000000	99.464591 
1593.000000	99.465136 
1592.000000	99.464812 
1591.000000	99.463967 
1590.000000	99.463435 
1589.000000	99.463540 
1588.000000	99.463991 
1587.000000	99.464497 
1586.000000	99.464906 
1585.000000	99.464994 
1584.000000	99.464628 
1583.000000	99.464013 
1582.000000	99.463559 
1581.000000	99.463428 
1580.000000	99.463471 
1579.000000	99.463546 
1578.000000	99.463640 
1577.000000	99.463739 
1576.000000	99.463799 
1575.000000	99.463853 
1574.000000	99.463922 
1573.000000	99.463986 
1572.000000	99.464049 
1571.000000	99.464113 
1570.000000	99.464180 
1569.000000	99.464254 
1568.000000	99.464331 
1567.000000	99.464405 
1566.000000	99.464472 
1565.000000	99.464532 
1564.000000	99.464587 
1563.000000	99.464640 
1562.000000	99.464693 
1561.000000	99.464743 
1560.000000	99.464788 
1559.000000	99.464822 
1558.000000	99.464846 
1557.000000	99.464864 
1556.000000	99.464877 
1555.000000	99.464880 
1554.000000	99.464872 
1553.000000	99.464857 
1552.000000	99.464836 
1551.000000	99.464810 
1550.000000	99.464776 
1549.000000	99.464733 
1548.000000	99.464680 
1547.000000	99.464614 
1546.000000	99.464532 
1545.000000	99.464441 
1544.000000	99.464347 
1543.000000	99.464258 
1542.000000	99.464183 
1541.000000	99.464129 
1540.000000	99.464092 
1539.000000	99.464068 
1538.000000	99.464060 
1537.000000	99.464067 
1536.000000	99.464094 
1535.000000	99.464129 
1534.000000	99.464156 
1533.000000	99.464222 
1532.000000	99.464286 
1531.000000	99.464184 
1530.000000	99.463920 
1529.000000	99.463743 
1528.000000	99.463819 
1527.000000	99.464041 
1526.000000	99.464193 
1525.000000	99.464222 
1524.000000	99.464189 
1523.000000	99.464228 
1522.000000	99.464660 
1521.000000	99.465454 
1520.000000	99.465726 
1519.000000	99.464916 
1518.000000	99.463324 
1517.000000	99.461822 
1516.000000	99.460990 
1515.000000	99.460683 
1514.000000	99.460586 
1513.000000	99.460468 
1512.000000	99.460107 
1511.000000	99.459280 
1510.000000	99.457794 
1509.000000	99.455830 
1508.000000	99.454724 
1507.000000	99.455918 
1506.000000	99.457126 
1505.000000	99.456752 
1504.000000	99.456214 
1503.000000	99.455778 
1502.000000	99.455503 
1501.000000	99.455883 
1500.000000	99.457077 
1499.000000	99.458550 
1498.000000	99.459606 
1497.000000	99.460619 
1496.000000	99.462036 
1495.000000	99.462577 
1494.000000	99.460880 
1493.000000	99.457080 
1492.000000	99.452160 
1491.000000	99.447442 
1490.000000	99.444180 
1489.000000	99.442851 
1488.000000	99.442342 
1487.000000	99.441300 
1486.000000	99.440207 
1485.000000	99.439945 
1484.000000	99.440313 
1483.000000	99.440573 
1482.000000	99.439899 
1481.000000	99.438009 
1480.000000	99.435343 
1479.000000	99.432697 
1478.000000	99.430760 
1477.000000	99.429812 
1476.000000	99.429448 
1475.000000	99.428307 
1474.000000	99.426077 
1473.000000	99.424477 
1472.000000	99.424516 
1471.000000	99.424548 
1470.000000	99.423696 
1469.000000	99.423027 
1468.000000	99.423555 
1467.000000	99.424904 
1466.000000	99.426093 
1465.000000	99.426594 
1464.000000	99.426367 
1463.000000	99.425922 
1462.000000	99.425843 
1461.000000	99.426316 
1460.000000	99.426584 
1459.000000	99.425598 
1458.000000	99.422699 
1457.000000	99.418625 
1456.000000	99.414946 
1455.000000	99.412317 
1454.000000	99.410657 
1453.000000	99.410014 
1452.000000	99.410021 
1451.000000	99.409879 
1450.000000	99.409780 
1449.000000	99.411246 
1448.000000	99.414587 
1447.000000	99.417497 
1446.000000	99.418706 
1445.000000	99.419691 
1444.000000	99.421410 
1443.000000	99.422581 
1442.000000	99.422090 
1441.000000	99.420853 
1440.000000	99.420559 
1439.000000	99.421720 
1438.000000	99.422820 
1437.000000	99.422192 
1436.000000	99.419714 
1435.000000	99.415791 
1434.000000	99.411410 
1433.000000	99.408558 
1432.000000	99.408376 
1431.000000	99.410484 
1430.000000	99.412778 
1429.000000	99.413371 
1428.000000	99.412242 
1427.000000	99.410239 
1426.000000	99.407982 
1425.000000	99.405477 
1424.000000	99.403412 
1423.000000	99.402401 
1422.000000	99.400896 
1421.000000	99.396971 
1420.000000	99.390692 
1419.000000	99.384603 
1418.000000	99.379521 
1417.000000	99.374109 
1416.000000	99.368592 
1415.000000	99.363470 
1414.000000	99.357946 
1413.000000	99.350965 
1412.000000	99.343388 
1411.000000	99.337390 
1410.000000	99.333314 
1409.000000	99.330219 
1408.000000	99.328303 
1407.000000	99.328042 
1406.000000	99.328851 
1405.000000	99.330211 
1404.000000	99.333049 
1403.000000	99.337361 
1402.000000	99.340800 
1401.000000	99.341883 
1400.000000	99.341796 
1399.000000	99.342459 
1398.000000	99.342315 
1397.000000	99.337591 
1396.000000	99.327827 
1395.000000	99.318075 
1394.000000	99.314508 
1393.000000	99.318487 
1392.000000	99.328042 
1391.000000	99.340222 
1390.000000	99.351710 
1389.000000	99.359627 
1388.000000	99.362668 
1387.000000	99.361626 
1386.000000	99.358256 
1385.000000	99.354317 
1384.000000	99.351122 
1383.000000	99.349161 
1382.000000	99.348278 
1381.000000	99.348858 
1380.000000	99.351541 
1379.000000	99.356018 
1378.000000	99.360726 
1377.000000	99.364092 
1376.000000	99.366252 
1375.000000	99.369268 
1374.000000	99.375037 
1373.000000	99.382545 
1372.000000	99.389063 
1371.000000	99.393815 
1370.000000	99.398587 
1369.000000	99.404528 
1368.000000	99.411239 
1367.000000	99.417813 
1366.000000	99.423659 
1365.000000	99.428436 
1364.000000	99.431555 
1363.000000	99.433055 
1362.000000	99.434357 
1361.000000	99.436586 
1360.000000	99.439349 
1359.000000	99.442074 
1358.000000	99.445168 
1357.000000	99.449148 
1356.000000	99.453574 
1355.000000	99.457448 
1354.000000	99.460312 
1353.000000	99.462172 
1352.000000	99.462272 
1351.000000	99.459819 
1350.000000	99.456862 
1349.000000	99.456022 
1348.000000	99.457754 
1347.000000	99.460746 
1346.000000	99.464341 
1345.000000	99.468464 
1344.000000	99.472188 
1343.000000	99.474201 
1342.000000	99.474544 
1341.000000	99.474259 
1340.000000	99.473711 
1339.000000	99.472603 
1338.000000	99.471300 
1337.000000	99.471027 
1336.000000	99.472435 
1335.000000	99.474814 
1334.000000	99.477226 
1333.000000	99.479441 
1332.000000	99.481295 
1331.000000	99.482255 
1330.000000	99.482118 
1329.000000	99.481236 
1328.000000	99.480096 
1327.000000	99.479123 
1326.000000	99.478876 
1325.000000	99.479335 
1324.000000	99.480123 
1323.000000	99.480954 
1322.000000	99.481652 
1321.000000	99.481946 
1320.000000	99.481746 
1319.000000	99.481473 
1318.000000	99.481628 
1317.000000	99.482105 
1316.000000	99.482249 
1315.000000	99.481680 
1314.000000	99.480750 
1313.000000	99.480169 
1312.000000	99.480297 
1311.000000	99.480943 
1310.000000	99.481775 
1309.000000	99.482584 
1308.000000	99.483125 
1307.000000	99.482921 
1306.000000	99.481732 
1305.000000	99.479973 
1304.000000	99.478896 
1303.000000	99.479672 
1302.000000	99.482342 
1301.000000	99.485629 
1300.000000	99.487925 
1299.000000	99.488365 
1298.000000	99.487024 
1297.000000	99.484628 
1296.000000	99.482255 
1295.000000	99.481173 
1294.000000	99.482215 
1293.000000	99.484989 
1292.000000	99.487779 
1291.000000	99.488547 
1290.000000	99.486550 
1289.000000	99.483171 
1288.000000	99.480853 
1287.000000	99.480722 
1286.000000	99.481458 
1285.000000	99.481028 
1284.000000	99.479140 
1283.000000	99.477271 
1282.000000	99.476536 
1281.000000	99.476563 
1280.000000	99.476528 
1279.000000	99.476128 
1278.000000	99.474950 
1277.000000	99.472139 
1276.000000	99.467494 
1275.000000	99.462465 
1274.000000	99.458980 
1273.000000	99.457531 
1272.000000	99.457051 
1271.000000	99.456277 
1270.000000	99.454512 
1269.000000	99.451514 
1268.000000	99.447603 
1267.000000	99.443604 
1266.000000	99.439746 
1265.000000	99.435108 
1264.000000	99.428991 
1263.000000	99.422357 
1262.000000	99.417014 
1261.000000	99.413707 
1260.000000	99.411893 
1259.000000	99.410991 
1258.000000	99.410614 
1257.000000	99.410073 
1256.000000	99.408819 
1255.000000	99.407370 
1254.000000	99.406709 
1253.000000	99.406819 
1252.000000	99.406780 
1251.000000	99.406394 
1250.000000	99.406646 
1249.000000	99.408368 
1248.000000	99.411438 
1247.000000	99.415302 
1246.000000	99.419067 
1245.000000	99.421021 
1244.000000	99.419537 
1243.000000	99.415311 
1242.000000	99.411849 
1241.000000	99.412513 
1240.000000	99.417387 
1239.000000	99.423380 
1238.000000	99.427100 
1237.000000	99.427295 
1236.000000	99.424789 
1235.000000	99.421202 
1234.000000	99.417851 
1233.000000	99.415237 
1232.000000	99.413233 
1231.000000	99.411614 
1230.000000	99.410278 
1229.000000	99.409023 
1228.000000	99.407647 
1227.000000	99.406616 
1226.000000	99.407194 
1225.000000	99.410159 
1224.000000	99.414496 
1223.000000	99.417966 
1222.000000	99.419259 
1221.000000	99.419199 
1220.000000	99.419658 
1219.000000	99.421716 
1218.000000	99.424960 
1217.000000	99.428180 
1216.000000	99.430343 
1215.000000	99.431133 
1214.000000	99.431083 
1213.000000	99.431319 
1212.000000	99.432729 
1211.000000	99.434939 
1210.000000	99.436341 
1209.000000	99.435544 
1208.000000	99.432779 
1207.000000	99.429682 
1206.000000	99.427736 
1205.000000	99.427177 
1204.000000	99.427309 
1203.000000	99.427280 
1202.000000	99.426325 
1201.000000	99.423901 
1200.000000	99.420259 
1199.000000	99.416643 
1198.000000	99.414235 
1197.000000	99.413029 
1196.000000	99.412179 
1195.000000	99.411190 
1194.000000	99.410134 
1193.000000	99.408822 
1192.000000	99.406645 
1191.000000	99.403488 
1190.000000	99.400181 
1189.000000	99.397744 
1188.000000	99.396578 
1187.000000	99.396467 
1186.000000	99.396829 
1185.000000	99.396755 
1184.000000	99.395286 
1183.000000	99.392108 
1182.000000	99.387906 
1181.000000	99.383868 
1180.000000	99.380845 
1179.000000	99.378955 
1178.000000	99.377618 
1177.000000	99.375834 
1176.000000	99.372863 
1175.000000	99.368913 
1174.000000	99.365075 
1173.000000	99.362333 
1172.000000	99.360834 
1171.000000	99.360115 
1170.000000	99.359657 
1169.000000	99.359004 
1168.000000	99.357611 
1167.000000	99.354988 
1166.000000	99.351060 
1165.000000	99.346324 
1164.000000	99.341721 
1163.000000	99.338271 
1162.000000	99.336441 
1161.000000	99.335635 
1160.000000	99.334684 
1159.000000	99.333319 
1158.000000	99.332692 
1157.000000	99.333846 
1156.000000	99.335920 
1155.000000	99.336620 
1154.000000	99.334430 
1153.000000	99.329657 
1152.000000	99.323636 
1151.000000	99.317728 
1150.000000	99.313043 
1149.000000	99.310199 
1148.000000	99.308767 
1147.000000	99.307293 
1146.000000	99.304287 
1145.000000	99.299230 
1144.000000	99.292801 
1143.000000	99.286548 
1142.000000	99.282100 
1141.000000	99.280012 
1140.000000	99.279208 
1139.000000	99.277822 
1138.000000	99.274775 
1137.000000	99.270496 
1136.000000	99.266318 
1135.000000	99.263413 
1134.000000	99.262081 
1133.000000	99.261652 
1132.000000	99.260963 
1131.000000	99.259048 
1130.000000	99.255377 
1129.000000	99.249673 
1128.000000	99.242067 
1127.000000	99.233565 
1126.000000	99.225766 
1125.000000	99.219674 
1124.000000	99.215131 
1123.000000	99.211442 
1122.000000	99.207821 
1121.000000	99.203186 
1120.000000	99.196624 
1119.000000	99.188632 
1118.000000	99.180948 
1117.000000	99.174385 
1116.000000	99.167677 
1115.000000	99.159166 
1114.000000	99.148724 
1113.000000	99.137216 
1112.000000	99.125240 
1111.000000	99.113628 
1110.000000	99.104006 
1109.000000	99.097054 
1108.000000	99.090836 
1107.000000	99.082435 
1106.000000	99.071338 
1105.000000	99.059730 
1104.000000	99.049402 
1103.000000	99.039831 
1102.000000	99.030043 
1101.000000	99.020821 
1100.000000	99.014267 
1099.000000	99.010428 
1098.000000	99.007111 
1097.000000	99.002272 
1096.000000	98.996101 
1095.000000	98.989986 
1094.000000	98.983874 
1093.000000	98.975717 
1092.000000	98.963736 
1091.000000	98.948330 
1090.000000	98.931136 
1089.000000	98.912850 
1088.000000	98.893127 
1087.000000	98.872520 
1086.000000	98.853137 
1085.000000	98.836788 
1084.000000	98.823252 
1083.000000	98.810837 
1082.000000	98.797952 
1081.000000	98.783764 
1080.000000	98.768090 
1079.000000	98.751552 
1078.000000	98.735625 
1077.000000	98.721921 
1076.000000	98.711417 
1075.000000	98.704453 
1074.000000	98.700987 
1073.000000	98.700286 
1072.000000	98.700237 
1071.000000	98.697183 
1070.000000	98.687112 
1069.000000	98.668488 
1068.000000	98.645219 
1067.000000	98.626200 
1066.000000	98.619608 
1065.000000	98.626627 
1064.000000	98.640777 
1063.000000	98.652982 
1062.000000	98.656976 
1061.000000	98.650557 
1060.000000	98.634945 
1059.000000	98.615313 
1058.000000	98.599745 
1057.000000	98.593869 
1056.000000	98.596000 
1055.000000	98.598888 
1054.000000	98.596766 
1053.000000	98.589879 
1052.000000	98.582180 
1051.000000	98.576522 
1050.000000	98.573061 
1049.000000	98.570832 
1048.000000	98.569218 
1047.000000	98.568227 
1046.000000	98.568376 
1045.000000	98.570282 
1044.000000	98.574117 
1043.000000	98.579679 
1042.000000	98.586768 
1041.000000	98.594719 
1040.000000	98.601738 
1039.000000	98.606138 
1038.000000	98.608804 
1037.000000	98.613216 
1036.000000	98.622228 
1035.000000	98.635703 
1034.000000	98.651637 
1033.000000	98.667974 
1032.000000	98.682055 
1031.000000	98.690047 
1030.000000	98.689863 
1029.000000	98.685051 
1028.000000	98.683770 
1027.000000	98.692308 
1026.000000	98.710014 
1025.000000	98.730610 
1024.000000	98.747644 
1023.000000	98.758419 
1022.000000	98.763936 
1021.000000	98.766772 
1020.000000	98.769243 
1019.000000	98.772671 
1018.000000	98.777292 
1017.000000	98.782652 
1016.000000	98.788431 
1015.000000	98.795042 
1014.000000	98.803229 
1013.000000	98.812938 
1012.000000	98.822897 
1011.000000	98.831667 
1010.000000	98.839026 
1009.000000	98.845980 
1008.000000	98.853472 
1007.000000	98.861565 
1006.000000	98.869876 
1005.000000	98.878244 
1004.000000	98.886718 
1003.000000	98.895231 
1002.000000	98.903599 
1001.000000	98.911675 
1000.000000	98.919375 
999.000000	 98.926648 
998.000000	 98.933531 
997.000000	 98.940198 
996.000000	 98.946940 
995.000000	 98.954097 
994.000000	 98.961964 
993.000000	 98.970673 
992.000000	 98.979870 
991.000000	 98.988597 
990.000000	 98.995980 
989.000000	 99.002133 
988.000000	 99.008179 
987.000000	 99.014836 
986.000000	 99.021463 
985.000000	 99.027030 
984.000000	 99.031753 
983.000000	 99.037188 
982.000000	 99.044647 
981.000000	 99.054078 
980.000000	 99.064265 
979.000000	 99.073829 
978.000000	 99.081896 
977.000000	 99.088240 
976.000000	 99.093480 
975.000000	 99.099035 
974.000000	 99.106176 
973.000000	 99.114873 
972.000000	 99.123941 
971.000000	 99.132437 
970.000000	 99.140486 
969.000000	 99.148565 
968.000000	 99.156656 
967.000000	 99.164587 
966.000000	 99.172498 
965.000000	 99.180216 
964.000000	 99.186750 
963.000000	 99.191427 
962.000000	 99.195194 
961.000000	 99.199757 
960.000000	 99.205604 
959.000000	 99.211861 
958.000000	 99.217823 
957.000000	 99.223370 
956.000000	 99.228059 
955.000000	 99.231380 
954.000000	 99.234278 
953.000000	 99.238931 
952.000000	 99.246184 
951.000000	 99.254164 
950.000000	 99.260177 
949.000000	 99.263232 
948.000000	 99.264350 
947.000000	 99.265582 
946.000000	 99.269094 
945.000000	 99.275999 
944.000000	 99.285116 
943.000000	 99.293383 
942.000000	 99.298257 
941.000000	 99.299366 
940.000000	 99.297727 
939.000000	 99.294504 
938.000000	 99.290984 
937.000000	 99.288716 
936.000000	 99.288719 
935.000000	 99.290766 
934.000000	 99.293704 
933.000000	 99.296060 
932.000000	 99.296468 
931.000000	 99.294670 
930.000000	 99.292490 
929.000000	 99.292659 
928.000000	 99.295989 
927.000000	 99.300558 
926.000000	 99.304221 
925.000000	 99.306946 
924.000000	 99.309826 
923.000000	 99.312712 
922.000000	 99.313994 
921.000000	 99.312461 
920.000000	 99.308561 
919.000000	 99.304066 
918.000000	 99.300873 
917.000000	 99.299705 
916.000000	 99.299609 
915.000000	 99.299077 
914.000000	 99.297908 
913.000000	 99.297420 
912.000000	 99.298653 
911.000000	 99.301065 
910.000000	 99.303132 
909.000000	 99.303522 
908.000000	 99.301581 
907.000000	 99.297680 
906.000000	 99.293467 
905.000000	 99.290723 
904.000000	 99.289559 
903.000000	 99.288757 
902.000000	 99.288261 
901.000000	 99.289990 
900.000000	 99.295354 
899.000000	 99.303164 
898.000000	 99.310746 
897.000000	 99.316395 
896.000000	 99.319713 
895.000000	 99.320821 
894.000000	 99.320843 
893.000000	 99.322302 
892.000000	 99.327217 
891.000000	 99.334848 
890.000000	 99.342284 
889.000000	 99.347477 
888.000000	 99.350824 
887.000000	 99.353669 
886.000000	 99.356355 
885.000000	 99.358224 
884.000000	 99.359004 
883.000000	 99.359545 
882.000000	 99.361113 
881.000000	 99.364152 
880.000000	 99.367967 
879.000000	 99.371744 
878.000000	 99.375675 
877.000000	 99.380496 
876.000000	 99.385873 
875.000000	 99.389994 
874.000000	 99.391395 
873.000000	 99.390745 
872.000000	 99.390532 
871.000000	 99.392810 
870.000000	 99.397642 
869.000000	 99.403199 
868.000000	 99.407384 
867.000000	 99.409574 
866.000000	 99.411038 
865.000000	 99.413698 
864.000000	 99.418238 
863.000000	 99.423635 
862.000000	 99.428478 
861.000000	 99.432300 
860.000000	 99.435362 
859.000000	 99.437864 
858.000000	 99.440165 
857.000000	 99.443363 
856.000000	 99.448510 
855.000000	 99.454977 
854.000000	 99.460522 
853.000000	 99.463580 
852.000000	 99.464751 
851.000000	 99.465647 
850.000000	 99.466901 
849.000000	 99.467992 
848.000000	 99.468527 
847.000000	 99.468951 
846.000000	 99.470155 
845.000000	 99.472803 
844.000000	 99.476920 
843.000000	 99.481756 
842.000000	 99.486005 
841.000000	 99.488395 
840.000000	 99.488369 
839.000000	 99.486540 
838.000000	 99.484506 
837.000000	 99.483681 
836.000000	 99.483999 
835.000000	 99.484344 
834.000000	 99.484600 
833.000000	 99.486196 
832.000000	 99.489331 
831.000000	 99.490657 
830.000000	 99.486363 
829.000000	 99.477783 
828.000000	 99.471919 
827.000000	 99.474125 
826.000000	 99.481845 
825.000000	 99.487462 
824.000000	 99.487376 
823.000000	 99.485091 
822.000000	 99.485109 
821.000000	 99.486887 
820.000000	 99.486749 
819.000000	 99.483166 
818.000000	 99.478062 
817.000000	 99.474143 
816.000000	 99.472325 
815.000000	 99.471436 
814.000000	 99.469374 
813.000000	 99.464685 
812.000000	 99.457894 
811.000000	 99.451469 
810.000000	 99.447856 
809.000000	 99.447287 
808.000000	 99.447737 
807.000000	 99.446681 
806.000000	 99.442465 
805.000000	 99.434335 
804.000000	 99.422614 
803.000000	 99.409624 
802.000000	 99.399371 
801.000000	 99.394782 
800.000000	 99.395170 
799.000000	 99.396948 
798.000000	 99.396977 
797.000000	 99.394912 
796.000000	 99.392324 
795.000000	 99.390738 
794.000000	 99.391158 
793.000000	 99.394431 
792.000000	 99.400546 
791.000000	 99.407387 
790.000000	 99.411372 
789.000000	 99.410288 
788.000000	 99.405223 
787.000000	 99.399541 
786.000000	 99.396027 
785.000000	 99.395251 
784.000000	 99.396296 
783.000000	 99.398243 
782.000000	 99.400863 
781.000000	 99.403993 
780.000000	 99.406754 
779.000000	 99.407724 
778.000000	 99.406179 
777.000000	 99.403458 
776.000000	 99.402589 
775.000000	 99.405720 
774.000000	 99.411952 
773.000000	 99.418110 
772.000000	 99.421909 
771.000000	 99.423722 
770.000000	 99.424977 
769.000000	 99.425880 
768.000000	 99.425687 
767.000000	 99.424757 
766.000000	 99.424927 
765.000000	 99.427381 
764.000000	 99.431160 
763.000000	 99.434233 
762.000000	 99.435655 
761.000000	 99.436146 
760.000000	 99.436965 
759.000000	 99.438729 
758.000000	 99.441231 
757.000000	 99.443892 
756.000000	 99.446243 
755.000000	 99.448207 
754.000000	 99.450076 
753.000000	 99.452181 
752.000000	 99.454585 
751.000000	 99.457068 
750.000000	 99.459318 
749.000000	 99.461087 
748.000000	 99.462222 
747.000000	 99.462797 
746.000000	 99.463322 
745.000000	 99.464479 
744.000000	 99.466422 
743.000000	 99.468482 
742.000000	 99.469798 
741.000000	 99.470288 
740.000000	 99.470725 
739.000000	 99.471793 
738.000000	 99.473283 
737.000000	 99.474463 
736.000000	 99.474987 
735.000000	 99.475187 
734.000000	 99.475724 
733.000000	 99.477229 
732.000000	 99.480073 
731.000000	 99.483750 
730.000000	 99.486677 
729.000000	 99.487413 
728.000000	 99.486043 
727.000000	 99.483951 
726.000000	 99.482266 
725.000000	 99.481153 
724.000000	 99.480710 
723.000000	 99.481612 
722.000000	 99.484239 
721.000000	 99.487667 
720.000000	 99.490096 
719.000000	 99.490307 
718.000000	 99.488454 
717.000000	 99.485402 
716.000000	 99.482475 
715.000000	 99.481091 
714.000000	 99.481593 
713.000000	 99.482732 
712.000000	 99.482900 
711.000000	 99.482024 
710.000000	 99.481461 
709.000000	 99.482175 
708.000000	 99.483628 
707.000000	 99.484747 
706.000000	 99.485238 
705.000000	 99.485414 
704.000000	 99.485328 
703.000000	 99.484712 
702.000000	 99.483574 
701.000000	 99.482424 
700.000000	 99.481851 
699.000000	 99.481841 
698.000000	 99.481716 
697.000000	 99.480636 
696.000000	 99.478127 
695.000000	 99.474517 
694.000000	 99.471033 
693.000000	 99.469489 
692.000000	 99.471324 
691.000000	 99.476108 
690.000000	 99.481341 
689.000000	 99.484408 
688.000000	 99.484930 
687.000000	 99.484776 
686.000000	 99.485525 
685.000000	 99.486843 
684.000000	 99.487631 
683.000000	 99.487488 
682.000000	 99.486749 
681.000000	 99.486127 
680.000000	 99.486688 
679.000000	 99.488821 
678.000000	 99.490635 
677.000000	 99.489359 
676.000000	 99.484905 
675.000000	 99.480264 
674.000000	 99.478628 
673.000000	 99.480440 
672.000000	 99.483141 
671.000000	 99.483614 
670.000000	 99.480349 
669.000000	 99.474052 
668.000000	 99.467873 
667.000000	 99.465340 
666.000000	 99.468261 
665.000000	 99.476115 
664.000000	 99.485337 
663.000000	 99.491471 
662.000000	 99.492497 
661.000000	 99.490956 
660.000000	 99.491199 
659.000000	 99.493474 
658.000000	 99.493548 
657.000000	 99.488342 
656.000000	 99.479037 
655.000000	 99.469509 
654.000000	 99.463568 
653.000000	 99.461687 
652.000000	 99.460076 
651.000000	 99.455309 
650.000000	 99.449926 

