4000.000000	99.918298 
3999.000000	99.917930 
3998.000000	99.917021 
3997.000000	99.915795 
3996.000000	99.914706 
3995.000000	99.914157 
3994.000000	99.914253 
3993.000000	99.914773 
3992.000000	99.915331 
3991.000000	99.915639 
3990.000000	99.915596 
3989.000000	99.915261 
3988.000000	99.914812 
3987.000000	99.914446 
3986.000000	99.914230 
3985.000000	99.914031 
3984.000000	99.913592 
3983.000000	99.912753 
3982.000000	99.911621 
3981.000000	99.910517 
3980.000000	99.909677 
3979.000000	99.909080 
3978.000000	99.908638 
3977.000000	99.908508 
3976.000000	99.909054 
3975.000000	99.910377 
3974.000000	99.911935 
3973.000000	99.912761 
3972.000000	99.912178 
3971.000000	99.910249 
3970.000000	99.907687 
3969.000000	99.905398 
3968.000000	99.903959 
3967.000000	99.903449 
3966.000000	99.903603 
3965.000000	99.904051 
3964.000000	99.904441 
3963.000000	99.904425 
3962.000000	99.903704 
3961.000000	99.902219 
3960.000000	99.900372 
3959.000000	99.898902 
3958.000000	99.898341 
3957.000000	99.898629 
3956.000000	99.899316 
3955.000000	99.900158 
3954.000000	99.901409 
3953.000000	99.903385 
3952.000000	99.905810 
3951.000000	99.907739 
3950.000000	99.908351 
3949.000000	99.907771 
3948.000000	99.906997 
3947.000000	99.906883 
3946.000000	99.907388 
3945.000000	99.907899 
3944.000000	99.908005 
3943.000000	99.907792 
3942.000000	99.907537 
3941.000000	99.907315 
3940.000000	99.907011 
3939.000000	99.906589 
3938.000000	99.906188 
3937.000000	99.905992 
3936.000000	99.906050 
3935.000000	99.906258 
3934.000000	99.906439 
3933.000000	99.906493 
3932.000000	99.906538 
3931.000000	99.906880 
3930.000000	99.907754 
3929.000000	99.909025 
3928.000000	99.910138 
3927.000000	99.910501 
3926.000000	99.909974 
3925.000000	99.908959 
3924.000000	99.908033 
3923.000000	99.907516 
3922.000000	99.907380 
3921.000000	99.907426 
3920.000000	99.907457 
3919.000000	99.907431 
3918.000000	99.907545 
3917.000000	99.907992 
3916.000000	99.908681 
3915.000000	99.909300 
3914.000000	99.909596 
3913.000000	99.909560 
3912.000000	99.909346 
3911.000000	99.909152 
3910.000000	99.909106 
3909.000000	99.909210 
3908.000000	99.909367 
3907.000000	99.909466 
3906.000000	99.909466 
3905.000000	99.909426 
3904.000000	99.909425 
3903.000000	99.909485 
3902.000000	99.909576 
3901.000000	99.909688 
3900.000000	99.909835 
3899.000000	99.909987 
3898.000000	99.910080 
3897.000000	99.910084 
3896.000000	99.910041 
3895.000000	99.910005 
3894.000000	99.909984 
3893.000000	99.909969 
3892.000000	99.909995 
3891.000000	99.910120 
3890.000000	99.910319 
3889.000000	99.910463 
3888.000000	99.910462 
3887.000000	99.910361 
3886.000000	99.910303 
3885.000000	99.910328 
3884.000000	99.910319 
3883.000000	99.910185 
3882.000000	99.910025 
3881.000000	99.910067 
3880.000000	99.910398 
3879.000000	99.910834 
3878.000000	99.911114 
3877.000000	99.911181 
3876.000000	99.911201 
3875.000000	99.911387 
3874.000000	99.911771 
3873.000000	99.912159 
3872.000000	99.912336 
3871.000000	99.912322 
3870.000000	99.912364 
3869.000000	99.912590 
3868.000000	99.912830 
3867.000000	99.912902 
3866.000000	99.912893 
3865.000000	99.913003 
3864.000000	99.913276 
3863.000000	99.913617 
3862.000000	99.913955 
3861.000000	99.914276 
3860.000000	99.914598 
3859.000000	99.914991 
3858.000000	99.915524 
3857.000000	99.916123 
3856.000000	99.916539 
3855.000000	99.916639 
3854.000000	99.916667 
3853.000000	99.916837 
3852.000000	99.916914 
3851.000000	99.916676 
3850.000000	99.916263 
3849.000000	99.915907 
3848.000000	99.915692 
3847.000000	99.915603 
3846.000000	99.915670 
3845.000000	99.915961 
3844.000000	99.916524 
3843.000000	99.917233 
3842.000000	99.917742 
3841.000000	99.917733 
3840.000000	99.917222 
3839.000000	99.916624 
3838.000000	99.916425 
3837.000000	99.916716 
3836.000000	99.917130 
3835.000000	99.917192 
3834.000000	99.916706 
3833.000000	99.915872 
3832.000000	99.915138 
3831.000000	99.914787 
3830.000000	99.914720 
3829.000000	99.914655 
3828.000000	99.914564 
3827.000000	99.914782 
3826.000000	99.915535 
3825.000000	99.916509 
3824.000000	99.917055 
3823.000000	99.916823 
3822.000000	99.916172 
3821.000000	99.915852 
3820.000000	99.916028 
3819.000000	99.916210 
3818.000000	99.916068 
3817.000000	99.915870 
3816.000000	99.915923 
3815.000000	99.915854 
3814.000000	99.915184 
3813.000000	99.914271 
3812.000000	99.913972 
3811.000000	99.914573 
3810.000000	99.915382 
3809.000000	99.915462 
3808.000000	99.914875 
3807.000000	99.914697 
3806.000000	99.915457 
3805.000000	99.916328 
3804.000000	99.916265 
3803.000000	99.915206 
3802.000000	99.914065 
3801.000000	99.913295 
3800.000000	99.912170 
3799.000000	99.910251 
3798.000000	99.908303 
3797.000000	99.907456 
3796.000000	99.907866 
3795.000000	99.908520 
3794.000000	99.908386 
3793.000000	99.907405 
3792.000000	99.906167 
3791.000000	99.905183 
3790.000000	99.904537 
3789.000000	99.903919 
3788.000000	99.902846 
3787.000000	99.901143 
3786.000000	99.899444 
3785.000000	99.898905 
3784.000000	99.900016 
3783.000000	99.901995 
3782.000000	99.903687 
3781.000000	99.904797 
3780.000000	99.905812 
3779.000000	99.906782 
3778.000000	99.906903 
3777.000000	99.905684 
3776.000000	99.904030 
3775.000000	99.903486 
3774.000000	99.904497 
3773.000000	99.905962 
3772.000000	99.906713 
3771.000000	99.906983 
3770.000000	99.907821 
3769.000000	99.909368 
3768.000000	99.910573 
3767.000000	99.910650 
3766.000000	99.910060 
3765.000000	99.909751 
3764.000000	99.909843 
3763.000000	99.909643 
3762.000000	99.908801 
3761.000000	99.907667 
3760.000000	99.906759 
3759.000000	99.906500 
3758.000000	99.907306 
3757.000000	99.909222 
3756.000000	99.911634 
3755.000000	99.913863 
3754.000000	99.915816 
3753.000000	99.917723 
3752.000000	99.919285 
3751.000000	99.919938 
3750.000000	99.919931 
3749.000000	99.919696 
3748.000000	99.918619 
3747.000000	99.915861 
3746.000000	99.912099 
3745.000000	99.909793 
3744.000000	99.909905 
3743.000000	99.910299 
3742.000000	99.909534 
3741.000000	99.908775 
3740.000000	99.909441 
3739.000000	99.911292 
3738.000000	99.912800 
3737.000000	99.912856 
3736.000000	99.911536 
3735.000000	99.909532 
3734.000000	99.907526 
3733.000000	99.906124 
3732.000000	99.905595 
3731.000000	99.905446 
3730.000000	99.904816 
3729.000000	99.903412 
3728.000000	99.901829 
3727.000000	99.900793 
3726.000000	99.900136 
3725.000000	99.899075 
3724.000000	99.897517 
3723.000000	99.896297 
3722.000000	99.896092 
3721.000000	99.896624 
3720.000000	99.897047 
3719.000000	99.896942 
3718.000000	99.896615 
3717.000000	99.896406 
3716.000000	99.896131 
3715.000000	99.895381 
3714.000000	99.894048 
3713.000000	99.892384 
3712.000000	99.890657 
3711.000000	99.888910 
3710.000000	99.887155 
3709.000000	99.885585 
3708.000000	99.884486 
3707.000000	99.883960 
3706.000000	99.883807 
3705.000000	99.883654 
3704.000000	99.883251 
3703.000000	99.882649 
3702.000000	99.882099 
3701.000000	99.881704 
3700.000000	99.881203 
3699.000000	99.880265 
3698.000000	99.878937 
3697.000000	99.877649 
3696.000000	99.876756 
3695.000000	99.876280 
3694.000000	99.876104 
3693.000000	99.876127 
3692.000000	99.876157 
3691.000000	99.875803 
3690.000000	99.874776 
3689.000000	99.873364 
3688.000000	99.872263 
3687.000000	99.871748 
3686.000000	99.871548 
3685.000000	99.871342 
3684.000000	99.870954 
3683.000000	99.870275 
3682.000000	99.869323 
3681.000000	99.868518 
3680.000000	99.868404 
3679.000000	99.868863 
3678.000000	99.868948 
3677.000000	99.867946 
3676.000000	99.866439 
3675.000000	99.865518 
3674.000000	99.865179 
3673.000000	99.864695 
3672.000000	99.864053 
3671.000000	99.864071 
3670.000000	99.865112 
3669.000000	99.866378 
3668.000000	99.867117 
3667.000000	99.867563 
3666.000000	99.868226 
3665.000000	99.869027 
3664.000000	99.869264 
3663.000000	99.868352 
3662.000000	99.866508 
3661.000000	99.864724 
3660.000000	99.863940 
3659.000000	99.864441 
3658.000000	99.865973 
3657.000000	99.868201 
3656.000000	99.870756 
3655.000000	99.873011 
3654.000000	99.874340 
3653.000000	99.874606 
3652.000000	99.874323 
3651.000000	99.874308 
3650.000000	99.874908 
3649.000000	99.875678 
3648.000000	99.876058 
3647.000000	99.876010 
3646.000000	99.875921 
3645.000000	99.876071 
3644.000000	99.876379 
3643.000000	99.876492 
3642.000000	99.876021 
3641.000000	99.874872 
3640.000000	99.873473 
3639.000000	99.872515 
3638.000000	99.872269 
3637.000000	99.872423 
3636.000000	99.872742 
3635.000000	99.873589 
3634.000000	99.875305 
3633.000000	99.877353 
3632.000000	99.878697 
3631.000000	99.878964 
3630.000000	99.878988 
3629.000000	99.879661 
3628.000000	99.880357 
3627.000000	99.879875 
3626.000000	99.878239 
3625.000000	99.876569 
3624.000000	99.875847 
3623.000000	99.876206 
3622.000000	99.877208 
3621.000000	99.878443 
3620.000000	99.879779 
3619.000000	99.881179 
3618.000000	99.882485 
3617.000000	99.883377 
3616.000000	99.883592 
3615.000000	99.883182 
3614.000000	99.882535 
3613.000000	99.882166 
3612.000000	99.882443 
3611.000000	99.883497 
3610.000000	99.885225 
3609.000000	99.887172 
3608.000000	99.888555 
3607.000000	99.888822 
3606.000000	99.888090 
3605.000000	99.886901 
3604.000000	99.885662 
3603.000000	99.884471 
3602.000000	99.883456 
3601.000000	99.883054 
3600.000000	99.883648 
3599.000000	99.885129 
3598.000000	99.886875 
3597.000000	99.888179 
3596.000000	99.888778 
3595.000000	99.889010 
3594.000000	99.889315 
3593.000000	99.889647 
3592.000000	99.889540 
3591.000000	99.888672 
3590.000000	99.887312 
3589.000000	99.886165 
3588.000000	99.885743 
3587.000000	99.885989 
3586.000000	99.886547 
3585.000000	99.887156 
3584.000000	99.887667 
3583.000000	99.887957 
3582.000000	99.887998 
3581.000000	99.887890 
3580.000000	99.887633 
3579.000000	99.886918 
3578.000000	99.885372 
3577.000000	99.883015 
3576.000000	99.880386 
3575.000000	99.878224 
3574.000000	99.877055 
3573.000000	99.877075 
3572.000000	99.878236 
3571.000000	99.880283 
3570.000000	99.882773 
3569.000000	99.885167 
3568.000000	99.886894 
3567.000000	99.887513 
3566.000000	99.887012 
3565.000000	99.885869 
3564.000000	99.884804 
3563.000000	99.884420 
3562.000000	99.884872 
3561.000000	99.885751 
3560.000000	99.886345 
3559.000000	99.886160 
3558.000000	99.885297 
3557.000000	99.884384 
3556.000000	99.884119 
3555.000000	99.884811 
3554.000000	99.886211 
3553.000000	99.887598 
3552.000000	99.888134 
3551.000000	99.887348 
3550.000000	99.885402 
3549.000000	99.883025 
3548.000000	99.881110 
3547.000000	99.880195 
3546.000000	99.880274 
3545.000000	99.880969 
3544.000000	99.881839 
3543.000000	99.882596 
3542.000000	99.883146 
3541.000000	99.883538 
3540.000000	99.883883 
3539.000000	99.884246 
3538.000000	99.884522 
3537.000000	99.884417 
3536.000000	99.883656 
3535.000000	99.882299 
3534.000000	99.880776 
3533.000000	99.879520 
3532.000000	99.878559 
3531.000000	99.877567 
3530.000000	99.876328 
3529.000000	99.875031 
3528.000000	99.874032 
3527.000000	99.873453 
3526.000000	99.873290 
3525.000000	99.873752 
3524.000000	99.875098 
3523.000000	99.877081 
3522.000000	99.878928 
3521.000000	99.880028 
3520.000000	99.880452 
3519.000000	99.880730 
3518.000000	99.881207 
3517.000000	99.881706 
3516.000000	99.881794 
3515.000000	99.881286 
3514.000000	99.880433 
3513.000000	99.879684 
3512.000000	99.879304 
3511.000000	99.879162 
3510.000000	99.878863 
3509.000000	99.878126 
3508.000000	99.876958 
3507.000000	99.875529 
3506.000000	99.874049 
3505.000000	99.872806 
3504.000000	99.872161 
3503.000000	99.872353 
3502.000000	99.873326 
3501.000000	99.874721 
3500.000000	99.875985 
3499.000000	99.876567 
3498.000000	99.876190 
3497.000000	99.875069 
3496.000000	99.873768 
3495.000000	99.872691 
3494.000000	99.871758 
3493.000000	99.870692 
3492.000000	99.869512 
3491.000000	99.868577 
3490.000000	99.868164 
3489.000000	99.868175 
3488.000000	99.868314 
3487.000000	99.868419 
3486.000000	99.868569 
3485.000000	99.868896 
3484.000000	99.869373 
3483.000000	99.869751 
3482.000000	99.869696 
3481.000000	99.869046 
3480.000000	99.867976 
3479.000000	99.866930 
3478.000000	99.866345 
3477.000000	99.866411 
3476.000000	99.867050 
3475.000000	99.867965 
3474.000000	99.868711 
3473.000000	99.868918 
3472.000000	99.868504 
3471.000000	99.867730 
3470.000000	99.866999 
3469.000000	99.866510 
3468.000000	99.866177 
3467.000000	99.865841 
3466.000000	99.865466 
3465.000000	99.865154 
3464.000000	99.865002 
3463.000000	99.864979 
3462.000000	99.864945 
3461.000000	99.864789 
3460.000000	99.864566 
3459.000000	99.864476 
3458.000000	99.864661 
3457.000000	99.865020 
3456.000000	99.865251 
3455.000000	99.865138 
3454.000000	99.864771 
3453.000000	99.864463 
3452.000000	99.864429 
3451.000000	99.864584 
3450.000000	99.864701 
3449.000000	99.864702 
3448.000000	99.864700 
3447.000000	99.864691 
3446.000000	99.864392 
3445.000000	99.863588 
3444.000000	99.862604 
3443.000000	99.862173 
3442.000000	99.862716 
3441.000000	99.863892 
3440.000000	99.864921 
3439.000000	99.865360 
3438.000000	99.865401 
3437.000000	99.865479 
3436.000000	99.865782 
3435.000000	99.866171 
3434.000000	99.866415 
3433.000000	99.866424 
3432.000000	99.866290 
3431.000000	99.866209 
3430.000000	99.866388 
3429.000000	99.866994 
3428.000000	99.868091 
3427.000000	99.869527 
3426.000000	99.870849 
3425.000000	99.871467 
3424.000000	99.871053 
3423.000000	99.869887 
3422.000000	99.868782 
3421.000000	99.868438 
3420.000000	99.868835 
3419.000000	99.869322 
3418.000000	99.869319 
3417.000000	99.868838 
3416.000000	99.868207 
3415.000000	99.867445 
3414.000000	99.866186 
3413.000000	99.864329 
3412.000000	99.862500 
3411.000000	99.861568 
3410.000000	99.861755 
3409.000000	99.862519 
3408.000000	99.863249 
3407.000000	99.863851 
3406.000000	99.864511 
3405.000000	99.865162 
3404.000000	99.865474 
3403.000000	99.865325 
3402.000000	99.865036 
3401.000000	99.865059 
3400.000000	99.865492 
3399.000000	99.865978 
3398.000000	99.866008 
3397.000000	99.865324 
3396.000000	99.864074 
3395.000000	99.862710 
3394.000000	99.861705 
3393.000000	99.861325 
3392.000000	99.861562 
3391.000000	99.862195 
3390.000000	99.862896 
3389.000000	99.863370 
3388.000000	99.863470 
3387.000000	99.863247 
3386.000000	99.862936 
3385.000000	99.862849 
3384.000000	99.863176 
3383.000000	99.863830 
3382.000000	99.864444 
3381.000000	99.864642 
3380.000000	99.864339 
3379.000000	99.863766 
3378.000000	99.863219 
3377.000000	99.862807 
3376.000000	99.862520 
3375.000000	99.862433 
3374.000000	99.862650 
3373.000000	99.863064 
3372.000000	99.863338 
3371.000000	99.863269 
3370.000000	99.863080 
3369.000000	99.863222 
3368.000000	99.863906 
3367.000000	99.864889 
3366.000000	99.865693 
3365.000000	99.866018 
3364.000000	99.865923 
3363.000000	99.865683 
3362.000000	99.865500 
3361.000000	99.865343 
3360.000000	99.865074 
3359.000000	99.864690 
3358.000000	99.864380 
3357.000000	99.864299 
3356.000000	99.864326 
3355.000000	99.864158 
3354.000000	99.863698 
3353.000000	99.863253 
3352.000000	99.863221 
3351.000000	99.863595 
3350.000000	99.863898 
3349.000000	99.863680 
3348.000000	99.863019 
3347.000000	99.862422 
3346.000000	99.862273 
3345.000000	99.862501 
3344.000000	99.862778 
3343.000000	99.862929 
3342.000000	99.863051 
3341.000000	99.863289 
3340.000000	99.863628 
3339.000000	99.863956 
3338.000000	99.864223 
3337.000000	99.864541 
3336.000000	99.865106 
3335.000000	99.865963 
3334.000000	99.866847 
3333.000000	99.867371 
3332.000000	99.867416 
3331.000000	99.867220 
3330.000000	99.867059 
3329.000000	99.866928 
3328.000000	99.866628 
3327.000000	99.866074 
3326.000000	99.865391 
3325.000000	99.864782 
3324.000000	99.864398 
3323.000000	99.864331 
3322.000000	99.864623 
3321.000000	99.865283 
3320.000000	99.866313 
3319.000000	99.867583 
3318.000000	99.868675 
3317.000000	99.869057 
3316.000000	99.868639 
3315.000000	99.868080 
3314.000000	99.868267 
3313.000000	99.869365 
3312.000000	99.870604 
3311.000000	99.871103 
3310.000000	99.870771 
3309.000000	99.870275 
3308.000000	99.870272 
3307.000000	99.870808 
3306.000000	99.871439 
3305.000000	99.871719 
3304.000000	99.871556 
3303.000000	99.871245 
3302.000000	99.871173 
3301.000000	99.871352 
3300.000000	99.871213 
3299.000000	99.870060 
3298.000000	99.867797 
3297.000000	99.865243 
3296.000000	99.863548 
3295.000000	99.863251 
3294.000000	99.864040 
3293.000000	99.865215 
3292.000000	99.866331 
3291.000000	99.867372 
3290.000000	99.868438 
3289.000000	99.869459 
3288.000000	99.870172 
3287.000000	99.870329 
3286.000000	99.869970 
3285.000000	99.869544 
3284.000000	99.869617 
3283.000000	99.870331 
3282.000000	99.871192 
3281.000000	99.871501 
3280.000000	99.870950 
3279.000000	99.869751 
3278.000000	99.868356 
3277.000000	99.867234 
3276.000000	99.866754 
3275.000000	99.866942 
3274.000000	99.867292 
3273.000000	99.867095 
3272.000000	99.866144 
3271.000000	99.864915 
3270.000000	99.863997 
3269.000000	99.863485 
3268.000000	99.863150 
3267.000000	99.862923 
3266.000000	99.862943 
3265.000000	99.863196 
3264.000000	99.863406 
3263.000000	99.863401 
3262.000000	99.863338 
3261.000000	99.863449 
3260.000000	99.863723 
3259.000000	99.863952 
3258.000000	99.864020 
3257.000000	99.864013 
3256.000000	99.864012 
3255.000000	99.863927 
3254.000000	99.863622 
3253.000000	99.863133 
3252.000000	99.862679 
3251.000000	99.862432 
3250.000000	99.862359 
3249.000000	99.862324 
3248.000000	99.862259 
3247.000000	99.862192 
3246.000000	99.862119 
3245.000000	99.861941 
3244.000000	99.861559 
3243.000000	99.860986 
3242.000000	99.860346 
3241.000000	99.859813 
3240.000000	99.859526 
3239.000000	99.859536 
3238.000000	99.859802 
3237.000000	99.860206 
3236.000000	99.860581 
3235.000000	99.860753 
3234.000000	99.860618 
3233.000000	99.860207 
3232.000000	99.859701 
3231.000000	99.859310 
3230.000000	99.859114 
3229.000000	99.859069 
3228.000000	99.859111 
3227.000000	99.859217 
3226.000000	99.859351 
3225.000000	99.859445 
3224.000000	99.859459 
3223.000000	99.859419 
3222.000000	99.859362 
3221.000000	99.859287 
3220.000000	99.859192 
3219.000000	99.859128 
3218.000000	99.859132 
3217.000000	99.859153 
3216.000000	99.859100 
3215.000000	99.858949 
3214.000000	99.858775 
3213.000000	99.858660 
3212.000000	99.858609 
3211.000000	99.858562 
3210.000000	99.858459 
3209.000000	99.858292 
3208.000000	99.858100 
3207.000000	99.857945 
3206.000000	99.857859 
3205.000000	99.857829 
3204.000000	99.857823 
3203.000000	99.857804 
3202.000000	99.857758 
3201.000000	99.857693 
3200.000000	99.857628 
3199.000000	99.857575 
3198.000000	99.857530 
3197.000000	99.857483 
3196.000000	99.857421 
3195.000000	99.857329 
3194.000000	99.857199 
3193.000000	99.857037 
3192.000000	99.856866 
3191.000000	99.856709 
3190.000000	99.856568 
3189.000000	99.856430 
3188.000000	99.856294 
3187.000000	99.856177 
3186.000000	99.856083 
3185.000000	99.856015 
3184.000000	99.855978 
3183.000000	99.855971 
3182.000000	99.855939 
3181.000000	99.855802 
3180.000000	99.855531 
3179.000000	99.855184 
3178.000000	99.854880 
3177.000000	99.854689 
3176.000000	99.854613 
3175.000000	99.854610 
3174.000000	99.854624 
3173.000000	99.854591 
3172.000000	99.854463 
3171.000000	99.854274 
3170.000000	99.854122 
3169.000000	99.854029 
3168.000000	99.853862 
3167.000000	99.853503 
3166.000000	99.853039 
3165.000000	99.852714 
3164.000000	99.852673 
3163.000000	99.852821 
3162.000000	99.852887 
3161.000000	99.852619 
3160.000000	99.851986 
3159.000000	99.851227 
3158.000000	99.850645 
3157.000000	99.850311 
3156.000000	99.850054 
3155.000000	99.849709 
3154.000000	99.849256 
3153.000000	99.848693 
3152.000000	99.847965 
3151.000000	99.847150 
3150.000000	99.846529 
3149.000000	99.846301 
3148.000000	99.846352 
3147.000000	99.846461 
3146.000000	99.846625 
3145.000000	99.847007 
3144.000000	99.847635 
3143.000000	99.848249 
3142.000000	99.848480 
3141.000000	99.848123 
3140.000000	99.847314 
3139.000000	99.846505 
3138.000000	99.846142 
3137.000000	99.846236 
3136.000000	99.846345 
3135.000000	99.846034 
3134.000000	99.845235 
3133.000000	99.844166 
3132.000000	99.843048 
3131.000000	99.842069 
3130.000000	99.841487 
3129.000000	99.841552 
3128.000000	99.842292 
3127.000000	99.843477 
3126.000000	99.844781 
3125.000000	99.845956 
3124.000000	99.846856 
3123.000000	99.847338 
3122.000000	99.847258 
3121.000000	99.846644 
3120.000000	99.845821 
3119.000000	99.845274 
3118.000000	99.845267 
3117.000000	99.845660 
3116.000000	99.846084 
3115.000000	99.846295 
3114.000000	99.846325 
3113.000000	99.846365 
3112.000000	99.846582 
3111.000000	99.847029 
3110.000000	99.847644 
3109.000000	99.848271 
3108.000000	99.848706 
3107.000000	99.848786 
3106.000000	99.848524 
3105.000000	99.848212 
3104.000000	99.848311 
3103.000000	99.849056 
3102.000000	99.850159 
3101.000000	99.850970 
3100.000000	99.851135 
3099.000000	99.850869 
3098.000000	99.850543 
3097.000000	99.850194 
3096.000000	99.849708 
3095.000000	99.849308 
3094.000000	99.849456 
3093.000000	99.850255 
3092.000000	99.851187 
3091.000000	99.851543 
3090.000000	99.851064 
3089.000000	99.850013 
3088.000000	99.848871 
3087.000000	99.847950 
3086.000000	99.847256 
3085.000000	99.846654 
3084.000000	99.846163 
3083.000000	99.846057 
3082.000000	99.846529 
3081.000000	99.847329 
3080.000000	99.847921 
3079.000000	99.848054 
3078.000000	99.847979 
3077.000000	99.848052 
3076.000000	99.848317 
3075.000000	99.848558 
3074.000000	99.848578 
3073.000000	99.848280 
3072.000000	99.847670 
3071.000000	99.846958 
3070.000000	99.846491 
3069.000000	99.846398 
3068.000000	99.846414 
3067.000000	99.846221 
3066.000000	99.845848 
3065.000000	99.845510 
3064.000000	99.845170 
3063.000000	99.844505 
3062.000000	99.843288 
3061.000000	99.841590 
3060.000000	99.839744 
3059.000000	99.838275 
3058.000000	99.837734 
3057.000000	99.838234 
3056.000000	99.839093 
3055.000000	99.839264 
3054.000000	99.838292 
3053.000000	99.836706 
3052.000000	99.835445 
3051.000000	99.834899 
3050.000000	99.834545 
3049.000000	99.833485 
3048.000000	99.831416 
3047.000000	99.829098 
3046.000000	99.827704 
3045.000000	99.827607 
3044.000000	99.827994 
3043.000000	99.827830 
3042.000000	99.827100 
3041.000000	99.826760 
3040.000000	99.827452 
3039.000000	99.828552 
3038.000000	99.828690 
3037.000000	99.827091 
3036.000000	99.824262 
3035.000000	99.821446 
3034.000000	99.819470 
3033.000000	99.818207 
3032.000000	99.817076 
3031.000000	99.815806 
3030.000000	99.814564 
3029.000000	99.813512 
3028.000000	99.812480 
3027.000000	99.811105 
3026.000000	99.809170 
3025.000000	99.806823 
3024.000000	99.804517 
3023.000000	99.802566 
3022.000000	99.800588 
3021.000000	99.797636 
3020.000000	99.793232 
3019.000000	99.788157 
3018.000000	99.783867 
3017.000000	99.781025 
3016.000000	99.779063 
3015.000000	99.777286 
3014.000000	99.775857 
3013.000000	99.775255 
3012.000000	99.775039 
3011.000000	99.773760 
3010.000000	99.770371 
3009.000000	99.765352 
3008.000000	99.760423 
3007.000000	99.756982 
3006.000000	99.754934 
3005.000000	99.753108 
3004.000000	99.750664 
3003.000000	99.747926 
3002.000000	99.745748 
3001.000000	99.744396 
3000.000000	99.743314 
2999.000000	99.741771 
2998.000000	99.739376 
2997.000000	99.736061 
2996.000000	99.732023 
2995.000000	99.727835 
2994.000000	99.724214 
2993.000000	99.721419 
2992.000000	99.719020 
2991.000000	99.716432 
2990.000000	99.713512 
2989.000000	99.710514 
2988.000000	99.707693 
2987.000000	99.705309 
2986.000000	99.703811 
2985.000000	99.703514 
2984.000000	99.703996 
2983.000000	99.704109 
2982.000000	99.702831 
2981.000000	99.700141 
2980.000000	99.697165 
2979.000000	99.695401 
2978.000000	99.695410 
2977.000000	99.696000 
2976.000000	99.694999 
2975.000000	99.691294 
2974.000000	99.686037 
2973.000000	99.681609 
2972.000000	99.679427 
2971.000000	99.678995 
2970.000000	99.678800 
2969.000000	99.677716 
2968.000000	99.675588 
2967.000000	99.672974 
2966.000000	99.670646 
2965.000000	99.669291 
2964.000000	99.669310 
2963.000000	99.670491 
2962.000000	99.671752 
2961.000000	99.671658 
2960.000000	99.669767 
2959.000000	99.667401 
2958.000000	99.666503 
2957.000000	99.667733 
2956.000000	99.670208 
2955.000000	99.672977 
2954.000000	99.675858 
2953.000000	99.678588 
2952.000000	99.680173 
2951.000000	99.679805 
2950.000000	99.677905 
2949.000000	99.675625 
2948.000000	99.673638 
2947.000000	99.671820 
2946.000000	99.669689 
2945.000000	99.666654 
2944.000000	99.662244 
2943.000000	99.656704 
2942.000000	99.651068 
2941.000000	99.646119 
2940.000000	99.641501 
2939.000000	99.636262 
2938.000000	99.629875 
2937.000000	99.622240 
2936.000000	99.613159 
2935.000000	99.602681 
2934.000000	99.591836 
2933.000000	99.582101 
2932.000000	99.573778 
2931.000000	99.565437 
2930.000000	99.555394 
2929.000000	99.543583 
2928.000000	99.531762 
2927.000000	99.521977 
2926.000000	99.515096 
2925.000000	99.510824 
2924.000000	99.508828 
2923.000000	99.509290 
2922.000000	99.512204 
2921.000000	99.516742 
2920.000000	99.522057 
2919.000000	99.528478 
2918.000000	99.537060 
2917.000000	99.547835 
2916.000000	99.559273 
2915.000000	99.569696 
2914.000000	99.578574 
2913.000000	99.586160 
2912.000000	99.592744 
2911.000000	99.598933 
2910.000000	99.606009 
2909.000000	99.615007 
2908.000000	99.625391 
2907.000000	99.635128 
2906.000000	99.642020 
2905.000000	99.644781 
2904.000000	99.643469 
2903.000000	99.639831 
2902.000000	99.637250 
2901.000000	99.639085 
2900.000000	99.646288 
2899.000000	99.656574 
2898.000000	99.666072 
2897.000000	99.671991 
2896.000000	99.674015 
2895.000000	99.673960 
2894.000000	99.674466 
2893.000000	99.677379 
2892.000000	99.682556 
2891.000000	99.688011 
2890.000000	99.691676 
2889.000000	99.693342 
2888.000000	99.694783 
2887.000000	99.697849 
2886.000000	99.702626 
2885.000000	99.707554 
2884.000000	99.710984 
2883.000000	99.712230 
2882.000000	99.711507 
2881.000000	99.709689 
2880.000000	99.708305 
2879.000000	99.708904 
2878.000000	99.711760 
2877.000000	99.715420 
2876.000000	99.717990 
2875.000000	99.718697 
2874.000000	99.717968 
2873.000000	99.716498 
2872.000000	99.714900 
2871.000000	99.713954 
2870.000000	99.714295 
2869.000000	99.715663 
2868.000000	99.717024 
2867.000000	99.717552 
2866.000000	99.717059 
2865.000000	99.715390 
2864.000000	99.712060 
2863.000000	99.706892 
2862.000000	99.700677 
2861.000000	99.694786 
2860.000000	99.690075 
2859.000000	99.686277 
2858.000000	99.682441 
2857.000000	99.678040 
2856.000000	99.673624 
2855.000000	99.670126 
2854.000000	99.667671 
2853.000000	99.665838 
2852.000000	99.665346 
2851.000000	99.668313 
2850.000000	99.675889 
2849.000000	99.686433 
2848.000000	99.697300 
2847.000000	99.708050 
2846.000000	99.720244 
2845.000000	99.734163 
2844.000000	99.747519 
2843.000000	99.758051 
2842.000000	99.765945 
2841.000000	99.772706 
2840.000000	99.778739 
2839.000000	99.783218 
2838.000000	99.785660 
2837.000000	99.786572 
2836.000000	99.786844 
2835.000000	99.787368 
2834.000000	99.788941 
2833.000000	99.791636 
2832.000000	99.794320 
2831.000000	99.795594 
2830.000000	99.795393 
2829.000000	99.795177 
2828.000000	99.796422 
2827.000000	99.799209 
2826.000000	99.802304 
2825.000000	99.804295 
2824.000000	99.804586 
2823.000000	99.803675 
2822.000000	99.802745 
2821.000000	99.802918 
2820.000000	99.804597 
2819.000000	99.807223 
2818.000000	99.809616 
2817.000000	99.810770 
2816.000000	99.810649 
2815.000000	99.810218 
2814.000000	99.810562 
2813.000000	99.811995 
2812.000000	99.813999 
2811.000000	99.815697 
2810.000000	99.816209 
2809.000000	99.815002 
2808.000000	99.812447 
2807.000000	99.809928 
2806.000000	99.808904 
2805.000000	99.809846 
2804.000000	99.812244 
2803.000000	99.815252 
2802.000000	99.817934 
2801.000000	99.819239 
2800.000000	99.818580 
2799.000000	99.816576 
2798.000000	99.814739 
2797.000000	99.814210 
2796.000000	99.815092 
2795.000000	99.816921 
2794.000000	99.819170 
2793.000000	99.821225 
2792.000000	99.822469 
2791.000000	99.822716 
2790.000000	99.822354 
2789.000000	99.821906 
2788.000000	99.821619 
2787.000000	99.821513 
2786.000000	99.821551 
2785.000000	99.821648 
2784.000000	99.821742 
2783.000000	99.821978 
2782.000000	99.822624 
2781.000000	99.823665 
2780.000000	99.824680 
2779.000000	99.825289 
2778.000000	99.825594 
2777.000000	99.825962 
2776.000000	99.826466 
2775.000000	99.826814 
2774.000000	99.826830 
2773.000000	99.826719 
2772.000000	99.826797 
2771.000000	99.827126 
2770.000000	99.827527 
2769.000000	99.827835 
2768.000000	99.828050 
2767.000000	99.828296 
2766.000000	99.828652 
2765.000000	99.828988 
2764.000000	99.829048 
2763.000000	99.828797 
2762.000000	99.828536 
2761.000000	99.828456 
2760.000000	99.828299 
2759.000000	99.827764 
2758.000000	99.826982 
2757.000000	99.826216 
2756.000000	99.825371 
2755.000000	99.824331 
2754.000000	99.823588 
2753.000000	99.823803 
2752.000000	99.824804 
2751.000000	99.825650 
2750.000000	99.825765 
2749.000000	99.825492 
2748.000000	99.825398 
2747.000000	99.825589 
2746.000000	99.825914 
2745.000000	99.826328 
2744.000000	99.826735 
2743.000000	99.826873 
2742.000000	99.826650 
2741.000000	99.826339 
2740.000000	99.826161 
2739.000000	99.825929 
2738.000000	99.825339 
2737.000000	99.824419 
2736.000000	99.823444 
2735.000000	99.822577 
2734.000000	99.821828 
2733.000000	99.821293 
2732.000000	99.821182 
2731.000000	99.821627 
2730.000000	99.822556 
2729.000000	99.823694 
2728.000000	99.824658 
2727.000000	99.825187 
2726.000000	99.825365 
2725.000000	99.825539 
2724.000000	99.825962 
2723.000000	99.826589 
2722.000000	99.827191 
2721.000000	99.827515 
2720.000000	99.827347 
2719.000000	99.826595 
2718.000000	99.825471 
2717.000000	99.824457 
2716.000000	99.823983 
2715.000000	99.824164 
2714.000000	99.824855 
2713.000000	99.825807 
2712.000000	99.826738 
2711.000000	99.827449 
2710.000000	99.827963 
2709.000000	99.828425 
2708.000000	99.828793 
2707.000000	99.828797 
2706.000000	99.828321 
2705.000000	99.827665 
2704.000000	99.827277 
2703.000000	99.827381 
2702.000000	99.827971 
2701.000000	99.828966 
2700.000000	99.830102 
2699.000000	99.830879 
2698.000000	99.830951 
2697.000000	99.830538 
2696.000000	99.830158 
2695.000000	99.829910 
2694.000000	99.829395 
2693.000000	99.828412 
2692.000000	99.827366 
2691.000000	99.826812 
2690.000000	99.826799 
2689.000000	99.826955 
2688.000000	99.827007 
2687.000000	99.827003 
2686.000000	99.827104 
2685.000000	99.827340 
2684.000000	99.827515 
2683.000000	99.827301 
2682.000000	99.826529 
2681.000000	99.825450 
2680.000000	99.824643 
2679.000000	99.824474 
2678.000000	99.824787 
2677.000000	99.825190 
2676.000000	99.825550 
2675.000000	99.825994 
2674.000000	99.826461 
2673.000000	99.826633 
2672.000000	99.826378 
2671.000000	99.825965 
2670.000000	99.825731 
2669.000000	99.825697 
2668.000000	99.825665 
2667.000000	99.825583 
2666.000000	99.825613 
2665.000000	99.825911 
2664.000000	99.826495 
2663.000000	99.827312 
2662.000000	99.828268 
2661.000000	99.829170 
2660.000000	99.829777 
2659.000000	99.829945 
2658.000000	99.829683 
2657.000000	99.829092 
2656.000000	99.828349 
2655.000000	99.827705 
2654.000000	99.827401 
2653.000000	99.827537 
2652.000000	99.828036 
2651.000000	99.828657 
2650.000000	99.828975 
2649.000000	99.828492 
2648.000000	99.827041 
2647.000000	99.825136 
2646.000000	99.823780 
2645.000000	99.823680 
2644.000000	99.824827 
2643.000000	99.826662 
2642.000000	99.828478 
2641.000000	99.829725 
2640.000000	99.830206 
2639.000000	99.830224 
2638.000000	99.830378 
2637.000000	99.830952 
2636.000000	99.831557 
2635.000000	99.831561 
2634.000000	99.830842 
2633.000000	99.829999 
2632.000000	99.829879 
2631.000000	99.830901 
2630.000000	99.832700 
2629.000000	99.834274 
2628.000000	99.834658 
2627.000000	99.833607 
2626.000000	99.831674 
2625.000000	99.829693 
2624.000000	99.828187 
2623.000000	99.827277 
2622.000000	99.826882 
2621.000000	99.826756 
2620.000000	99.826494 
2619.000000	99.825775 
2618.000000	99.824686 
2617.000000	99.823687 
2616.000000	99.823180 
2615.000000	99.823121 
2614.000000	99.823056 
2613.000000	99.822605 
2612.000000	99.821998 
2611.000000	99.822031 
2610.000000	99.823266 
2609.000000	99.825317 
2608.000000	99.827025 
2607.000000	99.827513 
2606.000000	99.826928 
2605.000000	99.826152 
2604.000000	99.825931 
2603.000000	99.826295 
2602.000000	99.826690 
2601.000000	99.826530 
2600.000000	99.825694 
2599.000000	99.824643 
2598.000000	99.824009 
2597.000000	99.823994 
2596.000000	99.824266 
2595.000000	99.824395 
2594.000000	99.824185 
2593.000000	99.823614 
2592.000000	99.822711 
2591.000000	99.821699 
2590.000000	99.820983 
2589.000000	99.820790 
2588.000000	99.820945 
2587.000000	99.821143 
2586.000000	99.821324 
2585.000000	99.821592 
2584.000000	99.821932 
2583.000000	99.822226 
2582.000000	99.822398 
2581.000000	99.822419 
2580.000000	99.822255 
2579.000000	99.821929 
2578.000000	99.821580 
2577.000000	99.821357 
2576.000000	99.821288 
2575.000000	99.821310 
2574.000000	99.821381 
2573.000000	99.821489 
2572.000000	99.821600 
2571.000000	99.821666 
2570.000000	99.821676 
2569.000000	99.821654 
2568.000000	99.821627 
2567.000000	99.821610 
2566.000000	99.821611 
2565.000000	99.821635 
2564.000000	99.821681 
2563.000000	99.821742 
2562.000000	99.821806 
2561.000000	99.821868 
2560.000000	99.821924 
2559.000000	99.821976 
2558.000000	99.822030 
2557.000000	99.822091 
2556.000000	99.822165 
2555.000000	99.822253 
2554.000000	99.822358 
2553.000000	99.822485 
2552.000000	99.822639 
2551.000000	99.822819 
2550.000000	99.823016 
2549.000000	99.823217 
2548.000000	99.823415 
2547.000000	99.823612 
2546.000000	99.823813 
2545.000000	99.824021 
2544.000000	99.824235 
2543.000000	99.824450 
2542.000000	99.824666 
2541.000000	99.824871 
2540.000000	99.825066 
2539.000000	99.825262 
2538.000000	99.825466 
2537.000000	99.825654 
2536.000000	99.825803 
2535.000000	99.825942 
2534.000000	99.826144 
2533.000000	99.826443 
2532.000000	99.826774 
2531.000000	99.827034 
2530.000000	99.827189 
2529.000000	99.827336 
2528.000000	99.827636 
2527.000000	99.828196 
2526.000000	99.828958 
2525.000000	99.829644 
2524.000000	99.829922 
2523.000000	99.829632 
2522.000000	99.828955 
2521.000000	99.828345 
2520.000000	99.828110 
2519.000000	99.828172 
2518.000000	99.828237 
2517.000000	99.828218 
2516.000000	99.828352 
2515.000000	99.828894 
2514.000000	99.829874 
2513.000000	99.831176 
2512.000000	99.832629 
2511.000000	99.833858 
2510.000000	99.834335 
2509.000000	99.833866 
2508.000000	99.832924 
2507.000000	99.832181 
2506.000000	99.831781 
2505.000000	99.831469 
2504.000000	99.831245 
2503.000000	99.831399 
2502.000000	99.831885 
2501.000000	99.832114 
2500.000000	99.831624 
2499.000000	99.830584 
2498.000000	99.829482 
2497.000000	99.828620 
2496.000000	99.828188 
2495.000000	99.828440 
2494.000000	99.829369 
2493.000000	99.830374 
2492.000000	99.830692 
2491.000000	99.830179 
2490.000000	99.829317 
2489.000000	99.828532 
2488.000000	99.827831 
2487.000000	99.827139 
2486.000000	99.826618 
2485.000000	99.826459 
2484.000000	99.826567 
2483.000000	99.826657 
2482.000000	99.826609 
2481.000000	99.826575 
2480.000000	99.826773 
2479.000000	99.827230 
2478.000000	99.827731 
2477.000000	99.828053 
2476.000000	99.828213 
2475.000000	99.828371 
2474.000000	99.828555 
2473.000000	99.828593 
2472.000000	99.828342 
2471.000000	99.827885 
2470.000000	99.827434 
2469.000000	99.827135 
2468.000000	99.827029 
2467.000000	99.827125 
2466.000000	99.827392 
2465.000000	99.827718 
2464.000000	99.827949 
2463.000000	99.828020 
2462.000000	99.827981 
2461.000000	99.827912 
2460.000000	99.827849 
2459.000000	99.827814 
2458.000000	99.827852 
2457.000000	99.828003 
2456.000000	99.828257 
2455.000000	99.828551 
2454.000000	99.828790 
2453.000000	99.828895 
2452.000000	99.828857 
2451.000000	99.828802 
2450.000000	99.828922 
2449.000000	99.829308 
2448.000000	99.829866 
2447.000000	99.830379 
2446.000000	99.830695 
2445.000000	99.830782 
2444.000000	99.830701 
2443.000000	99.830568 
2442.000000	99.830511 
2441.000000	99.830581 
2440.000000	99.830701 
2439.000000	99.830768 
2438.000000	99.830839 
2437.000000	99.831135 
2436.000000	99.831806 
2435.000000	99.832771 
2434.000000	99.833706 
2433.000000	99.834256 
2432.000000	99.834273 
2431.000000	99.833887 
2430.000000	99.833408 
2429.000000	99.833068 
2428.000000	99.832912 
2427.000000	99.832909 
2426.000000	99.833070 
2425.000000	99.833408 
2424.000000	99.833809 
2423.000000	99.834048 
2422.000000	99.833983 
2421.000000	99.833706 
2420.000000	99.833469 
2419.000000	99.833464 
2418.000000	99.833684 
2417.000000	99.833966 
2416.000000	99.834114 
2415.000000	99.834001 
2414.000000	99.833624 
2413.000000	99.833115 
2412.000000	99.832664 
2411.000000	99.832365 
2410.000000	99.832115 
2409.000000	99.831751 
2408.000000	99.831276 
2407.000000	99.830893 
2406.000000	99.830754 
2405.000000	99.830761 
2404.000000	99.830714 
2403.000000	99.830513 
2402.000000	99.830207 
2401.000000	99.829875 
2400.000000	99.829551 
2399.000000	99.829233 
2398.000000	99.828904 
2397.000000	99.828558 
2396.000000	99.828211 
2395.000000	99.827885 
2394.000000	99.827580 
2393.000000	99.827282 
2392.000000	99.826987 
2391.000000	99.826707 
2390.000000	99.826445 
2389.000000	99.826202 
2388.000000	99.825975 
2387.000000	99.825762 
2386.000000	99.825564 
2385.000000	99.825378 
2384.000000	99.825206 
2383.000000	99.825047 
2382.000000	99.824909 
2381.000000	99.824798 
2380.000000	99.824714 
2379.000000	99.824653 
2378.000000	99.824602 
2377.000000	99.824550 
2376.000000	99.824492 
2375.000000	99.824428 
2374.000000	99.824365 
2373.000000	99.824312 
2372.000000	99.824278 
2371.000000	99.824263 
2370.000000	99.824266 
2369.000000	99.824285 
2368.000000	99.824320 
2367.000000	99.824369 
2366.000000	99.824425 
2365.000000	99.824478 
2364.000000	99.824520 
2363.000000	99.824554 
2362.000000	99.824595 
2361.000000	99.824657 
2360.000000	99.824745 
2359.000000	99.824853 
2358.000000	99.824972 
2357.000000	99.825092 
2356.000000	99.825210 
2355.000000	99.825328 
2354.000000	99.825452 
2353.000000	99.825581 
2352.000000	99.825714 
2351.000000	99.825851 
2350.000000	99.825988 
2349.000000	99.826121 
2348.000000	99.826243 
2347.000000	99.826356 
2346.000000	99.826479 
2345.000000	99.826641 
2344.000000	99.826859 
2343.000000	99.827124 
2342.000000	99.827428 
2341.000000	99.827762 
2340.000000	99.828112 
2339.000000	99.828423 
2338.000000	99.828575 
2337.000000	99.828453 
2336.000000	99.828103 
2335.000000	99.827739 
2334.000000	99.827501 
2333.000000	99.827271 
2332.000000	99.826991 
2331.000000	99.827020 
2330.000000	99.827815 
2329.000000	99.829246 
2328.000000	99.830437 
2327.000000	99.830736 
2326.000000	99.830365 
2325.000000	99.830118 
2324.000000	99.830354 
2323.000000	99.830580 
2322.000000	99.830205 
2321.000000	99.829320 
2320.000000	99.828597 
2319.000000	99.828477 
2318.000000	99.828873 
2317.000000	99.829378 
2316.000000	99.829724 
2315.000000	99.830012 
2314.000000	99.830561 
2313.000000	99.831487 
2312.000000	99.832438 
2311.000000	99.832938 
2310.000000	99.833008 
2309.000000	99.833301 
2308.000000	99.834350 
2307.000000	99.835808 
2306.000000	99.836641 
2305.000000	99.836237 
2304.000000	99.835101 
2303.000000	99.834403 
2302.000000	99.834786 
2301.000000	99.835769 
2300.000000	99.836431 
2299.000000	99.836538 
2298.000000	99.836619 
2297.000000	99.836986 
2296.000000	99.837103 
2295.000000	99.836264 
2294.000000	99.834550 
2293.000000	99.832874 
2292.000000	99.832030 
2291.000000	99.831923 
2290.000000	99.831851 
2289.000000	99.831337 
2288.000000	99.830595 
2287.000000	99.830188 
2286.000000	99.830311 
2285.000000	99.830557 
2284.000000	99.830387 
2283.000000	99.829762 
2282.000000	99.829141 
2281.000000	99.828928 
2280.000000	99.829052 
2279.000000	99.829164 
2278.000000	99.829087 
2277.000000	99.828948 
2276.000000	99.828913 
2275.000000	99.828945 
2274.000000	99.828891 
2273.000000	99.828720 
2272.000000	99.828616 
2271.000000	99.828796 
2270.000000	99.829244 
2269.000000	99.829648 
2268.000000	99.829636 
2267.000000	99.829082 
2266.000000	99.828150 
2265.000000	99.827214 
2264.000000	99.826634 
2263.000000	99.826575 
2262.000000	99.826917 
2261.000000	99.827240 
2260.000000	99.827257 
2259.000000	99.827234 
2258.000000	99.827724 
2257.000000	99.828885 
2256.000000	99.830252 
2255.000000	99.831175 
2254.000000	99.831403 
2253.000000	99.831158 
2252.000000	99.830826 
2251.000000	99.830698 
2250.000000	99.830972 
2249.000000	99.831760 
2248.000000	99.832924 
2247.000000	99.834025 
2246.000000	99.834598 
2245.000000	99.834561 
2244.000000	99.834313 
2243.000000	99.834336 
2242.000000	99.834715 
2241.000000	99.835166 
2240.000000	99.835514 
2239.000000	99.835870 
2238.000000	99.836187 
2237.000000	99.835990 
2236.000000	99.835027 
2235.000000	99.833945 
2234.000000	99.833697 
2233.000000	99.834365 
2232.000000	99.835207 
2231.000000	99.835900 
2230.000000	99.836894 
2229.000000	99.838364 
2228.000000	99.839742 
2227.000000	99.840646 
2226.000000	99.841517 
2225.000000	99.842954 
2224.000000	99.845096 
2223.000000	99.847997 
2222.000000	99.851733 
2221.000000	99.855354 
2220.000000	99.856706 
2219.000000	99.854392 
2218.000000	99.849376 
2217.000000	99.844432 
2216.000000	99.841686 
2215.000000	99.841386 
2214.000000	99.842654 
2213.000000	99.844292 
2212.000000	99.845169 
2211.000000	99.844765 
2210.000000	99.843635 
2209.000000	99.842893 
2208.000000	99.843226 
2207.000000	99.844744 
2206.000000	99.847489 
2205.000000	99.851229 
2204.000000	99.854797 
2203.000000	99.856790 
2202.000000	99.856997 
2201.000000	99.856664 
2200.000000	99.856971 
2199.000000	99.857659 
2198.000000	99.857574 
2197.000000	99.856103 
2196.000000	99.853724 
2195.000000	99.851402 
2194.000000	99.849696 
2193.000000	99.848592 
2192.000000	99.848131 
2191.000000	99.848716 
2190.000000	99.850419 
2189.000000	99.852265 
2188.000000	99.852861 
2187.000000	99.851838 
2186.000000	99.850121 
2185.000000	99.848739 
2184.000000	99.847878 
2183.000000	99.847400 
2182.000000	99.847644 
2181.000000	99.849040 
2180.000000	99.851314 
2179.000000	99.853659 
2178.000000	99.855463 
2177.000000	99.856573 
2176.000000	99.857119 
2175.000000	99.857427 
2174.000000	99.857871 
2173.000000	99.858570 
2172.000000	99.859321 
2171.000000	99.859902 
2170.000000	99.860249 
2169.000000	99.860324 
2168.000000	99.860082 
2167.000000	99.859680 
2166.000000	99.859467 
2165.000000	99.859604 
2164.000000	99.859881 
2163.000000	99.859967 
2162.000000	99.859796 
2161.000000	99.859523 
2160.000000	99.859328 
2159.000000	99.859256 
2158.000000	99.859259 
2157.000000	99.859262 
2156.000000	99.859206 
2155.000000	99.859085 
2154.000000	99.858937 
2153.000000	99.858823 
2152.000000	99.858785 
2151.000000	99.858806 
2150.000000	99.858827 
2149.000000	99.858792 
2148.000000	99.858685 
2147.000000	99.858505 
2146.000000	99.858254 
2145.000000	99.857961 
2144.000000	99.857719 
2143.000000	99.857627 
2142.000000	99.857700 
2141.000000	99.857861 
2140.000000	99.858016 
2139.000000	99.858146 
2138.000000	99.858294 
2137.000000	99.858497 
2136.000000	99.858731 
2135.000000	99.858898 
2134.000000	99.858844 
2133.000000	99.858434 
2132.000000	99.857690 
2131.000000	99.856857 
2130.000000	99.856200 
2129.000000	99.855736 
2128.000000	99.855273 
2127.000000	99.854788 
2126.000000	99.854631 
2125.000000	99.855153 
2124.000000	99.856211 
2123.000000	99.857134 
2122.000000	99.857290 
2121.000000	99.856599 
2120.000000	99.855595 
2119.000000	99.855106 
2118.000000	99.855611 
2117.000000	99.857006 
2116.000000	99.858766 
2115.000000	99.860345 
2114.000000	99.861483 
2113.000000	99.862071 
2112.000000	99.862131 
2111.000000	99.861977 
2110.000000	99.862167 
2109.000000	99.863018 
2108.000000	99.864242 
2107.000000	99.865237 
2106.000000	99.865738 
2105.000000	99.866024 
2104.000000	99.866489 
2103.000000	99.867157 
2102.000000	99.867736 
2101.000000	99.867996 
2100.000000	99.867954 
2099.000000	99.867795 
2098.000000	99.867734 
2097.000000	99.867957 
2096.000000	99.868529 
2095.000000	99.869313 
2094.000000	99.869998 
2093.000000	99.870329 
2092.000000	99.870290 
2091.000000	99.870075 
2090.000000	99.869974 
2089.000000	99.870158 
2088.000000	99.870604 
2087.000000	99.871174 
2086.000000	99.871749 
2085.000000	99.872309 
2084.000000	99.872894 
2083.000000	99.873535 
2082.000000	99.874199 
2081.000000	99.874795 
2080.000000	99.875285 
2079.000000	99.875749 
2078.000000	99.876284 
2077.000000	99.876825 
2076.000000	99.877184 
2075.000000	99.877261 
2074.000000	99.877126 
2073.000000	99.876913 
2072.000000	99.876747 
2071.000000	99.876828 
2070.000000	99.877368 
2069.000000	99.878204 
2068.000000	99.878638 
2067.000000	99.878177 
2066.000000	99.877448 
2065.000000	99.877659 
2064.000000	99.879016 
2063.000000	99.880364 
2062.000000	99.880857 
2061.000000	99.881278 
2060.000000	99.882882 
2059.000000	99.885392 
2058.000000	99.887011 
2057.000000	99.886567 
2056.000000	99.884914 
2055.000000	99.883902 
2054.000000	99.884287 
2053.000000	99.885222 
2052.000000	99.885532 
2051.000000	99.885052 
2050.000000	99.884750 
2049.000000	99.886020 
2048.000000	99.889784 
2047.000000	99.895582 
2046.000000	99.901157 
2045.000000	99.903892 
2044.000000	99.903047 
2043.000000	99.900299 
2042.000000	99.898003 
2041.000000	99.897075 
2040.000000	99.897217 
2039.000000	99.898519 
2038.000000	99.901481 
2037.000000	99.905521 
2036.000000	99.909045 
2035.000000	99.911485 
2034.000000	99.913763 
2033.000000	99.916145 
2032.000000	99.917509 
2031.000000	99.917712 
2030.000000	99.918635 
2029.000000	99.921197 
2028.000000	99.922962 
2027.000000	99.920922 
2026.000000	99.915641 
2025.000000	99.910724 
2024.000000	99.908305 
2023.000000	99.906797 
2022.000000	99.903437 
2021.000000	99.897517 
2020.000000	99.890897 
2019.000000	99.886553 
2018.000000	99.886882 
2017.000000	99.892013 
2016.000000	99.899076 
2015.000000	99.904480 
2014.000000	99.907300 
2013.000000	99.909287 
2012.000000	99.911427 
2011.000000	99.911899 
2010.000000	99.908483 
2009.000000	99.902168 
2008.000000	99.896960 
2007.000000	99.895658 
2006.000000	99.896741 
2005.000000	99.895904 
2004.000000	99.890185 
2003.000000	99.880439 
2002.000000	99.870496 
2001.000000	99.864200 
2000.000000	99.862695 
1999.000000	99.864354 
1998.000000	99.867175 
1997.000000	99.871018 
1996.000000	99.877093 
1995.000000	99.885359 
1994.000000	99.893256 
1993.000000	99.897653 
1992.000000	99.898086 
1991.000000	99.897281 
1990.000000	99.898224 
1989.000000	99.901694 
1988.000000	99.906705 
1987.000000	99.911943 
1986.000000	99.916180 
1985.000000	99.918381 
1984.000000	99.918478 
1983.000000	99.917703 
1982.000000	99.917322 
1981.000000	99.917357 
1980.000000	99.917206 
1979.000000	99.916961 
1978.000000	99.917070 
1977.000000	99.917062 
1976.000000	99.915952 
1975.000000	99.913754 
1974.000000	99.911302 
1973.000000	99.908712 
1972.000000	99.905433 
1971.000000	99.901940 
1970.000000	99.900104 
1969.000000	99.901306 
1968.000000	99.904761 
1967.000000	99.907949 
1966.000000	99.908717 
1965.000000	99.906836 
1964.000000	99.903743 
1963.000000	99.901435 
1962.000000	99.901086 
1961.000000	99.902381 
1960.000000	99.903996 
1959.000000	99.904802 
1958.000000	99.904628 
1957.000000	99.903909 
1956.000000	99.903106 
1955.000000	99.902518 
1954.000000	99.902304 
1953.000000	99.902473 
1952.000000	99.902857 
1951.000000	99.903168 
1950.000000	99.903157 
1949.000000	99.902748 
1948.000000	99.902037 
1947.000000	99.901219 
1946.000000	99.900487 
1945.000000	99.899919 
1944.000000	99.899465 
1943.000000	99.899050 
1942.000000	99.898646 
1941.000000	99.898267 
1940.000000	99.897916 
1939.000000	99.897588 
1938.000000	99.897282 
1937.000000	99.896995 
1936.000000	99.896724 
1935.000000	99.896469 
1934.000000	99.896230 
1933.000000	99.896003 
1932.000000	99.895782 
1931.000000	99.895565 
1930.000000	99.895356 
1929.000000	99.895154 
1928.000000	99.894953 
1927.000000	99.894743 
1926.000000	99.894521 
1925.000000	99.894292 
1924.000000	99.894068 
1923.000000	99.893855 
1922.000000	99.893650 
1921.000000	99.893447 
1920.000000	99.893240 
1919.000000	99.893029 
1918.000000	99.892816 
1917.000000	99.892603 
1916.000000	99.892391 
1915.000000	99.892182 
1914.000000	99.891979 
1913.000000	99.891779 
1912.000000	99.891579 
1911.000000	99.891371 
1910.000000	99.891156 
1909.000000	99.890937 
1908.000000	99.890726 
1907.000000	99.890539 
1906.000000	99.890391 
1905.000000	99.890287 
1904.000000	99.890217 
1903.000000	99.890164 
1902.000000	99.890115 
1901.000000	99.890069 
1900.000000	99.890028 
1899.000000	99.889992 
1898.000000	99.889957 
1897.000000	99.889915 
1896.000000	99.889867 
1895.000000	99.889819 
1894.000000	99.889778 
1893.000000	99.889751 
1892.000000	99.889738 
1891.000000	99.889738 
1890.000000	99.889742 
1889.000000	99.889747 
1888.000000	99.889747 
1887.000000	99.889737 
1886.000000	99.889718 
1885.000000	99.889691 
1884.000000	99.889657 
1883.000000	99.889610 
1882.000000	99.889549 
1881.000000	99.889478 
1880.000000	99.889416 
1879.000000	99.889392 
1878.000000	99.889411 
1877.000000	99.889416 
1876.000000	99.889313 
1875.000000	99.889059 
1874.000000	99.888717 
1873.000000	99.888380 
1872.000000	99.888076 
1871.000000	99.887871 
1870.000000	99.887945 
1869.000000	99.888412 
1868.000000	99.889012 
1867.000000	99.889279 
1866.000000	99.889122 
1865.000000	99.888886 
1864.000000	99.888913 
1863.000000	99.889162 
1862.000000	99.889341 
1861.000000	99.889301 
1860.000000	99.889086 
1859.000000	99.888710 
1858.000000	99.888114 
1857.000000	99.887369 
1856.000000	99.886746 
1855.000000	99.886455 
1854.000000	99.886426 
1853.000000	99.886417 
1852.000000	99.886282 
1851.000000	99.886076 
1850.000000	99.885894 
1849.000000	99.885735 
1848.000000	99.885532 
1847.000000	99.885251 
1846.000000	99.884920 
1845.000000	99.884607 
1844.000000	99.884355 
1843.000000	99.884116 
1842.000000	99.883789 
1841.000000	99.883346 
1840.000000	99.882910 
1839.000000	99.882669 
1838.000000	99.882694 
1837.000000	99.882866 
1836.000000	99.883014 
1835.000000	99.883079 
1834.000000	99.883085 
1833.000000	99.883034 
1832.000000	99.882910 
1831.000000	99.882729 
1830.000000	99.882554 
1829.000000	99.882443 
1828.000000	99.882381 
1827.000000	99.882335 
1826.000000	99.882267 
1825.000000	99.882162 
1824.000000	99.882031 
1823.000000	99.881899 
1822.000000	99.881781 
1821.000000	99.881674 
1820.000000	99.881573 
1819.000000	99.881476 
1818.000000	99.881383 
1817.000000	99.881299 
1816.000000	99.881224 
1815.000000	99.881156 
1814.000000	99.881089 
1813.000000	99.881017 
1812.000000	99.880936 
1811.000000	99.880849 
1810.000000	99.880762 
1809.000000	99.880680 
1808.000000	99.880607 
1807.000000	99.880548 
1806.000000	99.880509 
1805.000000	99.880487 
1804.000000	99.880473 
1803.000000	99.880458 
1802.000000	99.880434 
1801.000000	99.880401 
1800.000000	99.880362 
1799.000000	99.880319 
1798.000000	99.880266 
1797.000000	99.880195 
1796.000000	99.880097 
1795.000000	99.879970 
1794.000000	99.879826 
1793.000000	99.879673 
1792.000000	99.879516 
1791.000000	99.879364 
1790.000000	99.879230 
1789.000000	99.879094 
1788.000000	99.878903 
1787.000000	99.878615 
1786.000000	99.878267 
1785.000000	99.877988 
1784.000000	99.877876 
1783.000000	99.877869 
1782.000000	99.877722 
1781.000000	99.877147 
1780.000000	99.876051 
1779.000000	99.874729 
1778.000000	99.873683 
1777.000000	99.873231 
1776.000000	99.873435 
1775.000000	99.874150 
1774.000000	99.874850 
1773.000000	99.874475 
1772.000000	99.872405 
1771.000000	99.869827 
1770.000000	99.868626 
1769.000000	99.869202 
1768.000000	99.870432 
1767.000000	99.871208 
1766.000000	99.871689 
1765.000000	99.872440 
1764.000000	99.872927 
1763.000000	99.871747 
1762.000000	99.868505 
1761.000000	99.864911 
1760.000000	99.862878 
1759.000000	99.862597 
1758.000000	99.863076 
1757.000000	99.863137 
1756.000000	99.862022 
1755.000000	99.859775 
1754.000000	99.857109 
1753.000000	99.854872 
1752.000000	99.853610 
1751.000000	99.853184 
1750.000000	99.852588 
1749.000000	99.850654 
1748.000000	99.847201 
1747.000000	99.843310 
1746.000000	99.840398 
1745.000000	99.839037 
1744.000000	99.838610 
1743.000000	99.838168 
1742.000000	99.837614 
1741.000000	99.837711 
1740.000000	99.838897 
1739.000000	99.840611 
1738.000000	99.842105 
1737.000000	99.843417 
1736.000000	99.844918 
1735.000000	99.846669 
1734.000000	99.848558 
1733.000000	99.850504 
1732.000000	99.852417 
1731.000000	99.854038 
1730.000000	99.854969 
1729.000000	99.855154 
1728.000000	99.855306 
1727.000000	99.856396 
1726.000000	99.858826 
1725.000000	99.861918 
1724.000000	99.864126 
1723.000000	99.864267 
1722.000000	99.862569 
1721.000000	99.860332 
1720.000000	99.858955 
1719.000000	99.859429 
1718.000000	99.862087 
1717.000000	99.865750 
1716.000000	99.868297 
1715.000000	99.869168 
1714.000000	99.869465 
1713.000000	99.870267 
1712.000000	99.871782 
1711.000000	99.873619 
1710.000000	99.875378 
1709.000000	99.876880 
1708.000000	99.878096 
1707.000000	99.879094 
1706.000000	99.880167 
1705.000000	99.881686 
1704.000000	99.883621 
1703.000000	99.885643 
1702.000000	99.887481 
1701.000000	99.888919 
1700.000000	99.889780 
1699.000000	99.890114 
1698.000000	99.890184 
1697.000000	99.890231 
1696.000000	99.890605 
1695.000000	99.891575 
1694.000000	99.892964 
1693.000000	99.894363 
1692.000000	99.895535 
1691.000000	99.896486 
1690.000000	99.897338 
1689.000000	99.898191 
1688.000000	99.899066 
1687.000000	99.899982 
1686.000000	99.901004 
1685.000000	99.902144 
1684.000000	99.903246 
1683.000000	99.904100 
1682.000000	99.904709 
1681.000000	99.905199 
1680.000000	99.905669 
1679.000000	99.906216 
1678.000000	99.906969 
1677.000000	99.908039 
1676.000000	99.909423 
1675.000000	99.910818 
1674.000000	99.911821 
1673.000000	99.912389 
1672.000000	99.912752 
1671.000000	99.913079 
1670.000000	99.913374 
1669.000000	99.913594 
1668.000000	99.913820 
1667.000000	99.914181 
1666.000000	99.914689 
1665.000000	99.915248 
1664.000000	99.915753 
1663.000000	99.916151 
1662.000000	99.916411 
1661.000000	99.916505 
1660.000000	99.916484 
1659.000000	99.916499 
1658.000000	99.916699 
1657.000000	99.917130 
1656.000000	99.917712 
1655.000000	99.918232 
1654.000000	99.918365 
1653.000000	99.917972 
1652.000000	99.917409 
1651.000000	99.917079 
1650.000000	99.916934 
1649.000000	99.916836 
1648.000000	99.916701 
1647.000000	99.916547 
1646.000000	99.916421 
1645.000000	99.916314 
1644.000000	99.916205 
1643.000000	99.916081 
1642.000000	99.915898 
1641.000000	99.915600 
1640.000000	99.915171 
1639.000000	99.914694 
1638.000000	99.914289 
1637.000000	99.913996 
1636.000000	99.913719 
1635.000000	99.913360 
1634.000000	99.912987 
1633.000000	99.912710 
1632.000000	99.912513 
1631.000000	99.912289 
1630.000000	99.911930 
1629.000000	99.911393 
1628.000000	99.910728 
1627.000000	99.910042 
1626.000000	99.909405 
1625.000000	99.908812 
1624.000000	99.908228 
1623.000000	99.907680 
1622.000000	99.907230 
1621.000000	99.906880 
1620.000000	99.906546 
1619.000000	99.906106 
1618.000000	99.905437 
1617.000000	99.904498 
1616.000000	99.903469 
1615.000000	99.902612 
1614.000000	99.901986 
1613.000000	99.901500 
1612.000000	99.901069 
1611.000000	99.900680 
1610.000000	99.900365 
1609.000000	99.900146 
1608.000000	99.899971 
1607.000000	99.899697 
1606.000000	99.899184 
1605.000000	99.898420 
1604.000000	99.897587 
1603.000000	99.896929 
1602.000000	99.896516 
1601.000000	99.896197 
1600.000000	99.895849 
1599.000000	99.895560 
1598.000000	99.895459 
1597.000000	99.895451 
1596.000000	99.895235 
1595.000000	99.894629 
1594.000000	99.893787 
1593.000000	99.893050 
1592.000000	99.892660 
1591.000000	99.892665 
1590.000000	99.892956 
1589.000000	99.893292 
1588.000000	99.893448 
1587.000000	99.893405 
1586.000000	99.893329 
1585.000000	99.893332 
1584.000000	99.893322 
1583.000000	99.893155 
1582.000000	99.892846 
1581.000000	99.892564 
1580.000000	99.892399 
1579.000000	99.892303 
1578.000000	99.892251 
1577.000000	99.892360 
1576.000000	99.892708 
1575.000000	99.893087 
1574.000000	99.893223 
1573.000000	99.893093 
1572.000000	99.892862 
1571.000000	99.892822 
1570.000000	99.893354 
1569.000000	99.894577 
1568.000000	99.896128 
1567.000000	99.897467 
1566.000000	99.898274 
1565.000000	99.898488 
1564.000000	99.898342 
1563.000000	99.898188 
1562.000000	99.898229 
1561.000000	99.898476 
1560.000000	99.898907 
1559.000000	99.899674 
1558.000000	99.900587 
1557.000000	99.901201 
1556.000000	99.901618 
1555.000000	99.902074 
1554.000000	99.902511 
1553.000000	99.902802 
1552.000000	99.902911 
1551.000000	99.903013 
1550.000000	99.903343 
1549.000000	99.903992 
1548.000000	99.904789 
1547.000000	99.905499 
1546.000000	99.906031 
1545.000000	99.906506 
1544.000000	99.907108 
1543.000000	99.907762 
1542.000000	99.908100 
1541.000000	99.907819 
1540.000000	99.907282 
1539.000000	99.907287 
1538.000000	99.907943 
1537.000000	99.908819 
1536.000000	99.909667 
1535.000000	99.910509 
1534.000000	99.911478 
1533.000000	99.912494 
1532.000000	99.913280 
1531.000000	99.913790 
1530.000000	99.914274 
1529.000000	99.914877 
1528.000000	99.915462 
1527.000000	99.915800 
1526.000000	99.915861 
1525.000000	99.915792 
1524.000000	99.915659 
1523.000000	99.915417 
1522.000000	99.915181 
1521.000000	99.915268 
1520.000000	99.915730 
1519.000000	99.916323 
1518.000000	99.916906 
1517.000000	99.917454 
1516.000000	99.917833 
1515.000000	99.917831 
1514.000000	99.917392 
1513.000000	99.916733 
1512.000000	99.916270 
1511.000000	99.916431 
1510.000000	99.917366 
1509.000000	99.918774 
1508.000000	99.919789 
1507.000000	99.919358 
1506.000000	99.917463 
1505.000000	99.915341 
1504.000000	99.913869 
1503.000000	99.913005 
1502.000000	99.912510 
1501.000000	99.912284 
1500.000000	99.912316 
1499.000000	99.912550 
1498.000000	99.912776 
1497.000000	99.912500 
1496.000000	99.911148 
1495.000000	99.908843 
1494.000000	99.906518 
1493.000000	99.904971 
1492.000000	99.904224 
1491.000000	99.903632 
1490.000000	99.902607 
1489.000000	99.901294 
1488.000000	99.900082 
1487.000000	99.899033 
1486.000000	99.898203 
1485.000000	99.897819 
1484.000000	99.897984 
1483.000000	99.898318 
1482.000000	99.898105 
1481.000000	99.896989 
1480.000000	99.895348 
1479.000000	99.893775 
1478.000000	99.892493 
1477.000000	99.891502 
1476.000000	99.890833 
1475.000000	99.890262 
1474.000000	99.888982 
1473.000000	99.886231 
1472.000000	99.882584 
1471.000000	99.879510 
1470.000000	99.877641 
1469.000000	99.876734 
1468.000000	99.876478 
1467.000000	99.876637 
1466.000000	99.876806 
1465.000000	99.876501 
1464.000000	99.875766 
1463.000000	99.875161 
1462.000000	99.875009 
1461.000000	99.875024 
1460.000000	99.874677 
1459.000000	99.873701 
1458.000000	99.872241 
1457.000000	99.870793 
1456.000000	99.869933 
1455.000000	99.870157 
1454.000000	99.871793 
1453.000000	99.874552 
1452.000000	99.877226 
1451.000000	99.878380 
1450.000000	99.877545 
1449.000000	99.875625 
1448.000000	99.874130 
1447.000000	99.873861 
1446.000000	99.874351 
1445.000000	99.874723 
1444.000000	99.874496 
1443.000000	99.873673 
1442.000000	99.872609 
1441.000000	99.871759 
1440.000000	99.871395 
1439.000000	99.871417 
1438.000000	99.871346 
1437.000000	99.870774 
1436.000000	99.870089 
1435.000000	99.870080 
1434.000000	99.871004 
1433.000000	99.872549 
1432.000000	99.874029 
1431.000000	99.874724 
1430.000000	99.874442 
1429.000000	99.873721 
1428.000000	99.873285 
1427.000000	99.873341 
1426.000000	99.873444 
1425.000000	99.873124 
1424.000000	99.872701 
1423.000000	99.873013 
1422.000000	99.874225 
1421.000000	99.875487 
1420.000000	99.875599 
1419.000000	99.874036 
1418.000000	99.871302 
1417.000000	99.867978 
1416.000000	99.864416 
1415.000000	99.861359 
1414.000000	99.859624 
1413.000000	99.859089 
1412.000000	99.858521 
1411.000000	99.856829 
1410.000000	99.854426 
1409.000000	99.852908 
1408.000000	99.853408 
1407.000000	99.855511 
1406.000000	99.857629 
1405.000000	99.858568 
1404.000000	99.858744 
1403.000000	99.859400 
1402.000000	99.860974 
1401.000000	99.862825 
1400.000000	99.864167 
1399.000000	99.864890 
1398.000000	99.865145 
1397.000000	99.864501 
1396.000000	99.862413 
1395.000000	99.859679 
1394.000000	99.858366 
1393.000000	99.859524 
1392.000000	99.862266 
1391.000000	99.865044 
1390.000000	99.867027 
1389.000000	99.868286 
1388.000000	99.869176 
1387.000000	99.869800 
1386.000000	99.869952 
1385.000000	99.869489 
1384.000000	99.868658 
1383.000000	99.868090 
1382.000000	99.868434 
1381.000000	99.869808 
1380.000000	99.871684 
1379.000000	99.873440 
1378.000000	99.874887 
1377.000000	99.876173 
1376.000000	99.877376 
1375.000000	99.878412 
1374.000000	99.879234 
1373.000000	99.879935 
1372.000000	99.880663 
1371.000000	99.881566 
1370.000000	99.882783 
1369.000000	99.884352 
1368.000000	99.886149 
1367.000000	99.887884 
1366.000000	99.889250 
1365.000000	99.890088 
1364.000000	99.890499 
1363.000000	99.890889 
1362.000000	99.891695 
1361.000000	99.892941 
1360.000000	99.894310 
1359.000000	99.895577 
1358.000000	99.896697 
1357.000000	99.897580 
1356.000000	99.898090 
1355.000000	99.898340 
1354.000000	99.898805 
1353.000000	99.899896 
1352.000000	99.901551 
1351.000000	99.903343 
1350.000000	99.904822 
1349.000000	99.905749 
1348.000000	99.906128 
1347.000000	99.906250 
1346.000000	99.906561 
1345.000000	99.907220 
1344.000000	99.907921 
1343.000000	99.908316 
1342.000000	99.908447 
1341.000000	99.908626 
1340.000000	99.908996 
1339.000000	99.909413 
1338.000000	99.909750 
1337.000000	99.910104 
1336.000000	99.910650 
1335.000000	99.911416 
1334.000000	99.912241 
1333.000000	99.912862 
1332.000000	99.913110 
1331.000000	99.913034 
1330.000000	99.912870 
1329.000000	99.912823 
1328.000000	99.912923 
1327.000000	99.913143 
1326.000000	99.913529 
1325.000000	99.914121 
1324.000000	99.914792 
1323.000000	99.915274 
1322.000000	99.915434 
1321.000000	99.915424 
1320.000000	99.915539 
1319.000000	99.915883 
1318.000000	99.916268 
1317.000000	99.916462 
1316.000000	99.916482 
1315.000000	99.916560 
1314.000000	99.916838 
1313.000000	99.917201 
1312.000000	99.917448 
1311.000000	99.917554 
1310.000000	99.917635 
1309.000000	99.917717 
1308.000000	99.917709 
1307.000000	99.917601 
1306.000000	99.917541 
1305.000000	99.917641 
1304.000000	99.917834 
1303.000000	99.917953 
1302.000000	99.917889 
1301.000000	99.917606 
1300.000000	99.917135 
1299.000000	99.916679 
1298.000000	99.916580 
1297.000000	99.917020 
1296.000000	99.917750 
1295.000000	99.918250 
1294.000000	99.918212 
1293.000000	99.917767 
1292.000000	99.917328 
1291.000000	99.917308 
1290.000000	99.917853 
1289.000000	99.918623 
1288.000000	99.918961 
1287.000000	99.918560 
1286.000000	99.917868 
1285.000000	99.917583 
1284.000000	99.917798 
1283.000000	99.917981 
1282.000000	99.917681 
1281.000000	99.916916 
1280.000000	99.916030 
1279.000000	99.915525 
1278.000000	99.915853 
1277.000000	99.916962 
1276.000000	99.918037 
1275.000000	99.918182 
1274.000000	99.917379 
1273.000000	99.916432 
1272.000000	99.915953 
1271.000000	99.915830 
1270.000000	99.915800 
1269.000000	99.915958 
1268.000000	99.916383 
1267.000000	99.916722 
1266.000000	99.916603 
1265.000000	99.916193 
1264.000000	99.915924 
1263.000000	99.915759 
1262.000000	99.915110 
1261.000000	99.913520 
1260.000000	99.911185 
1259.000000	99.908711 
1258.000000	99.906459 
1257.000000	99.904287 
1256.000000	99.901988 
1255.000000	99.899797 
1254.000000	99.898264 
1253.000000	99.897654 
1252.000000	99.897826 
1251.000000	99.898696 
1250.000000	99.900361 
1249.000000	99.902526 
1248.000000	99.904219 
1247.000000	99.904472 
1246.000000	99.903086 
1245.000000	99.900444 
1244.000000	99.897040 
1243.000000	99.893665 
1242.000000	99.891666 
1241.000000	99.892201 
1240.000000	99.895129 
1239.000000	99.898921 
1238.000000	99.901669 
1237.000000	99.902073 
1236.000000	99.899915 
1235.000000	99.896350 
1234.000000	99.893456 
1233.000000	99.892461 
1232.000000	99.892361 
1231.000000	99.891080 
1230.000000	99.888090 
1229.000000	99.885155 
1228.000000	99.884187 
1227.000000	99.884933 
1226.000000	99.885200 
1225.000000	99.883005 
1224.000000	99.878209 
1223.000000	99.872457 
1222.000000	99.867739 
1221.000000	99.864774 
1220.000000	99.862712 
1219.000000	99.860458 
1218.000000	99.858003 
1217.000000	99.856059 
1216.000000	99.854583 
1215.000000	99.852414 
1214.000000	99.848570 
1213.000000	99.843331 
1212.000000	99.837719 
1211.000000	99.832352 
1210.000000	99.827173 
1209.000000	99.822079 
1208.000000	99.817357 
1207.000000	99.813386 
1206.000000	99.810031 
1205.000000	99.806459 
1204.000000	99.801712 
1203.000000	99.795589 
1202.000000	99.788842 
1201.000000	99.782397 
1200.000000	99.776596 
1199.000000	99.771383 
1198.000000	99.766873 
1197.000000	99.763159 
1196.000000	99.759568 
1195.000000	99.754671 
1194.000000	99.747494 
1193.000000	99.738661 
1192.000000	99.730089 
1191.000000	99.723410 
1190.000000	99.718648 
1189.000000	99.714418 
1188.000000	99.709250 
1187.000000	99.702479 
1186.000000	99.693955 
1185.000000	99.683585 
1184.000000	99.671814 
1183.000000	99.660332 
1182.000000	99.651362 
1181.000000	99.645716 
1180.000000	99.641796 
1179.000000	99.636814 
1178.000000	99.629063 
1177.000000	99.619095 
1176.000000	99.608987 
1175.000000	99.600546 
1174.000000	99.593881 
1173.000000	99.587395 
1172.000000	99.579169 
1171.000000	99.568391 
1170.000000	99.555679 
1169.000000	99.542615 
1168.000000	99.531288 
1167.000000	99.523680 
1166.000000	99.520639 
1165.000000	99.521485 
1164.000000	99.524895 
1163.000000	99.529944 
1162.000000	99.535850 
1161.000000	99.541196 
1160.000000	99.544280 
1159.000000	99.544214 
1158.000000	99.541080 
1157.000000	99.535285 
1156.000000	99.527622 
1155.000000	99.519763 
1154.000000	99.513411 
1153.000000	99.508597 
1152.000000	99.503682 
1151.000000	99.497198 
1150.000000	99.488819 
1149.000000	99.478641 
1148.000000	99.467002 
1147.000000	99.455449 
1146.000000	99.446332 
1145.000000	99.440359 
1144.000000	99.435586 
1143.000000	99.429800 
1142.000000	99.423041 
1141.000000	99.416712 
1140.000000	99.411036 
1139.000000	99.404747 
1138.000000	99.396922 
1137.000000	99.387747 
1136.000000	99.377580 
1135.000000	99.366525 
1134.000000	99.355148 
1133.000000	99.344496 
1132.000000	99.334928 
1131.000000	99.325700 
1130.000000	99.316299 
1129.000000	99.307676 
1128.000000	99.301271 
1127.000000	99.296743 
1126.000000	99.291327 
1125.000000	99.282062 
1124.000000	99.268535 
1123.000000	99.253215 
1122.000000	99.239181 
1121.000000	99.227809 
1120.000000	99.218866 
1119.000000	99.211914 
1118.000000	99.206649 
1117.000000	99.202149 
1116.000000	99.196886 
1115.000000	99.189963 
1114.000000	99.181738 
1113.000000	99.172764 
1112.000000	99.162619 
1111.000000	99.150453 
1110.000000	99.136536 
1109.000000	99.122728 
1108.000000	99.111185 
1107.000000	99.102587 
1106.000000	99.095581 
1105.000000	99.087843 
1104.000000	99.078073 
1103.000000	99.067218 
1102.000000	99.057600 
1101.000000	99.050924 
1100.000000	99.047162 
1099.000000	99.044937 
1098.000000	99.042579 
1097.000000	99.038793 
1096.000000	99.033034 
1095.000000	99.025691 
1094.000000	99.017779 
1093.000000	99.010177 
1092.000000	99.003067 
1091.000000	98.995991 
1090.000000	98.988268 
1089.000000	98.979458 
1088.000000	98.969638 
1087.000000	98.959232 
1086.000000	98.948519 
1085.000000	98.937516 
1084.000000	98.926476 
1083.000000	98.916154 
1082.000000	98.907322 
1081.000000	98.900231 
1080.000000	98.894525 
1079.000000	98.889181 
1078.000000	98.882511 
1077.000000	98.873029 
1076.000000	98.860774 
1075.000000	98.847331 
1074.000000	98.834361 
1073.000000	98.822627 
1072.000000	98.812175 
1071.000000	98.801851 
1070.000000	98.788386 
1069.000000	98.768375 
1068.000000	98.742864 
1067.000000	98.718561 
1066.000000	98.702000 
1065.000000	98.692856 
1064.000000	98.684771 
1063.000000	98.671868 
1062.000000	98.652537 
1061.000000	98.628088 
1060.000000	98.601038 
1059.000000	98.575241 
1058.000000	98.554772 
1057.000000	98.540928 
1056.000000	98.531304 
1055.000000	98.522228 
1054.000000	98.510966 
1053.000000	98.495683 
1052.000000	98.475623 
1051.000000	98.452681 
1050.000000	98.431078 
1049.000000	98.413684 
1048.000000	98.399426 
1047.000000	98.384930 
1046.000000	98.367677 
1045.000000	98.347516 
1044.000000	98.326894 
1043.000000	98.310140 
1042.000000	98.300533 
1041.000000	98.296757 
1040.000000	98.293312 
1039.000000	98.285642 
1038.000000	98.274235 
1037.000000	98.262875 
1036.000000	98.254300 
1035.000000	98.249030 
1034.000000	98.247141 
1033.000000	98.248693 
1032.000000	98.252006 
1031.000000	98.253320 
1030.000000	98.249646 
1029.000000	98.241882 
1028.000000	98.234527 
1027.000000	98.232142 
1026.000000	98.235769 
1025.000000	98.242345 
1024.000000	98.247714 
1023.000000	98.250532 
1022.000000	98.252985 
1021.000000	98.257322 
1020.000000	98.262219 
1019.000000	98.263753 
1018.000000	98.260136 
1017.000000	98.254122 
1016.000000	98.249968 
1015.000000	98.249122 
1014.000000	98.250004 
1013.000000	98.251207 
1012.000000	98.253047 
1011.000000	98.255864 
1010.000000	98.258617 
1009.000000	98.260081 
1008.000000	98.260246 
1007.000000	98.259596 
1006.000000	98.258105 
1005.000000	98.256319 
1004.000000	98.256689 
1003.000000	98.262005 
1002.000000	98.272222 
1001.000000	98.283900 
1000.000000	98.293125 
999.000000	 98.298436 
998.000000	 98.301097 
997.000000	 98.303602 
996.000000	 98.308098 
995.000000	 98.315143 
994.000000	 98.323349 
993.000000	 98.330643 
992.000000	 98.336292 
991.000000	 98.341639 
990.000000	 98.349020 
989.000000	 98.360148 
988.000000	 98.374764 
987.000000	 98.389958 
986.000000	 98.401700 
985.000000	 98.408896 
984.000000	 98.415682 
983.000000	 98.427800 
982.000000	 98.446556 
981.000000	 98.467771 
980.000000	 98.486858 
979.000000	 98.503375 
978.000000	 98.519924 
977.000000	 98.538504 
976.000000	 98.559176 
975.000000	 98.580741 
974.000000	 98.601341 
973.000000	 98.619498 
972.000000	 98.635794 
971.000000	 98.652535 
970.000000	 98.670688 
969.000000	 98.688493 
968.000000	 98.704506 
967.000000	 98.720380 
966.000000	 98.738532 
965.000000	 98.758302 
964.000000	 98.777155 
963.000000	 98.795064 
962.000000	 98.814640 
961.000000	 98.836572 
960.000000	 98.857839 
959.000000	 98.875706 
958.000000	 98.891212 
957.000000	 98.907144 
956.000000	 98.924160 
955.000000	 98.940546 
954.000000	 98.954844 
953.000000	 98.967128 
952.000000	 98.978097 
951.000000	 98.988070 
950.000000	 98.996969 
949.000000	 99.005023 
948.000000	 99.013440 
947.000000	 99.023691 
946.000000	 99.035211 
945.000000	 99.044609 
944.000000	 99.049148 
943.000000	 99.050959 
942.000000	 99.055682 
941.000000	 99.066148 
940.000000	 99.079373 
939.000000	 99.090457 
938.000000	 99.097265 
937.000000	 99.100420 
936.000000	 99.101313 
935.000000	 99.102212 
934.000000	 99.106426 
933.000000	 99.115703 
932.000000	 99.128113 
931.000000	 99.140068 
930.000000	 99.149665 
929.000000	 99.156765 
928.000000	 99.161232 
927.000000	 99.163440 
926.000000	 99.165769 
925.000000	 99.171242 
924.000000	 99.180502 
923.000000	 99.191333 
922.000000	 99.200750 
921.000000	 99.206515 
920.000000	 99.207656 
919.000000	 99.205583 
918.000000	 99.204305 
917.000000	 99.207386 
916.000000	 99.214495 
915.000000	 99.222396 
914.000000	 99.229382 
913.000000	 99.237030 
912.000000	 99.247087 
911.000000	 99.258316 
910.000000	 99.267689 
909.000000	 99.274207 
908.000000	 99.280491 
907.000000	 99.290314 
906.000000	 99.304885 
905.000000	 99.321797 
904.000000	 99.337463 
903.000000	 99.350154 
902.000000	 99.360239 
901.000000	 99.368621 
900.000000	 99.376746 
899.000000	 99.387582 
898.000000	 99.403721 
897.000000	 99.423486 
896.000000	 99.441185 
895.000000	 99.453191 
894.000000	 99.462022 
893.000000	 99.472739 
892.000000	 99.486856 
891.000000	 99.501846 
890.000000	 99.515077 
889.000000	 99.525380 
888.000000	 99.531861 
887.000000	 99.534774 
886.000000	 99.537669 
885.000000	 99.545359 
884.000000	 99.558654 
883.000000	 99.573304 
882.000000	 99.584946 
881.000000	 99.593441 
880.000000	 99.601613 
879.000000	 99.611546 
878.000000	 99.622954 
877.000000	 99.634028 
876.000000	 99.643406 
875.000000	 99.652026 
874.000000	 99.662482 
873.000000	 99.675331 
872.000000	 99.687409 
871.000000	 99.695873 
870.000000	 99.702294 
869.000000	 99.710017 
868.000000	 99.718787 
867.000000	 99.725692 
866.000000	 99.730720 
865.000000	 99.737117 
864.000000	 99.745956 
863.000000	 99.754578 
862.000000	 99.761506 
861.000000	 99.768997 
860.000000	 99.778904 
859.000000	 99.789320 
858.000000	 99.797538 
857.000000	 99.803589 
856.000000	 99.809127 
855.000000	 99.815748 
854.000000	 99.825825 
853.000000	 99.841035 
852.000000	 99.857821 
851.000000	 99.868597 
850.000000	 99.870504 
849.000000	 99.869246 
848.000000	 99.871038 
847.000000	 99.874348 
846.000000	 99.873798 
845.000000	 99.868792 
844.000000	 99.863724 
843.000000	 99.862181 
842.000000	 99.865214 
841.000000	 99.873287 
840.000000	 99.885293 
839.000000	 99.896499 
838.000000	 99.901292 
837.000000	 99.897761 
836.000000	 99.887587 
835.000000	 99.873354 
834.000000	 99.858610 
833.000000	 99.848482 
832.000000	 99.846574 
831.000000	 99.851896 
830.000000	 99.861142 
829.000000	 99.872317 
828.000000	 99.883211 
827.000000	 99.889084 
826.000000	 99.887362 
825.000000	 99.883637 
824.000000	 99.886801 
823.000000	 99.897557 
822.000000	 99.907502 
821.000000	 99.910566 
820.000000	 99.909760 
819.000000	 99.911053 
818.000000	 99.914945 
817.000000	 99.916626 
816.000000	 99.912402 
815.000000	 99.903508 
814.000000	 99.893560 
813.000000	 99.883407 
812.000000	 99.869666 
811.000000	 99.848566 
810.000000	 99.820070 
809.000000	 99.787070 
808.000000	 99.751400 
807.000000	 99.712363 
806.000000	 99.668864 
805.000000	 99.621465 
804.000000	 99.572796 
803.000000	 99.527407 
802.000000	 99.490148 
801.000000	 99.462628 
800.000000	 99.442251 
799.000000	 99.427008 
798.000000	 99.420046 
797.000000	 99.426058 
796.000000	 99.443367 
795.000000	 99.463179 
794.000000	 99.477536 
793.000000	 99.484991 
792.000000	 99.487910 
791.000000	 99.488858 
790.000000	 99.491177 
789.000000	 99.497956 
788.000000	 99.506834 
787.000000	 99.509324 
786.000000	 99.499303 
785.000000	 99.479820 
784.000000	 99.458372 
783.000000	 99.438147 
782.000000	 99.417795 
781.000000	 99.397796 
780.000000	 99.382279 
779.000000	 99.374636 
778.000000	 99.374666 
777.000000	 99.380058 
776.000000	 99.388120 
775.000000	 99.396299 
774.000000	 99.403923 
773.000000	 99.413793 
772.000000	 99.429594 
771.000000	 99.451073 
770.000000	 99.473158 
769.000000	 99.490038 
768.000000	 99.499006 
767.000000	 99.501181 
766.000000	 99.500731 
765.000000	 99.503142 
764.000000	 99.511928 
763.000000	 99.525907 
762.000000	 99.540121 
761.000000	 99.549566 
760.000000	 99.552094 
759.000000	 99.549293 
758.000000	 99.546018 
757.000000	 99.547790 
756.000000	 99.556693 
755.000000	 99.569904 
754.000000	 99.583040 
753.000000	 99.594190 
752.000000	 99.603346 
751.000000	 99.609369 
750.000000	 99.610519 
749.000000	 99.608189 
748.000000	 99.607540 
747.000000	 99.612882 
746.000000	 99.623423 
745.000000	 99.634858 
744.000000	 99.644609 
743.000000	 99.653960 
742.000000	 99.664926 
741.000000	 99.676796 
740.000000	 99.687190 
739.000000	 99.695578 
738.000000	 99.703759 
737.000000	 99.712656 
736.000000	 99.720526 
735.000000	 99.725496 
734.000000	 99.728465 
733.000000	 99.731901 
732.000000	 99.736409 
731.000000	 99.740297 
730.000000	 99.742211 
729.000000	 99.742302 
728.000000	 99.741033 
727.000000	 99.739283 
726.000000	 99.740075 
725.000000	 99.747441 
724.000000	 99.762043 
723.000000	 99.779496 
722.000000	 99.794218 
721.000000	 99.803828 
720.000000	 99.809031 
719.000000	 99.811062 
718.000000	 99.810666 
717.000000	 99.808438 
716.000000	 99.804982 
715.000000	 99.801499 
714.000000	 99.800637 
713.000000	 99.805250 
712.000000	 99.815434 
711.000000	 99.827844 
710.000000	 99.838562 
709.000000	 99.845320 
708.000000	 99.846656 
707.000000	 99.841511 
706.000000	 99.831152 
705.000000	 99.820142 
704.000000	 99.813847 
703.000000	 99.814802 
702.000000	 99.820976 
701.000000	 99.826341 
700.000000	 99.823709 
699.000000	 99.809521 
698.000000	 99.787285 
697.000000	 99.765419 
696.000000	 99.750833 
695.000000	 99.745415 
694.000000	 99.747756 
693.000000	 99.755547 
692.000000	 99.765979 
691.000000	 99.776119 
690.000000	 99.784220 
689.000000	 99.789768 
688.000000	 99.792757 
687.000000	 99.794689 
686.000000	 99.799008 
685.000000	 99.807302 
684.000000	 99.815806 
683.000000	 99.818983 
682.000000	 99.816559 
681.000000	 99.813743 
680.000000	 99.814458 
679.000000	 99.817968 
678.000000	 99.822867 
677.000000	 99.830007 
676.000000	 99.839351 
675.000000	 99.847564 
674.000000	 99.851871 
673.000000	 99.854033 
672.000000	 99.857874 
671.000000	 99.864352 
670.000000	 99.870743 
669.000000	 99.872935 
668.000000	 99.868816 
667.000000	 99.861772 
666.000000	 99.857630 
665.000000	 99.858866 
664.000000	 99.864932 
663.000000	 99.873798 
662.000000	 99.882429 
661.000000	 99.887983 
660.000000	 99.888734 
659.000000	 99.884881 
658.000000	 99.879805 
657.000000	 99.878481 
656.000000	 99.882745 
655.000000	 99.890195 
654.000000	 99.897585 
653.000000	 99.904249 
652.000000	 99.910697 
651.000000	 99.916971 
650.000000	 99.923920 

