4000.000000	99.219032 
3999.000000	99.218679 
3998.000000	99.218684 
3997.000000	99.219253 
3996.000000	99.220032 
3995.000000	99.220437 
3994.000000	99.220282 
3993.000000	99.219934 
3992.000000	99.219861 
3991.000000	99.220046 
3990.000000	99.220026 
3989.000000	99.219395 
3988.000000	99.218154 
3987.000000	99.216753 
3986.000000	99.215849 
3985.000000	99.215894 
3984.000000	99.216869 
3983.000000	99.218295 
3982.000000	99.219577 
3981.000000	99.220419 
3980.000000	99.220850 
3979.000000	99.220996 
3978.000000	99.220937 
3977.000000	99.220730 
3976.000000	99.220382 
3975.000000	99.219798 
3974.000000	99.218887 
3973.000000	99.217765 
3972.000000	99.216757 
3971.000000	99.216181 
3970.000000	99.216200 
3969.000000	99.216814 
3968.000000	99.217883 
3967.000000	99.219123 
3966.000000	99.220143 
3965.000000	99.220577 
3964.000000	99.220245 
3963.000000	99.219331 
3962.000000	99.218366 
3961.000000	99.217853 
3960.000000	99.217768 
3959.000000	99.217589 
3958.000000	99.216975 
3957.000000	99.216217 
3956.000000	99.215916 
3955.000000	99.216274 
3954.000000	99.216915 
3953.000000	99.217300 
3952.000000	99.217144 
3951.000000	99.216496 
3950.000000	99.215546 
3949.000000	99.214493 
3948.000000	99.213538 
3947.000000	99.212909 
3946.000000	99.212700 
3945.000000	99.212704 
3944.000000	99.212534 
3943.000000	99.211969 
3942.000000	99.211166 
3941.000000	99.210473 
3940.000000	99.209979 
3939.000000	99.209488 
3938.000000	99.208964 
3937.000000	99.208625 
3936.000000	99.208606 
3935.000000	99.208684 
3934.000000	99.208609 
3933.000000	99.208450 
3932.000000	99.208449 
3931.000000	99.208682 
3930.000000	99.208956 
3929.000000	99.209024 
3928.000000	99.208804 
3927.000000	99.208312 
3926.000000	99.207646 
3925.000000	99.207033 
3924.000000	99.206711 
3923.000000	99.206655 
3922.000000	99.206560 
3921.000000	99.206226 
3920.000000	99.205805 
3919.000000	99.205557 
3918.000000	99.205519 
3917.000000	99.205529 
3916.000000	99.205476 
3915.000000	99.205371 
3914.000000	99.205223 
3913.000000	99.205013 
3912.000000	99.204758 
3911.000000	99.204464 
3910.000000	99.204150 
3909.000000	99.203831 
3908.000000	99.203546 
3907.000000	99.203314 
3906.000000	99.203116 
3905.000000	99.202912 
3904.000000	99.202684 
3903.000000	99.202450 
3902.000000	99.202225 
3901.000000	99.201998 
3900.000000	99.201754 
3899.000000	99.201489 
3898.000000	99.201206 
3897.000000	99.200908 
3896.000000	99.200599 
3895.000000	99.200293 
3894.000000	99.200015 
3893.000000	99.199770 
3892.000000	99.199541 
3891.000000	99.199303 
3890.000000	99.199059 
3889.000000	99.198816 
3888.000000	99.198570 
3887.000000	99.198311 
3886.000000	99.198043 
3885.000000	99.197778 
3884.000000	99.197534 
3883.000000	99.197304 
3882.000000	99.197068 
3881.000000	99.196817 
3880.000000	99.196557 
3879.000000	99.196309 
3878.000000	99.196088 
3877.000000	99.195886 
3876.000000	99.195685 
3875.000000	99.195472 
3874.000000	99.195250 
3873.000000	99.195048 
3872.000000	99.194877 
3871.000000	99.194709 
3870.000000	99.194532 
3869.000000	99.194415 
3868.000000	99.194423 
3867.000000	99.194500 
3866.000000	99.194520 
3865.000000	99.194489 
3864.000000	99.194502 
3863.000000	99.194568 
3862.000000	99.194589 
3861.000000	99.194504 
3860.000000	99.194364 
3859.000000	99.194228 
3858.000000	99.194105 
3857.000000	99.194001 
3856.000000	99.193995 
3855.000000	99.194164 
3854.000000	99.194391 
3853.000000	99.194500 
3852.000000	99.194643 
3851.000000	99.194890 
3850.000000	99.195101 
3849.000000	99.195225 
3848.000000	99.195316 
3847.000000	99.195413 
3846.000000	99.195508 
3845.000000	99.195587 
3844.000000	99.195653 
3843.000000	99.195715 
3842.000000	99.195770 
3841.000000	99.195818 
3840.000000	99.195863 
3839.000000	99.195907 
3838.000000	99.195943 
3837.000000	99.195965 
3836.000000	99.195970 
3835.000000	99.195960 
3834.000000	99.195935 
3833.000000	99.195898 
3832.000000	99.195852 
3831.000000	99.195801 
3830.000000	99.195746 
3829.000000	99.195689 
3828.000000	99.195631 
3827.000000	99.195567 
3826.000000	99.195500 
3825.000000	99.195437 
3824.000000	99.195385 
3823.000000	99.195345 
3822.000000	99.195305 
3821.000000	99.195255 
3820.000000	99.195199 
3819.000000	99.195148 
3818.000000	99.195103 
3817.000000	99.195059 
3816.000000	99.195017 
3815.000000	99.194989 
3814.000000	99.194974 
3813.000000	99.194961 
3812.000000	99.194935 
3811.000000	99.194902 
3810.000000	99.194871 
3809.000000	99.194845 
3808.000000	99.194820 
3807.000000	99.194800 
3806.000000	99.194791 
3805.000000	99.194802 
3804.000000	99.194830 
3803.000000	99.194866 
3802.000000	99.194910 
3801.000000	99.194973 
3800.000000	99.195069 
3799.000000	99.195198 
3798.000000	99.195347 
3797.000000	99.195508 
3796.000000	99.195686 
3795.000000	99.195886 
3794.000000	99.196109 
3793.000000	99.196349 
3792.000000	99.196597 
3791.000000	99.196844 
3790.000000	99.197083 
3789.000000	99.197312 
3788.000000	99.197530 
3787.000000	99.197730 
3786.000000	99.197906 
3785.000000	99.198060 
3784.000000	99.198193 
3783.000000	99.198298 
3782.000000	99.198388 
3781.000000	99.198450 
3780.000000	99.198438 
3779.000000	99.198319 
3778.000000	99.198139 
3777.000000	99.197975 
3776.000000	99.197837 
3775.000000	99.197717 
3774.000000	99.197657 
3773.000000	99.197679 
3772.000000	99.197666 
3771.000000	99.197455 
3770.000000	99.197069 
3769.000000	99.196757 
3768.000000	99.196704 
3767.000000	99.196740 
3766.000000	99.196575 
3765.000000	99.196245 
3764.000000	99.196122 
3763.000000	99.196378 
3762.000000	99.196596 
3761.000000	99.196367 
3760.000000	99.195922 
3759.000000	99.195649 
3758.000000	99.195471 
3757.000000	99.195071 
3756.000000	99.194451 
3755.000000	99.193670 
3754.000000	99.192676 
3753.000000	99.191817 
3752.000000	99.191665 
3751.000000	99.191530 
3750.000000	99.189838 
3749.000000	99.187022 
3748.000000	99.185139 
3747.000000	99.184612 
3746.000000	99.184264 
3745.000000	99.182905 
3744.000000	99.180360 
3743.000000	99.179507 
3742.000000	99.181430 
3741.000000	99.182269 
3740.000000	99.180485 
3739.000000	99.178490 
3738.000000	99.178093 
3737.000000	99.178481 
3736.000000	99.178747 
3735.000000	99.179943 
3734.000000	99.182441 
3733.000000	99.183714 
3732.000000	99.181833 
3731.000000	99.178770 
3730.000000	99.177336 
3729.000000	99.177218 
3728.000000	99.176519 
3727.000000	99.175366 
3726.000000	99.175622 
3725.000000	99.177778 
3724.000000	99.179312 
3723.000000	99.177855 
3722.000000	99.174140 
3721.000000	99.170785 
3720.000000	99.169461 
3719.000000	99.169338 
3718.000000	99.168597 
3717.000000	99.166404 
3716.000000	99.163142 
3715.000000	99.158889 
3714.000000	99.153447 
3713.000000	99.147677 
3712.000000	99.142720 
3711.000000	99.138968 
3710.000000	99.136887 
3709.000000	99.136012 
3708.000000	99.134634 
3707.000000	99.131755 
3706.000000	99.128124 
3705.000000	99.124962 
3704.000000	99.122562 
3703.000000	99.120218 
3702.000000	99.116922 
3701.000000	99.112755 
3700.000000	99.109313 
3699.000000	99.106981 
3698.000000	99.103643 
3697.000000	99.097840 
3696.000000	99.090848 
3695.000000	99.084766 
3694.000000	99.079884 
3693.000000	99.075489 
3692.000000	99.071738 
3691.000000	99.068729 
3690.000000	99.064931 
3689.000000	99.058750 
3688.000000	99.052682 
3687.000000	99.051122 
3686.000000	99.053631 
3685.000000	99.055513 
3684.000000	99.054613 
3683.000000	99.052936 
3682.000000	99.052242 
3681.000000	99.050915 
3680.000000	99.046350 
3679.000000	99.039265 
3678.000000	99.032090 
3677.000000	99.025959 
3676.000000	99.020135 
3675.000000	99.015697 
3674.000000	99.017788 
3673.000000	99.025328 
3672.000000	99.029637 
3671.000000	99.028287 
3670.000000	99.025411 
3669.000000	99.024323 
3668.000000	99.025530 
3667.000000	99.026117 
3666.000000	99.024069 
3665.000000	99.021237 
3664.000000	99.020171 
3663.000000	99.021007 
3662.000000	99.022047 
3661.000000	99.022205 
3660.000000	99.022268 
3659.000000	99.023788 
3658.000000	99.026879 
3657.000000	99.030025 
3656.000000	99.031958 
3655.000000	99.034521 
3654.000000	99.039193 
3653.000000	99.044013 
3652.000000	99.047648 
3651.000000	99.051627 
3650.000000	99.055730 
3649.000000	99.056349 
3648.000000	99.052826 
3647.000000	99.049347 
3646.000000	99.049472 
3645.000000	99.053010 
3644.000000	99.057916 
3643.000000	99.062645 
3642.000000	99.067031 
3641.000000	99.071297 
3640.000000	99.075358 
3639.000000	99.079137 
3638.000000	99.083311 
3637.000000	99.088646 
3636.000000	99.094037 
3635.000000	99.096971 
3634.000000	99.096525 
3633.000000	99.094767 
3632.000000	99.094155 
3631.000000	99.095136 
3630.000000	99.096620 
3629.000000	99.096492 
3628.000000	99.095077 
3627.000000	99.096039 
3626.000000	99.099106 
3625.000000	99.101554 
3624.000000	99.103406 
3623.000000	99.105804 
3622.000000	99.108523 
3621.000000	99.110394 
3620.000000	99.111012 
3619.000000	99.111196 
3618.000000	99.112415 
3617.000000	99.115369 
3616.000000	99.118930 
3615.000000	99.121394 
3614.000000	99.122159 
3613.000000	99.121898 
3612.000000	99.121653 
3611.000000	99.121743 
3610.000000	99.121794 
3609.000000	99.121767 
3608.000000	99.122121 
3607.000000	99.123208 
3606.000000	99.124964 
3605.000000	99.127031 
3604.000000	99.129266 
3603.000000	99.131602 
3602.000000	99.133508 
3601.000000	99.134620 
3600.000000	99.135543 
3599.000000	99.137140 
3598.000000	99.139126 
3597.000000	99.140615 
3596.000000	99.141043 
3595.000000	99.140560 
3594.000000	99.139747 
3593.000000	99.139505 
3592.000000	99.140488 
3591.000000	99.142786 
3590.000000	99.145934 
3589.000000	99.148977 
3588.000000	99.150542 
3587.000000	99.149980 
3586.000000	99.148419 
3585.000000	99.147153 
3584.000000	99.146156 
3583.000000	99.145226 
3582.000000	99.144488 
3581.000000	99.143921 
3580.000000	99.143154 
3579.000000	99.141940 
3578.000000	99.140337 
3577.000000	99.138827 
3576.000000	99.138070 
3575.000000	99.138471 
3574.000000	99.139884 
3573.000000	99.141688 
3572.000000	99.143233 
3571.000000	99.144084 
3570.000000	99.144041 
3569.000000	99.143089 
3568.000000	99.141587 
3567.000000	99.140311 
3566.000000	99.140078 
3565.000000	99.140920 
3564.000000	99.141871 
3563.000000	99.142077 
3562.000000	99.141581 
3561.000000	99.140903 
3560.000000	99.140437 
3559.000000	99.140275 
3558.000000	99.140343 
3557.000000	99.140514 
3556.000000	99.140678 
3555.000000	99.140740 
3554.000000	99.140644 
3553.000000	99.140402 
3552.000000	99.140103 
3551.000000	99.139826 
3550.000000	99.139567 
3549.000000	99.139314 
3548.000000	99.139162 
3547.000000	99.139206 
3546.000000	99.139382 
3545.000000	99.139553 
3544.000000	99.139634 
3543.000000	99.139619 
3542.000000	99.139542 
3541.000000	99.139466 
3540.000000	99.139464 
3539.000000	99.139542 
3538.000000	99.139644 
3537.000000	99.139695 
3536.000000	99.139669 
3535.000000	99.139590 
3534.000000	99.139478 
3533.000000	99.139343 
3532.000000	99.139196 
3531.000000	99.139059 
3530.000000	99.138928 
3529.000000	99.138784 
3528.000000	99.138626 
3527.000000	99.138485 
3526.000000	99.138372 
3525.000000	99.138251 
3524.000000	99.138076 
3523.000000	99.137850 
3522.000000	99.137615 
3521.000000	99.137404 
3520.000000	99.137217 
3519.000000	99.137035 
3518.000000	99.136844 
3517.000000	99.136633 
3516.000000	99.136390 
3515.000000	99.136114 
3514.000000	99.135819 
3513.000000	99.135520 
3512.000000	99.135212 
3511.000000	99.134880 
3510.000000	99.134519 
3509.000000	99.134138 
3508.000000	99.133745 
3507.000000	99.133341 
3506.000000	99.132925 
3505.000000	99.132496 
3504.000000	99.132057 
3503.000000	99.131617 
3502.000000	99.131187 
3501.000000	99.130770 
3500.000000	99.130361 
3499.000000	99.129943 
3498.000000	99.129508 
3497.000000	99.129057 
3496.000000	99.128600 
3495.000000	99.128150 
3494.000000	99.127714 
3493.000000	99.127290 
3492.000000	99.126873 
3491.000000	99.126461 
3490.000000	99.126053 
3489.000000	99.125650 
3488.000000	99.125251 
3487.000000	99.124856 
3486.000000	99.124460 
3485.000000	99.124062 
3484.000000	99.123659 
3483.000000	99.123251 
3482.000000	99.122840 
3481.000000	99.122425 
3480.000000	99.122007 
3479.000000	99.121589 
3478.000000	99.121174 
3477.000000	99.120765 
3476.000000	99.120364 
3475.000000	99.119971 
3474.000000	99.119588 
3473.000000	99.119217 
3472.000000	99.118858 
3471.000000	99.118512 
3470.000000	99.118178 
3469.000000	99.117853 
3468.000000	99.117536 
3467.000000	99.117223 
3466.000000	99.116912 
3465.000000	99.116600 
3464.000000	99.116291 
3463.000000	99.115988 
3462.000000	99.115687 
3461.000000	99.115388 
3460.000000	99.115078 
3459.000000	99.114744 
3458.000000	99.114398 
3457.000000	99.114092 
3456.000000	99.113865 
3455.000000	99.113657 
3454.000000	99.113361 
3453.000000	99.112969 
3452.000000	99.112596 
3451.000000	99.112362 
3450.000000	99.112271 
3449.000000	99.112214 
3448.000000	99.112057 
3447.000000	99.111754 
3446.000000	99.111358 
3445.000000	99.110966 
3444.000000	99.110644 
3443.000000	99.110400 
3442.000000	99.110209 
3441.000000	99.110033 
3440.000000	99.109868 
3439.000000	99.109739 
3438.000000	99.109646 
3437.000000	99.109533 
3436.000000	99.109337 
3435.000000	99.109091 
3434.000000	99.108917 
3433.000000	99.108902 
3432.000000	99.109014 
3431.000000	99.109144 
3430.000000	99.109205 
3429.000000	99.109160 
3428.000000	99.108972 
3427.000000	99.108603 
3426.000000	99.108095 
3425.000000	99.107607 
3424.000000	99.107322 
3423.000000	99.107279 
3422.000000	99.107334 
3421.000000	99.107282 
3420.000000	99.107022 
3419.000000	99.106604 
3418.000000	99.106177 
3417.000000	99.105894 
3416.000000	99.105809 
3415.000000	99.105810 
3414.000000	99.105720 
3413.000000	99.105516 
3412.000000	99.105385 
3411.000000	99.105510 
3410.000000	99.105879 
3409.000000	99.106359 
3408.000000	99.106824 
3407.000000	99.107124 
3406.000000	99.107084 
3405.000000	99.106670 
3404.000000	99.106167 
3403.000000	99.106000 
3402.000000	99.106330 
3401.000000	99.106927 
3400.000000	99.107391 
3399.000000	99.107527 
3398.000000	99.107443 
3397.000000	99.107400 
3396.000000	99.107543 
3395.000000	99.107767 
3394.000000	99.107866 
3393.000000	99.107775 
3392.000000	99.107620 
3391.000000	99.107510 
3390.000000	99.107377 
3389.000000	99.107107 
3388.000000	99.106735 
3387.000000	99.106418 
3386.000000	99.106266 
3385.000000	99.106307 
3384.000000	99.106534 
3383.000000	99.106888 
3382.000000	99.107180 
3381.000000	99.107191 
3380.000000	99.106882 
3379.000000	99.106480 
3378.000000	99.106300 
3377.000000	99.106538 
3376.000000	99.107182 
3375.000000	99.108051 
3374.000000	99.108918 
3373.000000	99.109640 
3372.000000	99.110170 
3371.000000	99.110454 
3370.000000	99.110435 
3369.000000	99.110232 
3368.000000	99.110177 
3367.000000	99.110468 
3366.000000	99.110851 
3365.000000	99.110858 
3364.000000	99.110423 
3363.000000	99.110041 
3362.000000	99.110212 
3361.000000	99.110838 
3360.000000	99.111262 
3359.000000	99.110887 
3358.000000	99.109713 
3357.000000	99.108416 
3356.000000	99.107860 
3355.000000	99.108371 
3354.000000	99.109481 
3353.000000	99.110372 
3352.000000	99.110717 
3351.000000	99.110918 
3350.000000	99.111550 
3349.000000	99.112787 
3348.000000	99.114364 
3347.000000	99.115858 
3346.000000	99.116909 
3345.000000	99.117332 
3344.000000	99.117230 
3343.000000	99.116914 
3342.000000	99.116561 
3341.000000	99.116063 
3340.000000	99.115343 
3339.000000	99.114649 
3338.000000	99.114289 
3337.000000	99.114195 
3336.000000	99.114042 
3335.000000	99.113819 
3334.000000	99.113962 
3333.000000	99.114788 
3332.000000	99.116038 
3331.000000	99.117104 
3330.000000	99.117650 
3329.000000	99.117847 
3328.000000	99.118062 
3327.000000	99.118450 
3326.000000	99.118868 
3325.000000	99.119112 
3324.000000	99.119175 
3323.000000	99.119265 
3322.000000	99.119581 
3321.000000	99.120064 
3320.000000	99.120420 
3319.000000	99.120427 
3318.000000	99.120170 
3317.000000	99.119972 
3316.000000	99.120087 
3315.000000	99.120495 
3314.000000	99.120992 
3313.000000	99.121389 
3312.000000	99.121648 
3311.000000	99.121829 
3310.000000	99.122012 
3309.000000	99.122232 
3308.000000	99.122475 
3307.000000	99.122691 
3306.000000	99.122842 
3305.000000	99.122934 
3304.000000	99.122997 
3303.000000	99.123054 
3302.000000	99.123120 
3301.000000	99.123228 
3300.000000	99.123432 
3299.000000	99.123770 
3298.000000	99.124168 
3297.000000	99.124487 
3296.000000	99.124667 
3295.000000	99.124785 
3294.000000	99.124967 
3293.000000	99.125289 
3292.000000	99.125773 
3291.000000	99.126349 
3290.000000	99.126826 
3289.000000	99.127022 
3288.000000	99.126953 
3287.000000	99.126836 
3286.000000	99.126828 
3285.000000	99.126863 
3284.000000	99.126815 
3283.000000	99.126719 
3282.000000	99.126738 
3281.000000	99.126909 
3280.000000	99.127028 
3279.000000	99.126846 
3278.000000	99.126370 
3277.000000	99.125953 
3276.000000	99.126018 
3275.000000	99.126673 
3274.000000	99.127602 
3273.000000	99.128313 
3272.000000	99.128502 
3271.000000	99.128165 
3270.000000	99.127455 
3269.000000	99.126570 
3268.000000	99.125802 
3267.000000	99.125578 
3266.000000	99.126264 
3265.000000	99.127841 
3264.000000	99.129796 
3263.000000	99.131433 
3262.000000	99.132440 
3261.000000	99.133063 
3260.000000	99.133674 
3259.000000	99.134221 
3258.000000	99.134264 
3257.000000	99.133522 
3256.000000	99.132197 
3255.000000	99.130814 
3254.000000	99.129890 
3253.000000	99.129690 
3252.000000	99.130121 
3251.000000	99.130754 
3250.000000	99.131109 
3249.000000	99.131060 
3248.000000	99.130872 
3247.000000	99.130827 
3246.000000	99.130923 
3245.000000	99.130999 
3244.000000	99.131041 
3243.000000	99.131246 
3242.000000	99.131822 
3241.000000	99.132804 
3240.000000	99.133971 
3239.000000	99.134889 
3238.000000	99.135199 
3237.000000	99.134913 
3236.000000	99.134466 
3235.000000	99.134351 
3234.000000	99.134660 
3233.000000	99.135149 
3232.000000	99.135613 
3231.000000	99.136089 
3230.000000	99.136650 
3229.000000	99.137189 
3228.000000	99.137524 
3227.000000	99.137618 
3226.000000	99.137599 
3225.000000	99.137624 
3224.000000	99.137786 
3223.000000	99.138123 
3222.000000	99.138596 
3221.000000	99.139091 
3220.000000	99.139503 
3219.000000	99.139849 
3218.000000	99.140222 
3217.000000	99.140653 
3216.000000	99.141053 
3215.000000	99.141324 
3214.000000	99.141490 
3213.000000	99.141708 
3212.000000	99.142118 
3211.000000	99.142715 
3210.000000	99.143394 
3209.000000	99.144072 
3208.000000	99.144698 
3207.000000	99.145211 
3206.000000	99.145606 
3205.000000	99.146008 
3204.000000	99.146558 
3203.000000	99.147214 
3202.000000	99.147822 
3201.000000	99.148417 
3200.000000	99.149242 
3199.000000	99.150251 
3198.000000	99.150809 
3197.000000	99.150314 
3196.000000	99.149060 
3195.000000	99.148236 
3194.000000	99.148652 
3193.000000	99.149830 
3192.000000	99.150579 
3191.000000	99.150298 
3190.000000	99.149457 
3189.000000	99.148929 
3188.000000	99.149157 
3187.000000	99.149981 
3186.000000	99.150933 
3185.000000	99.151529 
3184.000000	99.151491 
3183.000000	99.150913 
3182.000000	99.150206 
3181.000000	99.149814 
3180.000000	99.149996 
3179.000000	99.150769 
3178.000000	99.151872 
3177.000000	99.152746 
3176.000000	99.152846 
3175.000000	99.152159 
3174.000000	99.151344 
3173.000000	99.151213 
3172.000000	99.152046 
3171.000000	99.153451 
3170.000000	99.154840 
3169.000000	99.156002 
3168.000000	99.157225 
3167.000000	99.158880 
3166.000000	99.160949 
3165.000000	99.163020 
3164.000000	99.164737 
3163.000000	99.166109 
3162.000000	99.167264 
3161.000000	99.168092 
3160.000000	99.168417 
3159.000000	99.168396 
3158.000000	99.168404 
3157.000000	99.168482 
3156.000000	99.168258 
3155.000000	99.167556 
3154.000000	99.166834 
3153.000000	99.166814 
3152.000000	99.167723 
3151.000000	99.169031 
3150.000000	99.169912 
3149.000000	99.169948 
3148.000000	99.169500 
3147.000000	99.169379 
3146.000000	99.169977 
3145.000000	99.170789 
3144.000000	99.170945 
3143.000000	99.170234 
3142.000000	99.169394 
3141.000000	99.169345 
3140.000000	99.170198 
3139.000000	99.171232 
3138.000000	99.171689 
3137.000000	99.171471 
3136.000000	99.171035 
3135.000000	99.170810 
3134.000000	99.170793 
3133.000000	99.170715 
3132.000000	99.170472 
3131.000000	99.170285 
3130.000000	99.170399 
3129.000000	99.170731 
3128.000000	99.170923 
3127.000000	99.170775 
3126.000000	99.170480 
3125.000000	99.170383 
3124.000000	99.170601 
3123.000000	99.170963 
3122.000000	99.171265 
3121.000000	99.171493 
3120.000000	99.171797 
3119.000000	99.172280 
3118.000000	99.172794 
3117.000000	99.172977 
3116.000000	99.172608 
3115.000000	99.171936 
3114.000000	99.171495 
3113.000000	99.171438 
3112.000000	99.171307 
3111.000000	99.170702 
3110.000000	99.170021 
3109.000000	99.170052 
3108.000000	99.170900 
3107.000000	99.171767 
3106.000000	99.171873 
3105.000000	99.171373 
3104.000000	99.171090 
3103.000000	99.171622 
3102.000000	99.172981 
3101.000000	99.174828 
3100.000000	99.176699 
3099.000000	99.178077 
3098.000000	99.178585 
3097.000000	99.178304 
3096.000000	99.177813 
3095.000000	99.177741 
3094.000000	99.178231 
3093.000000	99.178939 
3092.000000	99.179457 
3091.000000	99.179654 
3090.000000	99.179605 
3089.000000	99.179410 
3088.000000	99.179232 
3087.000000	99.179419 
3086.000000	99.180284 
3085.000000	99.181632 
3084.000000	99.182731 
3083.000000	99.182944 
3082.000000	99.182350 
3081.000000	99.181611 
3080.000000	99.181279 
3079.000000	99.181362 
3078.000000	99.181451 
3077.000000	99.181038 
3076.000000	99.179807 
3075.000000	99.177986 
3074.000000	99.176457 
3073.000000	99.176241 
3072.000000	99.177799 
3071.000000	99.180932 
3070.000000	99.185039 
3069.000000	99.188859 
3068.000000	99.190212 
3067.000000	99.187161 
3066.000000	99.180168 
3065.000000	99.172617 
3064.000000	99.168194 
3063.000000	99.167775 
3062.000000	99.169443 
3061.000000	99.171103 
3060.000000	99.172344 
3059.000000	99.173822 
3058.000000	99.175742 
3057.000000	99.177402 
3056.000000	99.177877 
3055.000000	99.176875 
3054.000000	99.175022 
3053.000000	99.173392 
3052.000000	99.172576 
3051.000000	99.172188 
3050.000000	99.171378 
3049.000000	99.169644 
3048.000000	99.166807 
3047.000000	99.162548 
3046.000000	99.156755 
3045.000000	99.150406 
3044.000000	99.145404 
3043.000000	99.143023 
3042.000000	99.142748 
3041.000000	99.142754 
3040.000000	99.141381 
3039.000000	99.138178 
3038.000000	99.133970 
3037.000000	99.130095 
3036.000000	99.127201 
3035.000000	99.124542 
3034.000000	99.120702 
3033.000000	99.114918 
3032.000000	99.107356 
3031.000000	99.098423 
3030.000000	99.088278 
3029.000000	99.077069 
3028.000000	99.065349 
3027.000000	99.054014 
3026.000000	99.043910 
3025.000000	99.035406 
3024.000000	99.027946 
3023.000000	99.019840 
3022.000000	99.009043 
3021.000000	98.994745 
3020.000000	98.978407 
3019.000000	98.963079 
3018.000000	98.951419 
3017.000000	98.943870 
3016.000000	98.938155 
3015.000000	98.930618 
3014.000000	98.918697 
3013.000000	98.902484 
3012.000000	98.883777 
3011.000000	98.863858 
3010.000000	98.842966 
3009.000000	98.821945 
3008.000000	98.803165 
3007.000000	98.788798 
3006.000000	98.778589 
3005.000000	98.769939 
3004.000000	98.759874 
3003.000000	98.746473 
3002.000000	98.729273 
3001.000000	98.709748 
3000.000000	98.691194 
2999.000000	98.676544 
2998.000000	98.665779 
2997.000000	98.656504 
2996.000000	98.647249 
2995.000000	98.638522 
2994.000000	98.629501 
2993.000000	98.615526 
2992.000000	98.591788 
2991.000000	98.559937 
2990.000000	98.529047 
2989.000000	98.508525 
2988.000000	98.500936 
2987.000000	98.502164 
2986.000000	98.506927 
2985.000000	98.512906 
2984.000000	98.519939 
2983.000000	98.527303 
2982.000000	98.533118 
2981.000000	98.535858 
2980.000000	98.535585 
2979.000000	98.533573 
2978.000000	98.531032 
2977.000000	98.528220 
2976.000000	98.524620 
2975.000000	98.519847 
2974.000000	98.514279 
2973.000000	98.508834 
2972.000000	98.504420 
2971.000000	98.501893 
2970.000000	98.502313 
2969.000000	98.506639 
2968.000000	98.514928 
2967.000000	98.526024 
2966.000000	98.538159 
2965.000000	98.549804 
2964.000000	98.560202 
2963.000000	98.569505 
2962.000000	98.578353 
2961.000000	98.586899 
2960.000000	98.594464 
2959.000000	98.600793 
2958.000000	98.607449 
2957.000000	98.616695 
2956.000000	98.628383 
2955.000000	98.638983 
2954.000000	98.644979 
2953.000000	98.647126 
2952.000000	98.650364 
2951.000000	98.659184 
2950.000000	98.673289 
2949.000000	98.687772 
2948.000000	98.697178 
2947.000000	98.699373 
2946.000000	98.696382 
2945.000000	98.692407 
2944.000000	98.690771 
2943.000000	98.692224 
2942.000000	98.695544 
2941.000000	98.698909 
2940.000000	98.700616 
2939.000000	98.699477 
2938.000000	98.695513 
2937.000000	98.690268 
2936.000000	98.685843 
2935.000000	98.683335 
2934.000000	98.682329 
2933.000000	98.681768 
2932.000000	98.680856 
2931.000000	98.679106 
2930.000000	98.676039 
2929.000000	98.671312 
2928.000000	98.665201 
2927.000000	98.658840 
2926.000000	98.653790 
2925.000000	98.651019 
2924.000000	98.650163 
2923.000000	98.650027 
2922.000000	98.649936 
2921.000000	98.650329 
2920.000000	98.651772 
2919.000000	98.653831 
2918.000000	98.655326 
2917.000000	98.655474 
2916.000000	98.654389 
2915.000000	98.652765 
2914.000000	98.651566 
2913.000000	98.651756 
2912.000000	98.653543 
2911.000000	98.655742 
2910.000000	98.656479 
2909.000000	98.654861 
2908.000000	98.651664 
2907.000000	98.648171 
2906.000000	98.644594 
2905.000000	98.639759 
2904.000000	98.632403 
2903.000000	98.623131 
2902.000000	98.615457 
2901.000000	98.614249 
2900.000000	98.622245 
2899.000000	98.637623 
2898.000000	98.654806 
2897.000000	98.668406 
2896.000000	98.676668 
2895.000000	98.681473 
2894.000000	98.685815 
2893.000000	98.691335 
2892.000000	98.697495 
2891.000000	98.702572 
2890.000000	98.705636 
2889.000000	98.707695 
2888.000000	98.710636 
2887.000000	98.715078 
2886.000000	98.719884 
2885.000000	98.723964 
2884.000000	98.727934 
2883.000000	98.733470 
2882.000000	98.741447 
2881.000000	98.751314 
2880.000000	98.762035 
2879.000000	98.773094 
2878.000000	98.784529 
2877.000000	98.796301 
2876.000000	98.807645 
2875.000000	98.817017 
2874.000000	98.823051 
2873.000000	98.825993 
2872.000000	98.828041 
2871.000000	98.831790 
2870.000000	98.838305 
2869.000000	98.846828 
2868.000000	98.856088 
2867.000000	98.865488 
2866.000000	98.875186 
2865.000000	98.885519 
2864.000000	98.896412 
2863.000000	98.906972 
2862.000000	98.915742 
2861.000000	98.921949 
2860.000000	98.926756 
2859.000000	98.932763 
2858.000000	98.941689 
2857.000000	98.952590 
2856.000000	98.962786 
2855.000000	98.970587 
2854.000000	98.976706 
2853.000000	98.983047 
2852.000000	98.990580 
2851.000000	98.998901 
2850.000000	99.007608 
2849.000000	99.017148 
2848.000000	99.027805 
2847.000000	99.038538 
2846.000000	99.047632 
2845.000000	99.054352 
2844.000000	99.059345 
2843.000000	99.063601 
2842.000000	99.067787 
2841.000000	99.072580 
2840.000000	99.078573 
2839.000000	99.085270 
2838.000000	99.090970 
2837.000000	99.094429 
2836.000000	99.096354 
2835.000000	99.098792 
2834.000000	99.103242 
2833.000000	99.109672 
2832.000000	99.116832 
2831.000000	99.122919 
2830.000000	99.126386 
2829.000000	99.127077 
2828.000000	99.126736 
2827.000000	99.127670 
2826.000000	99.130521 
2825.000000	99.133712 
2824.000000	99.135316 
2823.000000	99.135165 
2822.000000	99.134981 
2821.000000	99.136655 
2820.000000	99.140425 
2819.000000	99.144703 
2818.000000	99.147620 
2817.000000	99.148761 
2816.000000	99.149264 
2815.000000	99.150337 
2814.000000	99.152037 
2813.000000	99.153618 
2812.000000	99.154551 
2811.000000	99.154790 
2810.000000	99.154448 
2809.000000	99.153875 
2808.000000	99.153845 
2807.000000	99.154997 
2806.000000	99.156998 
2805.000000	99.158798 
2804.000000	99.159884 
2803.000000	99.160884 
2802.000000	99.162685 
2801.000000	99.165169 
2800.000000	99.167126 
2799.000000	99.167439 
2798.000000	99.166281 
2797.000000	99.165086 
2796.000000	99.165244 
2795.000000	99.166825 
2794.000000	99.168711 
2793.000000	99.169869 
2792.000000	99.170273 
2791.000000	99.170607 
2790.000000	99.171444 
2789.000000	99.172908 
2788.000000	99.174774 
2787.000000	99.176596 
2786.000000	99.177924 
2785.000000	99.178695 
2784.000000	99.179327 
2783.000000	99.180193 
2782.000000	99.181042 
2781.000000	99.181277 
2780.000000	99.180832 
2779.000000	99.180436 
2778.000000	99.180850 
2777.000000	99.182041 
2776.000000	99.183295 
2775.000000	99.183945 
2774.000000	99.183825 
2773.000000	99.183188 
2772.000000	99.182485 
2771.000000	99.182146 
2770.000000	99.182392 
2769.000000	99.183251 
2768.000000	99.184777 
2767.000000	99.187059 
2766.000000	99.189846 
2765.000000	99.192337 
2764.000000	99.193693 
2763.000000	99.193752 
2762.000000	99.193140 
2761.000000	99.192796 
2760.000000	99.193431 
2759.000000	99.195216 
2758.000000	99.197600 
2757.000000	99.199570 
2756.000000	99.200517 
2755.000000	99.200880 
2754.000000	99.201564 
2753.000000	99.202700 
2752.000000	99.203442 
2751.000000	99.203041 
2750.000000	99.201621 
2749.000000	99.199726 
2748.000000	99.197571 
2747.000000	99.195150 
2746.000000	99.192759 
2745.000000	99.190962 
2744.000000	99.190117 
2743.000000	99.190324 
2742.000000	99.191650 
2741.000000	99.194015 
2740.000000	99.196900 
2739.000000	99.199548 
2738.000000	99.201569 
2737.000000	99.203112 
2736.000000	99.204427 
2735.000000	99.205538 
2734.000000	99.206315 
2733.000000	99.206590 
2732.000000	99.206188 
2731.000000	99.205160 
2730.000000	99.204027 
2729.000000	99.203500 
2728.000000	99.203799 
2727.000000	99.204532 
2726.000000	99.205231 
2725.000000	99.205767 
2724.000000	99.206180 
2723.000000	99.206461 
2722.000000	99.206655 
2721.000000	99.206895 
2720.000000	99.207161 
2719.000000	99.207248 
2718.000000	99.207113 
2717.000000	99.207025 
2716.000000	99.207252 
2715.000000	99.207817 
2714.000000	99.208642 
2713.000000	99.209636 
2712.000000	99.210567 
2711.000000	99.211149 
2710.000000	99.211372 
2709.000000	99.211545 
2708.000000	99.211903 
2707.000000	99.212320 
2706.000000	99.212548 
2705.000000	99.212579 
2704.000000	99.212611 
2703.000000	99.212761 
2702.000000	99.212967 
2701.000000	99.213147 
2700.000000	99.213288 
2699.000000	99.213406 
2698.000000	99.213506 
2697.000000	99.213587 
2696.000000	99.213649 
2695.000000	99.213698 
2694.000000	99.213734 
2693.000000	99.213761 
2692.000000	99.213775 
2691.000000	99.213774 
2690.000000	99.213758 
2689.000000	99.213729 
2688.000000	99.213694 
2687.000000	99.213658 
2686.000000	99.213618 
2685.000000	99.213573 
2684.000000	99.213521 
2683.000000	99.213466 
2682.000000	99.213410 
2681.000000	99.213357 
2680.000000	99.213320 
2679.000000	99.213304 
2678.000000	99.213303 
2677.000000	99.213295 
2676.000000	99.213267 
2675.000000	99.213255 
2674.000000	99.213339 
2673.000000	99.213563 
2672.000000	99.213843 
2671.000000	99.213981 
2670.000000	99.213796 
2669.000000	99.213251 
2668.000000	99.212508 
2667.000000	99.211849 
2666.000000	99.211544 
2665.000000	99.211741 
2664.000000	99.212340 
2663.000000	99.212975 
2662.000000	99.213291 
2661.000000	99.213270 
2660.000000	99.213179 
2659.000000	99.213087 
2658.000000	99.212672 
2657.000000	99.211742 
2656.000000	99.210750 
2655.000000	99.210395 
2654.000000	99.210756 
2653.000000	99.211156 
2652.000000	99.210973 
2651.000000	99.210344 
2650.000000	99.209934 
2649.000000	99.210214 
2648.000000	99.211071 
2647.000000	99.211955 
2646.000000	99.212452 
2645.000000	99.212855 
2644.000000	99.213929 
2643.000000	99.215864 
2642.000000	99.217714 
2641.000000	99.218402 
2640.000000	99.218156 
2639.000000	99.218247 
2638.000000	99.219353 
2637.000000	99.220757 
2636.000000	99.221372 
2635.000000	99.220980 
2634.000000	99.220140 
2633.000000	99.219358 
2632.000000	99.218695 
2631.000000	99.217971 
2630.000000	99.217009 
2629.000000	99.215785 
2628.000000	99.214589 
2627.000000	99.213948 
2626.000000	99.214183 
2625.000000	99.215120 
2624.000000	99.216169 
2623.000000	99.216707 
2622.000000	99.216470 
2621.000000	99.215710 
2620.000000	99.215070 
2619.000000	99.215079 
2618.000000	99.215708 
2617.000000	99.216459 
2616.000000	99.216912 
2615.000000	99.217050 
2614.000000	99.217074 
2613.000000	99.217145 
2612.000000	99.217328 
2611.000000	99.217642 
2610.000000	99.218045 
2609.000000	99.218433 
2608.000000	99.218711 
2607.000000	99.218875 
2606.000000	99.218978 
2605.000000	99.219059 
2604.000000	99.219120 
2603.000000	99.219151 
2602.000000	99.219163 
2601.000000	99.219157 
2600.000000	99.219139 
2599.000000	99.219122 
2598.000000	99.219113 
2597.000000	99.219103 
2596.000000	99.219082 
2595.000000	99.219052 
2594.000000	99.219020 
2593.000000	99.218998 
2592.000000	99.218990 
2591.000000	99.218996 
2590.000000	99.219013 
2589.000000	99.219037 
2588.000000	99.219061 
2587.000000	99.219074 
2586.000000	99.219063 
2585.000000	99.219017 
2584.000000	99.218936 
2583.000000	99.218827 
2582.000000	99.218707 
2581.000000	99.218581 
2580.000000	99.218446 
2579.000000	99.218289 
2578.000000	99.218101 
2577.000000	99.217882 
2576.000000	99.217637 
2575.000000	99.217372 
2574.000000	99.217087 
2573.000000	99.216780 
2572.000000	99.216452 
2571.000000	99.216107 
2570.000000	99.215751 
2569.000000	99.215391 
2568.000000	99.215029 
2567.000000	99.214672 
2566.000000	99.214328 
2565.000000	99.214004 
2564.000000	99.213709 
2563.000000	99.213443 
2562.000000	99.213206 
2561.000000	99.212988 
2560.000000	99.212765 
2559.000000	99.212548 
2558.000000	99.212412 
2557.000000	99.212409 
2556.000000	99.212423 
2555.000000	99.212260 
2554.000000	99.211943 
2553.000000	99.211831 
2552.000000	99.212258 
2551.000000	99.213097 
2550.000000	99.213783 
2549.000000	99.213925 
2548.000000	99.213614 
2547.000000	99.213166 
2546.000000	99.212723 
2545.000000	99.212263 
2544.000000	99.211792 
2543.000000	99.211347 
2542.000000	99.210964 
2541.000000	99.210772 
2540.000000	99.210929 
2539.000000	99.211208 
2538.000000	99.210875 
2537.000000	99.209362 
2536.000000	99.207069 
2535.000000	99.205234 
2534.000000	99.204919 
2533.000000	99.206287 
2532.000000	99.208582 
2531.000000	99.210638 
2530.000000	99.211666 
2529.000000	99.211832 
2528.000000	99.212119 
2527.000000	99.213272 
2526.000000	99.214918 
2525.000000	99.216071 
2524.000000	99.216513 
2523.000000	99.217146 
2522.000000	99.218762 
2521.000000	99.220860 
2520.000000	99.222118 
2519.000000	99.221827 
2518.000000	99.220463 
2517.000000	99.219037 
2516.000000	99.218179 
2515.000000	99.217909 
2514.000000	99.217881 
2513.000000	99.217647 
2512.000000	99.216881 
2511.000000	99.215624 
2510.000000	99.214367 
2509.000000	99.213813 
2508.000000	99.214317 
2507.000000	99.215537 
2506.000000	99.216608 
2505.000000	99.216814 
2504.000000	99.216102 
2503.000000	99.214898 
2502.000000	99.213623 
2501.000000	99.212465 
2500.000000	99.211629 
2499.000000	99.211521 
2498.000000	99.212466 
2497.000000	99.214279 
2496.000000	99.216112 
2495.000000	99.216912 
2494.000000	99.216220 
2493.000000	99.214467 
2492.000000	99.212655 
2491.000000	99.211499 
2490.000000	99.210911 
2489.000000	99.210349 
2488.000000	99.209528 
2487.000000	99.208727 
2486.000000	99.208403 
2485.000000	99.208731 
2484.000000	99.209529 
2483.000000	99.210387 
2482.000000	99.210841 
2481.000000	99.210665 
2480.000000	99.210088 
2479.000000	99.209604 
2478.000000	99.209428 
2477.000000	99.209304 
2476.000000	99.208952 
2475.000000	99.208518 
2474.000000	99.208417 
2473.000000	99.208813 
2472.000000	99.209484 
2471.000000	99.210157 
2470.000000	99.210779 
2469.000000	99.211395 
2468.000000	99.211901 
2467.000000	99.212036 
2466.000000	99.211624 
2465.000000	99.210870 
2464.000000	99.210348 
2463.000000	99.210557 
2462.000000	99.211421 
2461.000000	99.212218 
2460.000000	99.212225 
2459.000000	99.211411 
2458.000000	99.210449 
2457.000000	99.210039 
2456.000000	99.210287 
2455.000000	99.210732 
2454.000000	99.210822 
2453.000000	99.210332 
2452.000000	99.209433 
2451.000000	99.208520 
2450.000000	99.207889 
2449.000000	99.207535 
2448.000000	99.207257 
2447.000000	99.206913 
2446.000000	99.206590 
2445.000000	99.206507 
2444.000000	99.206779 
2443.000000	99.207274 
2442.000000	99.207668 
2441.000000	99.207680 
2440.000000	99.207293 
2439.000000	99.206751 
2438.000000	99.206355 
2437.000000	99.206186 
2436.000000	99.206085 
2435.000000	99.205826 
2434.000000	99.205317 
2433.000000	99.204670 
2432.000000	99.204123 
2431.000000	99.203863 
2430.000000	99.203883 
2429.000000	99.204001 
2428.000000	99.204099 
2427.000000	99.204296 
2426.000000	99.204763 
2425.000000	99.205422 
2424.000000	99.205928 
2423.000000	99.206017 
2422.000000	99.205756 
2421.000000	99.205540 
2420.000000	99.205756 
2419.000000	99.206441 
2418.000000	99.207316 
2417.000000	99.208048 
2416.000000	99.208541 
2415.000000	99.208904 
2414.000000	99.209282 
2413.000000	99.209748 
2412.000000	99.210314 
2411.000000	99.210956 
2410.000000	99.211611 
2409.000000	99.212208 
2408.000000	99.212752 
2407.000000	99.213360 
2406.000000	99.214165 
2405.000000	99.215191 
2404.000000	99.216367 
2403.000000	99.217577 
2402.000000	99.218680 
2401.000000	99.219535 
2400.000000	99.220063 
2399.000000	99.220294 
2398.000000	99.220380 
2397.000000	99.220581 
2396.000000	99.221196 
2395.000000	99.222411 
2394.000000	99.224129 
2393.000000	99.225987 
2392.000000	99.227626 
2391.000000	99.228938 
2390.000000	99.230076 
2389.000000	99.231269 
2388.000000	99.232619 
2387.000000	99.234081 
2386.000000	99.235583 
2385.000000	99.237116 
2384.000000	99.238696 
2383.000000	99.240275 
2382.000000	99.241745 
2381.000000	99.243060 
2380.000000	99.244280 
2379.000000	99.245431 
2378.000000	99.246393 
2377.000000	99.247103 
2376.000000	99.247794 
2375.000000	99.248847 
2374.000000	99.250364 
2373.000000	99.252040 
2372.000000	99.253598 
2371.000000	99.255169 
2370.000000	99.256989 
2369.000000	99.258791 
2368.000000	99.259855 
2367.000000	99.259747 
2366.000000	99.258776 
2365.000000	99.257976 
2364.000000	99.258284 
2363.000000	99.259770 
2362.000000	99.261849 
2361.000000	99.263705 
2360.000000	99.264886 
2359.000000	99.265703 
2358.000000	99.266571 
2357.000000	99.267696 
2356.000000	99.268870 
2355.000000	99.269662 
2354.000000	99.270030 
2353.000000	99.270238 
2352.000000	99.270977 
2351.000000	99.272133 
2350.000000	99.272663 
2349.000000	99.271768 
2348.000000	99.269344 
2347.000000	99.266859 
2346.000000	99.265660 
2345.000000	99.266152 
2344.000000	99.267587 
2343.000000	99.269088 
2342.000000	99.271441 
2341.000000	99.274734 
2340.000000	99.278038 
2339.000000	99.279661 
2338.000000	99.279319 
2337.000000	99.278232 
2336.000000	99.277978 
2335.000000	99.278659 
2334.000000	99.279359 
2333.000000	99.278910 
2332.000000	99.277442 
2331.000000	99.275519 
2330.000000	99.273588 
2329.000000	99.272618 
2328.000000	99.272162 
2327.000000	99.272304 
2326.000000	99.271677 
2325.000000	99.269968 
2324.000000	99.267461 
2323.000000	99.265218 
2322.000000	99.264954 
2321.000000	99.266665 
2320.000000	99.269517 
2319.000000	99.271473 
2318.000000	99.271904 
2317.000000	99.270885 
2316.000000	99.268704 
2315.000000	99.265136 
2314.000000	99.260080 
2313.000000	99.254850 
2312.000000	99.251057 
2311.000000	99.249831 
2310.000000	99.250341 
2309.000000	99.251280 
2308.000000	99.251149 
2307.000000	99.249532 
2306.000000	99.246600 
2305.000000	99.243095 
2304.000000	99.239159 
2303.000000	99.234371 
2302.000000	99.228661 
2301.000000	99.223305 
2300.000000	99.219755 
2299.000000	99.218076 
2298.000000	99.216638 
2297.000000	99.214451 
2296.000000	99.212094 
2295.000000	99.210762 
2294.000000	99.210141 
2293.000000	99.209055 
2292.000000	99.206946 
2291.000000	99.204538 
2290.000000	99.202468 
2289.000000	99.200556 
2288.000000	99.198409 
2287.000000	99.196261 
2286.000000	99.194655 
2285.000000	99.193643 
2284.000000	99.192784 
2283.000000	99.191684 
2282.000000	99.190211 
2281.000000	99.188185 
2280.000000	99.185563 
2279.000000	99.183000 
2278.000000	99.181752 
2277.000000	99.182471 
2276.000000	99.184460 
2275.000000	99.186169 
2274.000000	99.186542 
2273.000000	99.185577 
2272.000000	99.183652 
2271.000000	99.180936 
2270.000000	99.177757 
2269.000000	99.175255 
2268.000000	99.174728 
2267.000000	99.176223 
2266.000000	99.178193 
2265.000000	99.178998 
2264.000000	99.178306 
2263.000000	99.176781 
2262.000000	99.175095 
2261.000000	99.173819 
2260.000000	99.173624 
2259.000000	99.174572 
2258.000000	99.175468 
2257.000000	99.174862 
2256.000000	99.172693 
2255.000000	99.170151 
2254.000000	99.168082 
2253.000000	99.166286 
2252.000000	99.164608 
2251.000000	99.163748 
2250.000000	99.164485 
2249.000000	99.166751 
2248.000000	99.169717 
2247.000000	99.172330 
2246.000000	99.173433 
2245.000000	99.172156 
2244.000000	99.168832 
2243.000000	99.165100 
2242.000000	99.162508 
2241.000000	99.161212 
2240.000000	99.160221 
2239.000000	99.158506 
2238.000000	99.155649 
2237.000000	99.151852 
2236.000000	99.147710 
2235.000000	99.143825 
2234.000000	99.140615 
2233.000000	99.138609 
2232.000000	99.138655 
2231.000000	99.141179 
2230.000000	99.145487 
2229.000000	99.150438 
2228.000000	99.155604 
2227.000000	99.160885 
2226.000000	99.165048 
2225.000000	99.165909 
2224.000000	99.162609 
2223.000000	99.157048 
2222.000000	99.152591 
2221.000000	99.151390 
2220.000000	99.152915 
2219.000000	99.154863 
2218.000000	99.155635 
2217.000000	99.156272 
2216.000000	99.159521 
2215.000000	99.166461 
2214.000000	99.174325 
2213.000000	99.178548 
2212.000000	99.177113 
2211.000000	99.172150 
2210.000000	99.167821 
2209.000000	99.166656 
2208.000000	99.167736 
2207.000000	99.167835 
2206.000000	99.164284 
2205.000000	99.157181 
2204.000000	99.149149 
2203.000000	99.142844 
2202.000000	99.139067 
2201.000000	99.137425 
2200.000000	99.137460 
2199.000000	99.138298 
2198.000000	99.138332 
2197.000000	99.136684 
2196.000000	99.134615 
2195.000000	99.134290 
2194.000000	99.136311 
2193.000000	99.139441 
2192.000000	99.142136 
2191.000000	99.143388 
2190.000000	99.142568 
2189.000000	99.139749 
2188.000000	99.136314 
2187.000000	99.134227 
2186.000000	99.134404 
2185.000000	99.136355 
2184.000000	99.138991 
2183.000000	99.141158 
2182.000000	99.141780 
2181.000000	99.140596 
2180.000000	99.138796 
2179.000000	99.137883 
2178.000000	99.137734 
2177.000000	99.136827 
2176.000000	99.134460 
2175.000000	99.131726 
2174.000000	99.130080 
2173.000000	99.129684 
2172.000000	99.129710 
2171.000000	99.129596 
2170.000000	99.129598 
2169.000000	99.130287 
2168.000000	99.131866 
2167.000000	99.133901 
2166.000000	99.135477 
2165.000000	99.135968 
2164.000000	99.135623 
2163.000000	99.135317 
2162.000000	99.135737 
2161.000000	99.136897 
2160.000000	99.138428 
2159.000000	99.139923 
2158.000000	99.141034 
2157.000000	99.141671 
2156.000000	99.142212 
2155.000000	99.143169 
2154.000000	99.144514 
2153.000000	99.145653 
2152.000000	99.146172 
2151.000000	99.146373 
2150.000000	99.146960 
2149.000000	99.148277 
2148.000000	99.150147 
2147.000000	99.152129 
2146.000000	99.153811 
2145.000000	99.154947 
2144.000000	99.155616 
2143.000000	99.156277 
2142.000000	99.157270 
2141.000000	99.158370 
2140.000000	99.159139 
2139.000000	99.159548 
2138.000000	99.159919 
2137.000000	99.160375 
2136.000000	99.160740 
2135.000000	99.160999 
2134.000000	99.161436 
2133.000000	99.162263 
2132.000000	99.163311 
2131.000000	99.164154 
2130.000000	99.164460 
2129.000000	99.164224 
2128.000000	99.163747 
2127.000000	99.163414 
2126.000000	99.163361 
2125.000000	99.163398 
2124.000000	99.163295 
2123.000000	99.163189 
2122.000000	99.163409 
2121.000000	99.163885 
2120.000000	99.164122 
2119.000000	99.163833 
2118.000000	99.163273 
2117.000000	99.162832 
2116.000000	99.162556 
2115.000000	99.162302 
2114.000000	99.162123 
2113.000000	99.162163 
2112.000000	99.162253 
2111.000000	99.161978 
2110.000000	99.161227 
2109.000000	99.160440 
2108.000000	99.160129 
2107.000000	99.160232 
2106.000000	99.160064 
2105.000000	99.158932 
2104.000000	99.156807 
2103.000000	99.154514 
2102.000000	99.153116 
2101.000000	99.153051 
2100.000000	99.153878 
2099.000000	99.154741 
2098.000000	99.155175 
2097.000000	99.155501 
2096.000000	99.156409 
2095.000000	99.157942 
2094.000000	99.158809 
2093.000000	99.157244 
2092.000000	99.152890 
2091.000000	99.147781 
2090.000000	99.144819 
2089.000000	99.144840 
2088.000000	99.146011 
2087.000000	99.146119 
2086.000000	99.145192 
2085.000000	99.145109 
2084.000000	99.146935 
2083.000000	99.149491 
2082.000000	99.150868 
2081.000000	99.150839 
2080.000000	99.150982 
2079.000000	99.152489 
2078.000000	99.154683 
2077.000000	99.156256 
2076.000000	99.157345 
2075.000000	99.159244 
2074.000000	99.162149 
2073.000000	99.164471 
2072.000000	99.164806 
2071.000000	99.163404 
2070.000000	99.161227 
2069.000000	99.158634 
2068.000000	99.155792 
2067.000000	99.153443 
2066.000000	99.152122 
2065.000000	99.151079 
2064.000000	99.149250 
2063.000000	99.147188 
2062.000000	99.146768 
2061.000000	99.148876 
2060.000000	99.152227 
2059.000000	99.154672 
2058.000000	99.155134 
2057.000000	99.153944 
2056.000000	99.151921 
2055.000000	99.149481 
2054.000000	99.146616 
2053.000000	99.143501 
2052.000000	99.140888 
2051.000000	99.139661 
2050.000000	99.139863 
2049.000000	99.140275 
2048.000000	99.139374 
2047.000000	99.136842 
2046.000000	99.133790 
2045.000000	99.131609 
2044.000000	99.130776 
2043.000000	99.130731 
2042.000000	99.130555 
2041.000000	99.129751 
2040.000000	99.128525 
2039.000000	99.127356 
2038.000000	99.126402 
2037.000000	99.125401 
2036.000000	99.124122 
2035.000000	99.122678 
2034.000000	99.121343 
2033.000000	99.120175 
2032.000000	99.118974 
2031.000000	99.117553 
2030.000000	99.115981 
2029.000000	99.114564 
2028.000000	99.113600 
2027.000000	99.113122 
2026.000000	99.112937 
2025.000000	99.112911 
2024.000000	99.113035 
2023.000000	99.113223 
2022.000000	99.113234 
2021.000000	99.112933 
2020.000000	99.112454 
2019.000000	99.112095 
2018.000000	99.111996 
2017.000000	99.112058 
2016.000000	99.112096 
2015.000000	99.112024 
2014.000000	99.111882 
2013.000000	99.111739 
2012.000000	99.111645 
2011.000000	99.111635 
2010.000000	99.111754 
2009.000000	99.112044 
2008.000000	99.112497 
2007.000000	99.113023 
2006.000000	99.113505 
2005.000000	99.113878 
2004.000000	99.114163 
2003.000000	99.114437 
2002.000000	99.114744 
2001.000000	99.115049 
2000.000000	99.115299 
1999.000000	99.115492 
1998.000000	99.115670 
1997.000000	99.115880 
1996.000000	99.116156 
1995.000000	99.116511 
1994.000000	99.116937 
1993.000000	99.117394 
1992.000000	99.117831 
1991.000000	99.118220 
1990.000000	99.118566 
1989.000000	99.118906 
1988.000000	99.119275 
1987.000000	99.119681 
1986.000000	99.120094 
1985.000000	99.120459 
1984.000000	99.120730 
1983.000000	99.120923 
1982.000000	99.121105 
1981.000000	99.121257 
1980.000000	99.121227 
1979.000000	99.120899 
1978.000000	99.120360 
1977.000000	99.119838 
1976.000000	99.119456 
1975.000000	99.119208 
1974.000000	99.119096 
1973.000000	99.119218 
1972.000000	99.119674 
1971.000000	99.120394 
1970.000000	99.121043 
1969.000000	99.121206 
1968.000000	99.120673 
1967.000000	99.119661 
1966.000000	99.118808 
1965.000000	99.118556 
1964.000000	99.118832 
1963.000000	99.119236 
1962.000000	99.119521 
1961.000000	99.119696 
1960.000000	99.119851 
1959.000000	99.120158 
1958.000000	99.120897 
1957.000000	99.122167 
1956.000000	99.123583 
1955.000000	99.124582 
1954.000000	99.125048 
1953.000000	99.125375 
1952.000000	99.125800 
1951.000000	99.125982 
1950.000000	99.125488 
1949.000000	99.124443 
1948.000000	99.123516 
1947.000000	99.123159 
1946.000000	99.123028 
1945.000000	99.122286 
1944.000000	99.120558 
1943.000000	99.118659 
1942.000000	99.118114 
1941.000000	99.119658 
1940.000000	99.122411 
1939.000000	99.124762 
1938.000000	99.126071 
1937.000000	99.127244 
1936.000000	99.129426 
1935.000000	99.132277 
1934.000000	99.134273 
1933.000000	99.134917 
1932.000000	99.135761 
1931.000000	99.138595 
1930.000000	99.142942 
1929.000000	99.146277 
1928.000000	99.147009 
1927.000000	99.145785 
1926.000000	99.144191 
1925.000000	99.143119 
1924.000000	99.142733 
1923.000000	99.143223 
1922.000000	99.144492 
1921.000000	99.145786 
1920.000000	99.146264 
1919.000000	99.145515 
1918.000000	99.143531 
1917.000000	99.140957 
1916.000000	99.139291 
1915.000000	99.139616 
1914.000000	99.141327 
1913.000000	99.142903 
1912.000000	99.143886 
1911.000000	99.145338 
1910.000000	99.147755 
1909.000000	99.149909 
1908.000000	99.150802 
1907.000000	99.151263 
1906.000000	99.152636 
1905.000000	99.154643 
1904.000000	99.155852 
1903.000000	99.155702 
1902.000000	99.154654 
1901.000000	99.153230 
1900.000000	99.151957 
1899.000000	99.151639 
1898.000000	99.152769 
1897.000000	99.154780 
1896.000000	99.156630 
1895.000000	99.157903 
1894.000000	99.158652 
1893.000000	99.158782 
1892.000000	99.158420 
1891.000000	99.158236 
1890.000000	99.158472 
1889.000000	99.158306 
1888.000000	99.157366 
1887.000000	99.156693 
1886.000000	99.157174 
1885.000000	99.158308 
1884.000000	99.159335 
1883.000000	99.160811 
1882.000000	99.163664 
1881.000000	99.167458 
1880.000000	99.171033 
1879.000000	99.173966 
1878.000000	99.176331 
1877.000000	99.177762 
1876.000000	99.177940 
1875.000000	99.177558 
1874.000000	99.177311 
1873.000000	99.176400 
1872.000000	99.173749 
1871.000000	99.170143 
1870.000000	99.167738 
1869.000000	99.167232 
1868.000000	99.167417 
1867.000000	99.167849 
1866.000000	99.169025 
1865.000000	99.170215 
1864.000000	99.169616 
1863.000000	99.166612 
1862.000000	99.162867 
1861.000000	99.160918 
1860.000000	99.162192 
1859.000000	99.166561 
1858.000000	99.172403 
1857.000000	99.177024 
1856.000000	99.178637 
1855.000000	99.178071 
1854.000000	99.177741 
1853.000000	99.178837 
1852.000000	99.180661 
1851.000000	99.182150 
1850.000000	99.183312 
1849.000000	99.184938 
1848.000000	99.187282 
1847.000000	99.189642 
1846.000000	99.190955 
1845.000000	99.190723 
1844.000000	99.189550 
1843.000000	99.188968 
1842.000000	99.189672 
1841.000000	99.190669 
1840.000000	99.190858 
1839.000000	99.190029 
1838.000000	99.188604 
1837.000000	99.187025 
1836.000000	99.185716 
1835.000000	99.185197 
1834.000000	99.185515 
1833.000000	99.186091 
1832.000000	99.186362 
1831.000000	99.186186 
1830.000000	99.185747 
1829.000000	99.185452 
1828.000000	99.185626 
1827.000000	99.186132 
1826.000000	99.186616 
1825.000000	99.186921 
1824.000000	99.187141 
1823.000000	99.187442 
1822.000000	99.187594 
1821.000000	99.187225 
1820.000000	99.186644 
1819.000000	99.186806 
1818.000000	99.188242 
1817.000000	99.190190 
1816.000000	99.191389 
1815.000000	99.191641 
1814.000000	99.191620 
1813.000000	99.191788 
1812.000000	99.192081 
1811.000000	99.192591 
1810.000000	99.193607 
1809.000000	99.194670 
1808.000000	99.194845 
1807.000000	99.193986 
1806.000000	99.192836 
1805.000000	99.192122 
1804.000000	99.191891 
1803.000000	99.191903 
1802.000000	99.192001 
1801.000000	99.192080 
1800.000000	99.191999 
1799.000000	99.191828 
1798.000000	99.191866 
1797.000000	99.192238 
1796.000000	99.192757 
1795.000000	99.193134 
1794.000000	99.193256 
1793.000000	99.193221 
1792.000000	99.193143 
1791.000000	99.193082 
1790.000000	99.193059 
1789.000000	99.192993 
1788.000000	99.192858 
1787.000000	99.192797 
1786.000000	99.192987 
1785.000000	99.193356 
1784.000000	99.193611 
1783.000000	99.193581 
1782.000000	99.193292 
1781.000000	99.192916 
1780.000000	99.192594 
1779.000000	99.192337 
1778.000000	99.192120 
1777.000000	99.191947 
1776.000000	99.191917 
1775.000000	99.192072 
1774.000000	99.192295 
1773.000000	99.192445 
1772.000000	99.192403 
1771.000000	99.192245 
1770.000000	99.192226 
1769.000000	99.192414 
1768.000000	99.192674 
1767.000000	99.192847 
1766.000000	99.192882 
1765.000000	99.192825 
1764.000000	99.192720 
1763.000000	99.192632 
1762.000000	99.192636 
1761.000000	99.192756 
1760.000000	99.192917 
1759.000000	99.193046 
1758.000000	99.193194 
1757.000000	99.193446 
1756.000000	99.193761 
1755.000000	99.193986 
1754.000000	99.194062 
1753.000000	99.194068 
1752.000000	99.194095 
1751.000000	99.194146 
1750.000000	99.194195 
1749.000000	99.194255 
1748.000000	99.194327 
1747.000000	99.194404 
1746.000000	99.194482 
1745.000000	99.194563 
1744.000000	99.194644 
1743.000000	99.194727 
1742.000000	99.194808 
1741.000000	99.194884 
1740.000000	99.194956 
1739.000000	99.195025 
1738.000000	99.195094 
1737.000000	99.195154 
1736.000000	99.195196 
1735.000000	99.195217 
1734.000000	99.195221 
1733.000000	99.195213 
1732.000000	99.195200 
1731.000000	99.195183 
1730.000000	99.195159 
1729.000000	99.195130 
1728.000000	99.195099 
1727.000000	99.195073 
1726.000000	99.195057 
1725.000000	99.195047 
1724.000000	99.195037 
1723.000000	99.195026 
1722.000000	99.195017 
1721.000000	99.195012 
1720.000000	99.195008 
1719.000000	99.194996 
1718.000000	99.194963 
1717.000000	99.194897 
1716.000000	99.194800 
1715.000000	99.194681 
1714.000000	99.194551 
1713.000000	99.194411 
1712.000000	99.194264 
1711.000000	99.194110 
1710.000000	99.193954 
1709.000000	99.193797 
1708.000000	99.193633 
1707.000000	99.193456 
1706.000000	99.193260 
1705.000000	99.193046 
1704.000000	99.192820 
1703.000000	99.192584 
1702.000000	99.192341 
1701.000000	99.192088 
1700.000000	99.191825 
1699.000000	99.191559 
1698.000000	99.191301 
1697.000000	99.191048 
1696.000000	99.190791 
1695.000000	99.190527 
1694.000000	99.190259 
1693.000000	99.189995 
1692.000000	99.189740 
1691.000000	99.189495 
1690.000000	99.189257 
1689.000000	99.189017 
1688.000000	99.188772 
1687.000000	99.188519 
1686.000000	99.188258 
1685.000000	99.187987 
1684.000000	99.187701 
1683.000000	99.187397 
1682.000000	99.187083 
1681.000000	99.186765 
1680.000000	99.186448 
1679.000000	99.186130 
1678.000000	99.185813 
1677.000000	99.185500 
1676.000000	99.185198 
1675.000000	99.184918 
1674.000000	99.184668 
1673.000000	99.184444 
1672.000000	99.184236 
1671.000000	99.184033 
1670.000000	99.183830 
1669.000000	99.183625 
1668.000000	99.183423 
1667.000000	99.183226 
1666.000000	99.183034 
1665.000000	99.182851 
1664.000000	99.182681 
1663.000000	99.182527 
1662.000000	99.182389 
1661.000000	99.182263 
1660.000000	99.182147 
1659.000000	99.182043 
1658.000000	99.181948 
1657.000000	99.181862 
1656.000000	99.181775 
1655.000000	99.181673 
1654.000000	99.181609 
1653.000000	99.181574 
1652.000000	99.181528 
1651.000000	99.181627 
1650.000000	99.181819 
1649.000000	99.181964 
1648.000000	99.182080 
1647.000000	99.182081 
1646.000000	99.181899 
1645.000000	99.181803 
1644.000000	99.182077 
1643.000000	99.182681 
1642.000000	99.183339 
1641.000000	99.183737 
1640.000000	99.183753 
1639.000000	99.183555 
1638.000000	99.183502 
1637.000000	99.184041 
1636.000000	99.185127 
1635.000000	99.185811 
1634.000000	99.185999 
1633.000000	99.186192 
1632.000000	99.186081 
1631.000000	99.185513 
1630.000000	99.184638 
1629.000000	99.183684 
1628.000000	99.183053 
1627.000000	99.183140 
1626.000000	99.183758 
1625.000000	99.184392 
1624.000000	99.184898 
1623.000000	99.185284 
1622.000000	99.185511 
1621.000000	99.185923 
1620.000000	99.186854 
1619.000000	99.188017 
1618.000000	99.189064 
1617.000000	99.189652 
1616.000000	99.190564 
1615.000000	99.193056 
1614.000000	99.196230 
1613.000000	99.198500 
1612.000000	99.200255 
1611.000000	99.202474 
1610.000000	99.204345 
1609.000000	99.204638 
1608.000000	99.204181 
1607.000000	99.204576 
1606.000000	99.205273 
1605.000000	99.205056 
1604.000000	99.204547 
1603.000000	99.205050 
1602.000000	99.206718 
1601.000000	99.208798 
1600.000000	99.210818 
1599.000000	99.212400 
1598.000000	99.213000 
1597.000000	99.212720 
1596.000000	99.212400 
1595.000000	99.212469 
1594.000000	99.212360 
1593.000000	99.211787 
1592.000000	99.211653 
1591.000000	99.212838 
1590.000000	99.214865 
1589.000000	99.216729 
1588.000000	99.218305 
1587.000000	99.219876 
1586.000000	99.220909 
1585.000000	99.220626 
1584.000000	99.219824 
1583.000000	99.219759 
1582.000000	99.220225 
1581.000000	99.220328 
1580.000000	99.219833 
1579.000000	99.218862 
1578.000000	99.217574 
1577.000000	99.216546 
1576.000000	99.216142 
1575.000000	99.216243 
1574.000000	99.216395 
1573.000000	99.216232 
1572.000000	99.215953 
1571.000000	99.216139 
1570.000000	99.216652 
1569.000000	99.216810 
1568.000000	99.216754 
1567.000000	99.216735 
1566.000000	99.216587 
1565.000000	99.216231 
1564.000000	99.215870 
1563.000000	99.215381 
1562.000000	99.214636 
1561.000000	99.213649 
1560.000000	99.213473 
1559.000000	99.213960 
1558.000000	99.214003 
1557.000000	99.214175 
1556.000000	99.214600 
1555.000000	99.214873 
1554.000000	99.214928 
1553.000000	99.214857 
1552.000000	99.214778 
1551.000000	99.214694 
1550.000000	99.214619 
1549.000000	99.214567 
1548.000000	99.214532 
1547.000000	99.214472 
1546.000000	99.214356 
1545.000000	99.214203 
1544.000000	99.214059 
1543.000000	99.213967 
1542.000000	99.213931 
1541.000000	99.213939 
1540.000000	99.213947 
1539.000000	99.213921 
1538.000000	99.213874 
1537.000000	99.213816 
1536.000000	99.213741 
1535.000000	99.213667 
1534.000000	99.213600 
1533.000000	99.213506 
1532.000000	99.213370 
1531.000000	99.213229 
1530.000000	99.213123 
1529.000000	99.213039 
1528.000000	99.212918 
1527.000000	99.212744 
1526.000000	99.212583 
1525.000000	99.212494 
1524.000000	99.212466 
1523.000000	99.212493 
1522.000000	99.212582 
1521.000000	99.212513 
1520.000000	99.212095 
1519.000000	99.211437 
1518.000000	99.210745 
1517.000000	99.210175 
1516.000000	99.209676 
1515.000000	99.209087 
1514.000000	99.208409 
1513.000000	99.207848 
1512.000000	99.207578 
1511.000000	99.207470 
1510.000000	99.207249 
1509.000000	99.206732 
1508.000000	99.206088 
1507.000000	99.205496 
1506.000000	99.204954 
1505.000000	99.204623 
1504.000000	99.204474 
1503.000000	99.204180 
1502.000000	99.203691 
1501.000000	99.203097 
1500.000000	99.202380 
1499.000000	99.201458 
1498.000000	99.200352 
1497.000000	99.199075 
1496.000000	99.197582 
1495.000000	99.196284 
1494.000000	99.195705 
1493.000000	99.195880 
1492.000000	99.196387 
1491.000000	99.196646 
1490.000000	99.196125 
1489.000000	99.194577 
1488.000000	99.192280 
1487.000000	99.190032 
1486.000000	99.188296 
1485.000000	99.186642 
1484.000000	99.184730 
1483.000000	99.182837 
1482.000000	99.181574 
1481.000000	99.181070 
1480.000000	99.180693 
1479.000000	99.179831 
1478.000000	99.178406 
1477.000000	99.176564 
1476.000000	99.174485 
1475.000000	99.172971 
1474.000000	99.172977 
1473.000000	99.173879 
1472.000000	99.173336 
1471.000000	99.170971 
1470.000000	99.168833 
1469.000000	99.167619 
1468.000000	99.166254 
1467.000000	99.164000 
1466.000000	99.161567 
1465.000000	99.160313 
1464.000000	99.160701 
1463.000000	99.161834 
1462.000000	99.162691 
1461.000000	99.162378 
1460.000000	99.160377 
1459.000000	99.156332 
1458.000000	99.150376 
1457.000000	99.142111 
1456.000000	99.132801 
1455.000000	99.125729 
1454.000000	99.121588 
1453.000000	99.120723 
1452.000000	99.123795 
1451.000000	99.128964 
1450.000000	99.133115 
1449.000000	99.134375 
1448.000000	99.132586 
1447.000000	99.129867 
1446.000000	99.128839 
1445.000000	99.130910 
1444.000000	99.135115 
1443.000000	99.138601 
1442.000000	99.139986 
1441.000000	99.140227 
1440.000000	99.140461 
1439.000000	99.140266 
1438.000000	99.140454 
1437.000000	99.141986 
1436.000000	99.142474 
1435.000000	99.139791 
1434.000000	99.135395 
1433.000000	99.131078 
1432.000000	99.127606 
1431.000000	99.124434 
1430.000000	99.121013 
1429.000000	99.118157 
1428.000000	99.116264 
1427.000000	99.114657 
1426.000000	99.111757 
1425.000000	99.107127 
1424.000000	99.101228 
1423.000000	99.093802 
1422.000000	99.084931 
1421.000000	99.075471 
1420.000000	99.066397 
1419.000000	99.056914 
1418.000000	99.046740 
1417.000000	99.037308 
1416.000000	99.028330 
1415.000000	99.018622 
1414.000000	99.008324 
1413.000000	98.998636 
1412.000000	98.990333 
1411.000000	98.982958 
1410.000000	98.976300 
1409.000000	98.971039 
1408.000000	98.967419 
1407.000000	98.965187 
1406.000000	98.963999 
1405.000000	98.964402 
1404.000000	98.967601 
1403.000000	98.973705 
1402.000000	98.981678 
1401.000000	98.990269 
1400.000000	98.998156 
1399.000000	99.003093 
1398.000000	99.002521 
1397.000000	98.994654 
1396.000000	98.979667 
1395.000000	98.963049 
1394.000000	98.954853 
1393.000000	98.960986 
1392.000000	98.977773 
1391.000000	98.996251 
1390.000000	99.009430 
1389.000000	99.015103 
1388.000000	99.014289 
1387.000000	99.009619 
1386.000000	99.004684 
1385.000000	99.002385 
1384.000000	99.003111 
1383.000000	99.004954 
1382.000000	99.006027 
1381.000000	99.006456 
1380.000000	99.008233 
1379.000000	99.013084 
1378.000000	99.020672 
1377.000000	99.028997 
1376.000000	99.036148 
1375.000000	99.041585 
1374.000000	99.046381 
1373.000000	99.052584 
1372.000000	99.061156 
1371.000000	99.070928 
1370.000000	99.079716 
1369.000000	99.086416 
1368.000000	99.091677 
1367.000000	99.096644 
1366.000000	99.101937 
1365.000000	99.107725 
1364.000000	99.113958 
1363.000000	99.120145 
1362.000000	99.125702 
1361.000000	99.130886 
1360.000000	99.136529 
1359.000000	99.142929 
1358.000000	99.149618 
1357.000000	99.155968 
1356.000000	99.161559 
1355.000000	99.166236 
1354.000000	99.170485 
1353.000000	99.175256 
1352.000000	99.180454 
1351.000000	99.184574 
1350.000000	99.186297 
1349.000000	99.186958 
1348.000000	99.189000 
1347.000000	99.192508 
1346.000000	99.195402 
1345.000000	99.196587 
1344.000000	99.197232 
1343.000000	99.198753 
1342.000000	99.201309 
1341.000000	99.204424 
1340.000000	99.207471 
1339.000000	99.209371 
1338.000000	99.209628 
1337.000000	99.209604 
1336.000000	99.210992 
1335.000000	99.213278 
1334.000000	99.214315 
1333.000000	99.213433 
1332.000000	99.212451 
1331.000000	99.213053 
1330.000000	99.214551 
1329.000000	99.215313 
1328.000000	99.214984 
1327.000000	99.214247 
1326.000000	99.213399 
1325.000000	99.212670 
1324.000000	99.212810 
1323.000000	99.214055 
1322.000000	99.215471 
1321.000000	99.216366 
1320.000000	99.217649 
1319.000000	99.220500 
1318.000000	99.224024 
1317.000000	99.225530 
1316.000000	99.223400 
1315.000000	99.218867 
1314.000000	99.214952 
1313.000000	99.213763 
1312.000000	99.214829 
1311.000000	99.215990 
1310.000000	99.215776 
1309.000000	99.214737 
1308.000000	99.214376 
1307.000000	99.215261 
1306.000000	99.216516 
1305.000000	99.217270 
1304.000000	99.217766 
1303.000000	99.218669 
1302.000000	99.219922 
1301.000000	99.220734 
1300.000000	99.220503 
1299.000000	99.219438 
1298.000000	99.218453 
1297.000000	99.218503 
1296.000000	99.219848 
1295.000000	99.221780 
1294.000000	99.223111 
1293.000000	99.222943 
1292.000000	99.220994 
1291.000000	99.217707 
1290.000000	99.214402 
1289.000000	99.212735 
1288.000000	99.213231 
1287.000000	99.214416 
1286.000000	99.214117 
1285.000000	99.211536 
1284.000000	99.207528 
1283.000000	99.203349 
1282.000000	99.199455 
1281.000000	99.195399 
1280.000000	99.190738 
1279.000000	99.185556 
1278.000000	99.180405 
1277.000000	99.176045 
1276.000000	99.172871 
1275.000000	99.170379 
1274.000000	99.167493 
1273.000000	99.163646 
1272.000000	99.159269 
1271.000000	99.155106 
1270.000000	99.151280 
1269.000000	99.147152 
1268.000000	99.141888 
1267.000000	99.135032 
1266.000000	99.126883 
1265.000000	99.118530 
1264.000000	99.111214 
1263.000000	99.105344 
1262.000000	99.100196 
1261.000000	99.094847 
1260.000000	99.089376 
1259.000000	99.084717 
1258.000000	99.081356 
1257.000000	99.078719 
1256.000000	99.076103 
1255.000000	99.073708 
1254.000000	99.072158 
1253.000000	99.071230 
1252.000000	99.069882 
1251.000000	99.067779 
1250.000000	99.066148 
1249.000000	99.066558 
1248.000000	99.069215 
1247.000000	99.072665 
1246.000000	99.074731 
1245.000000	99.073462 
1244.000000	99.068031 
1243.000000	99.060021 
1242.000000	99.053678 
1241.000000	99.052967 
1240.000000	99.057998 
1239.000000	99.064534 
1238.000000	99.067715 
1237.000000	99.066360 
1236.000000	99.062702 
1235.000000	99.059117 
1234.000000	99.056046 
1233.000000	99.052796 
1232.000000	99.048900 
1231.000000	99.044346 
1230.000000	99.039661 
1229.000000	99.036211 
1228.000000	99.035399 
1227.000000	99.036974 
1226.000000	99.038873 
1225.000000	99.039451 
1224.000000	99.039295 
1223.000000	99.040098 
1222.000000	99.042266 
1221.000000	99.044470 
1220.000000	99.045412 
1219.000000	99.045370 
1218.000000	99.045850 
1217.000000	99.047971 
1216.000000	99.051234 
1215.000000	99.053832 
1214.000000	99.054235 
1213.000000	99.052355 
1212.000000	99.049088 
1211.000000	99.045194 
1210.000000	99.041118 
1209.000000	99.037482 
1208.000000	99.034908 
1207.000000	99.033307 
1206.000000	99.031986 
1205.000000	99.030527 
1204.000000	99.028822 
1203.000000	99.026339 
1202.000000	99.022443 
1201.000000	99.017666 
1200.000000	99.013657 
1199.000000	99.011348 
1198.000000	99.009829 
1197.000000	99.007292 
1196.000000	99.002267 
1195.000000	98.994102 
1194.000000	98.983679 
1193.000000	98.973502 
1192.000000	98.965890 
1191.000000	98.960604 
1190.000000	98.954982 
1189.000000	98.947078 
1188.000000	98.938036 
1187.000000	98.930694 
1186.000000	98.926326 
1185.000000	98.923499 
1184.000000	98.919820 
1183.000000	98.914197 
1182.000000	98.907547 
1181.000000	98.901711 
1180.000000	98.897439 
1179.000000	98.893230 
1178.000000	98.886621 
1177.000000	98.876967 
1176.000000	98.866422 
1175.000000	98.857608 
1174.000000	98.850538 
1173.000000	98.842456 
1172.000000	98.830745 
1171.000000	98.815702 
1170.000000	98.800614 
1169.000000	98.789084 
1168.000000	98.781883 
1167.000000	98.776165 
1166.000000	98.768480 
1165.000000	98.759110 
1164.000000	98.752583 
1163.000000	98.753066 
1162.000000	98.759805 
1161.000000	98.767810 
1160.000000	98.772733 
1159.000000	98.773889 
1158.000000	98.772558 
1157.000000	98.768866 
1156.000000	98.761268 
1155.000000	98.748843 
1154.000000	98.733511 
1153.000000	98.719667 
1152.000000	98.711048 
1151.000000	98.707411 
1150.000000	98.704378 
1149.000000	98.697191 
1148.000000	98.684752 
1147.000000	98.669976 
1146.000000	98.656619 
1145.000000	98.646050 
1144.000000	98.636631 
1143.000000	98.625430 
1142.000000	98.610772 
1141.000000	98.594212 
1140.000000	98.580030 
1139.000000	98.571388 
1138.000000	98.566330 
1137.000000	98.558646 
1136.000000	98.543694 
1135.000000	98.522918 
1134.000000	98.502003 
1133.000000	98.484790 
1132.000000	98.470121 
1131.000000	98.454717 
1130.000000	98.437717 
1129.000000	98.421375 
1128.000000	98.407553 
1127.000000	98.394555 
1126.000000	98.378305 
1125.000000	98.356693 
1124.000000	98.332128 
1123.000000	98.309453 
1122.000000	98.291394 
1121.000000	98.276439 
1120.000000	98.260947 
1119.000000	98.242583 
1118.000000	98.221634 
1117.000000	98.199917 
1116.000000	98.179217 
1115.000000	98.160481 
1114.000000	98.143577 
1113.000000	98.127288 
1112.000000	98.109718 
1111.000000	98.089348 
1110.000000	98.065949 
1109.000000	98.040732 
1108.000000	98.015722 
1107.000000	97.992343 
1106.000000	97.970541 
1105.000000	97.949390 
1104.000000	97.928327 
1103.000000	97.907754 
1102.000000	97.888537 
1101.000000	97.870915 
1100.000000	97.853753 
1099.000000	97.835440 
1098.000000	97.815863 
1097.000000	97.797103 
1096.000000	97.781126 
1095.000000	97.766489 
1094.000000	97.748393 
1093.000000	97.722752 
1092.000000	97.689729 
1091.000000	97.653128 
1090.000000	97.617043 
1089.000000	97.583305 
1088.000000	97.551437 
1087.000000	97.520114 
1086.000000	97.488865 
1085.000000	97.458874 
1084.000000	97.431641 
1083.000000	97.406356 
1082.000000	97.379590 
1081.000000	97.348881 
1080.000000	97.316033 
1079.000000	97.285389 
1078.000000	97.259232 
1077.000000	97.236518 
1076.000000	97.215888 
1075.000000	97.198025 
1074.000000	97.184740 
1073.000000	97.176926 
1072.000000	97.172809 
1071.000000	97.166200 
1070.000000	97.147538 
1069.000000	97.110788 
1068.000000	97.061615 
1067.000000	97.016793 
1066.000000	96.991609 
1065.000000	96.988027 
1064.000000	96.995306 
1063.000000	96.999907 
1062.000000	96.993727 
1061.000000	96.974601 
1060.000000	96.943982 
1059.000000	96.906676 
1058.000000	96.870408 
1057.000000	96.842145 
1056.000000	96.823970 
1055.000000	96.812827 
1054.000000	96.803809 
1053.000000	96.793255 
1052.000000	96.779449 
1051.000000	96.762175 
1050.000000	96.742757 
1049.000000	96.723640 
1048.000000	96.706640 
1047.000000	96.691700 
1046.000000	96.677925 
1045.000000	96.665335 
1044.000000	96.654794 
1043.000000	96.646580 
1042.000000	96.639877 
1041.000000	96.633429 
1040.000000	96.626146 
1039.000000	96.618328 
1038.000000	96.613820 
1037.000000	96.619189 
1036.000000	96.637353 
1035.000000	96.662161 
1034.000000	96.682597 
1033.000000	96.693158 
1032.000000	96.696604 
1031.000000	96.696315 
1030.000000	96.691577 
1029.000000	96.683411 
1028.000000	96.680162 
1027.000000	96.691374 
1026.000000	96.717167 
1025.000000	96.747712 
1024.000000	96.772572 
1023.000000	96.787343 
1022.000000	96.792908 
1021.000000	96.793126 
1020.000000	96.793785 
1019.000000	96.800049 
1018.000000	96.812575 
1017.000000	96.827166 
1016.000000	96.838861 
1015.000000	96.846077 
1014.000000	96.851668 
1013.000000	96.860725 
1012.000000	96.875863 
1011.000000	96.893440 
1010.000000	96.906155 
1009.000000	96.911471 
1008.000000	96.915960 
1007.000000	96.928780 
1006.000000	96.951964 
1005.000000	96.979326 
1004.000000	97.003631 
1003.000000	97.022568 
1002.000000	97.038720 
1001.000000	97.056456 
1000.000000	97.078492 
999.000000	 97.102991 
998.000000	 97.124209 
997.000000	 97.138589 
996.000000	 97.150254 
995.000000	 97.167748 
994.000000	 97.194557 
993.000000	 97.224908 
992.000000	 97.249761 
991.000000	 97.265809 
990.000000	 97.277619 
989.000000	 97.292280 
988.000000	 97.313079 
987.000000	 97.337648 
986.000000	 97.360918 
985.000000	 97.380293 
984.000000	 97.398592 
983.000000	 97.421464 
982.000000	 97.451466 
981.000000	 97.484960 
980.000000	 97.515043 
979.000000	 97.538098 
978.000000	 97.557824 
977.000000	 97.582317 
976.000000	 97.616052 
975.000000	 97.654367 
974.000000	 97.687074 
973.000000	 97.709001 
972.000000	 97.726043 
971.000000	 97.749476 
970.000000	 97.784284 
969.000000	 97.824139 
968.000000	 97.857927 
967.000000	 97.880510 
966.000000	 97.896866 
965.000000	 97.916691 
964.000000	 97.944752 
963.000000	 97.976343 
962.000000	 98.002590 
961.000000	 98.020075 
960.000000	 98.034261 
959.000000	 98.053292 
958.000000	 98.079219 
957.000000	 98.106127 
956.000000	 98.126512 
955.000000	 98.138729 
954.000000	 98.148542 
953.000000	 98.163760 
952.000000	 98.186332 
951.000000	 98.209602 
950.000000	 98.224560 
949.000000	 98.229080 
948.000000	 98.230191 
947.000000	 98.236901 
946.000000	 98.251103 
945.000000	 98.266301 
944.000000	 98.274578 
943.000000	 98.274260 
942.000000	 98.271801 
941.000000	 98.276445 
940.000000	 98.291465 
939.000000	 98.310344 
938.000000	 98.322921 
937.000000	 98.326087 
936.000000	 98.326856 
935.000000	 98.334282 
934.000000	 98.349548 
933.000000	 98.365490 
932.000000	 98.374768 
931.000000	 98.376905 
930.000000	 98.378026 
929.000000	 98.384794 
928.000000	 98.397864 
927.000000	 98.410661 
926.000000	 98.415539 
925.000000	 98.411822 
924.000000	 98.407128 
923.000000	 98.409927 
922.000000	 98.421244 
921.000000	 98.434660 
920.000000	 98.443130 
919.000000	 98.444915 
918.000000	 98.443725 
917.000000	 98.444870 
916.000000	 98.450808 
915.000000	 98.459317 
914.000000	 98.465945 
913.000000	 98.469261 
912.000000	 98.473064 
911.000000	 98.481990 
910.000000	 98.495861 
909.000000	 98.509850 
908.000000	 98.520056 
907.000000	 98.527519 
906.000000	 98.536039 
905.000000	 98.547621 
904.000000	 98.560944 
903.000000	 98.573297 
902.000000	 98.583252 
901.000000	 98.591755 
900.000000	 98.601141 
899.000000	 98.612932 
898.000000	 98.626366 
897.000000	 98.639088 
896.000000	 98.649525 
895.000000	 98.658285 
894.000000	 98.667381 
893.000000	 98.678236 
892.000000	 98.690533 
891.000000	 98.702857 
890.000000	 98.714221 
889.000000	 98.724927 
888.000000	 98.736035 
887.000000	 98.748123 
886.000000	 98.760614 
885.000000	 98.772342 
884.000000	 98.782766 
883.000000	 98.792451 
882.000000	 98.802596 
881.000000	 98.813872 
880.000000	 98.825842 
879.000000	 98.837443 
878.000000	 98.848076 
877.000000	 98.858178 
876.000000	 98.868718 
875.000000	 98.880066 
874.000000	 98.891522 
873.000000	 98.902002 
872.000000	 98.911146 
871.000000	 98.919740 
870.000000	 98.929174 
869.000000	 98.940273 
868.000000	 98.952615 
867.000000	 98.964590 
866.000000	 98.974627 
865.000000	 98.982736 
864.000000	 98.990975 
863.000000	 99.001599 
862.000000	 99.014479 
861.000000	 99.026719 
860.000000	 99.035315 
859.000000	 99.040214 
858.000000	 99.044892 
857.000000	 99.053139 
856.000000	 99.065037 
855.000000	 99.076687 
854.000000	 99.084466 
853.000000	 99.089298 
852.000000	 99.095699 
851.000000	 99.106086 
850.000000	 99.117477 
849.000000	 99.124868 
848.000000	 99.126663 
847.000000	 99.125940 
846.000000	 99.127576 
845.000000	 99.134317 
844.000000	 99.144084 
843.000000	 99.150333 
842.000000	 99.147373 
841.000000	 99.137333 
840.000000	 99.130026 
839.000000	 99.132603 
838.000000	 99.140568 
837.000000	 99.142770 
836.000000	 99.135025 
835.000000	 99.124652 
834.000000	 99.121121 
833.000000	 99.126224 
832.000000	 99.134876 
831.000000	 99.141307 
830.000000	 99.142167 
829.000000	 99.137650 
828.000000	 99.133236 
827.000000	 99.136721 
826.000000	 99.148052 
825.000000	 99.154727 
824.000000	 99.144622 
823.000000	 99.122919 
822.000000	 99.109449 
821.000000	 99.116605 
820.000000	 99.135936 
819.000000	 99.148741 
818.000000	 99.145494 
817.000000	 99.132668 
816.000000	 99.123778 
815.000000	 99.125521 
814.000000	 99.131767 
813.000000	 99.129931 
812.000000	 99.113248 
811.000000	 99.087108 
810.000000	 99.062781 
809.000000	 99.044063 
808.000000	 99.022212 
807.000000	 98.985841 
806.000000	 98.934306 
805.000000	 98.879690 
804.000000	 98.836319 
803.000000	 98.810065 
802.000000	 98.796535 
801.000000	 98.786116 
800.000000	 98.771139 
799.000000	 98.752224 
798.000000	 98.739437 
797.000000	 98.743888 
796.000000	 98.765145 
795.000000	 98.788591 
794.000000	 98.799387 
793.000000	 98.798433 
792.000000	 98.799825 
791.000000	 98.812852 
790.000000	 98.831051 
789.000000	 98.840360 
788.000000	 98.834432 
787.000000	 98.819150 
786.000000	 98.804705 
785.000000	 98.795677 
784.000000	 98.787858 
783.000000	 98.773370 
782.000000	 98.750004 
781.000000	 98.726315 
780.000000	 98.715155 
779.000000	 98.720861 
778.000000	 98.734525 
777.000000	 98.743428 
776.000000	 98.744240 
775.000000	 98.744525 
774.000000	 98.753085 
773.000000	 98.771398 
772.000000	 98.793101 
771.000000	 98.809708 
770.000000	 98.817829 
769.000000	 98.822217 
768.000000	 98.830780 
767.000000	 98.845685 
766.000000	 98.860787 
765.000000	 98.868934 
764.000000	 98.869955 
763.000000	 98.869879 
762.000000	 98.874079 
761.000000	 98.882844 
760.000000	 98.892317 
759.000000	 98.897981 
758.000000	 98.898381 
757.000000	 98.896854 
756.000000	 98.898604 
755.000000	 98.905031 
754.000000	 98.912271 
753.000000	 98.916253 
752.000000	 98.917800 
751.000000	 98.921410 
750.000000	 98.929829 
749.000000	 98.941547 
748.000000	 98.952801 
747.000000	 98.960675 
746.000000	 98.964706 
745.000000	 98.966921 
744.000000	 98.970654 
743.000000	 98.977804 
742.000000	 98.987112 
741.000000	 98.995474 
740.000000	 99.001246 
739.000000	 99.005570 
738.000000	 99.010331 
737.000000	 99.016046 
736.000000	 99.021821 
735.000000	 99.026485 
734.000000	 99.029551 
733.000000	 99.031649 
732.000000	 99.034379 
731.000000	 99.039358 
730.000000	 99.046686 
729.000000	 99.054170 
728.000000	 99.059255 
727.000000	 99.061998 
726.000000	 99.065068 
725.000000	 99.070270 
724.000000	 99.075856 
723.000000	 99.078366 
722.000000	 99.076818 
721.000000	 99.074224 
720.000000	 99.074863 
719.000000	 99.080354 
718.000000	 99.088457 
717.000000	 99.095085 
716.000000	 99.097307 
715.000000	 99.095074 
714.000000	 99.091236 
713.000000	 99.089796 
712.000000	 99.092756 
711.000000	 99.098213 
710.000000	 99.102085 
709.000000	 99.102295 
708.000000	 99.100096 
707.000000	 99.097545 
706.000000	 99.094911 
705.000000	 99.091050 
704.000000	 99.085735 
703.000000	 99.080597 
702.000000	 99.077972 
701.000000	 99.079073 
700.000000	 99.082522 
699.000000	 99.084447 
698.000000	 99.081502 
697.000000	 99.074716 
696.000000	 99.069500 
695.000000	 99.070012 
694.000000	 99.074992 
693.000000	 99.080063 
692.000000	 99.082844 
691.000000	 99.084619 
690.000000	 99.087220 
689.000000	 99.090721 
688.000000	 99.094134 
687.000000	 99.096670 
686.000000	 99.098031 
685.000000	 99.098613 
684.000000	 99.099609 
683.000000	 99.102065 
682.000000	 99.105679 
681.000000	 99.109133 
680.000000	 99.111652 
679.000000	 99.113738 
678.000000	 99.116315 
677.000000	 99.119633 
676.000000	 99.123275 
675.000000	 99.126750 
674.000000	 99.129915 
673.000000	 99.132941 
672.000000	 99.136119 
671.000000	 99.139623 
670.000000	 99.143423 
669.000000	 99.147304 
668.000000	 99.150938 
667.000000	 99.154304 
666.000000	 99.157585 
665.000000	 99.161008 
664.000000	 99.164595 
663.000000	 99.168278 
662.000000	 99.172004 
661.000000	 99.175782 
660.000000	 99.179670 
659.000000	 99.183706 
658.000000	 99.187869 
657.000000	 99.192101 
656.000000	 99.196376 
655.000000	 99.200725 
654.000000	 99.205204 
653.000000	 99.209820 
652.000000	 99.214532 
651.000000	 99.219262 
650.000000	 99.223963 

