4000.000000	99.431054 
3999.000000	99.431415 
3998.000000	99.432023 
3997.000000	99.433311 
3996.000000	99.435504 
3995.000000	99.438526 
3994.000000	99.441943 
3993.000000	99.445050 
3992.000000	99.447096 
3991.000000	99.447557 
3990.000000	99.446455 
3989.000000	99.444454 
3988.000000	99.442447 
3987.000000	99.440915 
3986.000000	99.439753 
3985.000000	99.438592 
3984.000000	99.437118 
3983.000000	99.435236 
3982.000000	99.433251 
3981.000000	99.431855 
3980.000000	99.431539 
3979.000000	99.432145 
3978.000000	99.433338 
3977.000000	99.435305 
3976.000000	99.438374 
3975.000000	99.441839 
3974.000000	99.443850 
3973.000000	99.442889 
3972.000000	99.439134 
3971.000000	99.434202 
3970.000000	99.429840 
3969.000000	99.427016 
3968.000000	99.425853 
3967.000000	99.425955 
3966.000000	99.426893 
3965.000000	99.428524 
3964.000000	99.430641 
3963.000000	99.432352 
3962.000000	99.432280 
3961.000000	99.429709 
3960.000000	99.425399 
3959.000000	99.421113 
3958.000000	99.418283 
3957.000000	99.417234 
3956.000000	99.417477 
3955.000000	99.418507 
3954.000000	99.420448 
3953.000000	99.423745 
3952.000000	99.428157 
3951.000000	99.432209 
3950.000000	99.434069 
3949.000000	99.433294 
3948.000000	99.431236 
3947.000000	99.429534 
3946.000000	99.428767 
3945.000000	99.428625 
3944.000000	99.428629 
3943.000000	99.428282 
3942.000000	99.427366 
3941.000000	99.426341 
3940.000000	99.426011 
3939.000000	99.426797 
3938.000000	99.428408 
3937.000000	99.430203 
3936.000000	99.431694 
3935.000000	99.432528 
3934.000000	99.432526 
3933.000000	99.431863 
3932.000000	99.431246 
3931.000000	99.431470 
3930.000000	99.432843 
3929.000000	99.435121 
3928.000000	99.437355 
3927.000000	99.438034 
3926.000000	99.435971 
3925.000000	99.431330 
3924.000000	99.425818 
3923.000000	99.421310 
3922.000000	99.418331 
3921.000000	99.416381 
3920.000000	99.415013 
3919.000000	99.414275 
3918.000000	99.414550 
3917.000000	99.416435 
3916.000000	99.420410 
3915.000000	99.425845 
3914.000000	99.430803 
3913.000000	99.433272 
3912.000000	99.432776 
3911.000000	99.430742 
3910.000000	99.428751 
3909.000000	99.427029 
3908.000000	99.424723 
3907.000000	99.421101 
3906.000000	99.416778 
3905.000000	99.413288 
3904.000000	99.411893 
3903.000000	99.413070 
3902.000000	99.416709 
3901.000000	99.422476 
3900.000000	99.429376 
3899.000000	99.435089 
3898.000000	99.437444 
3897.000000	99.436058 
3896.000000	99.432265 
3895.000000	99.428017 
3894.000000	99.424685 
3893.000000	99.422850 
3892.000000	99.422741 
3891.000000	99.424432 
3890.000000	99.427381 
3889.000000	99.429868 
3888.000000	99.430578 
3887.000000	99.430304 
3886.000000	99.430715 
3885.000000	99.430998 
3884.000000	99.427880 
3883.000000	99.419752 
3882.000000	99.410061 
3881.000000	99.405367 
3880.000000	99.408784 
3879.000000	99.415987 
3878.000000	99.420242 
3877.000000	99.419597 
3876.000000	99.418216 
3875.000000	99.420701 
3874.000000	99.426187 
3873.000000	99.429662 
3872.000000	99.428529 
3871.000000	99.425340 
3870.000000	99.424127 
3869.000000	99.425765 
3868.000000	99.427337 
3867.000000	99.425981 
3866.000000	99.422616 
3865.000000	99.420855 
3864.000000	99.422864 
3863.000000	99.426935 
3862.000000	99.429681 
3861.000000	99.430492 
3860.000000	99.431630 
3859.000000	99.434904 
3858.000000	99.439584 
3857.000000	99.443122 
3856.000000	99.443344 
3855.000000	99.440252 
3854.000000	99.434490 
3853.000000	99.427304 
3852.000000	99.422239 
3851.000000	99.421461 
3850.000000	99.423473 
3849.000000	99.426492 
3848.000000	99.429350 
3847.000000	99.431570 
3846.000000	99.433023 
3845.000000	99.434073 
3844.000000	99.435667 
3843.000000	99.437679 
3842.000000	99.437822 
3841.000000	99.434048 
3840.000000	99.427019 
3839.000000	99.420579 
3838.000000	99.419120 
3837.000000	99.423149 
3836.000000	99.428723 
3835.000000	99.430971 
3834.000000	99.427535 
3833.000000	99.420080 
3832.000000	99.412824 
3831.000000	99.409211 
3830.000000	99.409675 
3829.000000	99.412518 
3828.000000	99.416880 
3827.000000	99.423310 
3826.000000	99.430974 
3825.000000	99.436505 
3824.000000	99.436410 
3823.000000	99.430965 
3822.000000	99.424565 
3821.000000	99.420857 
3820.000000	99.419601 
3819.000000	99.418692 
3818.000000	99.417495 
3817.000000	99.418427 
3816.000000	99.423704 
3815.000000	99.431008 
3814.000000	99.435689 
3813.000000	99.436259 
3812.000000	99.435086 
3811.000000	99.434975 
3810.000000	99.435952 
3809.000000	99.436041 
3808.000000	99.434754 
3807.000000	99.433941 
3806.000000	99.434659 
3805.000000	99.435340 
3804.000000	99.433882 
3803.000000	99.431000 
3802.000000	99.428654 
3801.000000	99.426190 
3800.000000	99.421659 
3799.000000	99.415378 
3798.000000	99.410808 
3797.000000	99.412064 
3796.000000	99.419307 
3795.000000	99.427715 
3794.000000	99.432128 
3793.000000	99.431666 
3792.000000	99.429242 
3791.000000	99.427797 
3790.000000	99.427446 
3789.000000	99.426490 
3788.000000	99.424534 
3787.000000	99.423314 
3786.000000	99.424551 
3785.000000	99.427643 
3784.000000	99.430006 
3783.000000	99.429735 
3782.000000	99.427702 
3781.000000	99.427047 
3780.000000	99.430040 
3779.000000	99.435231 
3778.000000	99.438553 
3777.000000	99.437580 
3776.000000	99.433718 
3775.000000	99.430414 
3774.000000	99.429805 
3773.000000	99.431424 
3772.000000	99.434044 
3771.000000	99.437245 
3770.000000	99.440475 
3769.000000	99.442150 
3768.000000	99.440703 
3767.000000	99.436230 
3766.000000	99.431034 
3765.000000	99.427697 
3764.000000	99.426800 
3763.000000	99.426748 
3762.000000	99.425867 
3761.000000	99.424151 
3760.000000	99.422644 
3759.000000	99.422459 
3758.000000	99.423799 
3757.000000	99.425694 
3756.000000	99.426737 
3755.000000	99.425897 
3754.000000	99.423406 
3753.000000	99.420842 
3752.000000	99.419707 
3751.000000	99.419209 
3750.000000	99.416760 
3749.000000	99.410846 
3748.000000	99.401710 
3747.000000	99.391622 
3746.000000	99.386137 
3745.000000	99.390369 
3744.000000	99.402116 
3743.000000	99.412703 
3742.000000	99.417243 
3741.000000	99.418771 
3740.000000	99.422668 
3739.000000	99.430391 
3738.000000	99.438057 
3737.000000	99.440321 
3736.000000	99.436179 
3735.000000	99.429346 
3734.000000	99.424029 
3733.000000	99.421815 
3732.000000	99.421964 
3731.000000	99.422491 
3730.000000	99.420814 
3729.000000	99.416105 
3728.000000	99.411409 
3727.000000	99.410927 
3726.000000	99.414543 
3725.000000	99.417400 
3724.000000	99.416386 
3723.000000	99.413946 
3722.000000	99.414181 
3721.000000	99.417721 
3720.000000	99.421450 
3719.000000	99.423141 
3718.000000	99.423576 
3717.000000	99.423697 
3716.000000	99.422551 
3715.000000	99.418190 
3714.000000	99.410420 
3713.000000	99.401861 
3712.000000	99.394874 
3711.000000	99.389065 
3710.000000	99.383006 
3709.000000	99.377217 
3708.000000	99.373742 
3707.000000	99.373359 
3706.000000	99.374710 
3705.000000	99.375640 
3704.000000	99.375308 
3703.000000	99.374771 
3702.000000	99.375170 
3701.000000	99.375937 
3700.000000	99.375031 
3699.000000	99.370859 
3698.000000	99.364325 
3697.000000	99.358144 
3696.000000	99.354371 
3695.000000	99.352944 
3694.000000	99.352760 
3693.000000	99.353782 
3692.000000	99.356749 
3691.000000	99.360866 
3690.000000	99.362660 
3689.000000	99.360249 
3688.000000	99.357107 
3687.000000	99.357513 
3686.000000	99.361428 
3685.000000	99.365978 
3684.000000	99.368699 
3683.000000	99.369099 
3682.000000	99.368452 
3681.000000	99.368206 
3680.000000	99.368433 
3679.000000	99.366781 
3678.000000	99.360374 
3677.000000	99.349403 
3676.000000	99.337439 
3675.000000	99.328358 
3674.000000	99.323021 
3673.000000	99.319605 
3672.000000	99.317657 
3671.000000	99.320059 
3670.000000	99.326818 
3669.000000	99.332491 
3668.000000	99.333448 
3667.000000	99.331406 
3666.000000	99.329843 
3665.000000	99.329972 
3664.000000	99.329551 
3663.000000	99.325579 
3662.000000	99.317340 
3661.000000	99.307027 
3660.000000	99.298338 
3659.000000	99.294306 
3658.000000	99.296004 
3657.000000	99.301312 
3656.000000	99.305474 
3655.000000	99.304655 
3654.000000	99.297935 
3653.000000	99.287056 
3652.000000	99.275749 
3651.000000	99.267882 
3650.000000	99.263273 
3649.000000	99.257422 
3648.000000	99.248721 
3647.000000	99.241122 
3646.000000	99.238756 
3645.000000	99.241839 
3644.000000	99.247261 
3643.000000	99.251240 
3642.000000	99.251256 
3641.000000	99.247068 
3640.000000	99.240759 
3639.000000	99.234738 
3638.000000	99.229389 
3637.000000	99.222948 
3636.000000	99.214479 
3635.000000	99.206194 
3634.000000	99.201342 
3633.000000	99.200052 
3632.000000	99.198759 
3631.000000	99.194253 
3630.000000	99.187160 
3629.000000	99.179649 
3628.000000	99.172161 
3627.000000	99.164469 
3626.000000	99.156909 
3625.000000	99.151261 
3624.000000	99.149747 
3623.000000	99.152760 
3622.000000	99.158731 
3621.000000	99.165751 
3620.000000	99.172247 
3619.000000	99.176961 
3618.000000	99.179721 
3617.000000	99.181383 
3616.000000	99.182905 
3615.000000	99.185093 
3614.000000	99.188508 
3613.000000	99.193494 
3612.000000	99.200443 
3611.000000	99.209396 
3610.000000	99.219315 
3609.000000	99.228012 
3608.000000	99.233071 
3607.000000	99.234194 
3606.000000	99.233692 
3605.000000	99.233989 
3604.000000	99.235563 
3603.000000	99.237003 
3602.000000	99.237009 
3601.000000	99.236128 
3600.000000	99.236093 
3599.000000	99.237850 
3598.000000	99.240813 
3597.000000	99.243999 
3596.000000	99.247691 
3595.000000	99.252811 
3594.000000	99.258799 
3593.000000	99.263416 
3592.000000	99.264567 
3591.000000	99.262186 
3590.000000	99.258474 
3589.000000	99.256011 
3588.000000	99.255007 
3587.000000	99.253732 
3586.000000	99.251816 
3585.000000	99.250490 
3584.000000	99.250644 
3583.000000	99.252415 
3582.000000	99.255873 
3581.000000	99.260464 
3580.000000	99.264220 
3579.000000	99.264502 
3578.000000	99.260217 
3577.000000	99.252973 
3576.000000	99.245541 
3575.000000	99.239745 
3574.000000	99.235812 
3573.000000	99.233584 
3572.000000	99.233326 
3571.000000	99.235347 
3570.000000	99.239468 
3569.000000	99.244888 
3568.000000	99.249645 
3567.000000	99.250893 
3566.000000	99.247610 
3565.000000	99.242183 
3564.000000	99.238319 
3563.000000	99.238565 
3562.000000	99.242954 
3561.000000	99.248940 
3560.000000	99.252834 
3559.000000	99.252212 
3558.000000	99.247535 
3557.000000	99.241963 
3556.000000	99.239500 
3555.000000	99.242614 
3554.000000	99.250335 
3553.000000	99.258269 
3552.000000	99.261457 
3551.000000	99.258046 
3550.000000	99.250137 
3549.000000	99.241581 
3548.000000	99.235381 
3547.000000	99.232373 
3546.000000	99.231528 
3545.000000	99.231372 
3544.000000	99.231393 
3543.000000	99.232240 
3542.000000	99.234744 
3541.000000	99.238837 
3540.000000	99.243263 
3539.000000	99.246292 
3538.000000	99.246897 
3537.000000	99.245273 
3536.000000	99.242510 
3535.000000	99.239708 
3534.000000	99.237339 
3533.000000	99.235098 
3532.000000	99.232177 
3531.000000	99.227975 
3530.000000	99.222889 
3529.000000	99.218386 
3528.000000	99.215883 
3527.000000	99.215515 
3526.000000	99.216406 
3525.000000	99.218096 
3524.000000	99.221021 
3523.000000	99.225367 
3522.000000	99.230158 
3521.000000	99.234124 
3520.000000	99.237175 
3519.000000	99.240201 
3518.000000	99.243495 
3517.000000	99.245894 
3516.000000	99.246018 
3515.000000	99.244088 
3514.000000	99.241995 
3513.000000	99.241460 
3512.000000	99.242345 
3511.000000	99.242903 
3510.000000	99.241560 
3509.000000	99.238196 
3508.000000	99.233641 
3507.000000	99.228494 
3506.000000	99.223051 
3505.000000	99.218110 
3504.000000	99.215131 
3503.000000	99.215343 
3502.000000	99.219006 
3501.000000	99.225324 
3500.000000	99.232444 
3499.000000	99.237585 
3498.000000	99.238205 
3497.000000	99.233997 
3496.000000	99.227526 
3495.000000	99.222225 
3494.000000	99.219772 
3493.000000	99.219629 
3492.000000	99.220490 
3491.000000	99.221186 
3490.000000	99.220529 
3489.000000	99.217604 
3488.000000	99.212882 
3487.000000	99.208640 
3486.000000	99.207587 
3485.000000	99.210772 
3484.000000	99.216613 
3483.000000	99.221692 
3482.000000	99.222964 
3481.000000	99.220017 
3480.000000	99.215265 
3479.000000	99.211715 
3478.000000	99.210784 
3477.000000	99.212455 
3476.000000	99.216551 
3475.000000	99.222586 
3474.000000	99.228430 
3473.000000	99.230636 
3472.000000	99.227157 
3471.000000	99.219371 
3470.000000	99.210817 
3469.000000	99.204324 
3468.000000	99.200768 
3467.000000	99.199769 
3466.000000	99.200399 
3465.000000	99.201208 
3464.000000	99.200810 
3463.000000	99.199147 
3462.000000	99.197714 
3461.000000	99.198018 
3460.000000	99.200113 
3459.000000	99.202956 
3458.000000	99.205683 
3457.000000	99.207811 
3456.000000	99.208637 
3455.000000	99.207369 
3454.000000	99.204181 
3453.000000	99.200437 
3452.000000	99.197353 
3451.000000	99.194897 
3450.000000	99.192457 
3449.000000	99.190240 
3448.000000	99.189130 
3447.000000	99.189107 
3446.000000	99.188765 
3445.000000	99.187084 
3444.000000	99.185000 
3443.000000	99.184397 
3442.000000	99.185641 
3441.000000	99.186854 
3440.000000	99.185967 
3439.000000	99.182951 
3438.000000	99.179726 
3437.000000	99.178253 
3436.000000	99.179125 
3435.000000	99.181599 
3434.000000	99.184420 
3433.000000	99.186500 
3432.000000	99.187211 
3431.000000	99.186477 
3430.000000	99.184737 
3429.000000	99.182932 
3428.000000	99.182328 
3427.000000	99.183880 
3426.000000	99.187444 
3425.000000	99.191656 
3424.000000	99.194720 
3423.000000	99.195377 
3422.000000	99.193429 
3421.000000	99.189775 
3420.000000	99.186098 
3419.000000	99.184059 
3418.000000	99.184393 
3417.000000	99.186565 
3416.000000	99.188986 
3415.000000	99.189457 
3414.000000	99.186147 
3413.000000	99.179274 
3412.000000	99.171856 
3411.000000	99.167649 
3410.000000	99.167672 
3409.000000	99.169348 
3408.000000	99.169557 
3407.000000	99.167950 
3406.000000	99.166553 
3405.000000	99.166793 
3404.000000	99.168196 
3403.000000	99.169968 
3402.000000	99.172649 
3401.000000	99.177376 
3400.000000	99.183801 
3399.000000	99.189378 
3398.000000	99.190933 
3397.000000	99.187042 
3396.000000	99.179125 
3395.000000	99.170550 
3394.000000	99.164727 
3393.000000	99.163621 
3392.000000	99.167079 
3391.000000	99.172926 
3390.000000	99.178015 
3389.000000	99.180132 
3388.000000	99.179354 
3387.000000	99.177439 
3386.000000	99.175965 
3385.000000	99.175451 
3384.000000	99.176069 
3383.000000	99.177990 
3382.000000	99.180431 
3381.000000	99.181420 
3380.000000	99.179711 
3379.000000	99.176625 
3378.000000	99.174833 
3377.000000	99.175340 
3376.000000	99.176695 
3375.000000	99.177278 
3374.000000	99.177181 
3373.000000	99.177277 
3372.000000	99.177497 
3371.000000	99.177204 
3370.000000	99.176965 
3369.000000	99.178696 
3368.000000	99.183588 
3367.000000	99.190424 
3366.000000	99.196407 
3365.000000	99.199500 
3364.000000	99.199663 
3363.000000	99.197983 
3362.000000	99.195133 
3361.000000	99.191043 
3360.000000	99.185962 
3359.000000	99.181341 
3358.000000	99.179075 
3357.000000	99.179612 
3356.000000	99.181125 
3355.000000	99.181121 
3354.000000	99.179061 
3353.000000	99.177012 
3352.000000	99.177405 
3351.000000	99.180387 
3350.000000	99.183835 
3349.000000	99.185897 
3348.000000	99.186802 
3347.000000	99.187800 
3346.000000	99.188990 
3345.000000	99.189099 
3344.000000	99.187428 
3343.000000	99.185188 
3342.000000	99.184385 
3341.000000	99.185663 
3340.000000	99.187596 
3339.000000	99.188037 
3338.000000	99.186000 
3337.000000	99.182402 
3336.000000	99.179330 
3335.000000	99.178679 
3334.000000	99.181290 
3333.000000	99.186896 
3332.000000	99.194289 
3331.000000	99.201378 
3330.000000	99.205691 
3329.000000	99.205750 
3328.000000	99.202218 
3327.000000	99.197306 
3326.000000	99.192948 
3325.000000	99.189803 
3324.000000	99.187861 
3323.000000	99.187280 
3322.000000	99.188303 
3321.000000	99.190918 
3320.000000	99.194976 
3319.000000	99.200159 
3318.000000	99.205440 
3317.000000	99.209159 
3316.000000	99.210432 
3315.000000	99.210297 
3314.000000	99.210727 
3313.000000	99.212413 
3312.000000	99.214069 
3311.000000	99.214078 
3310.000000	99.212347 
3309.000000	99.210285 
3308.000000	99.209258 
3307.000000	99.209410 
3306.000000	99.209958 
3305.000000	99.210440 
3304.000000	99.211509 
3303.000000	99.214293 
3302.000000	99.218714 
3301.000000	99.222409 
3300.000000	99.221768 
3299.000000	99.214742 
3298.000000	99.203165 
3297.000000	99.192298 
3296.000000	99.187385 
3295.000000	99.189892 
3294.000000	99.196771 
3293.000000	99.203440 
3292.000000	99.207553 
3291.000000	99.209949 
3290.000000	99.212319 
3289.000000	99.214631 
3288.000000	99.215197 
3287.000000	99.213019 
3286.000000	99.209806 
3285.000000	99.209411 
3284.000000	99.214774 
3283.000000	99.224898 
3282.000000	99.234970 
3281.000000	99.239992 
3280.000000	99.238513 
3279.000000	99.232805 
3278.000000	99.226089 
3277.000000	99.220402 
3276.000000	99.216596 
3275.000000	99.214753 
3274.000000	99.213938 
3273.000000	99.212696 
3272.000000	99.210744 
3271.000000	99.209404 
3270.000000	99.209569 
3269.000000	99.210042 
3268.000000	99.209134 
3267.000000	99.207438 
3266.000000	99.207521 
3265.000000	99.210683 
3264.000000	99.215224 
3263.000000	99.218521 
3262.000000	99.219927 
3261.000000	99.220873 
3260.000000	99.222707 
3259.000000	99.225403 
3258.000000	99.228258 
3257.000000	99.230844 
3256.000000	99.232775 
3255.000000	99.233218 
3254.000000	99.231653 
3253.000000	99.229149 
3252.000000	99.228032 
3251.000000	99.229702 
3250.000000	99.233117 
3249.000000	99.236037 
3248.000000	99.237469 
3247.000000	99.238211 
3246.000000	99.239139 
3245.000000	99.239820 
3244.000000	99.239096 
3243.000000	99.236350 
3242.000000	99.231882 
3241.000000	99.226758 
3240.000000	99.222794 
3239.000000	99.222092 
3238.000000	99.225670 
3237.000000	99.232244 
3236.000000	99.238497 
3235.000000	99.240767 
3234.000000	99.237250 
3233.000000	99.229545 
3232.000000	99.222082 
3231.000000	99.218911 
3230.000000	99.220356 
3229.000000	99.223259 
3228.000000	99.224700 
3227.000000	99.224622 
3226.000000	99.224579 
3225.000000	99.225305 
3224.000000	99.226631 
3223.000000	99.228729 
3222.000000	99.231719 
3221.000000	99.234399 
3220.000000	99.235025 
3219.000000	99.233674 
3218.000000	99.232461 
3217.000000	99.232910 
3216.000000	99.234238 
3215.000000	99.234985 
3214.000000	99.235476 
3213.000000	99.237514 
3212.000000	99.241683 
3211.000000	99.245778 
3210.000000	99.246359 
3209.000000	99.241955 
3208.000000	99.234823 
3207.000000	99.229480 
3206.000000	99.229184 
3205.000000	99.233535 
3204.000000	99.239281 
3203.000000	99.243251 
3202.000000	99.244501 
3201.000000	99.244141 
3200.000000	99.243882 
3199.000000	99.244898 
3198.000000	99.247411 
3197.000000	99.250588 
3196.000000	99.252791 
3195.000000	99.252511 
3194.000000	99.249642 
3193.000000	99.245936 
3192.000000	99.243788 
3191.000000	99.244237 
3190.000000	99.246217 
3189.000000	99.247925 
3188.000000	99.248592 
3187.000000	99.248727 
3186.000000	99.249225 
3185.000000	99.250958 
3184.000000	99.254704 
3183.000000	99.260180 
3182.000000	99.265080 
3181.000000	99.266385 
3180.000000	99.263303 
3179.000000	99.258135 
3178.000000	99.253772 
3177.000000	99.251216 
3176.000000	99.250094 
3175.000000	99.250225 
3174.000000	99.251399 
3173.000000	99.252464 
3172.000000	99.252282 
3171.000000	99.251436 
3170.000000	99.251703 
3169.000000	99.253761 
3168.000000	99.256468 
3167.000000	99.258537 
3166.000000	99.259950 
3165.000000	99.261423 
3164.000000	99.263235 
3163.000000	99.264904 
3162.000000	99.265552 
3161.000000	99.264495 
3160.000000	99.261969 
3159.000000	99.259356 
3158.000000	99.258185 
3157.000000	99.258710 
3156.000000	99.259638 
3155.000000	99.259100 
3154.000000	99.255833 
3153.000000	99.250142 
3152.000000	99.244408 
3151.000000	99.241903 
3150.000000	99.243884 
3149.000000	99.247992 
3148.000000	99.250593 
3147.000000	99.250717 
3146.000000	99.250797 
3145.000000	99.253541 
3144.000000	99.259026 
3143.000000	99.264882 
3142.000000	99.268280 
3141.000000	99.267622 
3140.000000	99.263562 
3139.000000	99.259026 
3138.000000	99.257327 
3137.000000	99.259418 
3136.000000	99.263233 
3135.000000	99.265912 
3134.000000	99.266106 
3133.000000	99.264009 
3132.000000	99.260286 
3131.000000	99.255864 
3130.000000	99.252177 
3129.000000	99.250639 
3128.000000	99.251819 
3127.000000	99.255547 
3126.000000	99.261415 
3125.000000	99.268492 
3124.000000	99.274714 
3123.000000	99.277412 
3122.000000	99.275115 
3121.000000	99.268992 
3120.000000	99.262495 
3119.000000	99.259279 
3118.000000	99.260699 
3117.000000	99.264774 
3116.000000	99.267785 
3115.000000	99.267428 
3114.000000	99.264591 
3113.000000	99.262118 
3112.000000	99.262103 
3111.000000	99.264571 
3110.000000	99.268269 
3109.000000	99.271800 
3108.000000	99.273705 
3107.000000	99.272508 
3106.000000	99.268107 
3105.000000	99.263323 
3104.000000	99.262543 
3103.000000	99.267454 
3102.000000	99.274666 
3101.000000	99.279016 
3100.000000	99.279153 
3099.000000	99.278122 
3098.000000	99.278452 
3097.000000	99.279133 
3096.000000	99.278759 
3095.000000	99.279367 
3094.000000	99.284340 
3093.000000	99.293040 
3092.000000	99.300123 
3091.000000	99.300746 
3090.000000	99.295052 
3089.000000	99.287188 
3088.000000	99.281253 
3087.000000	99.278623 
3086.000000	99.277920 
3085.000000	99.276871 
3084.000000	99.274812 
3083.000000	99.273581 
3082.000000	99.275231 
3081.000000	99.278955 
3080.000000	99.281657 
3079.000000	99.281934 
3078.000000	99.282088 
3077.000000	99.285247 
3076.000000	99.291382 
3075.000000	99.297071 
3074.000000	99.298669 
3073.000000	99.295252 
3072.000000	99.289233 
3071.000000	99.284771 
3070.000000	99.284838 
3069.000000	99.288942 
3068.000000	99.293815 
3067.000000	99.296748 
3066.000000	99.297867 
3065.000000	99.298909 
3064.000000	99.300556 
3063.000000	99.301691 
3062.000000	99.300714 
3061.000000	99.296871 
3060.000000	99.290809 
3059.000000	99.284653 
3058.000000	99.281216 
3057.000000	99.282049 
3056.000000	99.285894 
3055.000000	99.289511 
3054.000000	99.290370 
3053.000000	99.288520 
3052.000000	99.286039 
3051.000000	99.284854 
3050.000000	99.285003 
3049.000000	99.284914 
3048.000000	99.283489 
3047.000000	99.281747 
3046.000000	99.281855 
3045.000000	99.284480 
3044.000000	99.287785 
3043.000000	99.289609 
3042.000000	99.290122 
3041.000000	99.291519 
3040.000000	99.295085 
3039.000000	99.299300 
3038.000000	99.301278 
3037.000000	99.299883 
3036.000000	99.296984 
3035.000000	99.295494 
3034.000000	99.296375 
3033.000000	99.297960 
3032.000000	99.298294 
3031.000000	99.297658 
3030.000000	99.298206 
3029.000000	99.301229 
3028.000000	99.305408 
3027.000000	99.308044 
3026.000000	99.307761 
3025.000000	99.305882 
3024.000000	99.305180 
3023.000000	99.307122 
3022.000000	99.310132 
3021.000000	99.310883 
3020.000000	99.307717 
3019.000000	99.302569 
3018.000000	99.298940 
3017.000000	99.298269 
3016.000000	99.299296 
3015.000000	99.300998 
3014.000000	99.304621 
3013.000000	99.311651 
3012.000000	99.320462 
3011.000000	99.326488 
3010.000000	99.326291 
3009.000000	99.320922 
3008.000000	99.314874 
3007.000000	99.312031 
3006.000000	99.312973 
3005.000000	99.315892 
3004.000000	99.319219 
3003.000000	99.322661 
3002.000000	99.326083 
3001.000000	99.328650 
3000.000000	99.329723 
2999.000000	99.329784 
2998.000000	99.329477 
2997.000000	99.328128 
2996.000000	99.324489 
2995.000000	99.319188 
2994.000000	99.315291 
2993.000000	99.315597 
2992.000000	99.319763 
2991.000000	99.324750 
2990.000000	99.327826 
2989.000000	99.328580 
2988.000000	99.328147 
2987.000000	99.327414 
2986.000000	99.326568 
2985.000000	99.325973 
2984.000000	99.326457 
2983.000000	99.328199 
2982.000000	99.329914 
2981.000000	99.330091 
2980.000000	99.329203 
2979.000000	99.329761 
2978.000000	99.333526 
2977.000000	99.339076 
2976.000000	99.342851 
2975.000000	99.342590 
2974.000000	99.339369 
2973.000000	99.336424 
2972.000000	99.336446 
2971.000000	99.339888 
2970.000000	99.345235 
2969.000000	99.350516 
2968.000000	99.354640 
2967.000000	99.357534 
2966.000000	99.359385 
2965.000000	99.360275 
2964.000000	99.360516 
2963.000000	99.360613 
2962.000000	99.360511 
2961.000000	99.359544 
2960.000000	99.357700 
2959.000000	99.356409 
2958.000000	99.357324 
2957.000000	99.360581 
2956.000000	99.364812 
2955.000000	99.368409 
2954.000000	99.370141 
2953.000000	99.369148 
2952.000000	99.365574 
2951.000000	99.361206 
2950.000000	99.358505 
2949.000000	99.358758 
2948.000000	99.361612 
2947.000000	99.366005 
2946.000000	99.370616 
2945.000000	99.373728 
2944.000000	99.374118 
2943.000000	99.372501 
2942.000000	99.371091 
2941.000000	99.371297 
2940.000000	99.372842 
2939.000000	99.375505 
2938.000000	99.380415 
2937.000000	99.388420 
2936.000000	99.397840 
2935.000000	99.405204 
2934.000000	99.408429 
2933.000000	99.408556 
2932.000000	99.408304 
2931.000000	99.409462 
2930.000000	99.411859 
2929.000000	99.414370 
2928.000000	99.416370 
2927.000000	99.418097 
2926.000000	99.419866 
2925.000000	99.421282 
2924.000000	99.421310 
2923.000000	99.418942 
2922.000000	99.413772 
2921.000000	99.406366 
2920.000000	99.398313 
2919.000000	99.391558 
2918.000000	99.387197 
2917.000000	99.384995 
2916.000000	99.384157 
2915.000000	99.384117 
2914.000000	99.384194 
2913.000000	99.383066 
2912.000000	99.379609 
2911.000000	99.374425 
2910.000000	99.370024 
2909.000000	99.369116 
2908.000000	99.372554 
2907.000000	99.378577 
2906.000000	99.383771 
2905.000000	99.385268 
2904.000000	99.382688 
2903.000000	99.377955 
2902.000000	99.373338 
2901.000000	99.369683 
2900.000000	99.366914 
2899.000000	99.365217 
2898.000000	99.364758 
2897.000000	99.364925 
2896.000000	99.364913 
2895.000000	99.364963 
2894.000000	99.365960 
2893.000000	99.367590 
2892.000000	99.367818 
2891.000000	99.364773 
2890.000000	99.358969 
2889.000000	99.353535 
2888.000000	99.352172 
2887.000000	99.356277 
2886.000000	99.363507 
2885.000000	99.369409 
2884.000000	99.371048 
2883.000000	99.368980 
2882.000000	99.365534 
2881.000000	99.362078 
2880.000000	99.358819 
2879.000000	99.356386 
2878.000000	99.355994 
2877.000000	99.357985 
2876.000000	99.361356 
2875.000000	99.364823 
2874.000000	99.367373 
2873.000000	99.367830 
2872.000000	99.365185 
2871.000000	99.359881 
2870.000000	99.353959 
2869.000000	99.349587 
2868.000000	99.347953 
2867.000000	99.349494 
2866.000000	99.354089 
2865.000000	99.360557 
2864.000000	99.366807 
2863.000000	99.371088 
2862.000000	99.372900 
2861.000000	99.372793 
2860.000000	99.371983 
2859.000000	99.372120 
2858.000000	99.374398 
2857.000000	99.378473 
2856.000000	99.382693 
2855.000000	99.385440 
2854.000000	99.385891 
2853.000000	99.384008 
2852.000000	99.380626 
2851.000000	99.377044 
2850.000000	99.373330 
2849.000000	99.367527 
2848.000000	99.358287 
2847.000000	99.348233 
2846.000000	99.342688 
2845.000000	99.344258 
2844.000000	99.350093 
2843.000000	99.355197 
2842.000000	99.356961 
2841.000000	99.355575 
2840.000000	99.351822 
2839.000000	99.346401 
2838.000000	99.340707 
2837.000000	99.336485 
2836.000000	99.334634 
2835.000000	99.335254 
2834.000000	99.338417 
2833.000000	99.343630 
2832.000000	99.348650 
2831.000000	99.350197 
2830.000000	99.346598 
2829.000000	99.339372 
2828.000000	99.332021 
2827.000000	99.327488 
2826.000000	99.326727 
2825.000000	99.329117 
2824.000000	99.333648 
2823.000000	99.339412 
2822.000000	99.344966 
2821.000000	99.347938 
2820.000000	99.346217 
2819.000000	99.339884 
2818.000000	99.331478 
2817.000000	99.324098 
2816.000000	99.319617 
2815.000000	99.318699 
2814.000000	99.321594 
2813.000000	99.328029 
2812.000000	99.336439 
2811.000000	99.343876 
2810.000000	99.347045 
2809.000000	99.343940 
2808.000000	99.335308 
2807.000000	99.324811 
2806.000000	99.317169 
2805.000000	99.315526 
2804.000000	99.320232 
2803.000000	99.329563 
2802.000000	99.340682 
2801.000000	99.350075 
2800.000000	99.354476 
2799.000000	99.352544 
2798.000000	99.345676 
2797.000000	99.337023 
2796.000000	99.329914 
2795.000000	99.326935 
2794.000000	99.329243 
2793.000000	99.335889 
2792.000000	99.344113 
2791.000000	99.350832 
2790.000000	99.353930 
2789.000000	99.352427 
2788.000000	99.346401 
2787.000000	99.337146 
2786.000000	99.326927 
2785.000000	99.318330 
2784.000000	99.314023 
2783.000000	99.316548 
2782.000000	99.326589 
2781.000000	99.340848 
2780.000000	99.352980 
2779.000000	99.357998 
2778.000000	99.355576 
2777.000000	99.348714 
2776.000000	99.340332 
2775.000000	99.332204 
2774.000000	99.326270 
2773.000000	99.325012 
2772.000000	99.329751 
2771.000000	99.339133 
2770.000000	99.349590 
2769.000000	99.357286 
2768.000000	99.359960 
2767.000000	99.357474 
2766.000000	99.350964 
2765.000000	99.341960 
2764.000000	99.332772 
2763.000000	99.327041 
2762.000000	99.328050 
2761.000000	99.335609 
2760.000000	99.345491 
2759.000000	99.352734 
2758.000000	99.354888 
2757.000000	99.351773 
2756.000000	99.343992 
2755.000000	99.333440 
2754.000000	99.324313 
2753.000000	99.321147 
2752.000000	99.325219 
2751.000000	99.333794 
2750.000000	99.342869 
2749.000000	99.349580 
2748.000000	99.352361 
2747.000000	99.350700 
2746.000000	99.345655 
2745.000000	99.339547 
2744.000000	99.334282 
2743.000000	99.330531 
2742.000000	99.328831 
2741.000000	99.330382 
2740.000000	99.335788 
2739.000000	99.343523 
2738.000000	99.350513 
2737.000000	99.354084 
2736.000000	99.352944 
2735.000000	99.346885 
2734.000000	99.336818 
2733.000000	99.325452 
2732.000000	99.317034 
2731.000000	99.315306 
2730.000000	99.321122 
2729.000000	99.331942 
2728.000000	99.343697 
2727.000000	99.353176 
2726.000000	99.358859 
2725.000000	99.360181 
2724.000000	99.357046 
2723.000000	99.350530 
2722.000000	99.343432 
2721.000000	99.339081 
2720.000000	99.339155 
2719.000000	99.342777 
2718.000000	99.347586 
2717.000000	99.351296 
2716.000000	99.352438 
2715.000000	99.350561 
2714.000000	99.346312 
2713.000000	99.341190 
2712.000000	99.336842 
2711.000000	99.334567 
2710.000000	99.335303 
2709.000000	99.339499 
2708.000000	99.346453 
2707.000000	99.353959 
2706.000000	99.359167 
2705.000000	99.360219 
2704.000000	99.357267 
2703.000000	99.352127 
2702.000000	99.347109 
2701.000000	99.343973 
2700.000000	99.343555 
2699.000000	99.345939 
2698.000000	99.350617 
2697.000000	99.356311 
2696.000000	99.360826 
2695.000000	99.361716 
2694.000000	99.357707 
2693.000000	99.349743 
2692.000000	99.340661 
2691.000000	99.333753 
2690.000000	99.331326 
2689.000000	99.333964 
2688.000000	99.340569 
2687.000000	99.349021 
2686.000000	99.357015 
2685.000000	99.362462 
2684.000000	99.363455 
2683.000000	99.358810 
2682.000000	99.349551 
2681.000000	99.339539 
2680.000000	99.333379 
2679.000000	99.333053 
2678.000000	99.337054 
2677.000000	99.342907 
2676.000000	99.349422 
2675.000000	99.355727 
2674.000000	99.359411 
2673.000000	99.357645 
2672.000000	99.350395 
2671.000000	99.341185 
2670.000000	99.334176 
2669.000000	99.331330 
2668.000000	99.332581 
2667.000000	99.337391 
2666.000000	99.344965 
2665.000000	99.353403 
2664.000000	99.359754 
2663.000000	99.361346 
2662.000000	99.357395 
2661.000000	99.349941 
2660.000000	99.343138 
2659.000000	99.340553 
2658.000000	99.342479 
2657.000000	99.346294 
2656.000000	99.349518 
2655.000000	99.351500 
2654.000000	99.352026 
2653.000000	99.350143 
2652.000000	99.345717 
2651.000000	99.340811 
2650.000000	99.337683 
2649.000000	99.336123 
2648.000000	99.334576 
2647.000000	99.333401 
2646.000000	99.334955 
2645.000000	99.340292 
2644.000000	99.347489 
2643.000000	99.353509 
2642.000000	99.356202 
2641.000000	99.354477 
2640.000000	99.348716 
2639.000000	99.341980 
2638.000000	99.338957 
2637.000000	99.342020 
2636.000000	99.348965 
2635.000000	99.355537 
2634.000000	99.359330 
2633.000000	99.360549 
2632.000000	99.360309 
2631.000000	99.359749 
2630.000000	99.360146 
2629.000000	99.362136 
2628.000000	99.364656 
2627.000000	99.365791 
2626.000000	99.365036 
2625.000000	99.363971 
2624.000000	99.364275 
2623.000000	99.365475 
2622.000000	99.364993 
2621.000000	99.360375 
2620.000000	99.351444 
2619.000000	99.340523 
2618.000000	99.331032 
2617.000000	99.326067 
2616.000000	99.327535 
2615.000000	99.334955 
2614.000000	99.344353 
2613.000000	99.349772 
2612.000000	99.347904 
2611.000000	99.341251 
2610.000000	99.335452 
2609.000000	99.333668 
2608.000000	99.334951 
2607.000000	99.337734 
2606.000000	99.342648 
2605.000000	99.351005 
2604.000000	99.362015 
2603.000000	99.372530 
2602.000000	99.378662 
2601.000000	99.377447 
2600.000000	99.368676 
2599.000000	99.356162 
2598.000000	99.345850 
2597.000000	99.341284 
2596.000000	99.341545 
2595.000000	99.344107 
2594.000000	99.348032 
2593.000000	99.352946 
2592.000000	99.356458 
2591.000000	99.355171 
2590.000000	99.348373 
2589.000000	99.339358 
2588.000000	99.333050 
2587.000000	99.333090 
2586.000000	99.340374 
2585.000000	99.352536 
2584.000000	99.364704 
2583.000000	99.372309 
2582.000000	99.373904 
2581.000000	99.370828 
2580.000000	99.364422 
2579.000000	99.354772 
2578.000000	99.342343 
2577.000000	99.329614 
2576.000000	99.320259 
2575.000000	99.317065 
2574.000000	99.320883 
2573.000000	99.330766 
2572.000000	99.344257 
2571.000000	99.357562 
2570.000000	99.366277 
2569.000000	99.367135 
2568.000000	99.360218 
2567.000000	99.349851 
2566.000000	99.342520 
2565.000000	99.342699 
2564.000000	99.350045 
2563.000000	99.360436 
2562.000000	99.369220 
2561.000000	99.373268 
2560.000000	99.371125 
2559.000000	99.363163 
2558.000000	99.352324 
2557.000000	99.343322 
2556.000000	99.339391 
2555.000000	99.339749 
2554.000000	99.341367 
2553.000000	99.343496 
2552.000000	99.349001 
2551.000000	99.359902 
2550.000000	99.372326 
2549.000000	99.378131 
2548.000000	99.372663 
2547.000000	99.360103 
2546.000000	99.350142 
2545.000000	99.349714 
2544.000000	99.358184 
2543.000000	99.369392 
2542.000000	99.376952 
2541.000000	99.378070 
2540.000000	99.374006 
2539.000000	99.367654 
2538.000000	99.360415 
2537.000000	99.351679 
2536.000000	99.341725 
2535.000000	99.334121 
2534.000000	99.333511 
2533.000000	99.340862 
2532.000000	99.352198 
2531.000000	99.362283 
2530.000000	99.368441 
2529.000000	99.370815 
2528.000000	99.370751 
2527.000000	99.369898 
2526.000000	99.369445 
2525.000000	99.368799 
2524.000000	99.365801 
2523.000000	99.359681 
2522.000000	99.353348 
2521.000000	99.351205 
2520.000000	99.354380 
2519.000000	99.359178 
2518.000000	99.360652 
2517.000000	99.357071 
2516.000000	99.350712 
2515.000000	99.345376 
2514.000000	99.344062 
2513.000000	99.348248 
2512.000000	99.357462 
2511.000000	99.368745 
2510.000000	99.377658 
2509.000000	99.381238 
2508.000000	99.379931 
2507.000000	99.375964 
2506.000000	99.370548 
2505.000000	99.364083 
2504.000000	99.358583 
2503.000000	99.357412 
2502.000000	99.361494 
2501.000000	99.367328 
2500.000000	99.370205 
2499.000000	99.368572 
2498.000000	99.364192 
2497.000000	99.359211 
2496.000000	99.354677 
2495.000000	99.351257 
2494.000000	99.349592 
2493.000000	99.349821 
2492.000000	99.351701 
2491.000000	99.354968 
2490.000000	99.358726 
2489.000000	99.361205 
2488.000000	99.361495 
2487.000000	99.361016 
2486.000000	99.361754 
2485.000000	99.363322 
2484.000000	99.363421 
2483.000000	99.361297 
2482.000000	99.359227 
2481.000000	99.360041 
2480.000000	99.364124 
2479.000000	99.369198 
2478.000000	99.372427 
2477.000000	99.372683 
2476.000000	99.371313 
2475.000000	99.370495 
2474.000000	99.370424 
2473.000000	99.368817 
2472.000000	99.363986 
2471.000000	99.357526 
2470.000000	99.352870 
2469.000000	99.352070 
2468.000000	99.355167 
2467.000000	99.361445 
2466.000000	99.369148 
2465.000000	99.374737 
2464.000000	99.375074 
2463.000000	99.370653 
2462.000000	99.364897 
2461.000000	99.360319 
2460.000000	99.357190 
2459.000000	99.355682 
2458.000000	99.356716 
2457.000000	99.360036 
2456.000000	99.363431 
2455.000000	99.364576 
2454.000000	99.362181 
2453.000000	99.355488 
2452.000000	99.345261 
2451.000000	99.335957 
2450.000000	99.334004 
2449.000000	99.341852 
2448.000000	99.354973 
2447.000000	99.366049 
2446.000000	99.370843 
2445.000000	99.369349 
2444.000000	99.363634 
2443.000000	99.356665 
2442.000000	99.351720 
2441.000000	99.350309 
2440.000000	99.350737 
2439.000000	99.350331 
2438.000000	99.349106 
2437.000000	99.350094 
2436.000000	99.355854 
2435.000000	99.365202 
2434.000000	99.373435 
2433.000000	99.375951 
2432.000000	99.372353 
2431.000000	99.366966 
2430.000000	99.364442 
2429.000000	99.365032 
2428.000000	99.365457 
2427.000000	99.364143 
2426.000000	99.363318 
2425.000000	99.365142 
2424.000000	99.367957 
2423.000000	99.368144 
2422.000000	99.364482 
2421.000000	99.359156 
2420.000000	99.355382 
2419.000000	99.355454 
2418.000000	99.360091 
2417.000000	99.367685 
2416.000000	99.374263 
2415.000000	99.375947 
2414.000000	99.372241 
2413.000000	99.366430 
2412.000000	99.362407 
2411.000000	99.361183 
2410.000000	99.360371 
2409.000000	99.356989 
2408.000000	99.350991 
2407.000000	99.345932 
2406.000000	99.345722 
2405.000000	99.350803 
2404.000000	99.358023 
2403.000000	99.363829 
2402.000000	99.366587 
2401.000000	99.366235 
2400.000000	99.363425 
2399.000000	99.359411 
2398.000000	99.355509 
2397.000000	99.352185 
2396.000000	99.349605 
2395.000000	99.348952 
2394.000000	99.351434 
2393.000000	99.355556 
2392.000000	99.357319 
2391.000000	99.354363 
2390.000000	99.348644 
2389.000000	99.344079 
2388.000000	99.342798 
2387.000000	99.344686 
2386.000000	99.348942 
2385.000000	99.354238 
2384.000000	99.358329 
2383.000000	99.359577 
2382.000000	99.358884 
2381.000000	99.358883 
2380.000000	99.361208 
2379.000000	99.365365 
2378.000000	99.369781 
2377.000000	99.372448 
2376.000000	99.371141 
2375.000000	99.365280 
2374.000000	99.358223 
2373.000000	99.355528 
2372.000000	99.359005 
2371.000000	99.363887 
2370.000000	99.364104 
2369.000000	99.359761 
2368.000000	99.357357 
2367.000000	99.362179 
2366.000000	99.371533 
2365.000000	99.375846 
2364.000000	99.367476 
2363.000000	99.349791 
2362.000000	99.334273 
2361.000000	99.329534 
2360.000000	99.335456 
2359.000000	99.345158 
2358.000000	99.352917 
2357.000000	99.356417 
2356.000000	99.355222 
2355.000000	99.352911 
2354.000000	99.355007 
2353.000000	99.362073 
2352.000000	99.365098 
2351.000000	99.355870 
2350.000000	99.338448 
2349.000000	99.323489 
2348.000000	99.319603 
2347.000000	99.326817 
2346.000000	99.338904 
2345.000000	99.348759 
2344.000000	99.352668 
2343.000000	99.353912 
2342.000000	99.356539 
2341.000000	99.362441 
2340.000000	99.369116 
2339.000000	99.371694 
2338.000000	99.368290 
2337.000000	99.361497 
2336.000000	99.354872 
2335.000000	99.349609 
2334.000000	99.344456 
2333.000000	99.338925 
2332.000000	99.334572 
2331.000000	99.334700 
2330.000000	99.341460 
2329.000000	99.349705 
2328.000000	99.352492 
2327.000000	99.347559 
2326.000000	99.341053 
2325.000000	99.339960 
2324.000000	99.343196 
2323.000000	99.344812 
2322.000000	99.340474 
2321.000000	99.333775 
2320.000000	99.330642 
2319.000000	99.333300 
2318.000000	99.338675 
2317.000000	99.342577 
2316.000000	99.344079 
2315.000000	99.345092 
2314.000000	99.347736 
2313.000000	99.351412 
2312.000000	99.354054 
2311.000000	99.354550 
2310.000000	99.354575 
2309.000000	99.356891 
2308.000000	99.362932 
2307.000000	99.371151 
2306.000000	99.377373 
2305.000000	99.377647 
2304.000000	99.371852 
2303.000000	99.364798 
2302.000000	99.361942 
2301.000000	99.364230 
2300.000000	99.368391 
2299.000000	99.371718 
2298.000000	99.374485 
2297.000000	99.376609 
2296.000000	99.375249 
2295.000000	99.367764 
2294.000000	99.356329 
2293.000000	99.346663 
2292.000000	99.342185 
2291.000000	99.341201 
2290.000000	99.340021 
2289.000000	99.337500 
2288.000000	99.335586 
2287.000000	99.336393 
2286.000000	99.339069 
2285.000000	99.339778 
2284.000000	99.335091 
2283.000000	99.326050 
2282.000000	99.318180 
2281.000000	99.316704 
2280.000000	99.321919 
2279.000000	99.329923 
2278.000000	99.336784 
2277.000000	99.340565 
2276.000000	99.340253 
2275.000000	99.335573 
2274.000000	99.329057 
2273.000000	99.326157 
2272.000000	99.331182 
2271.000000	99.343061 
2270.000000	99.355895 
2269.000000	99.363392 
2268.000000	99.362457 
2267.000000	99.353822 
2266.000000	99.341342 
2265.000000	99.330921 
2264.000000	99.327774 
2263.000000	99.332247 
2262.000000	99.338509 
2261.000000	99.339295 
2260.000000	99.333013 
2259.000000	99.325679 
2258.000000	99.325120 
2257.000000	99.333783 
2256.000000	99.347132 
2255.000000	99.357924 
2254.000000	99.361196 
2253.000000	99.356462 
2252.000000	99.347183 
2251.000000	99.338396 
2250.000000	99.334019 
2249.000000	99.335278 
2248.000000	99.340895 
2247.000000	99.347876 
2246.000000	99.352703 
2245.000000	99.353824 
2244.000000	99.353046 
2243.000000	99.352275 
2242.000000	99.348738 
2241.000000	99.337153 
2240.000000	99.318418 
2239.000000	99.302219 
2238.000000	99.297329 
2237.000000	99.302073 
2236.000000	99.308450 
2235.000000	99.313226 
2234.000000	99.319547 
2233.000000	99.329067 
2232.000000	99.338950 
2231.000000	99.347093 
2230.000000	99.354413 
2229.000000	99.360470 
2228.000000	99.362111 
2227.000000	99.358686 
2226.000000	99.354415 
2225.000000	99.353618 
2224.000000	99.357224 
2223.000000	99.364959 
2222.000000	99.375821 
2221.000000	99.384235 
2220.000000	99.381706 
2219.000000	99.366712 
2218.000000	99.349126 
2217.000000	99.340684 
2216.000000	99.343886 
2215.000000	99.353465 
2214.000000	99.364221 
2213.000000	99.372113 
2212.000000	99.371741 
2211.000000	99.360371 
2210.000000	99.344048 
2209.000000	99.333584 
2208.000000	99.333461 
2207.000000	99.339290 
2206.000000	99.346556 
2205.000000	99.356272 
2204.000000	99.369760 
2203.000000	99.382579 
2202.000000	99.387843 
2201.000000	99.383888 
2200.000000	99.375257 
2199.000000	99.366674 
2198.000000	99.359363 
2197.000000	99.353713 
2196.000000	99.351766 
2195.000000	99.353867 
2194.000000	99.354565 
2193.000000	99.346582 
2192.000000	99.330539 
2191.000000	99.316996 
2190.000000	99.315437 
2189.000000	99.323144 
2188.000000	99.328474 
2187.000000	99.323823 
2186.000000	99.311377 
2185.000000	99.297670 
2184.000000	99.288010 
2183.000000	99.286250 
2182.000000	99.293674 
2181.000000	99.305516 
2180.000000	99.313814 
2179.000000	99.316535 
2178.000000	99.319359 
2177.000000	99.326261 
2176.000000	99.333498 
2175.000000	99.336513 
2174.000000	99.337993 
2173.000000	99.343901 
2172.000000	99.354682 
2171.000000	99.365363 
2170.000000	99.371828 
2169.000000	99.372273 
2168.000000	99.364959 
2167.000000	99.350568 
2166.000000	99.336561 
2165.000000	99.332951 
2164.000000	99.341089 
2163.000000	99.350884 
2162.000000	99.352211 
2161.000000	99.346811 
2160.000000	99.346328 
2159.000000	99.358972 
2158.000000	99.379963 
2157.000000	99.395926 
2156.000000	99.397233 
2155.000000	99.384860 
2154.000000	99.367843 
2153.000000	99.356822 
2152.000000	99.358063 
2151.000000	99.369927 
2150.000000	99.383562 
2149.000000	99.388598 
2148.000000	99.380632 
2147.000000	99.363583 
2146.000000	99.344994 
2145.000000	99.330837 
2144.000000	99.324870 
2143.000000	99.329292 
2142.000000	99.342599 
2141.000000	99.358172 
2140.000000	99.368533 
2139.000000	99.370969 
2138.000000	99.367357 
2137.000000	99.360608 
2136.000000	99.354130 
2135.000000	99.352304 
2134.000000	99.356705 
2133.000000	99.362432 
2132.000000	99.362634 
2131.000000	99.356475 
2130.000000	99.348757 
2129.000000	99.342375 
2128.000000	99.335921 
2127.000000	99.329221 
2126.000000	99.326068 
2125.000000	99.328595 
2124.000000	99.332445 
2123.000000	99.330955 
2122.000000	99.322394 
2121.000000	99.310836 
2120.000000	99.301729 
2119.000000	99.298827 
2118.000000	99.303589 
2117.000000	99.314494 
2116.000000	99.327314 
2115.000000	99.337979 
2114.000000	99.344878 
2113.000000	99.347836 
2112.000000	99.346824 
2111.000000	99.343464 
2110.000000	99.341920 
2109.000000	99.345278 
2108.000000	99.351497 
2107.000000	99.355563 
2106.000000	99.355820 
2105.000000	99.356011 
2104.000000	99.360238 
2103.000000	99.367250 
2102.000000	99.370767 
2101.000000	99.365391 
2100.000000	99.352155 
2099.000000	99.338586 
2098.000000	99.333546 
2097.000000	99.341465 
2096.000000	99.359991 
2095.000000	99.381359 
2094.000000	99.395664 
2093.000000	99.395757 
2092.000000	99.382314 
2091.000000	99.363899 
2090.000000	99.349966 
2089.000000	99.343407 
2088.000000	99.340920 
2087.000000	99.339568 
2086.000000	99.339856 
2085.000000	99.342414 
2084.000000	99.345329 
2083.000000	99.346243 
2082.000000	99.344917 
2081.000000	99.342920 
2080.000000	99.342952 
2079.000000	99.348432 
2078.000000	99.360127 
2077.000000	99.371956 
2076.000000	99.374032 
2075.000000	99.362440 
2074.000000	99.343441 
2073.000000	99.326746 
2072.000000	99.317843 
2071.000000	99.318103 
2070.000000	99.326994 
2069.000000	99.339466 
2068.000000	99.345519 
2067.000000	99.339019 
2066.000000	99.325783 
2065.000000	99.317660 
2064.000000	99.318803 
2063.000000	99.323073 
2062.000000	99.324879 
2061.000000	99.326163 
2060.000000	99.330869 
2059.000000	99.337757 
2058.000000	99.342295 
2057.000000	99.342717 
2056.000000	99.340372 
2055.000000	99.335413 
2054.000000	99.325814 
2053.000000	99.311221 
2052.000000	99.295313 
2051.000000	99.283573 
2050.000000	99.280506 
2049.000000	99.289142 
2048.000000	99.310239 
2047.000000	99.339404 
2046.000000	99.366271 
2045.000000	99.380412 
2044.000000	99.379771 
2043.000000	99.371032 
2042.000000	99.361068 
2041.000000	99.351577 
2040.000000	99.343355 
2039.000000	99.340683 
2038.000000	99.346638 
2037.000000	99.357048 
2036.000000	99.364976 
2035.000000	99.369839 
2034.000000	99.376134 
2033.000000	99.384468 
2032.000000	99.391209 
2031.000000	99.396359 
2030.000000	99.402673 
2029.000000	99.405497 
2028.000000	99.393428 
2027.000000	99.364416 
2026.000000	99.334458 
2025.000000	99.323742 
2024.000000	99.336611 
2023.000000	99.359494 
2022.000000	99.375157 
2021.000000	99.374729 
2020.000000	99.360314 
2019.000000	99.341925 
2018.000000	99.330919 
2017.000000	99.331108 
2016.000000	99.335548 
2015.000000	99.335250 
2014.000000	99.329482 
2013.000000	99.324677 
2012.000000	99.325574 
2011.000000	99.330819 
2010.000000	99.336202 
2009.000000	99.338853 
2008.000000	99.338426 
2007.000000	99.336532 
2006.000000	99.335107 
2005.000000	99.334248 
2004.000000	99.332242 
2003.000000	99.328352 
2002.000000	99.324241 
2001.000000	99.321746 
2000.000000	99.320755 
1999.000000	99.320447 
1998.000000	99.321212 
1997.000000	99.324107 
1996.000000	99.329060 
1995.000000	99.334098 
1994.000000	99.335950 
1993.000000	99.332308 
1992.000000	99.325277 
1991.000000	99.321329 
1990.000000	99.325065 
1989.000000	99.334002 
1988.000000	99.342294 
1987.000000	99.348284 
1986.000000	99.354701 
1985.000000	99.361944 
1984.000000	99.366187 
1983.000000	99.365526 
1982.000000	99.363345 
1981.000000	99.363115 
1980.000000	99.363777 
1979.000000	99.363444 
1978.000000	99.364475 
1977.000000	99.370652 
1976.000000	99.380409 
1975.000000	99.386277 
1974.000000	99.380516 
1973.000000	99.360549 
1972.000000	99.331767 
1971.000000	99.306183 
1970.000000	99.295330 
1969.000000	99.301497 
1968.000000	99.316196 
1967.000000	99.328307 
1966.000000	99.332309 
1965.000000	99.327956 
1964.000000	99.316578 
1963.000000	99.301899 
1962.000000	99.291942 
1961.000000	99.294853 
1960.000000	99.311382 
1959.000000	99.333251 
1958.000000	99.349174 
1957.000000	99.352239 
1956.000000	99.343673 
1955.000000	99.331567 
1954.000000	99.325173 
1953.000000	99.328230 
1952.000000	99.337074 
1951.000000	99.345510 
1950.000000	99.350579 
1949.000000	99.353010 
1948.000000	99.353991 
1947.000000	99.353536 
1946.000000	99.351283 
1945.000000	99.347048 
1944.000000	99.340504 
1943.000000	99.331900 
1942.000000	99.323944 
1941.000000	99.321396 
1940.000000	99.327130 
1939.000000	99.338653 
1938.000000	99.348919 
1937.000000	99.352067 
1936.000000	99.349448 
1935.000000	99.347816 
1934.000000	99.350418 
1933.000000	99.352473 
1932.000000	99.347597 
1931.000000	99.337017 
1930.000000	99.328988 
1929.000000	99.329059 
1928.000000	99.334172 
1927.000000	99.337354 
1926.000000	99.335628 
1925.000000	99.331846 
1924.000000	99.330470 
1923.000000	99.332861 
1922.000000	99.335877 
1921.000000	99.334798 
1920.000000	99.328037 
1919.000000	99.318965 
1918.000000	99.312671 
1917.000000	99.310515 
1916.000000	99.310016 
1915.000000	99.310175 
1914.000000	99.312679 
1913.000000	99.318123 
1912.000000	99.324486 
1911.000000	99.329613 
1910.000000	99.332412 
1909.000000	99.331276 
1908.000000	99.325550 
1907.000000	99.319470 
1906.000000	99.320447 
1905.000000	99.330785 
1904.000000	99.343531 
1903.000000	99.349478 
1902.000000	99.346212 
1901.000000	99.338377 
1900.000000	99.331654 
1899.000000	99.328551 
1898.000000	99.328452 
1897.000000	99.329015 
1896.000000	99.327720 
1895.000000	99.324190 
1894.000000	99.320767 
1893.000000	99.319691 
1892.000000	99.321064 
1891.000000	99.324294 
1890.000000	99.329470 
1889.000000	99.335881 
1888.000000	99.340719 
1887.000000	99.341031 
1886.000000	99.336143 
1885.000000	99.328118 
1884.000000	99.320669 
1883.000000	99.316741 
1882.000000	99.316258 
1881.000000	99.316843 
1880.000000	99.317568 
1879.000000	99.319976 
1878.000000	99.323737 
1877.000000	99.324268 
1876.000000	99.318159 
1875.000000	99.309028 
1874.000000	99.303508 
1873.000000	99.302129 
1872.000000	99.299772 
1871.000000	99.295645 
1870.000000	99.297359 
1869.000000	99.310525 
1868.000000	99.327925 
1867.000000	99.338677 
1866.000000	99.342212 
1865.000000	99.344224 
1864.000000	99.346548 
1863.000000	99.346519 
1862.000000	99.342558 
1861.000000	99.336287 
1860.000000	99.329557 
1859.000000	99.322828 
1858.000000	99.316640 
1857.000000	99.312090 
1856.000000	99.309811 
1855.000000	99.310136 
1854.000000	99.313179 
1853.000000	99.317357 
1852.000000	99.319859 
1851.000000	99.319952 
1850.000000	99.320155 
1849.000000	99.322814 
1848.000000	99.326460 
1847.000000	99.327601 
1846.000000	99.325150 
1845.000000	99.321595 
1844.000000	99.319588 
1843.000000	99.318524 
1842.000000	99.315924 
1841.000000	99.310648 
1840.000000	99.304223 
1839.000000	99.300203 
1838.000000	99.301788 
1837.000000	99.308862 
1836.000000	99.317919 
1835.000000	99.325450 
1834.000000	99.330018 
1833.000000	99.331441 
1832.000000	99.329793 
1831.000000	99.325423 
1830.000000	99.320071 
1829.000000	99.317230 
1828.000000	99.319399 
1827.000000	99.325677 
1826.000000	99.332722 
1825.000000	99.336870 
1824.000000	99.336698 
1823.000000	99.334183 
1822.000000	99.332320 
1821.000000	99.331968 
1820.000000	99.331321 
1819.000000	99.328216 
1818.000000	99.323119 
1817.000000	99.318854 
1816.000000	99.317264 
1815.000000	99.317823 
1814.000000	99.319120 
1813.000000	99.320316 
1812.000000	99.320975 
1811.000000	99.320681 
1810.000000	99.320022 
1809.000000	99.320208 
1808.000000	99.321195 
1807.000000	99.321998 
1806.000000	99.322128 
1805.000000	99.321617 
1804.000000	99.320776 
1803.000000	99.320516 
1802.000000	99.321606 
1801.000000	99.323435 
1800.000000	99.324480 
1799.000000	99.324589 
1798.000000	99.325092 
1797.000000	99.325414 
1796.000000	99.322793 
1795.000000	99.316526 
1794.000000	99.309925 
1793.000000	99.307644 
1792.000000	99.310820 
1791.000000	99.316691 
1790.000000	99.323004 
1789.000000	99.328107 
1788.000000	99.329550 
1787.000000	99.326422 
1786.000000	99.321540 
1785.000000	99.319098 
1784.000000	99.320392 
1783.000000	99.323649 
1782.000000	99.326132 
1781.000000	99.325454 
1780.000000	99.321318 
1779.000000	99.316981 
1778.000000	99.316877 
1777.000000	99.321654 
1776.000000	99.327705 
1775.000000	99.331347 
1774.000000	99.331093 
1773.000000	99.326421 
1772.000000	99.317590 
1771.000000	99.308354 
1770.000000	99.304789 
1769.000000	99.309389 
1768.000000	99.318466 
1767.000000	99.325952 
1766.000000	99.329749 
1765.000000	99.331512 
1764.000000	99.331085 
1763.000000	99.325557 
1762.000000	99.315056 
1761.000000	99.306407 
1760.000000	99.305911 
1759.000000	99.312568 
1758.000000	99.321293 
1757.000000	99.327464 
1756.000000	99.329375 
1755.000000	99.328210 
1754.000000	99.326395 
1753.000000	99.326315 
1752.000000	99.329194 
1751.000000	99.333479 
1750.000000	99.335666 
1749.000000	99.334265 
1748.000000	99.330844 
1747.000000	99.327512 
1746.000000	99.325361 
1745.000000	99.325231 
1744.000000	99.327268 
1743.000000	99.329551 
1742.000000	99.330058 
1741.000000	99.329735 
1740.000000	99.330942 
1739.000000	99.333193 
1738.000000	99.333328 
1737.000000	99.330449 
1736.000000	99.326211 
1735.000000	99.323083 
1734.000000	99.321943 
1733.000000	99.320873 
1732.000000	99.319470 
1731.000000	99.319234 
1730.000000	99.320242 
1729.000000	99.320670 
1728.000000	99.320552 
1727.000000	99.322388 
1726.000000	99.327853 
1725.000000	99.334931 
1724.000000	99.338728 
1723.000000	99.335589 
1722.000000	99.326468 
1721.000000	99.315245 
1720.000000	99.306145 
1719.000000	99.303056 
1718.000000	99.308249 
1717.000000	99.317969 
1716.000000	99.323336 
1715.000000	99.321406 
1714.000000	99.317776 
1713.000000	99.316943 
1712.000000	99.318018 
1711.000000	99.318812 
1710.000000	99.318875 
1709.000000	99.318255 
1708.000000	99.316857 
1707.000000	99.315935 
1706.000000	99.318656 
1705.000000	99.326020 
1704.000000	99.333323 
1703.000000	99.336524 
1702.000000	99.336173 
1701.000000	99.336698 
1700.000000	99.338029 
1699.000000	99.332568 
1698.000000	99.319537 
1697.000000	99.304762 
1696.000000	99.294614 
1695.000000	99.292721 
1694.000000	99.296200 
1693.000000	99.300048 
1692.000000	99.302374 
1691.000000	99.304238 
1690.000000	99.307102 
1689.000000	99.310005 
1688.000000	99.310267 
1687.000000	99.307184 
1686.000000	99.303184 
1685.000000	99.303611 
1684.000000	99.308273 
1683.000000	99.310181 
1682.000000	99.307663 
1681.000000	99.303016 
1680.000000	99.298600 
1679.000000	99.295273 
1678.000000	99.293189 
1677.000000	99.292755 
1676.000000	99.295514 
1675.000000	99.301084 
1674.000000	99.305251 
1673.000000	99.305548 
1672.000000	99.303687 
1671.000000	99.302093 
1670.000000	99.301328 
1669.000000	99.300023 
1668.000000	99.298658 
1667.000000	99.299135 
1666.000000	99.301004 
1665.000000	99.302372 
1664.000000	99.302252 
1663.000000	99.301202 
1662.000000	99.299497 
1661.000000	99.296171 
1660.000000	99.292029 
1659.000000	99.290118 
1658.000000	99.293133 
1657.000000	99.299965 
1656.000000	99.307684 
1655.000000	99.312929 
1654.000000	99.313231 
1653.000000	99.306454 
1652.000000	99.295772 
1651.000000	99.287656 
1650.000000	99.282329 
1649.000000	99.279125 
1648.000000	99.275525 
1647.000000	99.270507 
1646.000000	99.266672 
1645.000000	99.267201 
1644.000000	99.270169 
1643.000000	99.272916 
1642.000000	99.274142 
1641.000000	99.272968 
1640.000000	99.268914 
1639.000000	99.263618 
1638.000000	99.260517 
1637.000000	99.261297 
1636.000000	99.262575 
1635.000000	99.261533 
1634.000000	99.262236 
1633.000000	99.268120 
1632.000000	99.276575 
1631.000000	99.283077 
1630.000000	99.285321 
1629.000000	99.283766 
1628.000000	99.279943 
1627.000000	99.275004 
1626.000000	99.269613 
1625.000000	99.264536 
1624.000000	99.261345 
1623.000000	99.261868 
1622.000000	99.265912 
1621.000000	99.270631 
1620.000000	99.273626 
1619.000000	99.274275 
1618.000000	99.272895 
1617.000000	99.269762 
1616.000000	99.265398 
1615.000000	99.262026 
1614.000000	99.261618 
1613.000000	99.264303 
1612.000000	99.269148 
1611.000000	99.275078 
1610.000000	99.281014 
1609.000000	99.285944 
1608.000000	99.289492 
1607.000000	99.291624 
1606.000000	99.291429 
1605.000000	99.288110 
1604.000000	99.283113 
1603.000000	99.279223 
1602.000000	99.277782 
1601.000000	99.278138 
1600.000000	99.280022 
1599.000000	99.284470 
1598.000000	99.291346 
1597.000000	99.297741 
1596.000000	99.299991 
1595.000000	99.297204 
1594.000000	99.292189 
1593.000000	99.288789 
1592.000000	99.289270 
1591.000000	99.293788 
1590.000000	99.300317 
1589.000000	99.305435 
1588.000000	99.307261 
1587.000000	99.307470 
1586.000000	99.308821 
1585.000000	99.311365 
1584.000000	99.313268 
1583.000000	99.314003 
1582.000000	99.314510 
1581.000000	99.315224 
1580.000000	99.315618 
1579.000000	99.315746 
1578.000000	99.316890 
1577.000000	99.320493 
1576.000000	99.325508 
1575.000000	99.328682 
1574.000000	99.327986 
1573.000000	99.323919 
1572.000000	99.318520 
1571.000000	99.314753 
1570.000000	99.316229 
1569.000000	99.323462 
1568.000000	99.333808 
1567.000000	99.343613 
1566.000000	99.349467 
1565.000000	99.349036 
1564.000000	99.343904 
1563.000000	99.336831 
1562.000000	99.329606 
1561.000000	99.321646 
1560.000000	99.318051 
1559.000000	99.325921 
1558.000000	99.338755 
1557.000000	99.348115 
1556.000000	99.354127 
1555.000000	99.360336 
1554.000000	99.363641 
1553.000000	99.361467 
1552.000000	99.354458 
1551.000000	99.347513 
1550.000000	99.344664 
1549.000000	99.346473 
1548.000000	99.350064 
1547.000000	99.353029 
1546.000000	99.355013 
1545.000000	99.356835 
1544.000000	99.358251 
1543.000000	99.357551 
1542.000000	99.353958 
1541.000000	99.349547 
1540.000000	99.346900 
1539.000000	99.347367 
1538.000000	99.349310 
1537.000000	99.349386 
1536.000000	99.347898 
1535.000000	99.347749 
1534.000000	99.351593 
1533.000000	99.356965 
1532.000000	99.358634 
1531.000000	99.355647 
1530.000000	99.351750 
1529.000000	99.349885 
1528.000000	99.349173 
1527.000000	99.346867 
1526.000000	99.342409 
1525.000000	99.338033 
1524.000000	99.335485 
1523.000000	99.334649 
1522.000000	99.335198 
1521.000000	99.336440 
1520.000000	99.337157 
1519.000000	99.337965 
1518.000000	99.341242 
1517.000000	99.347268 
1516.000000	99.351681 
1515.000000	99.350557 
1514.000000	99.345106 
1513.000000	99.339729 
1512.000000	99.337891 
1511.000000	99.339669 
1510.000000	99.343780 
1509.000000	99.349871 
1508.000000	99.357394 
1507.000000	99.359832 
1506.000000	99.353358 
1505.000000	99.344945 
1504.000000	99.338783 
1503.000000	99.334924 
1502.000000	99.332880 
1501.000000	99.332211 
1500.000000	99.331857 
1499.000000	99.330978 
1498.000000	99.330009 
1497.000000	99.330835 
1496.000000	99.332698 
1495.000000	99.332260 
1494.000000	99.329425 
1493.000000	99.327116 
1492.000000	99.326784 
1491.000000	99.327231 
1490.000000	99.326590 
1489.000000	99.325223 
1488.000000	99.324113 
1487.000000	99.323466 
1486.000000	99.325012 
1485.000000	99.329860 
1484.000000	99.336864 
1483.000000	99.343520 
1482.000000	99.347071 
1481.000000	99.346205 
1480.000000	99.341657 
1479.000000	99.335449 
1478.000000	99.329858 
1477.000000	99.326833 
1476.000000	99.326465 
1475.000000	99.326828 
1474.000000	99.325966 
1473.000000	99.323438 
1472.000000	99.320649 
1471.000000	99.319576 
1470.000000	99.321307 
1469.000000	99.325284 
1468.000000	99.329665 
1467.000000	99.332391 
1466.000000	99.332505 
1465.000000	99.330746 
1464.000000	99.328854 
1463.000000	99.327513 
1462.000000	99.326034 
1461.000000	99.323390 
1460.000000	99.319171 
1459.000000	99.314202 
1458.000000	99.310161 
1457.000000	99.308560 
1456.000000	99.309370 
1455.000000	99.311465 
1454.000000	99.315038 
1453.000000	99.321373 
1452.000000	99.328322 
1451.000000	99.331433 
1450.000000	99.328776 
1449.000000	99.323305 
1448.000000	99.318642 
1447.000000	99.315570 
1446.000000	99.313241 
1445.000000	99.311786 
1444.000000	99.311418 
1443.000000	99.310736 
1442.000000	99.308486 
1441.000000	99.305243 
1440.000000	99.302330 
1439.000000	99.299834 
1438.000000	99.297011 
1437.000000	99.294295 
1436.000000	99.292954 
1435.000000	99.292993 
1434.000000	99.294067 
1433.000000	99.296773 
1432.000000	99.300637 
1431.000000	99.303393 
1430.000000	99.303209 
1429.000000	99.301208 
1428.000000	99.299565 
1427.000000	99.298559 
1426.000000	99.297376 
1425.000000	99.296625 
1424.000000	99.298568 
1423.000000	99.303330 
1422.000000	99.308214 
1421.000000	99.311467 
1420.000000	99.314456 
1419.000000	99.318143 
1418.000000	99.319628 
1417.000000	99.316919 
1416.000000	99.311606 
1415.000000	99.306473 
1414.000000	99.303638 
1413.000000	99.303537 
1412.000000	99.304641 
1411.000000	99.304978 
1410.000000	99.304543 
1409.000000	99.305780 
1408.000000	99.310224 
1407.000000	99.316231 
1406.000000	99.320721 
1405.000000	99.322427 
1404.000000	99.322962 
1403.000000	99.323921 
1402.000000	99.325333 
1401.000000	99.327058 
1400.000000	99.329058 
1399.000000	99.330622 
1398.000000	99.330970 
1397.000000	99.330656 
1396.000000	99.330646 
1395.000000	99.330847 
1394.000000	99.330340 
1393.000000	99.329420 
1392.000000	99.329795 
1391.000000	99.332118 
1390.000000	99.335762 
1389.000000	99.340132 
1388.000000	99.344614 
1387.000000	99.347690 
1386.000000	99.347663 
1385.000000	99.344566 
1384.000000	99.340270 
1383.000000	99.337010 
1382.000000	99.336287 
1381.000000	99.338185 
1380.000000	99.341244 
1379.000000	99.343779 
1378.000000	99.345262 
1377.000000	99.346140 
1376.000000	99.346605 
1375.000000	99.346089 
1374.000000	99.343983 
1373.000000	99.340805 
1372.000000	99.337823 
1371.000000	99.335909 
1370.000000	99.335496 
1369.000000	99.336844 
1368.000000	99.340293 
1367.000000	99.345292 
1366.000000	99.349759 
1365.000000	99.351323 
1364.000000	99.349101 
1363.000000	99.344560 
1362.000000	99.340593 
1361.000000	99.339030 
1360.000000	99.339860 
1359.000000	99.342773 
1358.000000	99.347248 
1357.000000	99.351234 
1356.000000	99.351992 
1355.000000	99.349019 
1354.000000	99.345035 
1353.000000	99.343239 
1352.000000	99.344248 
1351.000000	99.346865 
1350.000000	99.349985 
1349.000000	99.352128 
1348.000000	99.351762 
1347.000000	99.349264 
1346.000000	99.347315 
1345.000000	99.347645 
1344.000000	99.348634 
1343.000000	99.347815 
1342.000000	99.345720 
1341.000000	99.345054 
1340.000000	99.346327 
1339.000000	99.346695 
1338.000000	99.344124 
1337.000000	99.340474 
1336.000000	99.339040 
1335.000000	99.340699 
1334.000000	99.343385 
1333.000000	99.344364 
1332.000000	99.342435 
1331.000000	99.338565 
1330.000000	99.334808 
1329.000000	99.332508 
1328.000000	99.331767 
1327.000000	99.332639 
1326.000000	99.335669 
1325.000000	99.340448 
1324.000000	99.344850 
1323.000000	99.346549 
1322.000000	99.345337 
1321.000000	99.343277 
1320.000000	99.342363 
1319.000000	99.342399 
1318.000000	99.341543 
1317.000000	99.338881 
1316.000000	99.335909 
1315.000000	99.335096 
1314.000000	99.337019 
1313.000000	99.339418 
1312.000000	99.339655 
1311.000000	99.337823 
1310.000000	99.336342 
1309.000000	99.336656 
1308.000000	99.337545 
1307.000000	99.337171 
1306.000000	99.335561 
1305.000000	99.334005 
1304.000000	99.333117 
1303.000000	99.332352 
1302.000000	99.330859 
1301.000000	99.327934 
1300.000000	99.323390 
1299.000000	99.318546 
1298.000000	99.316159 
1297.000000	99.317915 
1296.000000	99.322126 
1295.000000	99.325143 
1294.000000	99.324960 
1293.000000	99.322543 
1292.000000	99.319950 
1291.000000	99.318438 
1290.000000	99.318312 
1289.000000	99.319116 
1288.000000	99.319483 
1287.000000	99.317867 
1286.000000	99.314059 
1285.000000	99.309418 
1284.000000	99.305360 
1283.000000	99.302157 
1282.000000	99.299289 
1281.000000	99.296406 
1280.000000	99.293908 
1279.000000	99.293020 
1278.000000	99.294782 
1277.000000	99.298159 
1276.000000	99.299660 
1275.000000	99.296312 
1274.000000	99.289135 
1273.000000	99.282392 
1272.000000	99.279143 
1271.000000	99.278711 
1270.000000	99.278852 
1269.000000	99.278917 
1268.000000	99.279767 
1267.000000	99.281620 
1266.000000	99.283492 
1265.000000	99.284658 
1264.000000	99.285377 
1263.000000	99.285820 
1262.000000	99.285117 
1261.000000	99.282028 
1260.000000	99.276391 
1259.000000	99.269612 
1258.000000	99.263619 
1257.000000	99.259544 
1256.000000	99.257354 
1255.000000	99.256267 
1254.000000	99.255167 
1253.000000	99.253005 
1252.000000	99.249607 
1251.000000	99.246177 
1250.000000	99.244160 
1249.000000	99.243196 
1248.000000	99.241038 
1247.000000	99.236118 
1246.000000	99.229446 
1245.000000	99.223130 
1244.000000	99.217614 
1243.000000	99.211617 
1242.000000	99.204700 
1241.000000	99.198644 
1240.000000	99.195777 
1239.000000	99.196492 
1238.000000	99.198650 
1237.000000	99.199084 
1236.000000	99.195750 
1235.000000	99.189062 
1234.000000	99.181330 
1233.000000	99.174409 
1232.000000	99.167948 
1231.000000	99.160377 
1230.000000	99.151382 
1229.000000	99.142555 
1228.000000	99.135369 
1227.000000	99.129170 
1226.000000	99.121510 
1225.000000	99.110169 
1224.000000	99.094821 
1223.000000	99.077192 
1222.000000	99.059640 
1221.000000	99.043133 
1220.000000	99.026625 
1219.000000	99.008639 
1218.000000	98.989148 
1217.000000	98.969440 
1216.000000	98.950504 
1215.000000	98.932273 
1214.000000	98.914097 
1213.000000	98.894929 
1212.000000	98.873172 
1211.000000	98.847773 
1210.000000	98.820204 
1209.000000	98.794339 
1208.000000	98.773253 
1207.000000	98.756324 
1206.000000	98.740067 
1205.000000	98.721523 
1204.000000	98.700153 
1203.000000	98.676920 
1202.000000	98.652833 
1201.000000	98.628682 
1200.000000	98.605177 
1199.000000	98.582571 
1198.000000	98.560590 
1197.000000	98.539231 
1196.000000	98.518980 
1195.000000	98.499605 
1194.000000	98.479466 
1193.000000	98.457032 
1192.000000	98.432559 
1191.000000	98.407144 
1190.000000	98.380585 
1189.000000	98.351784 
1188.000000	98.321217 
1187.000000	98.291145 
1186.000000	98.262707 
1185.000000	98.234379 
1184.000000	98.204336 
1183.000000	98.173132 
1182.000000	98.142851 
1181.000000	98.114313 
1180.000000	98.086048 
1179.000000	98.055510 
1178.000000	98.020789 
1177.000000	97.982080 
1176.000000	97.942223 
1175.000000	97.904928 
1174.000000	97.871392 
1173.000000	97.839067 
1172.000000	97.804238 
1171.000000	97.765107 
1170.000000	97.722448 
1169.000000	97.679023 
1168.000000	97.639143 
1167.000000	97.607100 
1166.000000	97.584680 
1165.000000	97.571282 
1164.000000	97.566966 
1163.000000	97.573300 
1162.000000	97.589928 
1161.000000	97.612130 
1160.000000	97.633098 
1159.000000	97.647176 
1158.000000	97.650155 
1157.000000	97.639181 
1156.000000	97.615069 
1155.000000	97.583535 
1154.000000	97.551382 
1153.000000	97.521433 
1152.000000	97.492585 
1151.000000	97.463471 
1150.000000	97.433642 
1149.000000	97.402228 
1148.000000	97.368621 
1147.000000	97.334662 
1146.000000	97.303565 
1145.000000	97.275976 
1144.000000	97.249050 
1143.000000	97.220077 
1142.000000	97.189485 
1141.000000	97.159624 
1140.000000	97.131784 
1139.000000	97.104895 
1138.000000	97.076280 
1137.000000	97.043424 
1136.000000	97.005902 
1135.000000	96.965929 
1134.000000	96.926528 
1133.000000	96.889040 
1132.000000	96.852717 
1131.000000	96.816360 
1130.000000	96.779851 
1129.000000	96.744350 
1128.000000	96.711075 
1127.000000	96.679197 
1126.000000	96.645083 
1125.000000	96.605148 
1124.000000	96.559942 
1123.000000	96.513957 
1122.000000	96.470858 
1121.000000	96.430659 
1120.000000	96.392338 
1119.000000	96.356761 
1118.000000	96.325019 
1117.000000	96.295633 
1116.000000	96.265784 
1115.000000	96.234480 
1114.000000	96.202651 
1113.000000	96.170731 
1112.000000	96.137920 
1111.000000	96.103670 
1110.000000	96.068667 
1109.000000	96.034403 
1108.000000	96.002255 
1107.000000	95.972288 
1106.000000	95.942725 
1105.000000	95.911489 
1104.000000	95.878438 
1103.000000	95.845121 
1102.000000	95.812450 
1101.000000	95.780417 
1100.000000	95.749821 
1099.000000	95.721803 
1098.000000	95.695879 
1097.000000	95.670134 
1096.000000	95.644017 
1095.000000	95.618514 
1094.000000	95.593455 
1093.000000	95.567431 
1092.000000	95.540893 
1091.000000	95.516183 
1090.000000	95.493543 
1089.000000	95.470159 
1088.000000	95.444438 
1087.000000	95.418257 
1086.000000	95.393537 
1085.000000	95.369560 
1084.000000	95.345446 
1083.000000	95.322507 
1082.000000	95.302133 
1081.000000	95.283544 
1080.000000	95.265209 
1079.000000	95.246228 
1078.000000	95.224978 
1077.000000	95.198966 
1076.000000	95.167588 
1075.000000	95.132706 
1074.000000	95.095253 
1073.000000	95.053828 
1072.000000	95.007703 
1071.000000	94.958107 
1070.000000	94.905153 
1069.000000	94.846972 
1068.000000	94.783932 
1067.000000	94.720231 
1066.000000	94.658623 
1065.000000	94.596505 
1064.000000	94.529968 
1063.000000	94.459024 
1062.000000	94.386407 
1061.000000	94.314179 
1060.000000	94.244284 
1059.000000	94.179519 
1058.000000	94.120679 
1057.000000	94.064836 
1056.000000	94.008807 
1055.000000	93.951703 
1054.000000	93.891678 
1053.000000	93.823414 
1052.000000	93.742808 
1051.000000	93.652676 
1050.000000	93.560521 
1049.000000	93.471918 
1048.000000	93.388298 
1047.000000	93.308214 
1046.000000	93.227973 
1045.000000	93.144007 
1044.000000	93.057337 
1043.000000	92.973153 
1042.000000	92.893936 
1041.000000	92.815925 
1040.000000	92.734750 
1039.000000	92.651635 
1038.000000	92.571595 
1037.000000	92.498406 
1036.000000	92.433709 
1035.000000	92.377889 
1034.000000	92.329062 
1033.000000	92.283864 
1032.000000	92.241560 
1031.000000	92.204800 
1030.000000	92.174647 
1029.000000	92.148116 
1028.000000	92.122686 
1027.000000	92.099902 
1026.000000	92.081975 
1025.000000	92.067571 
1024.000000	92.053513 
1023.000000	92.038407 
1022.000000	92.022398 
1021.000000	92.005098 
1020.000000	91.985612 
1019.000000	91.963653 
1018.000000	91.939951 
1017.000000	91.916593 
1016.000000	91.896373 
1015.000000	91.879689 
1014.000000	91.862824 
1013.000000	91.842015 
1012.000000	91.818333 
1011.000000	91.795513 
1010.000000	91.774374 
1009.000000	91.753439 
1008.000000	91.733808 
1007.000000	91.718361 
1006.000000	91.706702 
1005.000000	91.696329 
1004.000000	91.688844 
1003.000000	91.689218 
1002.000000	91.697968 
1001.000000	91.709474 
1000.000000	91.719421 
999.000000	 91.729038 
998.000000	 91.740741 
997.000000	 91.754419 
996.000000	 91.769678 
995.000000	 91.787305 
994.000000	 91.806657 
993.000000	 91.825294 
992.000000	 91.842702 
991.000000	 91.861330 
990.000000	 91.883336 
989.000000	 91.909366 
988.000000	 91.940160 
987.000000	 91.975384 
986.000000	 92.011546 
985.000000	 92.046074 
984.000000	 92.083265 
983.000000	 92.130659 
982.000000	 92.188870 
981.000000	 92.250404 
980.000000	 92.309494 
979.000000	 92.367960 
978.000000	 92.430360 
977.000000	 92.498587 
976.000000	 92.572631 
975.000000	 92.651555 
974.000000	 92.731838 
973.000000	 92.809206 
972.000000	 92.883796 
971.000000	 92.959613 
970.000000	 93.037858 
969.000000	 93.115293 
968.000000	 93.190408 
967.000000	 93.266280 
966.000000	 93.345267 
965.000000	 93.425356 
964.000000	 93.504192 
963.000000	 93.582548 
962.000000	 93.660888 
961.000000	 93.736117 
960.000000	 93.805195 
959.000000	 93.869553 
958.000000	 93.932757 
957.000000	 93.995302 
956.000000	 94.054333 
955.000000	 94.107645 
954.000000	 94.156195 
953.000000	 94.203254 
952.000000	 94.251720 
951.000000	 94.301045 
950.000000	 94.346660 
949.000000	 94.384455 
948.000000	 94.415843 
947.000000	 94.445559 
946.000000	 94.474213 
945.000000	 94.497043 
944.000000	 94.512002 
943.000000	 94.525308 
942.000000	 94.545564 
941.000000	 94.574394 
940.000000	 94.605748 
939.000000	 94.632619 
938.000000	 94.651841 
937.000000	 94.664197 
936.000000	 94.673290 
935.000000	 94.683897 
934.000000	 94.698828 
933.000000	 94.717317 
932.000000	 94.737664 
931.000000	 94.760031 
930.000000	 94.784822 
929.000000	 94.809999 
928.000000	 94.832621 
927.000000	 94.852040 
926.000000	 94.869130 
925.000000	 94.883398 
924.000000	 94.893903 
923.000000	 94.902603 
922.000000	 94.913322 
921.000000	 94.926543 
920.000000	 94.938006 
919.000000	 94.943796 
918.000000	 94.944761 
917.000000	 94.944390 
916.000000	 94.944098 
915.000000	 94.942960 
914.000000	 94.941839 
913.000000	 94.945722 
912.000000	 94.960674 
911.000000	 94.988646 
910.000000	 95.026182 
909.000000	 95.068837 
908.000000	 95.116055 
907.000000	 95.170449 
906.000000	 95.232852 
905.000000	 95.300112 
904.000000	 95.368149 
903.000000	 95.435333 
902.000000	 95.501998 
901.000000	 95.568634 
900.000000	 95.636477 
899.000000	 95.708538 
898.000000	 95.786942 
897.000000	 95.868495 
896.000000	 95.945177 
895.000000	 96.010578 
894.000000	 96.064948 
893.000000	 96.113098 
892.000000	 96.159306 
891.000000	 96.206212 
890.000000	 96.256269 
889.000000	 96.310019 
888.000000	 96.362924 
887.000000	 96.408013 
886.000000	 96.443702 
885.000000	 96.476485 
884.000000	 96.513832 
883.000000	 96.556238 
882.000000	 96.598167 
881.000000	 96.635327 
880.000000	 96.668563 
879.000000	 96.701092 
878.000000	 96.734173 
877.000000	 96.766333 
876.000000	 96.796341 
875.000000	 96.826139 
874.000000	 96.859778 
873.000000	 96.898798 
872.000000	 96.940010 
871.000000	 96.979486 
870.000000	 97.017324 
869.000000	 97.055942 
868.000000	 97.094788 
867.000000	 97.130420 
866.000000	 97.161840 
865.000000	 97.192158 
864.000000	 97.224454 
863.000000	 97.259340 
862.000000	 97.296818 
861.000000	 97.336203 
860.000000	 97.372912 
859.000000	 97.399947 
858.000000	 97.415584 
857.000000	 97.426537 
856.000000	 97.441175 
855.000000	 97.462374 
854.000000	 97.488284 
853.000000	 97.515864 
852.000000	 97.540932 
851.000000	 97.558850 
850.000000	 97.569232 
849.000000	 97.577331 
848.000000	 97.587450 
847.000000	 97.597596 
846.000000	 97.603431 
845.000000	 97.604304 
844.000000	 97.601981 
843.000000	 97.596856 
842.000000	 97.589742 
841.000000	 97.584474 
840.000000	 97.583539 
839.000000	 97.582343 
838.000000	 97.572445 
837.000000	 97.550534 
836.000000	 97.521354 
835.000000	 97.492688 
834.000000	 97.470088 
833.000000	 97.455097 
832.000000	 97.445614 
831.000000	 97.438881 
830.000000	 97.436453 
829.000000	 97.443961 
828.000000	 97.462242 
827.000000	 97.481377 
826.000000	 97.489792 
825.000000	 97.488473 
824.000000	 97.489212 
823.000000	 97.499302 
822.000000	 97.516008 
821.000000	 97.536111 
820.000000	 97.560887 
819.000000	 97.588192 
818.000000	 97.607627 
817.000000	 97.609334 
816.000000	 97.594225 
815.000000	 97.571311 
814.000000	 97.546385 
813.000000	 97.516639 
812.000000	 97.475338 
811.000000	 97.417502 
810.000000	 97.339983 
809.000000	 97.239813 
808.000000	 97.116325 
807.000000	 96.974411 
806.000000	 96.822758 
805.000000	 96.668478 
804.000000	 96.515789 
803.000000	 96.369634 
802.000000	 96.236873 
801.000000	 96.123047 
800.000000	 96.031446 
799.000000	 95.966463 
798.000000	 95.934031 
797.000000	 95.935817 
796.000000	 95.964668 
795.000000	 96.008176 
794.000000	 96.055966 
793.000000	 96.101831 
792.000000	 96.141004 
791.000000	 96.170370 
790.000000	 96.191761 
789.000000	 96.209280 
788.000000	 96.220690 
787.000000	 96.216255 
786.000000	 96.189778 
785.000000	 96.146388 
784.000000	 96.095164 
783.000000	 96.038762 
782.000000	 95.976630 
781.000000	 95.915468 
780.000000	 95.868312 
779.000000	 95.842330 
778.000000	 95.833530 
777.000000	 95.835443 
776.000000	 95.847806 
775.000000	 95.874174 
774.000000	 95.915561 
773.000000	 95.969255 
772.000000	 96.029701 
771.000000	 96.087402 
770.000000	 96.131295 
769.000000	 96.156696 
768.000000	 96.169025 
767.000000	 96.177364 
766.000000	 96.186582 
765.000000	 96.197371 
764.000000	 96.210199 
763.000000	 96.225055 
762.000000	 96.238959 
761.000000	 96.247650 
760.000000	 96.249949 
759.000000	 96.248966 
758.000000	 96.249992 
757.000000	 96.258359 
756.000000	 96.277323 
755.000000	 96.305152 
754.000000	 96.334669 
753.000000	 96.357628 
752.000000	 96.369778 
751.000000	 96.372222 
750.000000	 96.370466 
749.000000	 96.372866 
748.000000	 96.386386 
747.000000	 96.410650 
746.000000	 96.438048 
745.000000	 96.463182 
744.000000	 96.490634 
743.000000	 96.529096 
742.000000	 96.578248 
741.000000	 96.626278 
740.000000	 96.662485 
739.000000	 96.689251 
738.000000	 96.718719 
737.000000	 96.759118 
736.000000	 96.807031 
735.000000	 96.851903 
734.000000	 96.884507 
733.000000	 96.900743 
732.000000	 96.901877 
731.000000	 96.894985 
730.000000	 96.890652 
729.000000	 96.895073 
728.000000	 96.904871 
727.000000	 96.913148 
726.000000	 96.919956 
725.000000	 96.933161 
724.000000	 96.958486 
723.000000	 96.992461 
722.000000	 97.026238 
721.000000	 97.052814 
720.000000	 97.069301 
719.000000	 97.076315 
718.000000	 97.078242 
717.000000	 97.081485 
716.000000	 97.089223 
715.000000	 97.099197 
714.000000	 97.108576 
713.000000	 97.118997 
712.000000	 97.133975 
711.000000	 97.152334 
710.000000	 97.166915 
709.000000	 97.169560 
708.000000	 97.156789 
707.000000	 97.132468 
706.000000	 97.105349 
705.000000	 97.082507 
704.000000	 97.064098 
703.000000	 97.044558 
702.000000	 97.018010 
701.000000	 96.979253 
700.000000	 96.920168 
699.000000	 96.833043 
698.000000	 96.722070 
697.000000	 96.609100 
696.000000	 96.523498 
695.000000	 96.484282 
694.000000	 96.491546 
693.000000	 96.530510 
692.000000	 96.580578 
691.000000	 96.624924 
690.000000	 96.656718 
689.000000	 96.678424 
688.000000	 96.695857 
687.000000	 96.714818 
686.000000	 96.741597 
685.000000	 96.777730 
684.000000	 96.812465 
683.000000	 96.830655 
682.000000	 96.832239 
681.000000	 96.835068 
680.000000	 96.852282 
679.000000	 96.876241 
678.000000	 96.893843 
677.000000	 96.907535 
676.000000	 96.930171 
675.000000	 96.966960 
674.000000	 97.010650 
673.000000	 97.053243 
672.000000	 97.093778 
671.000000	 97.132762 
670.000000	 97.164540 
669.000000	 97.173793 
668.000000	 97.146438 
667.000000	 97.104292 
666.000000	 97.084925 
665.000000	 97.092930 
664.000000	 97.120851 
663.000000	 97.159731 
662.000000	 97.192795 
661.000000	 97.198562 
660.000000	 97.165989 
659.000000	 97.108986 
658.000000	 97.063637 
657.000000	 97.059494 
656.000000	 97.093856 
655.000000	 97.139680 
654.000000	 97.171479 
653.000000	 97.181817 
652.000000	 97.175953 
651.000000	 97.161136 
650.000000	 97.146424 

