4000.000000	99.213702 
3999.000000	99.213116 
3998.000000	99.213335 
3997.000000	99.215513 
3996.000000	99.218560 
3995.000000	99.220637 
3994.000000	99.221405 
3993.000000	99.222032 
3992.000000	99.223159 
3991.000000	99.223791 
3990.000000	99.222614 
3989.000000	99.219650 
3988.000000	99.216118 
3987.000000	99.213205 
3986.000000	99.211524 
3985.000000	99.211279 
3984.000000	99.212270 
3983.000000	99.213969 
3982.000000	99.216060 
3981.000000	99.218767 
3980.000000	99.222343 
3979.000000	99.226385 
3978.000000	99.230040 
3977.000000	99.232723 
3976.000000	99.234091 
3975.000000	99.233382 
3974.000000	99.229594 
3973.000000	99.222793 
3972.000000	99.214913 
3971.000000	99.208781 
3970.000000	99.206577 
3969.000000	99.208699 
3968.000000	99.213527 
3967.000000	99.218186 
3966.000000	99.220128 
3965.000000	99.218604 
3964.000000	99.214900 
3963.000000	99.211594 
3962.000000	99.211231 
3961.000000	99.214770 
3960.000000	99.220463 
3959.000000	99.224484 
3958.000000	99.224346 
3957.000000	99.221393 
3956.000000	99.219140 
3955.000000	99.219261 
3954.000000	99.220228 
3953.000000	99.219899 
3952.000000	99.217860 
3951.000000	99.215327 
3950.000000	99.213255 
3949.000000	99.211149 
3948.000000	99.208174 
3947.000000	99.205384 
3946.000000	99.205474 
3945.000000	99.209417 
3944.000000	99.214323 
3943.000000	99.215815 
3942.000000	99.212807 
3941.000000	99.208837 
3940.000000	99.207489 
3939.000000	99.208001 
3938.000000	99.207528 
3937.000000	99.205177 
3936.000000	99.202391 
3935.000000	99.200538 
3934.000000	99.199982 
3933.000000	99.201613 
3932.000000	99.206264 
3931.000000	99.212740 
3930.000000	99.218039 
3929.000000	99.219932 
3928.000000	99.218966 
3927.000000	99.216345 
3926.000000	99.211510 
3925.000000	99.204248 
3924.000000	99.198149 
3923.000000	99.197618 
3922.000000	99.201148 
3921.000000	99.202912 
3920.000000	99.201083 
3919.000000	99.199258 
3918.000000	99.199812 
3917.000000	99.200975 
3916.000000	99.201584 
3915.000000	99.203742 
3914.000000	99.208333 
3913.000000	99.212111 
3912.000000	99.212068 
3911.000000	99.208024 
3910.000000	99.201951 
3909.000000	99.196117 
3908.000000	99.192770 
3907.000000	99.193635 
3906.000000	99.197626 
3905.000000	99.200688 
3904.000000	99.199613 
3903.000000	99.197508 
3902.000000	99.200444 
3901.000000	99.207835 
3900.000000	99.211955 
3899.000000	99.208326 
3898.000000	99.200521 
3897.000000	99.193234 
3896.000000	99.186929 
3895.000000	99.181931 
3894.000000	99.183092 
3893.000000	99.193204 
3892.000000	99.205408 
3891.000000	99.209001 
3890.000000	99.206652 
3889.000000	99.209842 
3888.000000	99.218456 
3887.000000	99.222459 
3886.000000	99.215686 
3885.000000	99.203025 
3884.000000	99.197923 
3883.000000	99.204483 
3882.000000	99.211491 
3881.000000	99.209910 
3880.000000	99.201366 
3879.000000	99.194614 
3878.000000	99.197381 
3877.000000	99.206010 
3876.000000	99.210565 
3875.000000	99.205740 
3874.000000	99.194932 
3873.000000	99.189266 
3872.000000	99.193607 
3871.000000	99.196686 
3870.000000	99.186234 
3869.000000	99.170994 
3868.000000	99.173296 
3867.000000	99.193203 
3866.000000	99.207695 
3865.000000	99.206842 
3864.000000	99.201825 
3863.000000	99.202775 
3862.000000	99.206908 
3861.000000	99.206101 
3860.000000	99.198671 
3859.000000	99.186835 
3858.000000	99.172315 
3857.000000	99.158930 
3856.000000	99.154354 
3855.000000	99.165045 
3854.000000	99.180032 
3853.000000	99.177406 
3852.000000	99.170629 
3851.000000	99.187363 
3850.000000	99.212360 
3849.000000	99.221932 
3848.000000	99.217982 
3847.000000	99.211293 
3846.000000	99.206284 
3845.000000	99.201671 
3844.000000	99.196106 
3843.000000	99.189679 
3842.000000	99.185423 
3841.000000	99.185822 
3840.000000	99.189596 
3839.000000	99.193496 
3838.000000	99.195148 
3837.000000	99.194746 
3836.000000	99.195100 
3835.000000	99.197952 
3834.000000	99.201220 
3833.000000	99.202102 
3832.000000	99.200039 
3831.000000	99.197901 
3830.000000	99.199582 
3829.000000	99.204770 
3828.000000	99.207878 
3827.000000	99.202840 
3826.000000	99.191309 
3825.000000	99.183969 
3824.000000	99.188873 
3823.000000	99.201817 
3822.000000	99.210267 
3821.000000	99.202845 
3820.000000	99.189075 
3819.000000	99.191734 
3818.000000	99.207010 
3817.000000	99.213822 
3816.000000	99.204926 
3815.000000	99.192396 
3814.000000	99.193023 
3813.000000	99.202326 
3812.000000	99.202452 
3811.000000	99.192379 
3810.000000	99.186178 
3809.000000	99.191707 
3808.000000	99.201049 
3807.000000	99.200552 
3806.000000	99.191705 
3805.000000	99.190053 
3804.000000	99.197907 
3803.000000	99.201647 
3802.000000	99.192356 
3801.000000	99.172894 
3800.000000	99.161552 
3799.000000	99.169769 
3798.000000	99.181734 
3797.000000	99.183165 
3796.000000	99.178708 
3795.000000	99.179634 
3794.000000	99.189137 
3793.000000	99.199932 
3792.000000	99.205563 
3791.000000	99.206817 
3790.000000	99.206508 
3789.000000	99.205631 
3788.000000	99.205777 
3787.000000	99.209467 
3786.000000	99.216087 
3785.000000	99.221031 
3784.000000	99.222014 
3783.000000	99.222207 
3782.000000	99.224353 
3781.000000	99.225957 
3780.000000	99.223011 
3779.000000	99.215031 
3778.000000	99.206987 
3777.000000	99.203326 
3776.000000	99.201637 
3775.000000	99.197950 
3774.000000	99.194661 
3773.000000	99.197183 
3772.000000	99.204571 
3771.000000	99.208700 
3770.000000	99.204530 
3769.000000	99.198226 
3768.000000	99.199727 
3767.000000	99.208072 
3766.000000	99.212682 
3765.000000	99.208466 
3764.000000	99.202031 
3763.000000	99.201505 
3762.000000	99.204938 
3761.000000	99.205839 
3760.000000	99.204411 
3759.000000	99.203712 
3758.000000	99.202464 
3757.000000	99.198074 
3756.000000	99.192291 
3755.000000	99.188186 
3754.000000	99.185443 
3753.000000	99.185001 
3752.000000	99.191207 
3751.000000	99.200500 
3750.000000	99.198797 
3749.000000	99.184167 
3748.000000	99.173204 
3747.000000	99.176080 
3746.000000	99.186434 
3745.000000	99.190817 
3744.000000	99.179106 
3743.000000	99.168866 
3742.000000	99.180051 
3741.000000	99.191933 
3740.000000	99.185770 
3739.000000	99.173384 
3738.000000	99.169302 
3737.000000	99.172329 
3736.000000	99.174478 
3735.000000	99.177544 
3734.000000	99.186951 
3733.000000	99.197027 
3732.000000	99.198453 
3731.000000	99.195315 
3730.000000	99.198329 
3729.000000	99.207079 
3728.000000	99.212126 
3727.000000	99.209867 
3726.000000	99.206412 
3725.000000	99.208582 
3724.000000	99.213919 
3723.000000	99.214884 
3722.000000	99.210582 
3721.000000	99.206687 
3720.000000	99.207816 
3719.000000	99.211790 
3718.000000	99.212098 
3717.000000	99.205237 
3716.000000	99.193761 
3715.000000	99.181466 
3714.000000	99.169857 
3713.000000	99.161058 
3712.000000	99.157162 
3711.000000	99.157816 
3710.000000	99.162989 
3709.000000	99.171712 
3708.000000	99.178863 
3707.000000	99.179496 
3706.000000	99.173759 
3705.000000	99.165619 
3704.000000	99.158646 
3703.000000	99.154161 
3702.000000	99.151094 
3701.000000	99.148408 
3700.000000	99.148415 
3699.000000	99.152309 
3698.000000	99.154537 
3697.000000	99.148928 
3696.000000	99.137357 
3695.000000	99.127107 
3694.000000	99.121457 
3693.000000	99.118685 
3692.000000	99.118794 
3691.000000	99.123440 
3690.000000	99.129256 
3689.000000	99.127862 
3688.000000	99.118972 
3687.000000	99.114728 
3686.000000	99.121015 
3685.000000	99.127922 
3684.000000	99.126005 
3683.000000	99.117997 
3682.000000	99.110824 
3681.000000	99.104271 
3680.000000	99.092788 
3679.000000	99.078623 
3678.000000	99.070693 
3677.000000	99.071437 
3676.000000	99.070852 
3675.000000	99.060572 
3674.000000	99.056869 
3673.000000	99.073069 
3672.000000	99.090972 
3671.000000	99.095430 
3670.000000	99.090354 
3669.000000	99.084356 
3668.000000	99.084860 
3667.000000	99.088243 
3666.000000	99.086226 
3665.000000	99.080299 
3664.000000	99.077389 
3663.000000	99.079884 
3662.000000	99.083667 
3661.000000	99.084021 
3660.000000	99.081258 
3659.000000	99.079843 
3658.000000	99.081701 
3657.000000	99.082801 
3656.000000	99.077881 
3655.000000	99.071415 
3654.000000	99.071951 
3653.000000	99.076847 
3652.000000	99.079224 
3651.000000	99.079977 
3650.000000	99.080691 
3649.000000	99.076447 
3648.000000	99.066889 
3647.000000	99.060617 
3646.000000	99.064390 
3645.000000	99.076020 
3644.000000	99.087957 
3643.000000	99.094391 
3642.000000	99.095349 
3641.000000	99.094874 
3640.000000	99.096154 
3639.000000	99.099193 
3638.000000	99.103347 
3637.000000	99.109783 
3636.000000	99.116821 
3635.000000	99.117245 
3634.000000	99.105747 
3633.000000	99.087744 
3632.000000	99.074860 
3631.000000	99.073406 
3630.000000	99.081684 
3629.000000	99.088604 
3628.000000	99.087055 
3627.000000	99.089000 
3626.000000	99.098168 
3625.000000	99.101780 
3624.000000	99.096507 
3623.000000	99.089619 
3622.000000	99.086376 
3621.000000	99.085981 
3620.000000	99.085613 
3619.000000	99.084023 
3618.000000	99.083502 
3617.000000	99.088319 
3616.000000	99.097544 
3615.000000	99.104871 
3614.000000	99.105471 
3613.000000	99.100031 
3612.000000	99.093823 
3611.000000	99.091366 
3610.000000	99.092680 
3609.000000	99.095851 
3608.000000	99.100123 
3607.000000	99.105561 
3606.000000	99.111443 
3605.000000	99.115581 
3604.000000	99.116901 
3603.000000	99.117095 
3602.000000	99.118013 
3601.000000	99.120102 
3600.000000	99.123916 
3599.000000	99.129738 
3598.000000	99.134939 
3597.000000	99.136747 
3596.000000	99.135887 
3595.000000	99.134883 
3594.000000	99.134709 
3593.000000	99.135262 
3592.000000	99.137070 
3591.000000	99.140956 
3590.000000	99.146873 
3589.000000	99.152465 
3588.000000	99.153205 
3587.000000	99.146917 
3586.000000	99.138800 
3585.000000	99.134811 
3584.000000	99.134178 
3583.000000	99.133835 
3582.000000	99.133122 
3581.000000	99.132542 
3580.000000	99.131907 
3579.000000	99.130686 
3578.000000	99.128414 
3577.000000	99.125268 
3576.000000	99.122712 
3575.000000	99.122558 
3574.000000	99.125273 
3573.000000	99.129024 
3572.000000	99.131065 
3571.000000	99.129923 
3570.000000	99.126278 
3569.000000	99.122033 
3568.000000	99.119166 
3567.000000	99.118982 
3566.000000	99.122544 
3565.000000	99.129756 
3564.000000	99.136675 
3563.000000	99.139038 
3562.000000	99.137292 
3561.000000	99.134950 
3560.000000	99.134104 
3559.000000	99.133906 
3558.000000	99.132363 
3557.000000	99.128711 
3556.000000	99.124703 
3555.000000	99.123302 
3554.000000	99.125622 
3553.000000	99.129484 
3552.000000	99.131519 
3551.000000	99.130375 
3550.000000	99.126725 
3549.000000	99.121638 
3548.000000	99.117019 
3547.000000	99.115822 
3546.000000	99.119278 
3545.000000	99.125278 
3544.000000	99.130791 
3543.000000	99.134471 
3542.000000	99.136389 
3541.000000	99.136487 
3540.000000	99.134826 
3539.000000	99.132583 
3538.000000	99.131444 
3537.000000	99.131864 
3536.000000	99.132545 
3535.000000	99.132228 
3534.000000	99.130912 
3533.000000	99.129383 
3532.000000	99.128179 
3531.000000	99.127439 
3530.000000	99.126985 
3529.000000	99.126572 
3528.000000	99.126569 
3527.000000	99.127977 
3526.000000	99.131028 
3525.000000	99.134062 
3524.000000	99.135189 
3523.000000	99.134635 
3522.000000	99.134351 
3521.000000	99.135237 
3520.000000	99.136036 
3519.000000	99.135415 
3518.000000	99.134008 
3517.000000	99.133537 
3516.000000	99.134416 
3515.000000	99.135584 
3514.000000	99.136604 
3513.000000	99.138340 
3512.000000	99.140802 
3511.000000	99.141860 
3510.000000	99.139420 
3509.000000	99.134431 
3508.000000	99.130578 
3507.000000	99.130300 
3506.000000	99.131536 
3505.000000	99.129207 
3504.000000	99.120351 
3503.000000	99.108200 
3502.000000	99.100809 
3501.000000	99.104355 
3500.000000	99.117307 
3499.000000	99.131309 
3498.000000	99.137830 
3497.000000	99.134756 
3496.000000	99.127402 
3495.000000	99.122997 
3494.000000	99.124136 
3493.000000	99.127457 
3492.000000	99.127943 
3491.000000	99.123866 
3490.000000	99.117945 
3489.000000	99.114405 
3488.000000	99.115417 
3487.000000	99.120031 
3486.000000	99.125647 
3485.000000	99.130118 
3484.000000	99.132837 
3483.000000	99.134384 
3482.000000	99.135126 
3481.000000	99.134416 
3480.000000	99.131606 
3479.000000	99.127715 
3478.000000	99.125182 
3477.000000	99.125240 
3476.000000	99.126102 
3475.000000	99.124759 
3474.000000	99.120740 
3473.000000	99.117018 
3472.000000	99.116761 
3471.000000	99.120104 
3470.000000	99.124661 
3469.000000	99.128166 
3468.000000	99.129684 
3467.000000	99.129119 
3466.000000	99.126796 
3465.000000	99.123475 
3464.000000	99.120039 
3463.000000	99.117058 
3462.000000	99.114867 
3461.000000	99.113806 
3460.000000	99.113984 
3459.000000	99.114964 
3458.000000	99.116170 
3457.000000	99.117371 
3456.000000	99.118429 
3455.000000	99.118997 
3454.000000	99.118718 
3453.000000	99.117588 
3452.000000	99.116020 
3451.000000	99.114822 
3450.000000	99.114934 
3449.000000	99.116722 
3448.000000	99.119290 
3447.000000	99.120758 
3446.000000	99.119856 
3445.000000	99.117104 
3444.000000	99.114181 
3443.000000	99.112526 
3442.000000	99.112571 
3441.000000	99.113884 
3440.000000	99.115749 
3439.000000	99.117349 
3438.000000	99.117737 
3437.000000	99.116152 
3436.000000	99.112756 
3435.000000	99.109162 
3434.000000	99.107568 
3433.000000	99.108961 
3432.000000	99.112194 
3431.000000	99.114903 
3430.000000	99.115187 
3429.000000	99.112697 
3428.000000	99.108716 
3427.000000	99.105192 
3426.000000	99.103417 
3425.000000	99.103337 
3424.000000	99.104103 
3423.000000	99.105142 
3422.000000	99.106494 
3421.000000	99.108086 
3420.000000	99.109061 
3419.000000	99.108406 
3418.000000	99.106311 
3417.000000	99.104421 
3416.000000	99.104239 
3415.000000	99.105418 
3414.000000	99.106078 
3413.000000	99.104932 
3412.000000	99.102673 
3411.000000	99.101127 
3410.000000	99.101597 
3409.000000	99.104237 
3408.000000	99.108266 
3407.000000	99.112029 
3406.000000	99.113420 
3405.000000	99.111389 
3404.000000	99.107192 
3403.000000	99.103624 
3402.000000	99.102796 
3401.000000	99.104750 
3400.000000	99.107822 
3399.000000	99.110020 
3398.000000	99.110546 
3397.000000	99.110489 
3396.000000	99.111639 
3395.000000	99.114238 
3394.000000	99.116449 
3393.000000	99.116515 
3392.000000	99.114941 
3391.000000	99.113762 
3390.000000	99.113988 
3389.000000	99.114597 
3388.000000	99.113982 
3387.000000	99.111578 
3386.000000	99.108097 
3385.000000	99.104882 
3384.000000	99.103133 
3383.000000	99.103195 
3382.000000	99.104296 
3381.000000	99.105059 
3380.000000	99.104250 
3379.000000	99.101327 
3378.000000	99.097100 
3377.000000	99.094209 
3376.000000	99.095962 
3375.000000	99.103475 
3374.000000	99.113973 
3373.000000	99.122530 
3372.000000	99.125669 
3371.000000	99.123290 
3370.000000	99.117886 
3369.000000	99.112680 
3368.000000	99.109972 
3367.000000	99.109940 
3366.000000	99.110579 
3365.000000	99.109546 
3364.000000	99.106539 
3363.000000	99.103590 
3362.000000	99.102861 
3361.000000	99.104539 
3360.000000	99.106931 
3359.000000	99.108208 
3358.000000	99.107976 
3357.000000	99.107493 
3356.000000	99.108384 
3355.000000	99.110677 
3354.000000	99.112180 
3353.000000	99.110507 
3352.000000	99.105924 
3351.000000	99.101683 
3350.000000	99.101271 
3349.000000	99.105579 
3348.000000	99.112639 
3347.000000	99.119422 
3346.000000	99.123622 
3345.000000	99.124594 
3344.000000	99.123389 
3343.000000	99.121621 
3342.000000	99.119893 
3341.000000	99.117682 
3340.000000	99.114899 
3339.000000	99.112772 
3338.000000	99.112362 
3337.000000	99.112735 
3336.000000	99.111806 
3335.000000	99.109217 
3334.000000	99.107358 
3333.000000	99.108921 
3332.000000	99.113755 
3331.000000	99.118608 
3330.000000	99.120071 
3329.000000	99.117785 
3328.000000	99.114800 
3327.000000	99.114577 
3326.000000	99.117534 
3325.000000	99.120941 
3324.000000	99.122386 
3323.000000	99.122590 
3322.000000	99.123976 
3321.000000	99.126893 
3320.000000	99.128557 
3319.000000	99.126222 
3318.000000	99.120556 
3317.000000	99.115134 
3316.000000	99.113078 
3315.000000	99.114747 
3314.000000	99.118239 
3313.000000	99.121280 
3312.000000	99.122737 
3311.000000	99.123122 
3310.000000	99.123901 
3309.000000	99.125917 
3308.000000	99.128405 
3307.000000	99.129834 
3306.000000	99.129523 
3305.000000	99.127865 
3304.000000	99.125134 
3303.000000	99.121102 
3302.000000	99.116337 
3301.000000	99.112979 
3300.000000	99.113100 
3299.000000	99.116310 
3298.000000	99.119757 
3297.000000	99.120809 
3296.000000	99.119511 
3295.000000	99.118302 
3294.000000	99.119605 
3293.000000	99.123708 
3292.000000	99.128557 
3291.000000	99.131446 
3290.000000	99.131160 
3289.000000	99.128683 
3288.000000	99.126041 
3287.000000	99.124614 
3286.000000	99.124482 
3285.000000	99.124976 
3284.000000	99.125403 
3283.000000	99.125301 
3282.000000	99.124510 
3281.000000	99.123154 
3280.000000	99.121374 
3279.000000	99.119223 
3278.000000	99.117133 
3277.000000	99.116152 
3276.000000	99.117097 
3275.000000	99.119444 
3274.000000	99.121555 
3273.000000	99.122033 
3272.000000	99.120388 
3271.000000	99.116659 
3270.000000	99.111355 
3269.000000	99.106113 
3268.000000	99.103587 
3267.000000	99.105768 
3266.000000	99.112294 
3265.000000	99.120604 
3264.000000	99.127637 
3263.000000	99.131577 
3262.000000	99.132783 
3261.000000	99.133268 
3260.000000	99.134592 
3259.000000	99.135975 
3258.000000	99.135041 
3257.000000	99.130594 
3256.000000	99.124186 
3255.000000	99.118844 
3254.000000	99.116922 
3253.000000	99.119281 
3252.000000	99.125209 
3251.000000	99.132095 
3250.000000	99.136136 
3249.000000	99.135010 
3248.000000	99.129996 
3247.000000	99.124639 
3246.000000	99.121288 
3245.000000	99.119693 
3244.000000	99.118956 
3243.000000	99.119769 
3242.000000	99.123982 
3241.000000	99.132125 
3240.000000	99.141680 
3239.000000	99.148180 
3238.000000	99.148578 
3237.000000	99.143805 
3236.000000	99.137702 
3235.000000	99.133336 
3234.000000	99.130863 
3233.000000	99.129192 
3232.000000	99.128572 
3231.000000	99.130275 
3230.000000	99.134151 
3229.000000	99.137865 
3228.000000	99.138840 
3227.000000	99.136238 
3226.000000	99.131017 
3225.000000	99.125087 
3224.000000	99.120729 
3223.000000	99.119717 
3222.000000	99.122079 
3221.000000	99.125946 
3220.000000	99.129016 
3219.000000	99.130040 
3218.000000	99.128940 
3217.000000	99.126244 
3216.000000	99.123024 
3215.000000	99.120962 
3214.000000	99.121439 
3213.000000	99.124235 
3212.000000	99.127649 
3211.000000	99.130263 
3210.000000	99.132345 
3209.000000	99.135236 
3208.000000	99.139449 
3207.000000	99.143752 
3206.000000	99.146360 
3205.000000	99.146900 
3204.000000	99.146802 
3203.000000	99.147647 
3202.000000	99.149582 
3201.000000	99.151671 
3200.000000	99.153326 
3199.000000	99.154661 
3198.000000	99.155656 
3197.000000	99.155906 
3196.000000	99.155447 
3195.000000	99.154969 
3194.000000	99.154578 
3193.000000	99.153036 
3192.000000	99.149140 
3191.000000	99.143696 
3190.000000	99.139288 
3189.000000	99.137995 
3188.000000	99.139831 
3187.000000	99.143319 
3186.000000	99.146836 
3185.000000	99.149081 
3184.000000	99.149083 
3183.000000	99.146748 
3182.000000	99.143343 
3181.000000	99.140747 
3180.000000	99.140000 
3179.000000	99.140690 
3178.000000	99.141500 
3177.000000	99.141061 
3176.000000	99.138606 
3175.000000	99.134689 
3174.000000	99.131549 
3173.000000	99.131966 
3172.000000	99.136765 
3171.000000	99.143456 
3170.000000	99.148128 
3169.000000	99.149095 
3168.000000	99.148333 
3167.000000	99.149143 
3166.000000	99.152788 
3165.000000	99.157743 
3164.000000	99.161738 
3163.000000	99.163826 
3162.000000	99.164498 
3161.000000	99.164599 
3160.000000	99.164704 
3159.000000	99.165029 
3158.000000	99.165125 
3157.000000	99.163747 
3156.000000	99.159826 
3155.000000	99.154066 
3154.000000	99.149214 
3153.000000	99.148213 
3152.000000	99.151760 
3151.000000	99.157624 
3150.000000	99.162391 
3149.000000	99.164074 
3148.000000	99.163303 
3147.000000	99.162134 
3146.000000	99.161737 
3145.000000	99.161336 
3144.000000	99.159451 
3143.000000	99.155970 
3142.000000	99.152661 
3141.000000	99.151610 
3140.000000	99.153281 
3139.000000	99.156153 
3138.000000	99.158227 
3137.000000	99.158909 
3136.000000	99.159335 
3135.000000	99.160795 
3134.000000	99.162940 
3133.000000	99.163944 
3132.000000	99.162685 
3131.000000	99.160361 
3130.000000	99.159255 
3129.000000	99.159912 
3128.000000	99.160360 
3127.000000	99.158542 
3126.000000	99.154861 
3125.000000	99.151654 
3124.000000	99.150639 
3123.000000	99.151578 
3122.000000	99.153255 
3121.000000	99.155080 
3120.000000	99.157467 
3119.000000	99.160851 
3118.000000	99.164591 
3117.000000	99.166936 
3116.000000	99.166323 
3115.000000	99.162953 
3114.000000	99.158795 
3113.000000	99.155731 
3112.000000	99.153990 
3111.000000	99.152819 
3110.000000	99.152154 
3109.000000	99.152594 
3108.000000	99.153795 
3107.000000	99.154054 
3106.000000	99.152082 
3105.000000	99.148645 
3104.000000	99.145933 
3103.000000	99.145599 
3102.000000	99.147849 
3101.000000	99.152131 
3100.000000	99.157750 
3099.000000	99.163433 
3098.000000	99.167204 
3097.000000	99.167783 
3096.000000	99.166142 
3095.000000	99.164993 
3094.000000	99.166392 
3093.000000	99.169998 
3092.000000	99.173623 
3091.000000	99.175101 
3090.000000	99.173672 
3089.000000	99.170349 
3088.000000	99.167438 
3087.000000	99.167139 
3086.000000	99.169713 
3085.000000	99.173024 
3084.000000	99.174546 
3083.000000	99.173886 
3082.000000	99.172867 
3081.000000	99.173108 
3080.000000	99.174161 
3079.000000	99.174307 
3078.000000	99.172617 
3077.000000	99.169711 
3076.000000	99.166890 
3075.000000	99.165239 
3074.000000	99.165356 
3073.000000	99.167243 
3072.000000	99.170289 
3071.000000	99.173634 
3070.000000	99.176508 
3069.000000	99.178017 
3068.000000	99.176962 
3067.000000	99.172695 
3066.000000	99.166425 
3065.000000	99.161063 
3064.000000	99.159066 
3063.000000	99.160389 
3062.000000	99.162826 
3061.000000	99.164314 
3060.000000	99.164686 
3059.000000	99.165265 
3058.000000	99.167156 
3057.000000	99.170189 
3056.000000	99.173318 
3055.000000	99.175695 
3054.000000	99.177110 
3053.000000	99.177533 
3052.000000	99.176816 
3051.000000	99.175209 
3050.000000	99.173777 
3049.000000	99.173456 
3048.000000	99.173409 
3047.000000	99.171209 
3046.000000	99.165487 
3045.000000	99.158037 
3044.000000	99.152370 
3043.000000	99.150147 
3042.000000	99.149871 
3041.000000	99.149170 
3040.000000	99.147422 
3039.000000	99.145688 
3038.000000	99.144924 
3037.000000	99.145163 
3036.000000	99.146105 
3035.000000	99.147535 
3034.000000	99.149072 
3033.000000	99.150095 
3032.000000	99.150094 
3031.000000	99.148768 
3030.000000	99.145716 
3029.000000	99.140404 
3028.000000	99.132783 
3027.000000	99.123863 
3026.000000	99.115437 
3025.000000	99.109040 
3024.000000	99.104975 
3023.000000	99.102072 
3022.000000	99.098290 
3021.000000	99.091900 
3020.000000	99.082765 
3019.000000	99.072860 
3018.000000	99.065299 
3017.000000	99.062112 
3016.000000	99.062351 
3015.000000	99.062486 
3014.000000	99.059124 
3013.000000	99.051525 
3012.000000	99.041341 
3011.000000	99.030217 
3010.000000	99.018480 
3009.000000	99.006340 
3008.000000	98.995406 
3007.000000	98.988062 
3006.000000	98.985375 
3005.000000	98.985984 
3004.000000	98.986741 
3003.000000	98.984130 
3002.000000	98.975798 
3001.000000	98.962131 
3000.000000	98.946622 
2999.000000	98.933592 
2998.000000	98.924920 
2997.000000	98.919463 
2996.000000	98.915667 
2995.000000	98.913302 
2994.000000	98.911556 
2993.000000	98.906700 
2992.000000	98.894343 
2991.000000	98.874883 
2990.000000	98.855265 
2989.000000	98.843727 
2988.000000	98.842775 
2987.000000	98.848049 
2986.000000	98.853624 
2985.000000	98.857292 
2984.000000	98.860525 
2983.000000	98.864756 
2982.000000	98.869047 
2981.000000	98.871198 
2980.000000	98.870238 
2979.000000	98.867399 
2978.000000	98.864932 
2977.000000	98.864227 
2976.000000	98.864942 
2975.000000	98.865715 
2974.000000	98.865661 
2973.000000	98.865103 
2972.000000	98.864868 
2971.000000	98.865181 
2970.000000	98.865719 
2969.000000	98.866735 
2968.000000	98.869515 
2967.000000	98.875270 
2966.000000	98.883690 
2965.000000	98.893021 
2964.000000	98.901540 
2963.000000	98.908711 
2962.000000	98.914945 
2961.000000	98.920632 
2960.000000	98.925735 
2959.000000	98.930241 
2958.000000	98.934638 
2957.000000	98.939556 
2956.000000	98.944656 
2955.000000	98.948133 
2954.000000	98.948160 
2953.000000	98.945543 
2952.000000	98.944523 
2951.000000	98.949671 
2950.000000	98.961224 
2949.000000	98.974039 
2948.000000	98.982005 
2947.000000	98.983434 
2946.000000	98.981651 
2945.000000	98.980672 
2944.000000	98.981479 
2943.000000	98.982678 
2942.000000	98.983308 
2941.000000	98.983662 
2940.000000	98.983849 
2939.000000	98.983165 
2938.000000	98.981377 
2937.000000	98.979772 
2936.000000	98.980217 
2935.000000	98.983444 
2934.000000	98.988598 
2933.000000	98.994105 
2932.000000	98.998588 
2931.000000	99.001239 
2930.000000	99.001862 
2929.000000	99.000766 
2928.000000	98.998481 
2927.000000	98.995592 
2926.000000	98.992819 
2925.000000	98.990890 
2924.000000	98.990076 
2923.000000	98.989966 
2922.000000	98.989885 
2921.000000	98.989353 
2920.000000	98.988005 
2919.000000	98.985458 
2918.000000	98.981737 
2917.000000	98.977683 
2916.000000	98.974425 
2915.000000	98.972398 
2914.000000	98.971223 
2913.000000	98.970521 
2912.000000	98.970306 
2911.000000	98.970292 
2910.000000	98.969252 
2909.000000	98.965786 
2908.000000	98.959847 
2907.000000	98.953096 
2906.000000	98.947381 
2905.000000	98.942847 
2904.000000	98.937860 
2903.000000	98.931116 
2902.000000	98.923800 
2901.000000	98.919475 
2900.000000	98.921390 
2899.000000	98.929636 
2898.000000	98.940683 
2897.000000	98.949829 
2896.000000	98.954707 
2895.000000	98.956800 
2894.000000	98.959494 
2893.000000	98.964373 
2892.000000	98.969619 
2891.000000	98.972295 
2890.000000	98.971856 
2889.000000	98.970688 
2888.000000	98.971219 
2887.000000	98.973416 
2886.000000	98.975582 
2885.000000	98.976810 
2884.000000	98.977702 
2883.000000	98.979146 
2882.000000	98.981553 
2881.000000	98.985498 
2880.000000	98.992067 
2879.000000	99.001760 
2878.000000	99.013320 
2877.000000	99.024189 
2876.000000	99.032079 
2875.000000	99.035939 
2874.000000	99.035857 
2873.000000	99.032941 
2872.000000	99.029562 
2871.000000	99.028875 
2870.000000	99.032930 
2869.000000	99.040830 
2868.000000	99.049317 
2867.000000	99.055795 
2866.000000	99.060706 
2865.000000	99.066493 
2864.000000	99.074433 
2863.000000	99.083116 
2862.000000	99.090037 
2861.000000	99.093985 
2860.000000	99.095778 
2859.000000	99.097463 
2858.000000	99.101148 
2857.000000	99.107743 
2856.000000	99.116001 
2855.000000	99.123254 
2854.000000	99.127735 
2853.000000	99.129939 
2852.000000	99.131329 
2851.000000	99.132499 
2850.000000	99.133540 
2849.000000	99.135550 
2848.000000	99.140139 
2847.000000	99.147054 
2846.000000	99.153351 
2845.000000	99.155744 
2844.000000	99.153624 
2843.000000	99.149611 
2842.000000	99.147486 
2841.000000	99.149394 
2840.000000	99.154325 
2839.000000	99.158903 
2838.000000	99.160029 
2837.000000	99.157139 
2836.000000	99.152085 
2835.000000	99.147382 
2834.000000	99.145029 
2833.000000	99.146270 
2832.000000	99.151028 
2831.000000	99.157294 
2830.000000	99.162191 
2829.000000	99.164359 
2828.000000	99.164904 
2827.000000	99.165752 
2826.000000	99.167663 
2825.000000	99.170066 
2824.000000	99.172087 
2823.000000	99.173329 
2822.000000	99.174137 
2821.000000	99.175438 
2820.000000	99.177753 
2819.000000	99.180165 
2818.000000	99.181012 
2817.000000	99.179912 
2816.000000	99.178309 
2815.000000	99.177558 
2814.000000	99.177386 
2813.000000	99.176844 
2812.000000	99.175877 
2811.000000	99.175026 
2810.000000	99.174337 
2809.000000	99.173767 
2808.000000	99.174237 
2807.000000	99.177010 
2806.000000	99.181906 
2805.000000	99.187043 
2804.000000	99.190567 
2803.000000	99.192085 
2802.000000	99.192327 
2801.000000	99.191923 
2800.000000	99.190750 
2799.000000	99.188317 
2798.000000	99.184837 
2797.000000	99.181830 
2796.000000	99.181000 
2795.000000	99.182178 
2794.000000	99.183085 
2793.000000	99.181793 
2792.000000	99.178899 
2791.000000	99.176604 
2790.000000	99.176278 
2789.000000	99.177775 
2788.000000	99.180475 
2787.000000	99.183755 
2786.000000	99.186750 
2785.000000	99.188947 
2784.000000	99.190975 
2783.000000	99.193584 
2782.000000	99.195916 
2781.000000	99.196136 
2780.000000	99.194033 
2779.000000	99.191688 
2778.000000	99.191036 
2777.000000	99.191926 
2776.000000	99.193109 
2775.000000	99.193958 
2774.000000	99.194323 
2773.000000	99.193641 
2772.000000	99.191393 
2771.000000	99.188198 
2770.000000	99.185709 
2769.000000	99.185522 
2768.000000	99.188369 
2767.000000	99.193645 
2766.000000	99.199112 
2765.000000	99.201866 
2764.000000	99.200679 
2763.000000	99.197355 
2762.000000	99.195158 
2761.000000	99.196051 
2760.000000	99.199709 
2759.000000	99.204510 
2758.000000	99.208624 
2757.000000	99.210632 
2756.000000	99.210325 
2755.000000	99.208996 
2754.000000	99.208119 
2753.000000	99.207604 
2752.000000	99.206103 
2751.000000	99.203099 
2750.000000	99.199791 
2749.000000	99.197568 
2748.000000	99.196348 
2747.000000	99.195058 
2746.000000	99.193267 
2745.000000	99.191711 
2744.000000	99.191374 
2743.000000	99.192545 
2742.000000	99.194793 
2741.000000	99.197455 
2740.000000	99.199991 
2739.000000	99.202022 
2738.000000	99.203310 
2737.000000	99.203903 
2736.000000	99.204267 
2735.000000	99.204946 
2734.000000	99.205834 
2733.000000	99.206002 
2732.000000	99.204614 
2731.000000	99.201943 
2730.000000	99.199148 
2729.000000	99.197257 
2728.000000	99.196844 
2727.000000	99.198457 
2726.000000	99.202303 
2725.000000	99.207173 
2724.000000	99.210621 
2723.000000	99.211119 
2722.000000	99.209643 
2721.000000	99.208351 
2720.000000	99.207994 
2719.000000	99.207504 
2718.000000	99.206012 
2717.000000	99.204255 
2716.000000	99.203719 
2715.000000	99.205217 
2714.000000	99.208667 
2713.000000	99.213394 
2712.000000	99.217945 
2711.000000	99.220351 
2710.000000	99.219707 
2709.000000	99.217431 
2708.000000	99.215996 
2707.000000	99.216125 
2706.000000	99.215967 
2705.000000	99.213476 
2704.000000	99.209123 
2703.000000	99.205614 
2702.000000	99.205082 
2701.000000	99.207002 
2700.000000	99.208959 
2699.000000	99.209036 
2698.000000	99.207212 
2697.000000	99.204790 
2696.000000	99.203125 
2695.000000	99.203074 
2694.000000	99.204965 
2693.000000	99.208203 
2692.000000	99.210918 
2691.000000	99.211012 
2690.000000	99.208312 
2689.000000	99.205337 
2688.000000	99.205115 
2687.000000	99.208159 
2686.000000	99.212008 
2685.000000	99.213773 
2684.000000	99.212755 
2683.000000	99.210590 
2682.000000	99.209381 
2681.000000	99.209954 
2680.000000	99.211553 
2679.000000	99.212791 
2678.000000	99.212906 
2677.000000	99.212303 
2676.000000	99.211952 
2675.000000	99.212336 
2674.000000	99.213091 
2673.000000	99.213558 
2672.000000	99.213366 
2671.000000	99.212366 
2670.000000	99.210233 
2669.000000	99.206511 
2668.000000	99.201317 
2667.000000	99.196047 
2666.000000	99.193041 
2665.000000	99.194012 
2664.000000	99.198592 
2663.000000	99.204677 
2662.000000	99.210186 
2661.000000	99.214021 
2660.000000	99.215387 
2659.000000	99.213360 
2658.000000	99.208127 
2657.000000	99.202130 
2656.000000	99.198705 
2655.000000	99.199333 
2654.000000	99.202653 
2653.000000	99.205953 
2652.000000	99.207038 
2651.000000	99.205101 
2650.000000	99.201027 
2649.000000	99.196932 
2648.000000	99.194481 
2647.000000	99.193484 
2646.000000	99.192848 
2645.000000	99.192557 
2644.000000	99.193430 
2643.000000	99.195145 
2642.000000	99.196288 
2641.000000	99.196863 
2640.000000	99.199016 
2639.000000	99.204258 
2638.000000	99.211239 
2637.000000	99.217085 
2636.000000	99.219755 
2635.000000	99.218411 
2634.000000	99.213346 
2633.000000	99.207055 
2632.000000	99.203681 
2631.000000	99.205142 
2630.000000	99.208574 
2629.000000	99.209531 
2628.000000	99.207147 
2627.000000	99.204316 
2626.000000	99.203421 
2625.000000	99.204239 
2624.000000	99.205826 
2623.000000	99.207871 
2622.000000	99.209532 
2621.000000	99.209039 
2620.000000	99.205743 
2619.000000	99.201349 
2618.000000	99.198269 
2617.000000	99.197654 
2616.000000	99.199510 
2615.000000	99.203481 
2614.000000	99.208560 
2613.000000	99.212866 
2612.000000	99.214748 
2611.000000	99.214066 
2610.000000	99.212174 
2609.000000	99.210929 
2608.000000	99.211689 
2607.000000	99.214612 
2606.000000	99.218760 
2605.000000	99.223044 
2604.000000	99.226685 
2603.000000	99.228459 
2602.000000	99.226732 
2601.000000	99.221726 
2600.000000	99.216918 
2599.000000	99.216195 
2598.000000	99.219612 
2597.000000	99.223597 
2596.000000	99.225095 
2595.000000	99.223535 
2594.000000	99.219041 
2593.000000	99.211790 
2592.000000	99.204206 
2591.000000	99.200951 
2590.000000	99.204420 
2589.000000	99.211634 
2588.000000	99.217438 
2587.000000	99.219647 
2586.000000	99.219411 
2585.000000	99.217895 
2584.000000	99.215026 
2583.000000	99.211133 
2582.000000	99.207580 
2581.000000	99.205272 
2580.000000	99.203830 
2579.000000	99.202534 
2578.000000	99.201149 
2577.000000	99.199817 
2576.000000	99.199051 
2575.000000	99.199864 
2574.000000	99.202878 
2573.000000	99.206983 
2572.000000	99.209510 
2571.000000	99.208185 
2570.000000	99.202993 
2569.000000	99.196510 
2568.000000	99.192627 
2567.000000	99.194101 
2566.000000	99.200358 
2565.000000	99.207841 
2564.000000	99.213140 
2563.000000	99.215527 
2562.000000	99.216084 
2561.000000	99.215435 
2560.000000	99.213722 
2559.000000	99.212130 
2558.000000	99.212278 
2557.000000	99.213597 
2556.000000	99.213107 
2555.000000	99.209103 
2554.000000	99.203987 
2553.000000	99.202017 
2552.000000	99.204702 
2551.000000	99.209712 
2550.000000	99.214012 
2549.000000	99.216376 
2548.000000	99.216509 
2547.000000	99.213621 
2546.000000	99.207587 
2545.000000	99.200802 
2544.000000	99.196945 
2543.000000	99.197426 
2542.000000	99.200246 
2541.000000	99.202805 
2540.000000	99.204736 
2539.000000	99.207120 
2538.000000	99.209721 
2537.000000	99.210178 
2536.000000	99.206073 
2535.000000	99.197474 
2534.000000	99.187732 
2533.000000	99.181853 
2532.000000	99.183070 
2531.000000	99.190080 
2530.000000	99.198079 
2529.000000	99.203264 
2528.000000	99.205977 
2527.000000	99.208988 
2526.000000	99.213808 
2525.000000	99.219881 
2524.000000	99.226336 
2523.000000	99.232373 
2522.000000	99.235957 
2521.000000	99.234421 
2520.000000	99.227570 
2519.000000	99.219041 
2518.000000	99.213355 
2517.000000	99.211909 
2516.000000	99.212444 
2515.000000	99.212210 
2514.000000	99.211106 
2513.000000	99.211426 
2512.000000	99.214333 
2511.000000	99.217028 
2510.000000	99.214907 
2509.000000	99.207566 
2508.000000	99.201251 
2507.000000	99.202967 
2506.000000	99.212118 
2505.000000	99.220020 
2504.000000	99.218590 
2503.000000	99.208244 
2502.000000	99.196714 
2501.000000	99.191693 
2500.000000	99.195589 
2499.000000	99.205939 
2498.000000	99.218795 
2497.000000	99.231199 
2496.000000	99.241233 
2495.000000	99.246643 
2494.000000	99.244721 
2493.000000	99.234810 
2492.000000	99.220672 
2491.000000	99.208755 
2490.000000	99.203259 
2489.000000	99.203317 
2488.000000	99.204982 
2487.000000	99.205046 
2486.000000	99.203146 
2485.000000	99.201676 
2484.000000	99.203933 
2483.000000	99.210735 
2482.000000	99.218273 
2481.000000	99.220863 
2480.000000	99.216806 
2479.000000	99.210074 
2478.000000	99.205282 
2477.000000	99.202694 
2476.000000	99.199693 
2475.000000	99.195690 
2474.000000	99.193262 
2473.000000	99.194923 
2472.000000	99.200687 
2471.000000	99.208672 
2470.000000	99.216259 
2469.000000	99.220366 
2468.000000	99.218438 
2467.000000	99.210548 
2466.000000	99.200333 
2465.000000	99.193146 
2464.000000	99.192530 
2463.000000	99.197530 
2462.000000	99.202936 
2461.000000	99.203133 
2460.000000	99.197068 
2459.000000	99.189573 
2458.000000	99.187114 
2457.000000	99.192096 
2456.000000	99.201285 
2455.000000	99.208909 
2454.000000	99.210640 
2453.000000	99.205763 
2452.000000	99.197433 
2451.000000	99.190910 
2450.000000	99.189853 
2449.000000	99.193286 
2448.000000	99.196715 
2447.000000	99.196778 
2446.000000	99.194541 
2445.000000	99.194059 
2444.000000	99.198147 
2443.000000	99.205849 
2442.000000	99.213590 
2441.000000	99.218225 
2440.000000	99.218879 
2439.000000	99.216354 
2438.000000	99.211718 
2437.000000	99.206108 
2436.000000	99.201166 
2435.000000	99.198051 
2434.000000	99.195718 
2433.000000	99.191654 
2432.000000	99.185368 
2431.000000	99.180045 
2430.000000	99.179406 
2429.000000	99.183674 
2428.000000	99.190182 
2427.000000	99.197315 
2426.000000	99.205524 
2425.000000	99.213936 
2424.000000	99.218257 
2423.000000	99.214200 
2422.000000	99.202696 
2421.000000	99.190245 
2420.000000	99.183536 
2419.000000	99.184188 
2418.000000	99.188793 
2417.000000	99.193260 
2416.000000	99.196237 
2415.000000	99.198551 
2414.000000	99.200688 
2413.000000	99.202136 
2412.000000	99.202842 
2411.000000	99.203739 
2410.000000	99.205153 
2409.000000	99.205893 
2408.000000	99.205062 
2407.000000	99.204050 
2406.000000	99.205185 
2405.000000	99.208478 
2404.000000	99.211117 
2403.000000	99.210604 
2402.000000	99.207354 
2401.000000	99.203612 
2400.000000	99.200684 
2399.000000	99.198079 
2398.000000	99.194975 
2397.000000	99.191711 
2396.000000	99.189739 
2395.000000	99.190405 
2394.000000	99.193639 
2393.000000	99.197630 
2392.000000	99.200181 
2391.000000	99.200855 
2390.000000	99.201491 
2389.000000	99.203960 
2388.000000	99.207555 
2387.000000	99.209405 
2386.000000	99.207724 
2385.000000	99.203915 
2384.000000	99.201011 
2383.000000	99.200590 
2382.000000	99.201883 
2381.000000	99.203222 
2380.000000	99.203015 
2379.000000	99.199465 
2378.000000	99.191432 
2377.000000	99.181152 
2376.000000	99.174887 
2375.000000	99.178144 
2374.000000	99.189474 
2373.000000	99.200888 
2372.000000	99.205828 
2371.000000	99.205841 
2370.000000	99.207658 
2369.000000	99.214158 
2368.000000	99.220003 
2367.000000	99.217075 
2366.000000	99.203258 
2365.000000	99.184941 
2364.000000	99.171418 
2363.000000	99.168156 
2362.000000	99.174541 
2361.000000	99.186241 
2360.000000	99.198970 
2359.000000	99.210022 
2358.000000	99.218803 
2357.000000	99.226358 
2356.000000	99.233880 
2355.000000	99.242106 
2354.000000	99.250497 
2353.000000	99.256344 
2352.000000	99.255306 
2351.000000	99.245302 
2350.000000	99.229595 
2349.000000	99.214478 
2348.000000	99.206189 
2347.000000	99.207912 
2346.000000	99.216773 
2345.000000	99.224657 
2344.000000	99.224546 
2343.000000	99.217692 
2342.000000	99.210177 
2341.000000	99.206291 
2340.000000	99.206020 
2339.000000	99.207167 
2338.000000	99.208590 
2337.000000	99.210124 
2336.000000	99.211611 
2335.000000	99.212477 
2334.000000	99.213000 
2333.000000	99.213582 
2332.000000	99.213891 
2331.000000	99.212322 
2330.000000	99.208526 
2329.000000	99.203287 
2328.000000	99.198729 
2327.000000	99.196095 
2326.000000	99.194619 
2325.000000	99.191560 
2324.000000	99.184750 
2323.000000	99.177066 
2322.000000	99.175697 
2321.000000	99.185726 
2320.000000	99.203372 
2319.000000	99.218046 
2318.000000	99.221845 
2317.000000	99.215557 
2316.000000	99.206421 
2315.000000	99.200239 
2314.000000	99.198215 
2313.000000	99.198367 
2312.000000	99.199730 
2311.000000	99.202989 
2310.000000	99.209584 
2309.000000	99.218824 
2308.000000	99.227085 
2307.000000	99.229087 
2306.000000	99.222460 
2305.000000	99.210100 
2304.000000	99.197934 
2303.000000	99.189553 
2302.000000	99.184947 
2301.000000	99.183221 
2300.000000	99.184684 
2299.000000	99.188516 
2298.000000	99.191591 
2297.000000	99.191585 
2296.000000	99.190583 
2295.000000	99.192428 
2294.000000	99.197047 
2293.000000	99.199546 
2292.000000	99.195699 
2291.000000	99.186556 
2290.000000	99.177068 
2289.000000	99.171531 
2288.000000	99.170825 
2287.000000	99.172897 
2286.000000	99.174914 
2285.000000	99.175581 
2284.000000	99.175774 
2283.000000	99.176469 
2282.000000	99.176170 
2281.000000	99.171939 
2280.000000	99.163736 
2279.000000	99.156565 
2278.000000	99.156675 
2277.000000	99.165340 
2276.000000	99.177041 
2275.000000	99.184215 
2274.000000	99.183576 
2273.000000	99.177432 
2272.000000	99.169344 
2271.000000	99.160370 
2270.000000	99.151214 
2269.000000	99.146414 
2268.000000	99.152333 
2267.000000	99.169546 
2266.000000	99.189848 
2265.000000	99.203054 
2264.000000	99.205490 
2263.000000	99.200574 
2262.000000	99.193964 
2261.000000	99.190656 
2260.000000	99.193563 
2259.000000	99.200385 
2258.000000	99.203194 
2257.000000	99.196111 
2256.000000	99.183436 
2255.000000	99.175752 
2254.000000	99.177412 
2253.000000	99.182247 
2252.000000	99.182993 
2251.000000	99.180419 
2250.000000	99.180562 
2249.000000	99.186243 
2248.000000	99.194313 
2247.000000	99.199390 
2246.000000	99.197755 
2245.000000	99.188889 
2244.000000	99.175793 
2243.000000	99.163562 
2242.000000	99.156078 
2241.000000	99.153450 
2240.000000	99.152368 
2239.000000	99.148446 
2238.000000	99.139028 
2237.000000	99.125486 
2236.000000	99.112744 
2235.000000	99.105017 
2234.000000	99.102292 
2233.000000	99.102491 
2232.000000	99.105964 
2231.000000	99.114930 
2230.000000	99.128739 
2229.000000	99.143132 
2228.000000	99.154867 
2227.000000	99.163784 
2226.000000	99.169306 
2225.000000	99.168670 
2224.000000	99.160979 
2223.000000	99.150496 
2222.000000	99.143509 
2221.000000	99.143062 
2220.000000	99.147679 
2219.000000	99.153531 
2218.000000	99.157036 
2217.000000	99.157724 
2216.000000	99.159879 
2215.000000	99.168828 
2214.000000	99.183465 
2213.000000	99.194257 
2212.000000	99.191575 
2211.000000	99.176120 
2210.000000	99.159686 
2209.000000	99.155060 
2208.000000	99.164553 
2207.000000	99.178008 
2206.000000	99.182443 
2205.000000	99.173952 
2204.000000	99.159358 
2203.000000	99.146573 
2202.000000	99.136997 
2201.000000	99.128692 
2200.000000	99.121851 
2199.000000	99.116362 
2198.000000	99.107925 
2197.000000	99.093804 
2196.000000	99.081325 
2195.000000	99.083403 
2194.000000	99.104424 
2193.000000	99.135316 
2192.000000	99.162812 
2191.000000	99.178289 
2190.000000	99.177994 
2189.000000	99.163143 
2188.000000	99.143112 
2187.000000	99.131876 
2186.000000	99.136699 
2185.000000	99.152988 
2184.000000	99.171340 
2183.000000	99.185169 
2182.000000	99.190724 
2181.000000	99.186993 
2180.000000	99.179076 
2179.000000	99.175410 
2178.000000	99.177702 
2177.000000	99.177831 
2176.000000	99.167357 
2175.000000	99.146229 
2174.000000	99.120764 
2173.000000	99.098584 
2172.000000	99.086981 
2171.000000	99.089465 
2170.000000	99.100709 
2169.000000	99.110700 
2168.000000	99.117159 
2167.000000	99.127411 
2166.000000	99.144051 
2165.000000	99.156469 
2164.000000	99.153703 
2163.000000	99.140152 
2162.000000	99.131093 
2161.000000	99.136361 
2160.000000	99.153393 
2159.000000	99.171779 
2158.000000	99.179925 
2157.000000	99.173018 
2156.000000	99.159458 
2155.000000	99.153742 
2154.000000	99.159614 
2153.000000	99.165545 
2152.000000	99.160269 
2151.000000	99.147513 
2150.000000	99.141049 
2149.000000	99.149905 
2148.000000	99.172042 
2147.000000	99.197523 
2146.000000	99.213495 
2145.000000	99.211501 
2144.000000	99.195673 
2143.000000	99.179864 
2142.000000	99.173032 
2141.000000	99.171808 
2140.000000	99.170076 
2139.000000	99.169103 
2138.000000	99.172480 
2137.000000	99.177008 
2136.000000	99.176399 
2135.000000	99.171163 
2134.000000	99.168029 
2133.000000	99.170898 
2132.000000	99.176860 
2131.000000	99.179172 
2130.000000	99.171134 
2129.000000	99.151207 
2128.000000	99.128326 
2127.000000	99.117444 
2126.000000	99.124525 
2125.000000	99.139471 
2124.000000	99.149261 
2123.000000	99.154050 
2122.000000	99.162874 
2121.000000	99.176759 
2120.000000	99.185660 
2119.000000	99.182569 
2118.000000	99.172249 
2117.000000	99.163543 
2116.000000	99.159400 
2115.000000	99.157753 
2114.000000	99.157450 
2113.000000	99.159249 
2112.000000	99.163196 
2111.000000	99.167713 
2110.000000	99.170405 
2109.000000	99.169331 
2108.000000	99.165126 
2107.000000	99.161343 
2106.000000	99.160061 
2105.000000	99.157892 
2104.000000	99.149776 
2103.000000	99.136578 
2102.000000	99.125175 
2101.000000	99.120726 
2100.000000	99.122350 
2099.000000	99.126759 
2098.000000	99.132410 
2097.000000	99.138913 
2096.000000	99.145139 
2095.000000	99.148824 
2094.000000	99.146202 
2093.000000	99.133779 
2092.000000	99.114304 
2091.000000	99.099325 
2090.000000	99.099951 
2089.000000	99.113872 
2088.000000	99.126475 
2087.000000	99.126995 
2086.000000	99.119173 
2085.000000	99.114153 
2084.000000	99.117327 
2083.000000	99.125244 
2082.000000	99.132010 
2081.000000	99.134690 
2080.000000	99.134008 
2079.000000	99.132859 
2078.000000	99.134073 
2077.000000	99.138542 
2076.000000	99.145931 
2075.000000	99.156672 
2074.000000	99.170369 
2073.000000	99.182518 
2072.000000	99.186813 
2071.000000	99.182239 
2070.000000	99.174853 
2069.000000	99.170732 
2068.000000	99.169816 
2067.000000	99.168357 
2066.000000	99.164584 
2065.000000	99.159606 
2064.000000	99.155083 
2063.000000	99.152703 
2062.000000	99.154572 
2061.000000	99.161624 
2060.000000	99.171931 
2059.000000	99.181738 
2058.000000	99.187481 
2057.000000	99.186725 
2056.000000	99.179006 
2055.000000	99.166732 
2054.000000	99.154077 
2053.000000	99.144732 
2052.000000	99.141390 
2051.000000	99.145946 
2050.000000	99.156886 
2049.000000	99.166300 
2048.000000	99.164436 
2047.000000	99.149874 
2046.000000	99.131571 
2045.000000	99.118966 
2044.000000	99.113697 
2043.000000	99.112481 
2042.000000	99.113590 
2041.000000	99.117046 
2040.000000	99.121937 
2039.000000	99.127480 
2038.000000	99.134537 
2037.000000	99.142751 
2036.000000	99.148135 
2035.000000	99.146831 
2034.000000	99.139762 
2033.000000	99.130490 
2032.000000	99.120096 
2031.000000	99.107842 
2030.000000	99.095743 
2029.000000	99.088049 
2028.000000	99.085164 
2027.000000	99.082250 
2026.000000	99.076451 
2025.000000	99.073179 
2024.000000	99.080992 
2023.000000	99.098930 
2022.000000	99.113060 
2021.000000	99.109756 
2020.000000	99.092698 
2019.000000	99.081640 
2018.000000	99.091626 
2017.000000	99.115798 
2016.000000	99.132744 
2015.000000	99.129634 
2014.000000	99.112250 
2013.000000	99.094440 
2012.000000	99.084588 
2011.000000	99.083417 
2010.000000	99.090039 
2009.000000	99.105416 
2008.000000	99.129346 
2007.000000	99.155698 
2006.000000	99.172356 
2005.000000	99.169161 
2004.000000	99.148015 
2003.000000	99.122676 
2002.000000	99.107307 
2001.000000	99.105459 
2000.000000	99.110722 
1999.000000	99.115346 
1998.000000	99.115638 
1997.000000	99.112620 
1996.000000	99.110921 
1995.000000	99.115952 
1994.000000	99.128364 
1993.000000	99.140954 
1992.000000	99.143686 
1991.000000	99.133273 
1990.000000	99.115832 
1989.000000	99.101219 
1988.000000	99.097421 
1987.000000	99.107235 
1986.000000	99.125318 
1985.000000	99.139809 
1984.000000	99.141965 
1983.000000	99.134437 
1982.000000	99.126820 
1981.000000	99.123497 
1980.000000	99.120593 
1979.000000	99.114437 
1978.000000	99.107237 
1977.000000	99.102498 
1976.000000	99.098544 
1975.000000	99.091424 
1974.000000	99.082423 
1973.000000	99.079513 
1972.000000	99.090307 
1971.000000	99.113233 
1970.000000	99.135309 
1969.000000	99.140943 
1968.000000	99.126471 
1967.000000	99.105345 
1966.000000	99.095038 
1965.000000	99.099915 
1964.000000	99.111118 
1963.000000	99.120223 
1962.000000	99.126150 
1961.000000	99.129801 
1960.000000	99.129767 
1959.000000	99.126540 
1958.000000	99.125710 
1957.000000	99.131865 
1956.000000	99.141512 
1955.000000	99.146237 
1954.000000	99.141676 
1953.000000	99.130671 
1952.000000	99.117859 
1951.000000	99.105106 
1950.000000	99.093609 
1949.000000	99.086303 
1948.000000	99.086004 
1947.000000	99.090867 
1946.000000	99.093483 
1945.000000	99.086927 
1944.000000	99.072693 
1943.000000	99.061343 
1942.000000	99.062531 
1941.000000	99.074486 
1940.000000	99.086725 
1939.000000	99.092035 
1938.000000	99.093043 
1937.000000	99.097516 
1936.000000	99.108622 
1935.000000	99.120991 
1934.000000	99.126728 
1933.000000	99.124660 
1932.000000	99.121721 
1931.000000	99.125374 
1930.000000	99.135794 
1929.000000	99.145686 
1928.000000	99.149628 
1927.000000	99.149466 
1926.000000	99.150281 
1925.000000	99.153348 
1924.000000	99.155101 
1923.000000	99.154151 
1922.000000	99.153457 
1921.000000	99.154983 
1920.000000	99.155045 
1919.000000	99.147742 
1918.000000	99.132173 
1917.000000	99.114843 
1916.000000	99.103706 
1915.000000	99.101144 
1914.000000	99.104296 
1913.000000	99.110196 
1912.000000	99.117503 
1911.000000	99.124809 
1910.000000	99.128840 
1909.000000	99.126714 
1908.000000	99.121385 
1907.000000	99.119627 
1906.000000	99.124827 
1905.000000	99.133626 
1904.000000	99.139580 
1903.000000	99.140510 
1902.000000	99.137983 
1901.000000	99.133446 
1900.000000	99.128439 
1899.000000	99.125290 
1898.000000	99.125228 
1897.000000	99.126819 
1896.000000	99.127258 
1895.000000	99.125775 
1894.000000	99.123123 
1893.000000	99.119884 
1892.000000	99.117308 
1891.000000	99.117701 
1890.000000	99.120883 
1889.000000	99.122372 
1888.000000	99.119865 
1887.000000	99.117750 
1886.000000	99.120700 
1885.000000	99.127097 
1884.000000	99.131551 
1883.000000	99.132341 
1882.000000	99.131900 
1881.000000	99.131313 
1880.000000	99.130315 
1879.000000	99.130727 
1878.000000	99.135837 
1877.000000	99.146202 
1876.000000	99.157521 
1875.000000	99.164467 
1874.000000	99.164768 
1873.000000	99.158663 
1872.000000	99.147729 
1871.000000	99.135321 
1870.000000	99.125968 
1869.000000	99.122268 
1868.000000	99.123873 
1867.000000	99.130313 
1866.000000	99.139468 
1865.000000	99.145106 
1864.000000	99.141410 
1863.000000	99.129237 
1862.000000	99.115749 
1861.000000	99.107967 
1860.000000	99.108490 
1859.000000	99.116375 
1858.000000	99.128262 
1857.000000	99.138793 
1856.000000	99.144189 
1855.000000	99.146085 
1854.000000	99.148636 
1853.000000	99.151577 
1852.000000	99.151836 
1851.000000	99.149326 
1850.000000	99.147204 
1849.000000	99.149203 
1848.000000	99.155645 
1847.000000	99.163911 
1846.000000	99.170092 
1845.000000	99.170927 
1844.000000	99.166204 
1843.000000	99.161429 
1842.000000	99.162225 
1841.000000	99.165779 
1840.000000	99.165892 
1839.000000	99.160150 
1838.000000	99.151141 
1837.000000	99.142640 
1836.000000	99.136153 
1835.000000	99.133018 
1834.000000	99.134482 
1833.000000	99.139227 
1832.000000	99.143436 
1831.000000	99.143280 
1830.000000	99.138760 
1829.000000	99.135620 
1828.000000	99.138363 
1827.000000	99.143882 
1826.000000	99.146331 
1825.000000	99.144862 
1824.000000	99.142620 
1823.000000	99.141297 
1822.000000	99.138666 
1821.000000	99.132968 
1820.000000	99.127492 
1819.000000	99.127534 
1818.000000	99.134618 
1817.000000	99.143362 
1816.000000	99.146433 
1815.000000	99.143888 
1814.000000	99.141526 
1813.000000	99.143543 
1812.000000	99.148776 
1811.000000	99.154082 
1810.000000	99.159629 
1809.000000	99.164720 
1808.000000	99.165185 
1807.000000	99.158828 
1806.000000	99.148838 
1805.000000	99.140114 
1804.000000	99.134867 
1803.000000	99.133449 
1802.000000	99.134764 
1801.000000	99.136372 
1800.000000	99.136049 
1799.000000	99.134339 
1798.000000	99.135200 
1797.000000	99.140032 
1796.000000	99.146652 
1795.000000	99.152612 
1794.000000	99.156761 
1793.000000	99.158315 
1792.000000	99.155880 
1791.000000	99.150570 
1790.000000	99.147109 
1789.000000	99.146792 
1788.000000	99.148168 
1787.000000	99.150992 
1786.000000	99.155522 
1785.000000	99.159087 
1784.000000	99.158343 
1783.000000	99.154933 
1782.000000	99.151472 
1781.000000	99.148389 
1780.000000	99.144783 
1779.000000	99.139657 
1778.000000	99.135476 
1777.000000	99.134418 
1776.000000	99.137115 
1775.000000	99.140830 
1774.000000	99.141021 
1773.000000	99.137425 
1772.000000	99.134496 
1771.000000	99.135458 
1770.000000	99.139716 
1769.000000	99.143825 
1768.000000	99.145074 
1767.000000	99.143804 
1766.000000	99.142184 
1765.000000	99.141806 
1764.000000	99.142464 
1763.000000	99.143346 
1762.000000	99.143239 
1761.000000	99.142467 
1760.000000	99.142896 
1759.000000	99.144251 
1758.000000	99.145727 
1757.000000	99.147388 
1756.000000	99.150997 
1755.000000	99.155385 
1754.000000	99.156544 
1753.000000	99.153428 
1752.000000	99.150904 
1751.000000	99.152156 
1750.000000	99.154031 
1749.000000	99.152573 
1748.000000	99.148547 
1747.000000	99.146725 
1746.000000	99.147884 
1745.000000	99.150381 
1744.000000	99.152917 
1743.000000	99.154549 
1742.000000	99.155405 
1741.000000	99.155244 
1740.000000	99.152821 
1739.000000	99.149208 
1738.000000	99.148829 
1737.000000	99.151855 
1736.000000	99.155126 
1735.000000	99.158711 
1734.000000	99.160428 
1733.000000	99.157584 
1732.000000	99.156249 
1731.000000	99.156012 
1730.000000	99.153559 
1729.000000	99.148664 
1728.000000	99.143611 
1727.000000	99.141074 
1726.000000	99.141561 
1725.000000	99.145403 
1724.000000	99.150643 
1723.000000	99.153801 
1722.000000	99.154612 
1721.000000	99.153531 
1720.000000	99.151161 
1719.000000	99.150076 
1718.000000	99.153124 
1717.000000	99.156225 
1716.000000	99.154676 
1715.000000	99.152266 
1714.000000	99.153484 
1713.000000	99.156166 
1712.000000	99.155010 
1711.000000	99.150051 
1710.000000	99.145652 
1709.000000	99.144014 
1708.000000	99.144108 
1707.000000	99.144329 
1706.000000	99.144532 
1705.000000	99.143867 
1704.000000	99.141914 
1703.000000	99.139972 
1702.000000	99.138735 
1701.000000	99.138399 
1700.000000	99.133124 
1699.000000	99.127422 
1698.000000	99.133621 
1697.000000	99.144152 
1696.000000	99.147486 
1695.000000	99.140918 
1694.000000	99.134810 
1693.000000	99.133069 
1692.000000	99.129799 
1691.000000	99.124951 
1690.000000	99.122615 
1689.000000	99.123839 
1688.000000	99.127653 
1687.000000	99.131104 
1686.000000	99.133238 
1685.000000	99.136941 
1684.000000	99.137652 
1683.000000	99.133672 
1682.000000	99.132475 
1681.000000	99.130415 
1680.000000	99.125939 
1679.000000	99.122255 
1678.000000	99.119365 
1677.000000	99.115456 
1676.000000	99.111905 
1675.000000	99.111520 
1674.000000	99.114578 
1673.000000	99.120506 
1672.000000	99.126078 
1671.000000	99.128804 
1670.000000	99.128024 
1669.000000	99.122267 
1668.000000	99.116273 
1667.000000	99.114153 
1666.000000	99.113283 
1665.000000	99.110990 
1664.000000	99.108047 
1663.000000	99.106938 
1662.000000	99.106987 
1661.000000	99.106609 
1660.000000	99.107941 
1659.000000	99.111499 
1658.000000	99.115093 
1657.000000	99.116685 
1656.000000	99.116415 
1655.000000	99.115355 
1654.000000	99.118490 
1653.000000	99.117938 
1652.000000	99.107971 
1651.000000	99.109995 
1650.000000	99.116105 
1649.000000	99.115757 
1648.000000	99.113383 
1647.000000	99.112240 
1646.000000	99.110921 
1645.000000	99.111943 
1644.000000	99.116225 
1643.000000	99.120574 
1642.000000	99.122336 
1641.000000	99.120255 
1640.000000	99.115852 
1639.000000	99.111030 
1638.000000	99.107789 
1637.000000	99.108358 
1636.000000	99.112770 
1635.000000	99.115432 
1634.000000	99.116091 
1633.000000	99.117334 
1632.000000	99.114827 
1631.000000	99.108916 
1630.000000	99.103216 
1629.000000	99.100079 
1628.000000	99.099606 
1627.000000	99.101460 
1626.000000	99.104082 
1625.000000	99.105490 
1624.000000	99.105898 
1623.000000	99.106685 
1622.000000	99.108534 
1621.000000	99.111445 
1620.000000	99.114918 
1619.000000	99.117431 
1618.000000	99.118877 
1617.000000	99.118920 
1616.000000	99.118295 
1615.000000	99.120821 
1614.000000	99.125687 
1613.000000	99.128946 
1612.000000	99.131581 
1611.000000	99.136637 
1610.000000	99.141747 
1609.000000	99.142052 
1608.000000	99.138289 
1607.000000	99.135504 
1606.000000	99.134958 
1605.000000	99.134573 
1604.000000	99.134871 
1603.000000	99.136684 
1602.000000	99.139217 
1601.000000	99.141424 
1600.000000	99.143767 
1599.000000	99.146603 
1598.000000	99.148732 
1597.000000	99.149536 
1596.000000	99.149926 
1595.000000	99.150471 
1594.000000	99.150198 
1593.000000	99.148803 
1592.000000	99.148490 
1591.000000	99.151092 
1590.000000	99.154833 
1589.000000	99.156673 
1588.000000	99.156921 
1587.000000	99.158341 
1586.000000	99.161547 
1585.000000	99.163809 
1584.000000	99.164622 
1583.000000	99.165273 
1582.000000	99.164129 
1581.000000	99.159817 
1580.000000	99.154389 
1579.000000	99.150210 
1578.000000	99.147343 
1577.000000	99.146693 
1576.000000	99.147668 
1575.000000	99.149119 
1574.000000	99.150822 
1573.000000	99.150573 
1572.000000	99.148633 
1571.000000	99.149373 
1570.000000	99.154370 
1569.000000	99.158524 
1568.000000	99.160656 
1567.000000	99.161502 
1566.000000	99.158731 
1565.000000	99.152843 
1564.000000	99.148656 
1563.000000	99.148250 
1562.000000	99.147582 
1561.000000	99.142822 
1560.000000	99.143136 
1559.000000	99.150476 
1558.000000	99.148315 
1557.000000	99.148490 
1556.000000	99.154690 
1555.000000	99.158561 
1554.000000	99.157803 
1553.000000	99.154473 
1552.000000	99.151633 
1551.000000	99.148672 
1550.000000	99.146353 
1549.000000	99.145602 
1548.000000	99.145721 
1547.000000	99.144751 
1546.000000	99.140542 
1545.000000	99.135121 
1544.000000	99.132665 
1543.000000	99.135426 
1542.000000	99.143718 
1541.000000	99.155961 
1540.000000	99.162060 
1539.000000	99.156737 
1538.000000	99.152284 
1537.000000	99.153835 
1536.000000	99.155171 
1535.000000	99.155661 
1534.000000	99.155614 
1533.000000	99.152581 
1532.000000	99.147406 
1531.000000	99.143659 
1530.000000	99.142715 
1529.000000	99.143204 
1528.000000	99.143251 
1527.000000	99.142859 
1526.000000	99.143137 
1525.000000	99.144913 
1524.000000	99.147902 
1523.000000	99.151611 
1522.000000	99.156682 
1521.000000	99.159539 
1520.000000	99.156994 
1519.000000	99.150537 
1518.000000	99.141482 
1517.000000	99.133814 
1516.000000	99.130276 
1515.000000	99.129913 
1514.000000	99.130111 
1513.000000	99.129788 
1512.000000	99.129359 
1511.000000	99.127844 
1510.000000	99.124855 
1509.000000	99.121841 
1508.000000	99.125197 
1507.000000	99.135802 
1506.000000	99.140303 
1505.000000	99.137450 
1504.000000	99.136459 
1503.000000	99.136718 
1502.000000	99.138060 
1501.000000	99.140947 
1500.000000	99.142920 
1499.000000	99.140931 
1498.000000	99.135820 
1497.000000	99.131376 
1496.000000	99.127818 
1495.000000	99.126077 
1494.000000	99.128837 
1493.000000	99.135140 
1492.000000	99.142382 
1491.000000	99.148971 
1490.000000	99.153390 
1489.000000	99.152840 
1488.000000	99.145673 
1487.000000	99.135140 
1486.000000	99.126510 
1485.000000	99.119624 
1484.000000	99.114031 
1483.000000	99.111526 
1482.000000	99.113680 
1481.000000	99.119148 
1480.000000	99.122822 
1479.000000	99.121998 
1478.000000	99.118046 
1477.000000	99.114147 
1476.000000	99.111358 
1475.000000	99.110839 
1474.000000	99.114002 
1473.000000	99.119876 
1472.000000	99.124157 
1471.000000	99.125003 
1470.000000	99.125289 
1469.000000	99.125118 
1468.000000	99.123050 
1467.000000	99.119829 
1466.000000	99.117656 
1465.000000	99.117210 
1464.000000	99.117946 
1463.000000	99.118567 
1462.000000	99.118335 
1461.000000	99.116516 
1460.000000	99.113222 
1459.000000	99.109237 
1458.000000	99.104972 
1457.000000	99.098268 
1456.000000	99.089257 
1455.000000	99.084592 
1454.000000	99.083858 
1453.000000	99.085060 
1452.000000	99.089388 
1451.000000	99.095446 
1450.000000	99.100261 
1449.000000	99.101987 
1448.000000	99.100470 
1447.000000	99.098058 
1446.000000	99.096794 
1445.000000	99.097139 
1444.000000	99.098657 
1443.000000	99.098961 
1442.000000	99.098323 
1441.000000	99.099144 
1440.000000	99.102439 
1439.000000	99.105474 
1438.000000	99.106960 
1437.000000	99.108375 
1436.000000	99.108973 
1435.000000	99.107409 
1434.000000	99.103747 
1433.000000	99.098887 
1432.000000	99.094841 
1431.000000	99.093095 
1430.000000	99.093054 
1429.000000	99.093368 
1428.000000	99.091963 
1427.000000	99.088530 
1426.000000	99.083496 
1425.000000	99.078896 
1424.000000	99.077258 
1423.000000	99.076283 
1422.000000	99.072673 
1421.000000	99.066099 
1420.000000	99.059536 
1419.000000	99.053931 
1418.000000	99.048322 
1417.000000	99.043652 
1416.000000	99.038608 
1415.000000	99.030918 
1414.000000	99.021059 
1413.000000	99.012112 
1412.000000	99.006163 
1411.000000	99.001483 
1410.000000	98.995928 
1409.000000	98.990369 
1408.000000	98.986357 
1407.000000	98.984929 
1406.000000	98.985732 
1405.000000	98.987882 
1404.000000	98.991741 
1403.000000	98.997441 
1402.000000	99.005245 
1401.000000	99.015313 
1400.000000	99.026834 
1399.000000	99.035928 
1398.000000	99.037434 
1397.000000	99.028520 
1396.000000	99.009705 
1395.000000	98.988249 
1394.000000	98.976799 
1393.000000	98.983897 
1392.000000	99.005400 
1391.000000	99.028594 
1390.000000	99.043853 
1389.000000	99.049273 
1388.000000	99.047644 
1387.000000	99.042180 
1386.000000	99.035873 
1385.000000	99.031588 
1384.000000	99.030341 
1383.000000	99.029958 
1382.000000	99.028073 
1381.000000	99.025225 
1380.000000	99.024693 
1379.000000	99.029240 
1378.000000	99.037766 
1377.000000	99.046516 
1376.000000	99.052813 
1375.000000	99.056833 
1374.000000	99.059901 
1373.000000	99.063546 
1372.000000	99.068842 
1371.000000	99.075482 
1370.000000	99.081691 
1369.000000	99.086016 
1368.000000	99.088950 
1367.000000	99.091478 
1366.000000	99.094334 
1365.000000	99.098031 
1364.000000	99.102993 
1363.000000	99.108318 
1362.000000	99.111573 
1361.000000	99.111452 
1360.000000	99.109661 
1359.000000	99.109454 
1358.000000	99.112952 
1357.000000	99.119478 
1356.000000	99.125969 
1355.000000	99.129484 
1354.000000	99.130143 
1353.000000	99.130683 
1352.000000	99.132545 
1351.000000	99.134815 
1350.000000	99.135906 
1349.000000	99.135969 
1348.000000	99.136827 
1347.000000	99.138643 
1346.000000	99.139885 
1345.000000	99.139542 
1344.000000	99.138261 
1343.000000	99.136764 
1342.000000	99.135374 
1341.000000	99.135278 
1340.000000	99.138296 
1339.000000	99.143976 
1338.000000	99.149214 
1337.000000	99.152010 
1336.000000	99.153228 
1335.000000	99.154092 
1334.000000	99.154106 
1333.000000	99.152344 
1332.000000	99.149449 
1331.000000	99.146948 
1330.000000	99.145203 
1329.000000	99.143545 
1328.000000	99.141818 
1327.000000	99.140466 
1326.000000	99.139228 
1325.000000	99.137569 
1324.000000	99.136236 
1323.000000	99.136527 
1322.000000	99.138597 
1321.000000	99.141377 
1320.000000	99.144206 
1319.000000	99.147241 
1318.000000	99.150156 
1317.000000	99.151427 
1316.000000	99.149668 
1315.000000	99.145358 
1314.000000	99.140772 
1313.000000	99.138119 
1312.000000	99.137719 
1311.000000	99.138141 
1310.000000	99.137926 
1309.000000	99.136881 
1308.000000	99.135678 
1307.000000	99.134920 
1306.000000	99.134703 
1305.000000	99.134974 
1304.000000	99.135752 
1303.000000	99.136685 
1302.000000	99.137155 
1301.000000	99.136764 
1300.000000	99.135677 
1299.000000	99.134517 
1298.000000	99.134287 
1297.000000	99.135779 
1296.000000	99.138481 
1295.000000	99.140376 
1294.000000	99.139657 
1293.000000	99.136686 
1292.000000	99.133478 
1291.000000	99.131487 
1290.000000	99.130654 
1289.000000	99.130371 
1288.000000	99.130151 
1287.000000	99.129127 
1286.000000	99.126148 
1285.000000	99.121156 
1284.000000	99.115622 
1283.000000	99.110993 
1282.000000	99.107313 
1281.000000	99.103811 
1280.000000	99.100213 
1279.000000	99.096658 
1278.000000	99.093026 
1277.000000	99.089418 
1276.000000	99.086893 
1275.000000	99.086488 
1274.000000	99.087342 
1273.000000	99.086862 
1272.000000	99.083156 
1271.000000	99.076889 
1270.000000	99.070478 
1269.000000	99.065807 
1268.000000	99.062818 
1267.000000	99.059771 
1266.000000	99.054781 
1265.000000	99.047672 
1264.000000	99.040309 
1263.000000	99.034680 
1262.000000	99.030678 
1261.000000	99.026516 
1260.000000	99.021464 
1259.000000	99.016902 
1258.000000	99.014004 
1257.000000	99.011723 
1256.000000	99.008371 
1255.000000	99.004541 
1254.000000	99.002672 
1253.000000	99.003593 
1252.000000	99.005146 
1251.000000	99.005057 
1250.000000	99.003887 
1249.000000	99.003985 
1248.000000	99.006263 
1247.000000	99.009062 
1246.000000	99.009604 
1245.000000	99.005444 
1244.000000	98.995413 
1243.000000	98.981445 
1242.000000	98.969431 
1241.000000	98.965622 
1240.000000	98.970754 
1239.000000	98.978929 
1238.000000	98.983342 
1237.000000	98.982100 
1236.000000	98.977591 
1235.000000	98.972116 
1234.000000	98.966315 
1233.000000	98.960671 
1232.000000	98.955677 
1231.000000	98.950264 
1230.000000	98.942542 
1229.000000	98.933052 
1228.000000	98.925398 
1227.000000	98.922297 
1226.000000	98.922135 
1225.000000	98.920870 
1224.000000	98.916640 
1223.000000	98.911062 
1222.000000	98.906316 
1221.000000	98.902496 
1220.000000	98.898234 
1219.000000	98.892777 
1218.000000	98.886602 
1217.000000	98.880317 
1216.000000	98.873617 
1215.000000	98.865484 
1214.000000	98.855111 
1213.000000	98.842579 
1212.000000	98.828848 
1211.000000	98.815449 
1210.000000	98.804039 
1209.000000	98.795586 
1208.000000	98.789404 
1207.000000	98.783063 
1206.000000	98.773905 
1205.000000	98.761134 
1204.000000	98.746444 
1203.000000	98.732583 
1202.000000	98.721253 
1201.000000	98.712111 
1200.000000	98.703423 
1199.000000	98.693597 
1198.000000	98.682382 
1197.000000	98.670552 
1196.000000	98.658212 
1195.000000	98.643964 
1194.000000	98.626680 
1193.000000	98.607951 
1192.000000	98.591406 
1191.000000	98.578794 
1190.000000	98.567670 
1189.000000	98.554084 
1188.000000	98.537137 
1187.000000	98.519835 
1186.000000	98.505681 
1185.000000	98.495388 
1184.000000	98.486787 
1183.000000	98.476811 
1182.000000	98.463481 
1181.000000	98.447031 
1180.000000	98.429590 
1179.000000	98.413205 
1178.000000	98.397993 
1177.000000	98.382682 
1176.000000	98.366601 
1175.000000	98.349944 
1174.000000	98.332031 
1173.000000	98.311012 
1172.000000	98.286357 
1171.000000	98.260658 
1170.000000	98.237674 
1169.000000	98.218760 
1168.000000	98.202106 
1167.000000	98.185420 
1166.000000	98.168901 
1165.000000	98.155710 
1164.000000	98.149813 
1163.000000	98.153009 
1162.000000	98.163546 
1161.000000	98.177571 
1160.000000	98.191618 
1159.000000	98.203099 
1158.000000	98.208776 
1157.000000	98.204479 
1156.000000	98.187887 
1155.000000	98.161926 
1154.000000	98.134491 
1153.000000	98.113435 
1152.000000	98.100886 
1151.000000	98.092088 
1150.000000	98.080083 
1149.000000	98.062030 
1148.000000	98.040970 
1147.000000	98.021578 
1146.000000	98.005028 
1145.000000	97.988586 
1144.000000	97.969338 
1143.000000	97.946955 
1142.000000	97.923258 
1141.000000	97.900745 
1140.000000	97.881760 
1139.000000	97.867324 
1138.000000	97.855684 
1137.000000	97.843013 
1136.000000	97.826473 
1135.000000	97.806065 
1134.000000	97.783092 
1133.000000	97.757941 
1132.000000	97.730509 
1131.000000	97.702235 
1130.000000	97.676190 
1129.000000	97.654582 
1128.000000	97.636378 
1127.000000	97.617610 
1126.000000	97.594439 
1125.000000	97.566611 
1124.000000	97.537886 
1123.000000	97.512412 
1122.000000	97.490633 
1121.000000	97.469466 
1120.000000	97.446304 
1119.000000	97.421506 
1118.000000	97.396682 
1117.000000	97.372000 
1116.000000	97.346311 
1115.000000	97.319259 
1114.000000	97.292298 
1113.000000	97.267681 
1112.000000	97.246531 
1111.000000	97.227375 
1110.000000	97.206585 
1109.000000	97.181560 
1108.000000	97.153892 
1107.000000	97.128433 
1106.000000	97.108328 
1105.000000	97.091410 
1104.000000	97.072303 
1103.000000	97.047899 
1102.000000	97.020433 
1101.000000	96.995388 
1100.000000	96.976650 
1099.000000	96.963644 
1098.000000	96.952808 
1097.000000	96.941205 
1096.000000	96.928041 
1095.000000	96.913014 
1094.000000	96.894877 
1093.000000	96.872273 
1092.000000	96.844736 
1091.000000	96.812355 
1090.000000	96.776117 
1089.000000	96.739519 
1088.000000	96.707735 
1087.000000	96.683096 
1086.000000	96.662709 
1085.000000	96.642641 
1084.000000	96.622916 
1083.000000	96.605685 
1082.000000	96.589863 
1081.000000	96.571195 
1080.000000	96.547543 
1079.000000	96.521059 
1078.000000	96.495006 
1077.000000	96.471346 
1076.000000	96.451803 
1075.000000	96.438204 
1074.000000	96.430301 
1073.000000	96.424734 
1072.000000	96.416328 
1071.000000	96.398914 
1070.000000	96.366396 
1069.000000	96.317154 
1068.000000	96.258644 
1067.000000	96.204811 
1066.000000	96.166331 
1065.000000	96.143595 
1064.000000	96.129095 
1063.000000	96.114091 
1062.000000	96.092317 
1061.000000	96.060588 
1060.000000	96.019179 
1059.000000	95.972057 
1058.000000	95.925475 
1057.000000	95.885055 
1056.000000	95.852777 
1055.000000	95.825651 
1054.000000	95.798068 
1053.000000	95.766973 
1052.000000	95.734311 
1051.000000	95.703117 
1050.000000	95.672432 
1049.000000	95.638351 
1048.000000	95.598918 
1047.000000	95.555656 
1046.000000	95.511631 
1045.000000	95.470104 
1044.000000	95.433329 
1043.000000	95.400179 
1042.000000	95.366579 
1041.000000	95.330759 
1040.000000	95.296267 
1039.000000	95.267340 
1038.000000	95.243731 
1037.000000	95.223455 
1036.000000	95.207943 
1035.000000	95.199864 
1034.000000	95.197635 
1033.000000	95.196571 
1032.000000	95.193968 
1031.000000	95.188954 
1030.000000	95.179943 
1029.000000	95.168018 
1028.000000	95.161097 
1027.000000	95.167738 
1026.000000	95.186027 
1025.000000	95.204111 
1024.000000	95.212458 
1023.000000	95.211041 
1022.000000	95.204926 
1021.000000	95.198461 
1020.000000	95.194725 
1019.000000	95.195322 
1018.000000	95.198511 
1017.000000	95.201015 
1016.000000	95.202554 
1015.000000	95.205102 
1014.000000	95.207602 
1013.000000	95.205944 
1012.000000	95.199125 
1011.000000	95.191375 
1010.000000	95.187202 
1009.000000	95.187975 
1008.000000	95.193931 
1007.000000	95.205298 
1006.000000	95.220218 
1005.000000	95.235441 
1004.000000	95.250390 
1003.000000	95.267359 
1002.000000	95.287008 
1001.000000	95.307024 
1000.000000	95.325731 
999.000000	 95.343472 
998.000000	 95.359978 
997.000000	 95.374323 
996.000000	 95.388424 
995.000000	 95.406705 
994.000000	 95.430733 
993.000000	 95.457185 
992.000000	 95.482223 
991.000000	 95.504884 
990.000000	 95.525582 
989.000000	 95.544803 
988.000000	 95.564561 
987.000000	 95.587924 
986.000000	 95.615428 
985.000000	 95.644367 
984.000000	 95.672771 
983.000000	 95.701793 
982.000000	 95.733307 
981.000000	 95.767567 
980.000000	 95.804213 
979.000000	 95.843635 
978.000000	 95.886538 
977.000000	 95.933472 
976.000000	 95.984357 
975.000000	 96.036608 
974.000000	 96.084891 
973.000000	 96.125907 
972.000000	 96.163121 
971.000000	 96.203696 
970.000000	 96.250721 
969.000000	 96.301122 
968.000000	 96.350831 
967.000000	 96.398532 
966.000000	 96.444185 
965.000000	 96.487387 
964.000000	 96.528279 
963.000000	 96.567629 
962.000000	 96.605382 
961.000000	 96.641145 
960.000000	 96.675903 
959.000000	 96.710607 
958.000000	 96.743320 
957.000000	 96.771048 
956.000000	 96.794676 
955.000000	 96.818762 
954.000000	 96.845640 
953.000000	 96.872893 
952.000000	 96.897621 
951.000000	 96.919912 
950.000000	 96.940560 
949.000000	 96.958472 
948.000000	 96.972545 
947.000000	 96.983935 
946.000000	 96.994312 
945.000000	 97.003407 
944.000000	 97.010181 
943.000000	 97.015387 
942.000000	 97.021481 
941.000000	 97.030586 
940.000000	 97.042907 
939.000000	 97.055932 
938.000000	 97.065178 
937.000000	 97.068035 
936.000000	 97.067693 
935.000000	 97.071222 
934.000000	 97.082593 
933.000000	 97.099243 
932.000000	 97.116275 
931.000000	 97.131644 
930.000000	 97.145681 
929.000000	 97.157661 
928.000000	 97.165297 
927.000000	 97.167249 
926.000000	 97.164843 
925.000000	 97.161574 
924.000000	 97.161402 
923.000000	 97.166458 
922.000000	 97.175363 
921.000000	 97.184208 
920.000000	 97.189493 
919.000000	 97.189767 
918.000000	 97.185335 
917.000000	 97.178218 
916.000000	 97.172124 
915.000000	 97.170092 
914.000000	 97.171481 
913.000000	 97.173324 
912.000000	 97.175343 
911.000000	 97.181662 
910.000000	 97.196760 
909.000000	 97.221592 
908.000000	 97.254065 
907.000000	 97.290561 
906.000000	 97.325774 
905.000000	 97.354189 
904.000000	 97.374734 
903.000000	 97.393212 
902.000000	 97.417965 
901.000000	 97.452637 
900.000000	 97.493554 
899.000000	 97.533279 
898.000000	 97.565996 
897.000000	 97.590421 
896.000000	 97.608947 
895.000000	 97.624758 
894.000000	 97.639952 
893.000000	 97.656044 
892.000000	 97.674958 
891.000000	 97.698247 
890.000000	 97.725681 
889.000000	 97.755517 
888.000000	 97.785414 
887.000000	 97.812140 
886.000000	 97.832164 
885.000000	 97.845200 
884.000000	 97.856329 
883.000000	 97.871404 
882.000000	 97.890056 
881.000000	 97.906534 
880.000000	 97.918483 
879.000000	 97.931313 
878.000000	 97.951293 
877.000000	 97.976773 
876.000000	 97.999419 
875.000000	 98.012921 
874.000000	 98.017982 
873.000000	 98.019834 
872.000000	 98.023805 
871.000000	 98.033338 
870.000000	 98.049687 
869.000000	 98.072275 
868.000000	 98.099604 
867.000000	 98.129297 
866.000000	 98.157089 
865.000000	 98.178125 
864.000000	 98.191805 
863.000000	 98.204300 
862.000000	 98.222827 
861.000000	 98.246745 
860.000000	 98.267330 
859.000000	 98.277755 
858.000000	 98.280717 
857.000000	 98.284236 
856.000000	 98.292516 
855.000000	 98.304099 
854.000000	 98.316661 
853.000000	 98.328916 
852.000000	 98.338214 
851.000000	 98.341615 
850.000000	 98.341433 
849.000000	 98.345483 
848.000000	 98.358398 
847.000000	 98.374956 
846.000000	 98.385177 
845.000000	 98.384662 
844.000000	 98.377291 
843.000000	 98.369564 
842.000000	 98.365528 
841.000000	 98.365604 
840.000000	 98.366144 
839.000000	 98.360468 
838.000000	 98.344775 
837.000000	 98.324065 
836.000000	 98.308500 
835.000000	 98.302502 
834.000000	 98.300811 
833.000000	 98.297302 
832.000000	 98.293987 
831.000000	 98.297264 
830.000000	 98.307230 
829.000000	 98.315638 
828.000000	 98.315241 
827.000000	 98.307657 
826.000000	 98.300151 
825.000000	 98.296845 
824.000000	 98.295899 
823.000000	 98.294818 
822.000000	 98.295440 
821.000000	 98.301629 
820.000000	 98.313291 
819.000000	 98.325415 
818.000000	 98.333547 
817.000000	 98.337895 
816.000000	 98.339945 
815.000000	 98.336941 
814.000000	 98.323715 
813.000000	 98.300098 
812.000000	 98.272168 
811.000000	 98.243907 
810.000000	 98.210562 
809.000000	 98.163208 
808.000000	 98.098193 
807.000000	 98.019557 
806.000000	 97.933595 
805.000000	 97.844323 
804.000000	 97.754691 
803.000000	 97.669800 
802.000000	 97.597224 
801.000000	 97.543974 
800.000000	 97.512352 
799.000000	 97.498136 
798.000000	 97.494507 
797.000000	 97.498991 
796.000000	 97.514147 
795.000000	 97.539980 
794.000000	 97.569477 
793.000000	 97.594868 
792.000000	 97.615088 
791.000000	 97.633310 
790.000000	 97.650146 
789.000000	 97.663236 
788.000000	 97.670353 
787.000000	 97.668012 
786.000000	 97.649963 
785.000000	 97.613461 
784.000000	 97.566312 
783.000000	 97.522158 
782.000000	 97.488672 
781.000000	 97.464743 
780.000000	 97.447971 
779.000000	 97.438496 
778.000000	 97.435545 
777.000000	 97.437461 
776.000000	 97.447143 
775.000000	 97.471005 
774.000000	 97.509097 
773.000000	 97.550986 
772.000000	 97.585159 
771.000000	 97.609752 
770.000000	 97.631660 
769.000000	 97.657258 
768.000000	 97.685805 
767.000000	 97.710403 
766.000000	 97.724568 
765.000000	 97.729311 
764.000000	 97.733240 
763.000000	 97.743131 
762.000000	 97.755184 
761.000000	 97.759366 
760.000000	 97.752412 
759.000000	 97.742486 
758.000000	 97.740163 
757.000000	 97.748103 
756.000000	 97.759784 
755.000000	 97.764693 
754.000000	 97.755417 
753.000000	 97.735466 
752.000000	 97.721407 
751.000000	 97.731429 
750.000000	 97.767449 
749.000000	 97.811120 
748.000000	 97.840231 
747.000000	 97.847334 
746.000000	 97.842276 
745.000000	 97.840755 
744.000000	 97.852376 
743.000000	 97.875818 
742.000000	 97.901952 
741.000000	 97.923389 
740.000000	 97.942500 
739.000000	 97.967619 
738.000000	 98.000169 
737.000000	 98.028976 
736.000000	 98.039875 
735.000000	 98.029322 
734.000000	 98.007470 
733.000000	 97.989882 
732.000000	 97.987059 
731.000000	 97.998896 
730.000000	 98.016926 
729.000000	 98.033406 
728.000000	 98.048506 
727.000000	 98.065816 
726.000000	 98.081968 
725.000000	 98.087216 
724.000000	 98.078191 
723.000000	 98.064120 
722.000000	 98.056969 
721.000000	 98.060289 
720.000000	 98.071399 
719.000000	 98.088768 
718.000000	 98.110579 
717.000000	 98.129316 
716.000000	 98.135196 
715.000000	 98.125821 
714.000000	 98.109030 
713.000000	 98.096233 
712.000000	 98.095213 
711.000000	 98.107071 
710.000000	 98.125615 
709.000000	 98.140235 
708.000000	 98.143136 
707.000000	 98.134297 
706.000000	 98.117490 
705.000000	 98.093862 
704.000000	 98.063654 
703.000000	 98.032283 
702.000000	 98.008734 
701.000000	 97.995613 
700.000000	 97.983586 
699.000000	 97.958854 
698.000000	 97.916696 
697.000000	 97.867733 
696.000000	 97.830419 
695.000000	 97.815994 
694.000000	 97.821299 
693.000000	 97.836681 
692.000000	 97.857770 
691.000000	 97.886160 
690.000000	 97.920559 
689.000000	 97.954306 
688.000000	 97.983030 
687.000000	 98.007828 
686.000000	 98.027799 
685.000000	 98.035764 
684.000000	 98.027005 
683.000000	 98.008825 
682.000000	 97.995977 
681.000000	 97.997296 
680.000000	 98.008250 
679.000000	 98.015849 
678.000000	 98.011429 
677.000000	 98.001082 
676.000000	 98.002825 
675.000000	 98.026452 
674.000000	 98.056194 
673.000000	 98.063707 
672.000000	 98.041005 
671.000000	 98.013684 
670.000000	 98.019994 
669.000000	 98.084364 
668.000000	 98.173575 
667.000000	 98.213342 
666.000000	 98.191255 
665.000000	 98.144140 
664.000000	 98.102309 
663.000000	 98.091416 
662.000000	 98.115767 
661.000000	 98.143857 
660.000000	 98.138364 
659.000000	 98.097252 
658.000000	 98.050853 
657.000000	 98.023764 
656.000000	 98.017665 
655.000000	 98.026805 
654.000000	 98.047708 
653.000000	 98.073092 
652.000000	 98.091909 
651.000000	 98.097881 
650.000000	 98.091403 

