4000.000000	99.746923 
3999.000000	99.748311 
3998.000000	99.747715 
3997.000000	99.746729 
3996.000000	99.746603 
3995.000000	99.747285 
3994.000000	99.747827 
3993.000000	99.747627 
3992.000000	99.747054 
3991.000000	99.746769 
3990.000000	99.746763 
3989.000000	99.746358 
3988.000000	99.745099 
3987.000000	99.743436 
3986.000000	99.742395 
3985.000000	99.742567 
3984.000000	99.743405 
3983.000000	99.743624 
3982.000000	99.742442 
3981.000000	99.740314 
3980.000000	99.738405 
3979.000000	99.737602 
3978.000000	99.738289 
3977.000000	99.740711 
3976.000000	99.744763 
3975.000000	99.749271 
3974.000000	99.752126 
3973.000000	99.751716 
3972.000000	99.748192 
3971.000000	99.743200 
3970.000000	99.738673 
3969.000000	99.735959 
3968.000000	99.735543 
3967.000000	99.737042 
3966.000000	99.739477 
3965.000000	99.741901 
3964.000000	99.743765 
3963.000000	99.744628 
3962.000000	99.743744 
3961.000000	99.740507 
3960.000000	99.735447 
3959.000000	99.730401 
3958.000000	99.727332 
3957.000000	99.726894 
3956.000000	99.728247 
3955.000000	99.730311 
3954.000000	99.733031 
3953.000000	99.737063 
3952.000000	99.742214 
3951.000000	99.746652 
3950.000000	99.748389 
3949.000000	99.747483 
3948.000000	99.746087 
3947.000000	99.746078 
3946.000000	99.747220 
3945.000000	99.747763 
3944.000000	99.746407 
3943.000000	99.743534 
3942.000000	99.740673 
3941.000000	99.739128 
3940.000000	99.739301 
3939.000000	99.740784 
3938.000000	99.742832 
3937.000000	99.744932 
3936.000000	99.746987 
3935.000000	99.748929 
3934.000000	99.750261 
3933.000000	99.750418 
3932.000000	99.749649 
3931.000000	99.749167 
3930.000000	99.750111 
3929.000000	99.752309 
3928.000000	99.754135 
3927.000000	99.753657 
3926.000000	99.750210 
3925.000000	99.745131 
3924.000000	99.740599 
3923.000000	99.737779 
3922.000000	99.736410 
3921.000000	99.735779 
3920.000000	99.735534 
3919.000000	99.735815 
3918.000000	99.737133 
3917.000000	99.740171 
3916.000000	99.745095 
3915.000000	99.750776 
3914.000000	99.755010 
3913.000000	99.755974 
3912.000000	99.753803 
3911.000000	99.750525 
3910.000000	99.748286 
3909.000000	99.747511 
3908.000000	99.746679 
3907.000000	99.743906 
3906.000000	99.739041 
3905.000000	99.734577 
3904.000000	99.733904 
3903.000000	99.738031 
3902.000000	99.745022 
3901.000000	99.752422 
3900.000000	99.758744 
3899.000000	99.763002 
3898.000000	99.764367 
3897.000000	99.762953 
3896.000000	99.760026 
3895.000000	99.756751 
3894.000000	99.753446 
3893.000000	99.750711 
3892.000000	99.750422 
3891.000000	99.753371 
3890.000000	99.757095 
3889.000000	99.758022 
3888.000000	99.754921 
3887.000000	99.750227 
3886.000000	99.747820 
3885.000000	99.747919 
3884.000000	99.746371 
3883.000000	99.740391 
3882.000000	99.733113 
3881.000000	99.731600 
3880.000000	99.738795 
3879.000000	99.748715 
3878.000000	99.753470 
3877.000000	99.751689 
3876.000000	99.748461 
3875.000000	99.749334 
3874.000000	99.754524 
3873.000000	99.759088 
3872.000000	99.758910 
3871.000000	99.755509 
3870.000000	99.753591 
3869.000000	99.754182 
3868.000000	99.753923 
3867.000000	99.750495 
3866.000000	99.745183 
3865.000000	99.741488 
3864.000000	99.741874 
3863.000000	99.745148 
3862.000000	99.748373 
3861.000000	99.750697 
3860.000000	99.754203 
3859.000000	99.761560 
3858.000000	99.773013 
3857.000000	99.784970 
3856.000000	99.791950 
3855.000000	99.791057 
3854.000000	99.785939 
3853.000000	99.781469 
3852.000000	99.776171 
3851.000000	99.768062 
3850.000000	99.759202 
3849.000000	99.752415 
3848.000000	99.748848 
3847.000000	99.747934 
3846.000000	99.748784 
3845.000000	99.751910 
3844.000000	99.758815 
3843.000000	99.769069 
3842.000000	99.778777 
3841.000000	99.782896 
3840.000000	99.779601 
3839.000000	99.772666 
3838.000000	99.767690 
3837.000000	99.765823 
3836.000000	99.763580 
3835.000000	99.757972 
3834.000000	99.749602 
3833.000000	99.741865 
3832.000000	99.737964 
3831.000000	99.738078 
3830.000000	99.739683 
3829.000000	99.740892 
3828.000000	99.742998 
3827.000000	99.748908 
3826.000000	99.759058 
3825.000000	99.769778 
3824.000000	99.776050 
3823.000000	99.775718 
3822.000000	99.771940 
3821.000000	99.770093 
3820.000000	99.770585 
3819.000000	99.769198 
3818.000000	99.763782 
3817.000000	99.757479 
3816.000000	99.755008 
3815.000000	99.756113 
3814.000000	99.757025 
3813.000000	99.756927 
3812.000000	99.758264 
3811.000000	99.762469 
3810.000000	99.767626 
3809.000000	99.770780 
3808.000000	99.772096 
3807.000000	99.774607 
3806.000000	99.779234 
3805.000000	99.783048 
3804.000000	99.782499 
3803.000000	99.776985 
3802.000000	99.769916 
3801.000000	99.763674 
3800.000000	99.756154 
3799.000000	99.746109 
3798.000000	99.736757 
3797.000000	99.732798 
3796.000000	99.735369 
3795.000000	99.740462 
3794.000000	99.743157 
3793.000000	99.742068 
3792.000000	99.739261 
3791.000000	99.737381 
3790.000000	99.737322 
3789.000000	99.738060 
3788.000000	99.738150 
3787.000000	99.737311 
3786.000000	99.736778 
3785.000000	99.737984 
3784.000000	99.740759 
3783.000000	99.743406 
3782.000000	99.744743 
3781.000000	99.745521 
3780.000000	99.747416 
3779.000000	99.750182 
3778.000000	99.750963 
3777.000000	99.747972 
3776.000000	99.743339 
3775.000000	99.741009 
3774.000000	99.742679 
3773.000000	99.746571 
3772.000000	99.749987 
3771.000000	99.752355 
3770.000000	99.755075 
3769.000000	99.758498 
3768.000000	99.760935 
3767.000000	99.761073 
3766.000000	99.759638 
3765.000000	99.758187 
3764.000000	99.757178 
3763.000000	99.755858 
3762.000000	99.753363 
3761.000000	99.749439 
3760.000000	99.745228 
3759.000000	99.743329 
3758.000000	99.745839 
3757.000000	99.752585 
3756.000000	99.761418 
3755.000000	99.769740 
3754.000000	99.775921 
3753.000000	99.779954 
3752.000000	99.783696 
3751.000000	99.788957 
3750.000000	99.793425 
3749.000000	99.792397 
3748.000000	99.784021 
3747.000000	99.770069 
3746.000000	99.756602 
3745.000000	99.752713 
3744.000000	99.758525 
3743.000000	99.762870 
3742.000000	99.760264 
3741.000000	99.755732 
3740.000000	99.755388 
3739.000000	99.760193 
3738.000000	99.765511 
3737.000000	99.765122 
3736.000000	99.756851 
3735.000000	99.745094 
3734.000000	99.737145 
3733.000000	99.737594 
3732.000000	99.745313 
3731.000000	99.754174 
3730.000000	99.757832 
3729.000000	99.754477 
3728.000000	99.747642 
3727.000000	99.742648 
3726.000000	99.741246 
3725.000000	99.740554 
3724.000000	99.737918 
3723.000000	99.734783 
3722.000000	99.734339 
3721.000000	99.736972 
3720.000000	99.740324 
3719.000000	99.742941 
3718.000000	99.745449 
3717.000000	99.748445 
3716.000000	99.750881 
3715.000000	99.751219 
3714.000000	99.749438 
3713.000000	99.746984 
3712.000000	99.744704 
3711.000000	99.741136 
3710.000000	99.734439 
3709.000000	99.725650 
3708.000000	99.718160 
3707.000000	99.714522 
3706.000000	99.714565 
3705.000000	99.716152 
3704.000000	99.717360 
3703.000000	99.718430 
3702.000000	99.721223 
3701.000000	99.725697 
3700.000000	99.728302 
3699.000000	99.725596 
3698.000000	99.718368 
3697.000000	99.711543 
3696.000000	99.710403 
3695.000000	99.716916 
3694.000000	99.729094 
3693.000000	99.742377 
3692.000000	99.750955 
3691.000000	99.749708 
3690.000000	99.738851 
3689.000000	99.725553 
3688.000000	99.717078 
3687.000000	99.714928 
3686.000000	99.716874 
3685.000000	99.720376 
3684.000000	99.723577 
3683.000000	99.725486 
3682.000000	99.726341 
3681.000000	99.727872 
3680.000000	99.731852 
3679.000000	99.737595 
3678.000000	99.741641 
3677.000000	99.741006 
3676.000000	99.737690 
3675.000000	99.735302 
3674.000000	99.732795 
3673.000000	99.727745 
3672.000000	99.720863 
3671.000000	99.715925 
3670.000000	99.716194 
3669.000000	99.719334 
3668.000000	99.720436 
3667.000000	99.718763 
3666.000000	99.716950 
3665.000000	99.716427 
3664.000000	99.715971 
3663.000000	99.713635 
3662.000000	99.709114 
3661.000000	99.704269 
3660.000000	99.701736 
3659.000000	99.703451 
3658.000000	99.710083 
3657.000000	99.720482 
3656.000000	99.730882 
3655.000000	99.736781 
3654.000000	99.736805 
3653.000000	99.733309 
3652.000000	99.729755 
3651.000000	99.728205 
3650.000000	99.728459 
3649.000000	99.728324 
3648.000000	99.725867 
3647.000000	99.722202 
3646.000000	99.720020 
3645.000000	99.720136 
3644.000000	99.721060 
3643.000000	99.720565 
3642.000000	99.717156 
3641.000000	99.711181 
3640.000000	99.704898 
3639.000000	99.700760 
3638.000000	99.699055 
3637.000000	99.697898 
3636.000000	99.696135 
3635.000000	99.695268 
3634.000000	99.697344 
3633.000000	99.701628 
3632.000000	99.705154 
3631.000000	99.706640 
3630.000000	99.708923 
3629.000000	99.714766 
3628.000000	99.719377 
3627.000000	99.716085 
3626.000000	99.706598 
3625.000000	99.697830 
3624.000000	99.693993 
3623.000000	99.694101 
3622.000000	99.694607 
3621.000000	99.693507 
3620.000000	99.692249 
3619.000000	99.693428 
3618.000000	99.696684 
3617.000000	99.699160 
3616.000000	99.699066 
3615.000000	99.697115 
3614.000000	99.695785 
3613.000000	99.697534 
3612.000000	99.702965 
3611.000000	99.710787 
3610.000000	99.718992 
3609.000000	99.725342 
3608.000000	99.728049 
3607.000000	99.726968 
3606.000000	99.723852 
3605.000000	99.720980 
3604.000000	99.719139 
3603.000000	99.717204 
3602.000000	99.713879 
3601.000000	99.709889 
3600.000000	99.707911 
3599.000000	99.709863 
3598.000000	99.714558 
3597.000000	99.718722 
3596.000000	99.720246 
3595.000000	99.720023 
3594.000000	99.720109 
3593.000000	99.720616 
3592.000000	99.719683 
3591.000000	99.715969 
3590.000000	99.710128 
3589.000000	99.704045 
3588.000000	99.699833 
3587.000000	99.698816 
3586.000000	99.700607 
3585.000000	99.703878 
3584.000000	99.707544 
3583.000000	99.711128 
3582.000000	99.714664 
3581.000000	99.718128 
3580.000000	99.720613 
3579.000000	99.720542 
3578.000000	99.717095 
3577.000000	99.711110 
3576.000000	99.704362 
3575.000000	99.698284 
3574.000000	99.693804 
3573.000000	99.691947 
3572.000000	99.693742 
3571.000000	99.699276 
3570.000000	99.707013 
3569.000000	99.714099 
3568.000000	99.718048 
3567.000000	99.718729 
3566.000000	99.717885 
3565.000000	99.717360 
3564.000000	99.718445 
3563.000000	99.721531 
3562.000000	99.725652 
3561.000000	99.728741 
3560.000000	99.728745 
3559.000000	99.724914 
3558.000000	99.718413 
3557.000000	99.711941 
3556.000000	99.708565 
3555.000000	99.710163 
3554.000000	99.716125 
3553.000000	99.723344 
3552.000000	99.727894 
3551.000000	99.727524 
3550.000000	99.722969 
3549.000000	99.716962 
3548.000000	99.712068 
3547.000000	99.709253 
3546.000000	99.708068 
3545.000000	99.707840 
3544.000000	99.708571 
3543.000000	99.710681 
3542.000000	99.714204 
3541.000000	99.718397 
3540.000000	99.722021 
3539.000000	99.723965 
3538.000000	99.723725 
3537.000000	99.721619 
3536.000000	99.718551 
3535.000000	99.715434 
3534.000000	99.712653 
3533.000000	99.709836 
3532.000000	99.706052 
3531.000000	99.700553 
3530.000000	99.693863 
3529.000000	99.688131 
3528.000000	99.685888 
3527.000000	99.688086 
3526.000000	99.693521 
3525.000000	99.700078 
3524.000000	99.706114 
3523.000000	99.710757 
3522.000000	99.713648 
3521.000000	99.715117 
3520.000000	99.716209 
3519.000000	99.717767 
3518.000000	99.719335 
3517.000000	99.719521 
3516.000000	99.717810 
3515.000000	99.715619 
3514.000000	99.715040 
3513.000000	99.716524 
3512.000000	99.718288 
3511.000000	99.718359 
3510.000000	99.716958 
3509.000000	99.716101 
3508.000000	99.716663 
3507.000000	99.716790 
3506.000000	99.713912 
3505.000000	99.707996 
3504.000000	99.702311 
3503.000000	99.700585 
3502.000000	99.703705 
3501.000000	99.709534 
3500.000000	99.715226 
3499.000000	99.718922 
3498.000000	99.719942 
3497.000000	99.718678 
3496.000000	99.716332 
3495.000000	99.714017 
3494.000000	99.711911 
3493.000000	99.709629 
3492.000000	99.707283 
3491.000000	99.705595 
3490.000000	99.704974 
3489.000000	99.704972 
3488.000000	99.704931 
3487.000000	99.704891 
3486.000000	99.705608 
3485.000000	99.707681 
3484.000000	99.710628 
3483.000000	99.712779 
3482.000000	99.712359 
3481.000000	99.708972 
3480.000000	99.703913 
3479.000000	99.699074 
3478.000000	99.696062 
3477.000000	99.696333 
3476.000000	99.700910 
3475.000000	99.708660 
3474.000000	99.715465 
3473.000000	99.716911 
3472.000000	99.712350 
3471.000000	99.705392 
3470.000000	99.700037 
3469.000000	99.697367 
3468.000000	99.696373 
3467.000000	99.696512 
3466.000000	99.697980 
3465.000000	99.700049 
3464.000000	99.700861 
3463.000000	99.699268 
3462.000000	99.696078 
3461.000000	99.693172 
3460.000000	99.692058 
3459.000000	99.693399 
3458.000000	99.696947 
3457.000000	99.701279 
3456.000000	99.704192 
3455.000000	99.704339 
3454.000000	99.702617 
3453.000000	99.701244 
3452.000000	99.701330 
3451.000000	99.701867 
3450.000000	99.701498 
3449.000000	99.700676 
3448.000000	99.701112 
3447.000000	99.702972 
3446.000000	99.703808 
3445.000000	99.701417 
3444.000000	99.697025 
3443.000000	99.694364 
3442.000000	99.695691 
3441.000000	99.699621 
3440.000000	99.703113 
3439.000000	99.704584 
3438.000000	99.704594 
3437.000000	99.704414 
3436.000000	99.704804 
3435.000000	99.705890 
3434.000000	99.707400 
3433.000000	99.708792 
3432.000000	99.709437 
3431.000000	99.708812 
3430.000000	99.706708 
3429.000000	99.703734 
3428.000000	99.701705 
3427.000000	99.702770 
3426.000000	99.707459 
3425.000000	99.713755 
3424.000000	99.718522 
3423.000000	99.719947 
3422.000000	99.718613 
3421.000000	99.716529 
3420.000000	99.715373 
3419.000000	99.715448 
3418.000000	99.715968 
3417.000000	99.716159 
3416.000000	99.715843 
3415.000000	99.714821 
3414.000000	99.712225 
3413.000000	99.707444 
3412.000000	99.701765 
3411.000000	99.697920 
3410.000000	99.697308 
3409.000000	99.698418 
3408.000000	99.698805 
3407.000000	99.697994 
3406.000000	99.697375 
3405.000000	99.697706 
3404.000000	99.698199 
3403.000000	99.698354 
3402.000000	99.699508 
3401.000000	99.703473 
3400.000000	99.709854 
3399.000000	99.715436 
3398.000000	99.716521 
3397.000000	99.711920 
3396.000000	99.703808 
3395.000000	99.695900 
3394.000000	99.690912 
3393.000000	99.689520 
3392.000000	99.690920 
3391.000000	99.693706 
3390.000000	99.696382 
3389.000000	99.697927 
3388.000000	99.698328 
3387.000000	99.698354 
3386.000000	99.698685 
3385.000000	99.699702 
3384.000000	99.701967 
3383.000000	99.705829 
3382.000000	99.710061 
3381.000000	99.712042 
3380.000000	99.710386 
3379.000000	99.706805 
3378.000000	99.704239 
3377.000000	99.703643 
3376.000000	99.703866 
3375.000000	99.704231 
3374.000000	99.705371 
3373.000000	99.707245 
3372.000000	99.708195 
3371.000000	99.707242 
3370.000000	99.706252 
3369.000000	99.708283 
3368.000000	99.713888 
3367.000000	99.720087 
3366.000000	99.723081 
3365.000000	99.721452 
3364.000000	99.716767 
3363.000000	99.711773 
3362.000000	99.708268 
3361.000000	99.706253 
3360.000000	99.704779 
3359.000000	99.703589 
3358.000000	99.703740 
3357.000000	99.706209 
3356.000000	99.710031 
3355.000000	99.712514 
3354.000000	99.711831 
3353.000000	99.709031 
3352.000000	99.706934 
3351.000000	99.707045 
3350.000000	99.708153 
3349.000000	99.708137 
3348.000000	99.706504 
3347.000000	99.704478 
3346.000000	99.702946 
3345.000000	99.701339 
3344.000000	99.698869 
3343.000000	99.696182 
3342.000000	99.695094 
3341.000000	99.696784 
3340.000000	99.700574 
3339.000000	99.704461 
3338.000000	99.706653 
3337.000000	99.706788 
3336.000000	99.705989 
3335.000000	99.705785 
3334.000000	99.706893 
3333.000000	99.709006 
3332.000000	99.711479 
3331.000000	99.713843 
3330.000000	99.715711 
3329.000000	99.716699 
3328.000000	99.716552 
3327.000000	99.714964 
3326.000000	99.711305 
3325.000000	99.705331 
3324.000000	99.698457 
3323.000000	99.693509 
3322.000000	99.692552 
3321.000000	99.695505 
3320.000000	99.701291 
3319.000000	99.709329 
3318.000000	99.718807 
3317.000000	99.727286 
3316.000000	99.731942 
3315.000000	99.732482 
3314.000000	99.731430 
3313.000000	99.730858 
3312.000000	99.729968 
3311.000000	99.726860 
3310.000000	99.721903 
3309.000000	99.717995 
3308.000000	99.717413 
3307.000000	99.719393 
3306.000000	99.721245 
3305.000000	99.721338 
3304.000000	99.720432 
3303.000000	99.720237 
3302.000000	99.721119 
3301.000000	99.721346 
3300.000000	99.718469 
3299.000000	99.711444 
3298.000000	99.701796 
3297.000000	99.693028 
3296.000000	99.688588 
3295.000000	99.689617 
3294.000000	99.694224 
3293.000000	99.699141 
3292.000000	99.702495 
3291.000000	99.705030 
3290.000000	99.708579 
3289.000000	99.713536 
3288.000000	99.718083 
3287.000000	99.719900 
3286.000000	99.718671 
3285.000000	99.716909 
3284.000000	99.717946 
3283.000000	99.722563 
3282.000000	99.727633 
3281.000000	99.728718 
3280.000000	99.724238 
3279.000000	99.716773 
3278.000000	99.710417 
3277.000000	99.707563 
3276.000000	99.708084 
3275.000000	99.710235 
3274.000000	99.711588 
3273.000000	99.710219 
3272.000000	99.706354 
3271.000000	99.702526 
3270.000000	99.701085 
3269.000000	99.701781 
3268.000000	99.702657 
3267.000000	99.702858 
3266.000000	99.703253 
3265.000000	99.704400 
3264.000000	99.705389 
3263.000000	99.705330 
3262.000000	99.704831 
3261.000000	99.705142 
3260.000000	99.706548 
3259.000000	99.708508 
3258.000000	99.710896 
3257.000000	99.714014 
3256.000000	99.717271 
3255.000000	99.718886 
3254.000000	99.717620 
3253.000000	99.714477 
3252.000000	99.711947 
3251.000000	99.711462 
3250.000000	99.712181 
3249.000000	99.712611 
3248.000000	99.712788 
3247.000000	99.713876 
3246.000000	99.715749 
3245.000000	99.716188 
3244.000000	99.713217 
3243.000000	99.707491 
3242.000000	99.701526 
3241.000000	99.697119 
3240.000000	99.694457 
3239.000000	99.693505 
3238.000000	99.695028 
3237.000000	99.699558 
3236.000000	99.705689 
3235.000000	99.710087 
3234.000000	99.709776 
3233.000000	99.704869 
3232.000000	99.698962 
3231.000000	99.696112 
3230.000000	99.697172 
3229.000000	99.699580 
3228.000000	99.700822 
3227.000000	99.701075 
3226.000000	99.701896 
3225.000000	99.703548 
3224.000000	99.704932 
3223.000000	99.705467 
3222.000000	99.705554 
3221.000000	99.705487 
3220.000000	99.705434 
3219.000000	99.706435 
3218.000000	99.709630 
3217.000000	99.713998 
3216.000000	99.716394 
3215.000000	99.714944 
3214.000000	99.711534 
3213.000000	99.709877 
3212.000000	99.711562 
3211.000000	99.714787 
3210.000000	99.716519 
3209.000000	99.715143 
3208.000000	99.711438 
3207.000000	99.707820 
3206.000000	99.706575 
3205.000000	99.708066 
3204.000000	99.710492 
3203.000000	99.711666 
3202.000000	99.711002 
3201.000000	99.709568 
3200.000000	99.708638 
3199.000000	99.708826 
3198.000000	99.710302 
3197.000000	99.712755 
3196.000000	99.714755 
3195.000000	99.714090 
3194.000000	99.709759 
3193.000000	99.703481 
3192.000000	99.698437 
3191.000000	99.696374 
3190.000000	99.696518 
3189.000000	99.697378 
3188.000000	99.698704 
3187.000000	99.701138 
3186.000000	99.704739 
3185.000000	99.708867 
3184.000000	99.713016 
3183.000000	99.716587 
3182.000000	99.718024 
3181.000000	99.715656 
3180.000000	99.709908 
3179.000000	99.703600 
3178.000000	99.699421 
3177.000000	99.697911 
3176.000000	99.698324 
3175.000000	99.700179 
3174.000000	99.702850 
3173.000000	99.704755 
3172.000000	99.704597 
3171.000000	99.703174 
3170.000000	99.702595 
3169.000000	99.703619 
3168.000000	99.704824 
3167.000000	99.704532 
3166.000000	99.702606 
3165.000000	99.700137 
3164.000000	99.698189 
3163.000000	99.697148 
3162.000000	99.696709 
3161.000000	99.696186 
3160.000000	99.695234 
3159.000000	99.694404 
3158.000000	99.694638 
3157.000000	99.696215 
3156.000000	99.698417 
3155.000000	99.699942 
3154.000000	99.699233 
3153.000000	99.695034 
3152.000000	99.687798 
3151.000000	99.680550 
3150.000000	99.677146 
3149.000000	99.679004 
3148.000000	99.683966 
3147.000000	99.688627 
3146.000000	99.691384 
3145.000000	99.693053 
3144.000000	99.695065 
3143.000000	99.697508 
3142.000000	99.698793 
3141.000000	99.697186 
3140.000000	99.692889 
3139.000000	99.688454 
3138.000000	99.686660 
3137.000000	99.687831 
3136.000000	99.689629 
3135.000000	99.689470 
3134.000000	99.686656 
3133.000000	99.682204 
3132.000000	99.677466 
3131.000000	99.673573 
3130.000000	99.671756 
3129.000000	99.673196 
3128.000000	99.678028 
3127.000000	99.684710 
3126.000000	99.690849 
3125.000000	99.694875 
3124.000000	99.696758 
3123.000000	99.697026 
3122.000000	99.695528 
3121.000000	99.691794 
3120.000000	99.686441 
3119.000000	99.681369 
3118.000000	99.678221 
3117.000000	99.677234 
3116.000000	99.677865 
3115.000000	99.679750 
3114.000000	99.682403 
3113.000000	99.684655 
3112.000000	99.685491 
3111.000000	99.685431 
3110.000000	99.686212 
3109.000000	99.688695 
3108.000000	99.691405 
3107.000000	99.691648 
3106.000000	99.688518 
3105.000000	99.684785 
3104.000000	99.685027 
3103.000000	99.690999 
3102.000000	99.699220 
3101.000000	99.704335 
3100.000000	99.704752 
3099.000000	99.703310 
3098.000000	99.702442 
3097.000000	99.701198 
3096.000000	99.698325 
3095.000000	99.695981 
3094.000000	99.697618 
3093.000000	99.702922 
3092.000000	99.707373 
3091.000000	99.707028 
3090.000000	99.702120 
3089.000000	99.695756 
3088.000000	99.690588 
3087.000000	99.687180 
3086.000000	99.684477 
3085.000000	99.681439 
3084.000000	99.678814 
3083.000000	99.679059 
3082.000000	99.683499 
3081.000000	99.689812 
3080.000000	99.693805 
3079.000000	99.693895 
3078.000000	99.692591 
3077.000000	99.693339 
3076.000000	99.697022 
3075.000000	99.701757 
3074.000000	99.704820 
3073.000000	99.704362 
3072.000000	99.700599 
3071.000000	99.696042 
3070.000000	99.693658 
3069.000000	99.694132 
3068.000000	99.695471 
3067.000000	99.695643 
3066.000000	99.694764 
3065.000000	99.694238 
3064.000000	99.694615 
3063.000000	99.695009 
3062.000000	99.694046 
3061.000000	99.690903 
3060.000000	99.686059 
3059.000000	99.681530 
3058.000000	99.679762 
3057.000000	99.681543 
3056.000000	99.685147 
3055.000000	99.687921 
3054.000000	99.688565 
3053.000000	99.687805 
3052.000000	99.687308 
3051.000000	99.688078 
3050.000000	99.689436 
3049.000000	99.689472 
3048.000000	99.687053 
3047.000000	99.683434 
3046.000000	99.681178 
3045.000000	99.681334 
3044.000000	99.682489 
3043.000000	99.683040 
3042.000000	99.683646 
3041.000000	99.686581 
3040.000000	99.692680 
3039.000000	99.699468 
3038.000000	99.702630 
3037.000000	99.699652 
3036.000000	99.692321 
3035.000000	99.685435 
3034.000000	99.682633 
3033.000000	99.683539 
3032.000000	99.685226 
3031.000000	99.685858 
3030.000000	99.686016 
3029.000000	99.686818 
3028.000000	99.688110 
3027.000000	99.688890 
3026.000000	99.688664 
3025.000000	99.687916 
3024.000000	99.687625 
3023.000000	99.688314 
3022.000000	99.689055 
3021.000000	99.687662 
3020.000000	99.682833 
3019.000000	99.676154 
3018.000000	99.670896 
3017.000000	99.668576 
3016.000000	99.667798 
3015.000000	99.666995 
3014.000000	99.667010 
3013.000000	99.669774 
3012.000000	99.674990 
3011.000000	99.679394 
3010.000000	99.679735 
3009.000000	99.676006 
3008.000000	99.671379 
3007.000000	99.668957 
3006.000000	99.668780 
3005.000000	99.668436 
3004.000000	99.666566 
3003.000000	99.664835 
3002.000000	99.665744 
3001.000000	99.669287 
3000.000000	99.672923 
2999.000000	99.674333 
2998.000000	99.672817 
2997.000000	99.668371 
2996.000000	99.661371 
2995.000000	99.653777 
2994.000000	99.648896 
2993.000000	99.648578 
2992.000000	99.651335 
2991.000000	99.654033 
2990.000000	99.654816 
2989.000000	99.653778 
2988.000000	99.651795 
2987.000000	99.649904 
2986.000000	99.649321 
2985.000000	99.650683 
2984.000000	99.652997 
2983.000000	99.654138 
2982.000000	99.652847 
2981.000000	99.650161 
2980.000000	99.648774 
2979.000000	99.650821 
2978.000000	99.655878 
2977.000000	99.660961 
2976.000000	99.662829 
2975.000000	99.660697 
2974.000000	99.656773 
2973.000000	99.654327 
2972.000000	99.655465 
2971.000000	99.660341 
2970.000000	99.667572 
2969.000000	99.675032 
2968.000000	99.680840 
2967.000000	99.684256 
2966.000000	99.685741 
2965.000000	99.686371 
2964.000000	99.687342 
2963.000000	99.689553 
2962.000000	99.692866 
2961.000000	99.695955 
2960.000000	99.697690 
2959.000000	99.698590 
2958.000000	99.700040 
2957.000000	99.702194 
2956.000000	99.703769 
2955.000000	99.703960 
2954.000000	99.703374 
2953.000000	99.702716 
2952.000000	99.701710 
2951.000000	99.699941 
2950.000000	99.697800 
2949.000000	99.695967 
2948.000000	99.694809 
2947.000000	99.694804 
2946.000000	99.696565 
2945.000000	99.699619 
2944.000000	99.702040 
2943.000000	99.702348 
2942.000000	99.701355 
2941.000000	99.701296 
2940.000000	99.703558 
2939.000000	99.707848 
2938.000000	99.712962 
2937.000000	99.717450 
2936.000000	99.720115 
2935.000000	99.721060 
2934.000000	99.722137 
2933.000000	99.725339 
2932.000000	99.730583 
2931.000000	99.735696 
2930.000000	99.738573 
2929.000000	99.738795 
2928.000000	99.737317 
2927.000000	99.735414 
2926.000000	99.734140 
2925.000000	99.734047 
2924.000000	99.734840 
2923.000000	99.735352 
2922.000000	99.734180 
2921.000000	99.730624 
2920.000000	99.725233 
2919.000000	99.719479 
2918.000000	99.714572 
2917.000000	99.710432 
2916.000000	99.706021 
2915.000000	99.700760 
2914.000000	99.695222 
2913.000000	99.690283 
2912.000000	99.686190 
2911.000000	99.683061 
2910.000000	99.681917 
2909.000000	99.684272 
2908.000000	99.690225 
2907.000000	99.697291 
2906.000000	99.701629 
2905.000000	99.700821 
2904.000000	99.695597 
2903.000000	99.689083 
2902.000000	99.684376 
2901.000000	99.682724 
2900.000000	99.683634 
2899.000000	99.685768 
2898.000000	99.687526 
2897.000000	99.687459 
2896.000000	99.685230 
2895.000000	99.682347 
2894.000000	99.681254 
2893.000000	99.683124 
2892.000000	99.686695 
2891.000000	99.689431 
2890.000000	99.689794 
2889.000000	99.688399 
2888.000000	99.687118 
2887.000000	99.687110 
2886.000000	99.687806 
2885.000000	99.687914 
2884.000000	99.687154 
2883.000000	99.686330 
2882.000000	99.685669 
2881.000000	99.684255 
2880.000000	99.681864 
2879.000000	99.680406 
2878.000000	99.682101 
2877.000000	99.686504 
2876.000000	99.690627 
2875.000000	99.692096 
2874.000000	99.691069 
2873.000000	99.689079 
2872.000000	99.687353 
2871.000000	99.686692 
2870.000000	99.687683 
2869.000000	99.690036 
2868.000000	99.692311 
2867.000000	99.693133 
2866.000000	99.692479 
2865.000000	99.691437 
2864.000000	99.691137 
2863.000000	99.692194 
2862.000000	99.694647 
2861.000000	99.697968 
2860.000000	99.701480 
2859.000000	99.705030 
2858.000000	99.708923 
2857.000000	99.713114 
2856.000000	99.716891 
2855.000000	99.719337 
2854.000000	99.719604 
2853.000000	99.717083 
2852.000000	99.712263 
2851.000000	99.707290 
2850.000000	99.704358 
2849.000000	99.703256 
2848.000000	99.701790 
2847.000000	99.699075 
2846.000000	99.696980 
2845.000000	99.697375 
2844.000000	99.699277 
2843.000000	99.700130 
2842.000000	99.699126 
2841.000000	99.697704 
2840.000000	99.697126 
2839.000000	99.697076 
2838.000000	99.696755 
2837.000000	99.696085 
2836.000000	99.695443 
2835.000000	99.695047 
2834.000000	99.694952 
2833.000000	99.695019 
2832.000000	99.694637 
2831.000000	99.693152 
2830.000000	99.690958 
2829.000000	99.689609 
2828.000000	99.690385 
2827.000000	99.692983 
2826.000000	99.695912 
2825.000000	99.697914 
2824.000000	99.698705 
2823.000000	99.698667 
2822.000000	99.698307 
2821.000000	99.698065 
2820.000000	99.698233 
2819.000000	99.698774 
2818.000000	99.699226 
2817.000000	99.698890 
2816.000000	99.697195 
2815.000000	99.694086 
2814.000000	99.690347 
2813.000000	99.687553 
2812.000000	99.687206 
2811.000000	99.689302 
2810.000000	99.691751 
2809.000000	99.691837 
2808.000000	99.688678 
2807.000000	99.684100 
2806.000000	99.680990 
2805.000000	99.681087 
2804.000000	99.684288 
2803.000000	99.689199 
2802.000000	99.693600 
2801.000000	99.695015 
2800.000000	99.692166 
2799.000000	99.686346 
2798.000000	99.680871 
2797.000000	99.678822 
2796.000000	99.681144 
2795.000000	99.686399 
2794.000000	99.691697 
2793.000000	99.694255 
2792.000000	99.693144 
2791.000000	99.689925 
2790.000000	99.687128 
2789.000000	99.685898 
2788.000000	99.685359 
2787.000000	99.684076 
2786.000000	99.681536 
2785.000000	99.678455 
2784.000000	99.676433 
2783.000000	99.677183 
2782.000000	99.680939 
2781.000000	99.685345 
2780.000000	99.687000 
2779.000000	99.684820 
2778.000000	99.681209 
2777.000000	99.679306 
2776.000000	99.679756 
2775.000000	99.680914 
2774.000000	99.681626 
2773.000000	99.682668 
2772.000000	99.685328 
2771.000000	99.689341 
2770.000000	99.692669 
2769.000000	99.693241 
2768.000000	99.690845 
2767.000000	99.687378 
2766.000000	99.685220 
2765.000000	99.685337 
2764.000000	99.686870 
2763.000000	99.688173 
2762.000000	99.687967 
2761.000000	99.685927 
2760.000000	99.682958 
2759.000000	99.680812 
2758.000000	99.680566 
2757.000000	99.681284 
2756.000000	99.681017 
2755.000000	99.679484 
2754.000000	99.678887 
2753.000000	99.681382 
2752.000000	99.686297 
2751.000000	99.690578 
2750.000000	99.691627 
2749.000000	99.689180 
2748.000000	99.684880 
2747.000000	99.680881 
2746.000000	99.678682 
2745.000000	99.678399 
2744.000000	99.678817 
2743.000000	99.678589 
2742.000000	99.677618 
2741.000000	99.677061 
2740.000000	99.677925 
2739.000000	99.679921 
2738.000000	99.681717 
2737.000000	99.682067 
2736.000000	99.680693 
2735.000000	99.678353 
2734.000000	99.676257 
2733.000000	99.675318 
2732.000000	99.675738 
2731.000000	99.677099 
2730.000000	99.678727 
2729.000000	99.680106 
2728.000000	99.681250 
2727.000000	99.682725 
2726.000000	99.684992 
2725.000000	99.687571 
2724.000000	99.689161 
2723.000000	99.688888 
2722.000000	99.687281 
2721.000000	99.685702 
2720.000000	99.684873 
2719.000000	99.684229 
2718.000000	99.682738 
2717.000000	99.680134 
2716.000000	99.677320 
2715.000000	99.675697 
2714.000000	99.676096 
2713.000000	99.678156 
2712.000000	99.680573 
2711.000000	99.682051 
2710.000000	99.682256 
2709.000000	99.681981 
2708.000000	99.682356 
2707.000000	99.683779 
2706.000000	99.685500 
2705.000000	99.686251 
2704.000000	99.685373 
2703.000000	99.683485 
2702.000000	99.682152 
2701.000000	99.682755 
2700.000000	99.685329 
2699.000000	99.688382 
2698.000000	99.690100 
2697.000000	99.689926 
2696.000000	99.688763 
2695.000000	99.687574 
2694.000000	99.686296 
2693.000000	99.684571 
2692.000000	99.682955 
2691.000000	99.682437 
2690.000000	99.682902 
2689.000000	99.683122 
2688.000000	99.682591 
2687.000000	99.682405 
2686.000000	99.683715 
2685.000000	99.685856 
2684.000000	99.686680 
2683.000000	99.684575 
2682.000000	99.679936 
2681.000000	99.674952 
2680.000000	99.672105 
2679.000000	99.672367 
2678.000000	99.674592 
2677.000000	99.676974 
2676.000000	99.679003 
2675.000000	99.681280 
2674.000000	99.683610 
2673.000000	99.684652 
2672.000000	99.683901 
2671.000000	99.682646 
2670.000000	99.682041 
2669.000000	99.681437 
2668.000000	99.679917 
2667.000000	99.678543 
2666.000000	99.679463 
2665.000000	99.683045 
2664.000000	99.687263 
2663.000000	99.689910 
2662.000000	99.690465 
2661.000000	99.689944 
2660.000000	99.689845 
2659.000000	99.691038 
2658.000000	99.692752 
2657.000000	99.692817 
2656.000000	99.689888 
2655.000000	99.685316 
2654.000000	99.682068 
2653.000000	99.682128 
2652.000000	99.685660 
2651.000000	99.691704 
2650.000000	99.697975 
2649.000000	99.700569 
2648.000000	99.696395 
2647.000000	99.686783 
2646.000000	99.677279 
2645.000000	99.673044 
2644.000000	99.675093 
2643.000000	99.680858 
2642.000000	99.686849 
2641.000000	99.690525 
2640.000000	99.691459 
2639.000000	99.691765 
2638.000000	99.694227 
2637.000000	99.699012 
2636.000000	99.703102 
2635.000000	99.703708 
2634.000000	99.701378 
2633.000000	99.699148 
2632.000000	99.699577 
2631.000000	99.703231 
2630.000000	99.708866 
2629.000000	99.713918 
2628.000000	99.715571 
2627.000000	99.712609 
2626.000000	99.706332 
2625.000000	99.699339 
2624.000000	99.693698 
2623.000000	99.690265 
2622.000000	99.688750 
2621.000000	99.687809 
2620.000000	99.685801 
2619.000000	99.682177 
2618.000000	99.677946 
2617.000000	99.674564 
2616.000000	99.672704 
2615.000000	99.671938 
2614.000000	99.670931 
2613.000000	99.668269 
2612.000000	99.664265 
2611.000000	99.661803 
2610.000000	99.663906 
2609.000000	99.670175 
2608.000000	99.676986 
2607.000000	99.681449 
2606.000000	99.683763 
2605.000000	99.685411 
2604.000000	99.686860 
2603.000000	99.687807 
2602.000000	99.688071 
2601.000000	99.687165 
2600.000000	99.684381 
2599.000000	99.680413 
2598.000000	99.677738 
2597.000000	99.678290 
2596.000000	99.681582 
2595.000000	99.685799 
2594.000000	99.689456 
2593.000000	99.691263 
2592.000000	99.689946 
2591.000000	99.685668 
2590.000000	99.680589 
2589.000000	99.676810 
2588.000000	99.674642 
2587.000000	99.673762 
2586.000000	99.674687 
2585.000000	99.677698 
2584.000000	99.681378 
2583.000000	99.683712 
2582.000000	99.683916 
2581.000000	99.682195 
2580.000000	99.678913 
2579.000000	99.675323 
2578.000000	99.673650 
2577.000000	99.674471 
2576.000000	99.674997 
2575.000000	99.672190 
2574.000000	99.667179 
2573.000000	99.664586 
2572.000000	99.667545 
2571.000000	99.674941 
2570.000000	99.683164 
2569.000000	99.688690 
2568.000000	99.689373 
2567.000000	99.685666 
2566.000000	99.681156 
2565.000000	99.679979 
2564.000000	99.682788 
2563.000000	99.686467 
2562.000000	99.688062 
2561.000000	99.687265 
2560.000000	99.684729 
2559.000000	99.680473 
2558.000000	99.675607 
2557.000000	99.673570 
2556.000000	99.676937 
2555.000000	99.683695 
2554.000000	99.689294 
2553.000000	99.692426 
2552.000000	99.696180 
2551.000000	99.702537 
2550.000000	99.708102 
2549.000000	99.707371 
2548.000000	99.699173 
2547.000000	99.687927 
2546.000000	99.679156 
2545.000000	99.675634 
2544.000000	99.677340 
2543.000000	99.682404 
2542.000000	99.687282 
2541.000000	99.688382 
2540.000000	99.685243 
2539.000000	99.681021 
2538.000000	99.678761 
2537.000000	99.678630 
2536.000000	99.679885 
2535.000000	99.683421 
2534.000000	99.689830 
2533.000000	99.696245 
2532.000000	99.698348 
2531.000000	99.695632 
2530.000000	99.692218 
2529.000000	99.692133 
2528.000000	99.695960 
2527.000000	99.702269 
2526.000000	99.709369 
2525.000000	99.714350 
2524.000000	99.713180 
2523.000000	99.704481 
2522.000000	99.692302 
2521.000000	99.682997 
2520.000000	99.679443 
2519.000000	99.679634 
2518.000000	99.680416 
2517.000000	99.680911 
2516.000000	99.682159 
2515.000000	99.685096 
2514.000000	99.689937 
2513.000000	99.696782 
2512.000000	99.705460 
2511.000000	99.714441 
2510.000000	99.720772 
2509.000000	99.722170 
2508.000000	99.719198 
2507.000000	99.714611 
2506.000000	99.710540 
2505.000000	99.707317 
2504.000000	99.705194 
2503.000000	99.705430 
2502.000000	99.708257 
2501.000000	99.710904 
2500.000000	99.709682 
2499.000000	99.704050 
2498.000000	99.697268 
2497.000000	99.693110 
2496.000000	99.693015 
2495.000000	99.696097 
2494.000000	99.700303 
2493.000000	99.703399 
2492.000000	99.704236 
2491.000000	99.703517 
2490.000000	99.702371 
2489.000000	99.700166 
2488.000000	99.695028 
2487.000000	99.686912 
2486.000000	99.678988 
2485.000000	99.675282 
2484.000000	99.677353 
2483.000000	99.683378 
2482.000000	99.689803 
2481.000000	99.693819 
2480.000000	99.694996 
2479.000000	99.694905 
2478.000000	99.695169 
2477.000000	99.696324 
2476.000000	99.698562 
2475.000000	99.702170 
2474.000000	99.706207 
2473.000000	99.708002 
2472.000000	99.705641 
2471.000000	99.700357 
2470.000000	99.695138 
2469.000000	99.691797 
2468.000000	99.690793 
2467.000000	99.692577 
2466.000000	99.696732 
2465.000000	99.700538 
2464.000000	99.701119 
2463.000000	99.699051 
2462.000000	99.697565 
2461.000000	99.698173 
2460.000000	99.699419 
2459.000000	99.700001 
2458.000000	99.700591 
2457.000000	99.702004 
2456.000000	99.703768 
2455.000000	99.705021 
2454.000000	99.704835 
2453.000000	99.701587 
2452.000000	99.694637 
2451.000000	99.687186 
2450.000000	99.684513 
2449.000000	99.688064 
2448.000000	99.693552 
2447.000000	99.696124 
2446.000000	99.695071 
2445.000000	99.692271 
2444.000000	99.688852 
2443.000000	99.685539 
2442.000000	99.684030 
2441.000000	99.685243 
2440.000000	99.687391 
2439.000000	99.688169 
2438.000000	99.688243 
2437.000000	99.690670 
2436.000000	99.697185 
2435.000000	99.706250 
2434.000000	99.714293 
2433.000000	99.718000 
2432.000000	99.716368 
2431.000000	99.711575 
2430.000000	99.707156 
2429.000000	99.704654 
2428.000000	99.703005 
2427.000000	99.701560 
2426.000000	99.701782 
2425.000000	99.704570 
2424.000000	99.707545 
2423.000000	99.707059 
2422.000000	99.702420 
2421.000000	99.696710 
2420.000000	99.693846 
2419.000000	99.695813 
2418.000000	99.701951 
2417.000000	99.709469 
2416.000000	99.714820 
2415.000000	99.715823 
2414.000000	99.712928 
2413.000000	99.708392 
2412.000000	99.704385 
2411.000000	99.701570 
2410.000000	99.698693 
2409.000000	99.693772 
2408.000000	99.686874 
2407.000000	99.681506 
2406.000000	99.681550 
2405.000000	99.686527 
2404.000000	99.691747 
2403.000000	99.693715 
2402.000000	99.693541 
2401.000000	99.694144 
2400.000000	99.695992 
2399.000000	99.697005 
2398.000000	99.695367 
2397.000000	99.691171 
2396.000000	99.686336 
2395.000000	99.683904 
2394.000000	99.686173 
2393.000000	99.692149 
2392.000000	99.697665 
2391.000000	99.699107 
2390.000000	99.696477 
2389.000000	99.692443 
2388.000000	99.689707 
2387.000000	99.689953 
2386.000000	99.693518 
2385.000000	99.698535 
2384.000000	99.701598 
2383.000000	99.701065 
2382.000000	99.699208 
2381.000000	99.699881 
2380.000000	99.704509 
2379.000000	99.711129 
2378.000000	99.716368 
2377.000000	99.717424 
2376.000000	99.713558 
2375.000000	99.707468 
2374.000000	99.704238 
2373.000000	99.706773 
2372.000000	99.712293 
2371.000000	99.714607 
2370.000000	99.710003 
2369.000000	99.700731 
2368.000000	99.693566 
2367.000000	99.694345 
2366.000000	99.701885 
2365.000000	99.707570 
2364.000000	99.703549 
2363.000000	99.691572 
2362.000000	99.681574 
2361.000000	99.680851 
2360.000000	99.687853 
2359.000000	99.696771 
2358.000000	99.703219 
2357.000000	99.705898 
2356.000000	99.705816 
2355.000000	99.705339 
2354.000000	99.705215 
2353.000000	99.704937 
2352.000000	99.704605 
2351.000000	99.704656 
2350.000000	99.704898 
2349.000000	99.704555 
2348.000000	99.702859 
2347.000000	99.699519 
2346.000000	99.696412 
2345.000000	99.697051 
2344.000000	99.701856 
2343.000000	99.707621 
2342.000000	99.712300 
2341.000000	99.717422 
2340.000000	99.724062 
2339.000000	99.730069 
2338.000000	99.731315 
2337.000000	99.725927 
2336.000000	99.717059 
2335.000000	99.709229 
2334.000000	99.703643 
2333.000000	99.698010 
2332.000000	99.692422 
2331.000000	99.690003 
2330.000000	99.693527 
2329.000000	99.700247 
2328.000000	99.704806 
2327.000000	99.704177 
2326.000000	99.701482 
2325.000000	99.701663 
2324.000000	99.705654 
2323.000000	99.708875 
2322.000000	99.707678 
2321.000000	99.704009 
2320.000000	99.702491 
2319.000000	99.703732 
2318.000000	99.705040 
2317.000000	99.704608 
2316.000000	99.704193 
2315.000000	99.705472 
2314.000000	99.708150 
2313.000000	99.709787 
2312.000000	99.709136 
2311.000000	99.706985 
2310.000000	99.706448 
2309.000000	99.710153 
2308.000000	99.717675 
2307.000000	99.724076 
2306.000000	99.723773 
2305.000000	99.715622 
2304.000000	99.705018 
2303.000000	99.699138 
2302.000000	99.701078 
2301.000000	99.707579 
2300.000000	99.713337 
2299.000000	99.715775 
2298.000000	99.716267 
2297.000000	99.716107 
2296.000000	99.714074 
2295.000000	99.707702 
2294.000000	99.697254 
2293.000000	99.686476 
2292.000000	99.679922 
2291.000000	99.679206 
2290.000000	99.682110 
2289.000000	99.684729 
2288.000000	99.684633 
2287.000000	99.682059 
2286.000000	99.678061 
2285.000000	99.672445 
2284.000000	99.664501 
2283.000000	99.655811 
2282.000000	99.650164 
2281.000000	99.649697 
2280.000000	99.652378 
2279.000000	99.655153 
2278.000000	99.658375 
2277.000000	99.664801 
2276.000000	99.674359 
2275.000000	99.682323 
2274.000000	99.684076 
2273.000000	99.680652 
2272.000000	99.678282 
2271.000000	99.682144 
2270.000000	99.691275 
2269.000000	99.699716 
2268.000000	99.702269 
2267.000000	99.698408 
2266.000000	99.691037 
2265.000000	99.683078 
2264.000000	99.676255 
2263.000000	99.671653 
2262.000000	99.669114 
2261.000000	99.666502 
2260.000000	99.662117 
2259.000000	99.658480 
2258.000000	99.661146 
2257.000000	99.672067 
2256.000000	99.685740 
2255.000000	99.693973 
2254.000000	99.693595 
2253.000000	99.687825 
2252.000000	99.681197 
2251.000000	99.675718 
2250.000000	99.672176 
2249.000000	99.672274 
2248.000000	99.677310 
2247.000000	99.685125 
2246.000000	99.690535 
2245.000000	99.690008 
2244.000000	99.685371 
2243.000000	99.681422 
2242.000000	99.680084 
2241.000000	99.678708 
2240.000000	99.674599 
2239.000000	99.668962 
2238.000000	99.664795 
2237.000000	99.663073 
2236.000000	99.663523 
2235.000000	99.667430 
2234.000000	99.676038 
2233.000000	99.686517 
2232.000000	99.692861 
2231.000000	99.691360 
2230.000000	99.683258 
2229.000000	99.672902 
2228.000000	99.665759 
2227.000000	99.666636 
2226.000000	99.675615 
2225.000000	99.686315 
2224.000000	99.692820 
2223.000000	99.697937 
2222.000000	99.708906 
2221.000000	99.724495 
2220.000000	99.733356 
2219.000000	99.727957 
2218.000000	99.714020 
2217.000000	99.702378 
2216.000000	99.696883 
2215.000000	99.694999 
2214.000000	99.694848 
2213.000000	99.694804 
2212.000000	99.689753 
2211.000000	99.675802 
2210.000000	99.658227 
2209.000000	99.648115 
2208.000000	99.650113 
2207.000000	99.658555 
2206.000000	99.666564 
2205.000000	99.673747 
2204.000000	99.682872 
2203.000000	99.693282 
2202.000000	99.701183 
2201.000000	99.704508 
2200.000000	99.704366 
2199.000000	99.702030 
2198.000000	99.697168 
2197.000000	99.690049 
2196.000000	99.683664 
2195.000000	99.681267 
2194.000000	99.681805 
2193.000000	99.680375 
2192.000000	99.674789 
2191.000000	99.669201 
2190.000000	99.668042 
2189.000000	99.668128 
2188.000000	99.661397 
2187.000000	99.645584 
2186.000000	99.627720 
2185.000000	99.616216 
2184.000000	99.613570 
2183.000000	99.617869 
2182.000000	99.626430 
2181.000000	99.635527 
2180.000000	99.641472 
2179.000000	99.645297 
2178.000000	99.652470 
2177.000000	99.665109 
2176.000000	99.678002 
2175.000000	99.685112 
2174.000000	99.686300 
2173.000000	99.684924 
2172.000000	99.683041 
2171.000000	99.682139 
2170.000000	99.683954 
2169.000000	99.686288 
2168.000000	99.682502 
2167.000000	99.670846 
2166.000000	99.660867 
2165.000000	99.663491 
2164.000000	99.675787 
2163.000000	99.682894 
2162.000000	99.676113 
2161.000000	99.663958 
2160.000000	99.663568 
2159.000000	99.683243 
2158.000000	99.713625 
2157.000000	99.734615 
2156.000000	99.731900 
2155.000000	99.708450 
2154.000000	99.681082 
2153.000000	99.665837 
2152.000000	99.665840 
2151.000000	99.672804 
2150.000000	99.677672 
2149.000000	99.677202 
2148.000000	99.672245 
2147.000000	99.663826 
2146.000000	99.652577 
2145.000000	99.640752 
2144.000000	99.633115 
2143.000000	99.634332 
2142.000000	99.644286 
2141.000000	99.656852 
2140.000000	99.665792 
2139.000000	99.671760 
2138.000000	99.680654 
2137.000000	99.695087 
2136.000000	99.710725 
2135.000000	99.721360 
2134.000000	99.723826 
2133.000000	99.717401 
2132.000000	99.703029 
2131.000000	99.684997 
2130.000000	99.669353 
2129.000000	99.658141 
2128.000000	99.648392 
2127.000000	99.639350 
2126.000000	99.636809 
2125.000000	99.645887 
2124.000000	99.661742 
2123.000000	99.672396 
2122.000000	99.670550 
2121.000000	99.659461 
2120.000000	99.647804 
2119.000000	99.642165 
2118.000000	99.644605 
2117.000000	99.653776 
2116.000000	99.666513 
2115.000000	99.679533 
2114.000000	99.690366 
2113.000000	99.696637 
2112.000000	99.696113 
2111.000000	99.689541 
2110.000000	99.682466 
2109.000000	99.681233 
2108.000000	99.686475 
2107.000000	99.692602 
2106.000000	99.694435 
2105.000000	99.692769 
2104.000000	99.692540 
2103.000000	99.696530 
2102.000000	99.701855 
2101.000000	99.702572 
2100.000000	99.695519 
2099.000000	99.683542 
2098.000000	99.673136 
2097.000000	99.669509 
2096.000000	99.674015 
2095.000000	99.684448 
2094.000000	99.695244 
2093.000000	99.698626 
2092.000000	99.690095 
2091.000000	99.674243 
2090.000000	99.661972 
2089.000000	99.659848 
2088.000000	99.664320 
2087.000000	99.668376 
2086.000000	99.670659 
2085.000000	99.674681 
2084.000000	99.681396 
2083.000000	99.686807 
2082.000000	99.686965 
2081.000000	99.682878 
2080.000000	99.680396 
2079.000000	99.685927 
2078.000000	99.700263 
2077.000000	99.714832 
2076.000000	99.717039 
2075.000000	99.702906 
2074.000000	99.682683 
2073.000000	99.670953 
2072.000000	99.672668 
2071.000000	99.681915 
2070.000000	99.691252 
2069.000000	99.696433 
2068.000000	99.694069 
2067.000000	99.682515 
2066.000000	99.667066 
2065.000000	99.658277 
2064.000000	99.661153 
2063.000000	99.669730 
2062.000000	99.675183 
2061.000000	99.675720 
2060.000000	99.675750 
2059.000000	99.678168 
2058.000000	99.680983 
2057.000000	99.680521 
2056.000000	99.675242 
2055.000000	99.666700 
2054.000000	99.658503 
2053.000000	99.654033 
2052.000000	99.653900 
2051.000000	99.656007 
2050.000000	99.658923 
2049.000000	99.664544 
2048.000000	99.676054 
2047.000000	99.693017 
2046.000000	99.709647 
2045.000000	99.718676 
2044.000000	99.716953 
2043.000000	99.707186 
2042.000000	99.694830 
2041.000000	99.684516 
2040.000000	99.679172 
2039.000000	99.680043 
2038.000000	99.684991 
2037.000000	99.687912 
2036.000000	99.684020 
2035.000000	99.676644 
2034.000000	99.675217 
2033.000000	99.685109 
2032.000000	99.702697 
2031.000000	99.721315 
2030.000000	99.736452 
2029.000000	99.742979 
2028.000000	99.734476 
2027.000000	99.711708 
2026.000000	99.688343 
2025.000000	99.681442 
2024.000000	99.694978 
2023.000000	99.716090 
2022.000000	99.727288 
2021.000000	99.720369 
2020.000000	99.701248 
2019.000000	99.684480 
2018.000000	99.681524 
2017.000000	99.690227 
2016.000000	99.697016 
2015.000000	99.692962 
2014.000000	99.684021 
2013.000000	99.681672 
2012.000000	99.687382 
2011.000000	99.692102 
2010.000000	99.689705 
2009.000000	99.684627 
2008.000000	99.685375 
2007.000000	99.694935 
2006.000000	99.708527 
2005.000000	99.716975 
2004.000000	99.712122 
2003.000000	99.693148 
2002.000000	99.668877 
2001.000000	99.650878 
2000.000000	99.642930 
1999.000000	99.639956 
1998.000000	99.637708 
1997.000000	99.639050 
1996.000000	99.648519 
1995.000000	99.664398 
1994.000000	99.679450 
1993.000000	99.688032 
1992.000000	99.690718 
1991.000000	99.692406 
1990.000000	99.697159 
1989.000000	99.704720 
1988.000000	99.710665 
1987.000000	99.709953 
1986.000000	99.701446 
1985.000000	99.689264 
1984.000000	99.679643 
1983.000000	99.676730 
1982.000000	99.681029 
1981.000000	99.690144 
1980.000000	99.700238 
1979.000000	99.707759 
1978.000000	99.711484 
1977.000000	99.713698 
1976.000000	99.718327 
1975.000000	99.726339 
1974.000000	99.732673 
1973.000000	99.729173 
1972.000000	99.712624 
1971.000000	99.689904 
1970.000000	99.673576 
1969.000000	99.671644 
1968.000000	99.681521 
1967.000000	99.693137 
1966.000000	99.696480 
1965.000000	99.686710 
1964.000000	99.666073 
1963.000000	99.643857 
1962.000000	99.632254 
1961.000000	99.637547 
1960.000000	99.654585 
1959.000000	99.672127 
1958.000000	99.682567 
1957.000000	99.685090 
1956.000000	99.682742 
1955.000000	99.680440 
1954.000000	99.684074 
1953.000000	99.696327 
1952.000000	99.712172 
1951.000000	99.721888 
1950.000000	99.720083 
1949.000000	99.710166 
1948.000000	99.699647 
1947.000000	99.692989 
1946.000000	99.689690 
1945.000000	99.686827 
1944.000000	99.681816 
1943.000000	99.674444 
1942.000000	99.667966 
1941.000000	99.666934 
1940.000000	99.672654 
1939.000000	99.681194 
1938.000000	99.686116 
1937.000000	99.683933 
1936.000000	99.677713 
1935.000000	99.674488 
1934.000000	99.678124 
1933.000000	99.684923 
1932.000000	99.687367 
1931.000000	99.682799 
1930.000000	99.676418 
1929.000000	99.674556 
1928.000000	99.677161 
1927.000000	99.679152 
1926.000000	99.678139 
1925.000000	99.677311 
1924.000000	99.680465 
1923.000000	99.686716 
1922.000000	99.691484 
1921.000000	99.691639 
1920.000000	99.687646 
1919.000000	99.681542 
1918.000000	99.675228 
1917.000000	99.669802 
1916.000000	99.665639 
1915.000000	99.663396 
1914.000000	99.664157 
1913.000000	99.668220 
1912.000000	99.673843 
1911.000000	99.677543 
1910.000000	99.675902 
1909.000000	99.667843 
1908.000000	99.656377 
1907.000000	99.647909 
1906.000000	99.648650 
1905.000000	99.659469 
1904.000000	99.673982 
1903.000000	99.683578 
1902.000000	99.684629 
1901.000000	99.680446 
1900.000000	99.676699 
1899.000000	99.675855 
1898.000000	99.676460 
1897.000000	99.676031 
1896.000000	99.673380 
1895.000000	99.669176 
1894.000000	99.665624 
1893.000000	99.665556 
1892.000000	99.670658 
1891.000000	99.679791 
1890.000000	99.689096 
1889.000000	99.694434 
1888.000000	99.694337 
1887.000000	99.690142 
1886.000000	99.683812 
1885.000000	99.677199 
1884.000000	99.672279 
1883.000000	99.670014 
1882.000000	99.669208 
1881.000000	99.668282 
1880.000000	99.668114 
1879.000000	99.670810 
1878.000000	99.675345 
1877.000000	99.677026 
1876.000000	99.672943 
1875.000000	99.666135 
1874.000000	99.662058 
1873.000000	99.662152 
1872.000000	99.663647 
1871.000000	99.665203 
1870.000000	99.669859 
1869.000000	99.680506 
1868.000000	99.693291 
1867.000000	99.700634 
1866.000000	99.699595 
1865.000000	99.692879 
1864.000000	99.684961 
1863.000000	99.679455 
1862.000000	99.677901 
1861.000000	99.678957 
1860.000000	99.679140 
1859.000000	99.675731 
1858.000000	99.669242 
1857.000000	99.662977 
1856.000000	99.660392 
1855.000000	99.662501 
1854.000000	99.666955 
1853.000000	99.669492 
1852.000000	99.667892 
1851.000000	99.664331 
1850.000000	99.663089 
1849.000000	99.666028 
1848.000000	99.670782 
1847.000000	99.673755 
1846.000000	99.673752 
1845.000000	99.672384 
1844.000000	99.671062 
1843.000000	99.667785 
1842.000000	99.660205 
1841.000000	99.650337 
1840.000000	99.643528 
1839.000000	99.644191 
1838.000000	99.652133 
1837.000000	99.662394 
1836.000000	99.670078 
1835.000000	99.674638 
1834.000000	99.678130 
1833.000000	99.680767 
1832.000000	99.679889 
1831.000000	99.673362 
1830.000000	99.664418 
1829.000000	99.660295 
1828.000000	99.664807 
1827.000000	99.675570 
1826.000000	99.686397 
1825.000000	99.690890 
1824.000000	99.686770 
1823.000000	99.677723 
1822.000000	99.669767 
1821.000000	99.666220 
1820.000000	99.666100 
1819.000000	99.666363 
1818.000000	99.665596 
1817.000000	99.664705 
1816.000000	99.664420 
1815.000000	99.663902 
1814.000000	99.662116 
1813.000000	99.659867 
1812.000000	99.659294 
1811.000000	99.661213 
1810.000000	99.663783 
1809.000000	99.664613 
1808.000000	99.663966 
1807.000000	99.664418 
1806.000000	99.667070 
1805.000000	99.669664 
1804.000000	99.669517 
1803.000000	99.667387 
1802.000000	99.666545 
1801.000000	99.668510 
1800.000000	99.670883 
1799.000000	99.670858 
1798.000000	99.668698 
1797.000000	99.666222 
1796.000000	99.664617 
1795.000000	99.664286 
1794.000000	99.664714 
1793.000000	99.664665 
1792.000000	99.663556 
1791.000000	99.662559 
1790.000000	99.663382 
1789.000000	99.665808 
1788.000000	99.667526 
1787.000000	99.666903 
1786.000000	99.665285 
1785.000000	99.665511 
1784.000000	99.668070 
1783.000000	99.670575 
1782.000000	99.670294 
1781.000000	99.666737 
1780.000000	99.661978 
1779.000000	99.658880 
1778.000000	99.659088 
1777.000000	99.662402 
1776.000000	99.667792 
1775.000000	99.673729 
1774.000000	99.677283 
1773.000000	99.675396 
1772.000000	99.668781 
1771.000000	99.662055 
1770.000000	99.659232 
1769.000000	99.660186 
1768.000000	99.661775 
1767.000000	99.662233 
1766.000000	99.663045 
1765.000000	99.666113 
1764.000000	99.670043 
1763.000000	99.670984 
1762.000000	99.667650 
1761.000000	99.663486 
1760.000000	99.662049 
1759.000000	99.663810 
1758.000000	99.666996 
1757.000000	99.669624 
1756.000000	99.670972 
1755.000000	99.671280 
1754.000000	99.671514 
1753.000000	99.672416 
1752.000000	99.674132 
1751.000000	99.676569 
1750.000000	99.678517 
1749.000000	99.677720 
1748.000000	99.673688 
1747.000000	99.668939 
1746.000000	99.666748 
1745.000000	99.668366 
1744.000000	99.671773 
1743.000000	99.673711 
1742.000000	99.673337 
1741.000000	99.672755 
1740.000000	99.673643 
1739.000000	99.674919 
1738.000000	99.674958 
1737.000000	99.674874 
1736.000000	99.676093 
1735.000000	99.678640 
1734.000000	99.682858 
1733.000000	99.685104 
1732.000000	99.681542 
1731.000000	99.674572 
1730.000000	99.667827 
1729.000000	99.663438 
1728.000000	99.662775 
1727.000000	99.666447 
1726.000000	99.673566 
1725.000000	99.681212 
1724.000000	99.685001 
1723.000000	99.682230 
1722.000000	99.674479 
1721.000000	99.665754 
1720.000000	99.659239 
1719.000000	99.657186 
1718.000000	99.662706 
1717.000000	99.673679 
1716.000000	99.680192 
1715.000000	99.678210 
1714.000000	99.673105 
1713.000000	99.670352 
1712.000000	99.670604 
1711.000000	99.671723 
1710.000000	99.672028 
1709.000000	99.671384 
1708.000000	99.670796 
1707.000000	99.671581 
1706.000000	99.675235 
1705.000000	99.681877 
1704.000000	99.689551 
1703.000000	99.697377 
1702.000000	99.704129 
1701.000000	99.706951 
1700.000000	99.704820 
1699.000000	99.696776 
1698.000000	99.684960 
1697.000000	99.673650 
1696.000000	99.667092 
1695.000000	99.667649 
1694.000000	99.671422 
1693.000000	99.674405 
1692.000000	99.676249 
1691.000000	99.678004 
1690.000000	99.680279 
1689.000000	99.682110 
1688.000000	99.682583 
1687.000000	99.682685 
1686.000000	99.683897 
1685.000000	99.687905 
1684.000000	99.695767 
1683.000000	99.701019 
1682.000000	99.699202 
1681.000000	99.694110 
1680.000000	99.689579 
1679.000000	99.687444 
1678.000000	99.688678 
1677.000000	99.693465 
1676.000000	99.701012 
1675.000000	99.708813 
1674.000000	99.712605 
1673.000000	99.711709 
1672.000000	99.709364 
1671.000000	99.707968 
1670.000000	99.707793 
1669.000000	99.707493 
1668.000000	99.706421 
1667.000000	99.706378 
1666.000000	99.708941 
1665.000000	99.713070 
1664.000000	99.716264 
1663.000000	99.717852 
1662.000000	99.718300 
1661.000000	99.716867 
1660.000000	99.713955 
1659.000000	99.712428 
1658.000000	99.715597 
1657.000000	99.724367 
1656.000000	99.736507 
1655.000000	99.745713 
1654.000000	99.746750 
1653.000000	99.744660 
1652.000000	99.739136 
1651.000000	99.728352 
1650.000000	99.718670 
1649.000000	99.712868 
1648.000000	99.709249 
1647.000000	99.707425 
1646.000000	99.707669 
1645.000000	99.708158 
1644.000000	99.708355 
1643.000000	99.709633 
1642.000000	99.711760 
1641.000000	99.712285 
1640.000000	99.709303 
1639.000000	99.703954 
1638.000000	99.699321 
1637.000000	99.697131 
1636.000000	99.698085 
1635.000000	99.701442 
1634.000000	99.705220 
1633.000000	99.709215 
1632.000000	99.712898 
1631.000000	99.714352 
1630.000000	99.712888 
1629.000000	99.710290 
1628.000000	99.708654 
1627.000000	99.707828 
1626.000000	99.706191 
1625.000000	99.702961 
1624.000000	99.698961 
1623.000000	99.696359 
1622.000000	99.696293 
1621.000000	99.698049 
1620.000000	99.700679 
1619.000000	99.702477 
1618.000000	99.700972 
1617.000000	99.696141 
1616.000000	99.690967 
1615.000000	99.687198 
1614.000000	99.685050 
1613.000000	99.684720 
1612.000000	99.686266 
1611.000000	99.689660 
1610.000000	99.694199 
1609.000000	99.698230 
1608.000000	99.699985 
1607.000000	99.698616 
1606.000000	99.694501 
1605.000000	99.689358 
1604.000000	99.685465 
1603.000000	99.683769 
1602.000000	99.683126 
1601.000000	99.681986 
1600.000000	99.680798 
1599.000000	99.681789 
1598.000000	99.685965 
1597.000000	99.690943 
1596.000000	99.692472 
1595.000000	99.688611 
1594.000000	99.682013 
1593.000000	99.677459 
1592.000000	99.677614 
1591.000000	99.681609 
1590.000000	99.686623 
1589.000000	99.690181 
1588.000000	99.691505 
1587.000000	99.691266 
1586.000000	99.690397 
1585.000000	99.689143 
1584.000000	99.687671 
1583.000000	99.686528 
1582.000000	99.686181 
1581.000000	99.686693 
1580.000000	99.687836 
1579.000000	99.689016 
1578.000000	99.689194 
1577.000000	99.688596 
1576.000000	99.689370 
1575.000000	99.690787 
1574.000000	99.689733 
1573.000000	99.686078 
1572.000000	99.681205 
1571.000000	99.677011 
1570.000000	99.678113 
1569.000000	99.687356 
1568.000000	99.700592 
1567.000000	99.711559 
1566.000000	99.716826 
1565.000000	99.715634 
1564.000000	99.710588 
1563.000000	99.705734 
1562.000000	99.703354 
1561.000000	99.700737 
1560.000000	99.695297 
1559.000000	99.698849 
1558.000000	99.712514 
1557.000000	99.720317 
1556.000000	99.723027 
1555.000000	99.726230 
1554.000000	99.728668 
1553.000000	99.727317 
1552.000000	99.721336 
1551.000000	99.713322 
1550.000000	99.707625 
1549.000000	99.707142 
1548.000000	99.710314 
1547.000000	99.713624 
1546.000000	99.714864 
1545.000000	99.714610 
1544.000000	99.714704 
1543.000000	99.714105 
1542.000000	99.709473 
1541.000000	99.701237 
1540.000000	99.697291 
1539.000000	99.700568 
1538.000000	99.703886 
1537.000000	99.704529 
1536.000000	99.704779 
1535.000000	99.705539 
1534.000000	99.706775 
1533.000000	99.708481 
1532.000000	99.708973 
1531.000000	99.707282 
1530.000000	99.704915 
1529.000000	99.702889 
1528.000000	99.700967 
1527.000000	99.699141 
1526.000000	99.698046 
1525.000000	99.697876 
1524.000000	99.698032 
1523.000000	99.697700 
1522.000000	99.697519 
1521.000000	99.698992 
1520.000000	99.700783 
1519.000000	99.701488 
1518.000000	99.702327 
1517.000000	99.704182 
1516.000000	99.705727 
1515.000000	99.705074 
1514.000000	99.702588 
1513.000000	99.700152 
1512.000000	99.699148 
1511.000000	99.700608 
1510.000000	99.705154 
1509.000000	99.711568 
1508.000000	99.716384 
1507.000000	99.718630 
1506.000000	99.717183 
1505.000000	99.708365 
1504.000000	99.695696 
1503.000000	99.685514 
1502.000000	99.680282 
1501.000000	99.679321 
1500.000000	99.680308 
1499.000000	99.681500 
1498.000000	99.683182 
1497.000000	99.686066 
1496.000000	99.687376 
1495.000000	99.684264 
1494.000000	99.679467 
1493.000000	99.677261 
1492.000000	99.676985 
1491.000000	99.674225 
1490.000000	99.668084 
1489.000000	99.662934 
1488.000000	99.661080 
1487.000000	99.661071 
1486.000000	99.662137 
1485.000000	99.664758 
1484.000000	99.669104 
1483.000000	99.673510 
1482.000000	99.675488 
1481.000000	99.674589 
1480.000000	99.672909 
1479.000000	99.672590 
1478.000000	99.673728 
1477.000000	99.675315 
1476.000000	99.676890 
1475.000000	99.678567 
1474.000000	99.679334 
1473.000000	99.677822 
1472.000000	99.674458 
1471.000000	99.671078 
1470.000000	99.669990 
1469.000000	99.672540 
1468.000000	99.677775 
1467.000000	99.683275 
1466.000000	99.686678 
1465.000000	99.687173 
1464.000000	99.685907 
1463.000000	99.684308 
1462.000000	99.683440 
1461.000000	99.683352 
1460.000000	99.683369 
1459.000000	99.682844 
1458.000000	99.682589 
1457.000000	99.684303 
1456.000000	99.685303 
1455.000000	99.683376 
1454.000000	99.682854 
1453.000000	99.686566 
1452.000000	99.690933 
1451.000000	99.690429 
1450.000000	99.684068 
1449.000000	99.676244 
1448.000000	99.671318 
1447.000000	99.669856 
1446.000000	99.669698 
1445.000000	99.669804 
1444.000000	99.670211 
1443.000000	99.669826 
1442.000000	99.667581 
1441.000000	99.664565 
1440.000000	99.663364 
1439.000000	99.664888 
1438.000000	99.667232 
1437.000000	99.668569 
1436.000000	99.669328 
1435.000000	99.669917 
1434.000000	99.670909 
1433.000000	99.672968 
1432.000000	99.674868 
1431.000000	99.674749 
1430.000000	99.672905 
1429.000000	99.671746 
1428.000000	99.672412 
1427.000000	99.673624 
1426.000000	99.673311 
1425.000000	99.671257 
1424.000000	99.670401 
1423.000000	99.673520 
1422.000000	99.680009 
1421.000000	99.686428 
1420.000000	99.688796 
1419.000000	99.686010 
1418.000000	99.680027 
1417.000000	99.672225 
1416.000000	99.663339 
1415.000000	99.655107 
1414.000000	99.649825 
1413.000000	99.648247 
1412.000000	99.648071 
1411.000000	99.646040 
1410.000000	99.642215 
1409.000000	99.640451 
1408.000000	99.643470 
1407.000000	99.649552 
1406.000000	99.654401 
1405.000000	99.655842 
1404.000000	99.655683 
1403.000000	99.656380 
1402.000000	99.658332 
1401.000000	99.660181 
1400.000000	99.660439 
1399.000000	99.659224 
1398.000000	99.657993 
1397.000000	99.657634 
1396.000000	99.657720 
1395.000000	99.657618 
1394.000000	99.657211 
1393.000000	99.656913 
1392.000000	99.657478 
1391.000000	99.659330 
1390.000000	99.662170 
1389.000000	99.665173 
1388.000000	99.667453 
1387.000000	99.668557 
1386.000000	99.668252 
1385.000000	99.666407 
1384.000000	99.663436 
1383.000000	99.660441 
1382.000000	99.659202 
1381.000000	99.660866 
1380.000000	99.664434 
1379.000000	99.667633 
1378.000000	99.669089 
1377.000000	99.669007 
1376.000000	99.667982 
1375.000000	99.666410 
1374.000000	99.664882 
1373.000000	99.663875 
1372.000000	99.663030 
1371.000000	99.661816 
1370.000000	99.660253 
1369.000000	99.659153 
1368.000000	99.659703 
1367.000000	99.662020 
1366.000000	99.664892 
1365.000000	99.666952 
1364.000000	99.667754 
1363.000000	99.668113 
1362.000000	99.668942 
1361.000000	99.669905 
1360.000000	99.670611 
1359.000000	99.671957 
1358.000000	99.674622 
1357.000000	99.677067 
1356.000000	99.676428 
1355.000000	99.671961 
1354.000000	99.666674 
1353.000000	99.664527 
1352.000000	99.666419 
1351.000000	99.670164 
1350.000000	99.672973 
1349.000000	99.673315 
1348.000000	99.671572 
1347.000000	99.669768 
1346.000000	99.670260 
1345.000000	99.673488 
1344.000000	99.677206 
1343.000000	99.678794 
1342.000000	99.678062 
1341.000000	99.676856 
1340.000000	99.676120 
1339.000000	99.674370 
1338.000000	99.670124 
1337.000000	99.665051 
1336.000000	99.662887 
1335.000000	99.665256 
1334.000000	99.669516 
1333.000000	99.671103 
1332.000000	99.667954 
1331.000000	99.662420 
1330.000000	99.658472 
1329.000000	99.657520 
1328.000000	99.657906 
1327.000000	99.658276 
1326.000000	99.659661 
1325.000000	99.663514 
1324.000000	99.668859 
1323.000000	99.672611 
1322.000000	99.672778 
1321.000000	99.670412 
1320.000000	99.668066 
1319.000000	99.666837 
1318.000000	99.665568 
1317.000000	99.663076 
1316.000000	99.660424 
1315.000000	99.660124 
1314.000000	99.663079 
1313.000000	99.667204 
1312.000000	99.669739 
1311.000000	99.670307 
1310.000000	99.670426 
1309.000000	99.670612 
1308.000000	99.669728 
1307.000000	99.667514 
1306.000000	99.665830 
1305.000000	99.666320 
1304.000000	99.668095 
1303.000000	99.668822 
1302.000000	99.667323 
1301.000000	99.664121 
1300.000000	99.660401 
1299.000000	99.657670 
1298.000000	99.657621 
1297.000000	99.660669 
1296.000000	99.664842 
1295.000000	99.667376 
1294.000000	99.667331 
1293.000000	99.665808 
1292.000000	99.664128 
1291.000000	99.663047 
1290.000000	99.663239 
1289.000000	99.664881 
1288.000000	99.666739 
1287.000000	99.667097 
1286.000000	99.665812 
1285.000000	99.664222 
1284.000000	99.662940 
1283.000000	99.661074 
1282.000000	99.657953 
1281.000000	99.654404 
1280.000000	99.651917 
1279.000000	99.651434 
1278.000000	99.653076 
1277.000000	99.655816 
1276.000000	99.657193 
1275.000000	99.654850 
1274.000000	99.649287 
1273.000000	99.644098 
1272.000000	99.642600 
1271.000000	99.644864 
1270.000000	99.648605 
1269.000000	99.651991 
1268.000000	99.654533 
1267.000000	99.656100 
1266.000000	99.656660 
1265.000000	99.656816 
1264.000000	99.657169 
1263.000000	99.656942 
1262.000000	99.654347 
1261.000000	99.648820 
1260.000000	99.642124 
1259.000000	99.636630 
1258.000000	99.632962 
1257.000000	99.630060 
1256.000000	99.627146 
1255.000000	99.624703 
1254.000000	99.623418 
1253.000000	99.623119 
1252.000000	99.623404 
1251.000000	99.624651 
1250.000000	99.627304 
1249.000000	99.630288 
1248.000000	99.631333 
1247.000000	99.629264 
1246.000000	99.625104 
1245.000000	99.620456 
1244.000000	99.615756 
1243.000000	99.611045 
1242.000000	99.607717 
1241.000000	99.608058 
1240.000000	99.612830 
1239.000000	99.619931 
1238.000000	99.625560 
1237.000000	99.626636 
1236.000000	99.622726 
1235.000000	99.616468 
1234.000000	99.611697 
1233.000000	99.610062 
1232.000000	99.609553 
1231.000000	99.607130 
1230.000000	99.602540 
1229.000000	99.598368 
1228.000000	99.596386 
1227.000000	99.595235 
1226.000000	99.592256 
1225.000000	99.586569 
1224.000000	99.579620 
1223.000000	99.573410 
1222.000000	99.568939 
1221.000000	99.565938 
1220.000000	99.563323 
1219.000000	99.559938 
1218.000000	99.555315 
1217.000000	99.549883 
1216.000000	99.544455 
1215.000000	99.539632 
1214.000000	99.535522 
1213.000000	99.531510 
1212.000000	99.526299 
1211.000000	99.518936 
1210.000000	99.510246 
1209.000000	99.502606 
1208.000000	99.497661 
1207.000000	99.494533 
1206.000000	99.490836 
1205.000000	99.485198 
1204.000000	99.478089 
1203.000000	99.470365 
1202.000000	99.462028 
1201.000000	99.452915 
1200.000000	99.443916 
1199.000000	99.436668 
1198.000000	99.432150 
1197.000000	99.429997 
1196.000000	99.428883 
1195.000000	99.426958 
1194.000000	99.422388 
1193.000000	99.414642 
1192.000000	99.405398 
1191.000000	99.397132 
1190.000000	99.390369 
1189.000000	99.383222 
1188.000000	99.374061 
1187.000000	99.363507 
1186.000000	99.353052 
1185.000000	99.342891 
1184.000000	99.332549 
1183.000000	99.322785 
1182.000000	99.315069 
1181.000000	99.309218 
1180.000000	99.303090 
1179.000000	99.294920 
1178.000000	99.284867 
1177.000000	99.274097 
1176.000000	99.263429 
1175.000000	99.253158 
1174.000000	99.243153 
1173.000000	99.232685 
1172.000000	99.220876 
1171.000000	99.207616 
1170.000000	99.193655 
1169.000000	99.179994 
1168.000000	99.167904 
1167.000000	99.159163 
1166.000000	99.155131 
1165.000000	99.155532 
1164.000000	99.158946 
1163.000000	99.164243 
1162.000000	99.170687 
1161.000000	99.177064 
1160.000000	99.181872 
1159.000000	99.184161 
1158.000000	99.183236 
1157.000000	99.178188 
1156.000000	99.169372 
1155.000000	99.159815 
1154.000000	99.152831 
1153.000000	99.147957 
1152.000000	99.141451 
1151.000000	99.131272 
1150.000000	99.119384 
1149.000000	99.108498 
1148.000000	99.099036 
1147.000000	99.090617 
1146.000000	99.083998 
1145.000000	99.079357 
1144.000000	99.074374 
1143.000000	99.066571 
1142.000000	99.056781 
1141.000000	99.048130 
1140.000000	99.041947 
1139.000000	99.036557 
1138.000000	99.029786 
1137.000000	99.020858 
1136.000000	99.009829 
1135.000000	98.996992 
1134.000000	98.983462 
1133.000000	98.970983 
1132.000000	98.960383 
1131.000000	98.950872 
1130.000000	98.941546 
1129.000000	98.933122 
1128.000000	98.927311 
1127.000000	98.924059 
1126.000000	98.919910 
1125.000000	98.910233 
1124.000000	98.893797 
1123.000000	98.874617 
1122.000000	98.858377 
1121.000000	98.847378 
1120.000000	98.840047 
1119.000000	98.834570 
1118.000000	98.830742 
1117.000000	98.827947 
1116.000000	98.823761 
1115.000000	98.816218 
1114.000000	98.806110 
1113.000000	98.795407 
1112.000000	98.784297 
1111.000000	98.771486 
1110.000000	98.756928 
1109.000000	98.742646 
1108.000000	98.730771 
1107.000000	98.721800 
1106.000000	98.714720 
1105.000000	98.707894 
1104.000000	98.699855 
1103.000000	98.690275 
1102.000000	98.680435 
1101.000000	98.672218 
1100.000000	98.666282 
1099.000000	98.661617 
1098.000000	98.656969 
1097.000000	98.652064 
1096.000000	98.647286 
1095.000000	98.642514 
1094.000000	98.636885 
1093.000000	98.629812 
1092.000000	98.621901 
1091.000000	98.614389 
1090.000000	98.607589 
1089.000000	98.600321 
1088.000000	98.591258 
1087.000000	98.580520 
1086.000000	98.569494 
1085.000000	98.559403 
1084.000000	98.550730 
1083.000000	98.543922 
1082.000000	98.539733 
1081.000000	98.538320 
1080.000000	98.538187 
1079.000000	98.536367 
1078.000000	98.530087 
1077.000000	98.518805 
1076.000000	98.504650 
1075.000000	98.490435 
1074.000000	98.477205 
1073.000000	98.464368 
1072.000000	98.451773 
1071.000000	98.439796 
1070.000000	98.426850 
1069.000000	98.409295 
1068.000000	98.386152 
1067.000000	98.362558 
1066.000000	98.345589 
1065.000000	98.336363 
1064.000000	98.328407 
1063.000000	98.314099 
1062.000000	98.291234 
1061.000000	98.263541 
1060.000000	98.237020 
1059.000000	98.216336 
1058.000000	98.202578 
1057.000000	98.193005 
1056.000000	98.183506 
1055.000000	98.171669 
1054.000000	98.157096 
1053.000000	98.139532 
1052.000000	98.118681 
1051.000000	98.096250 
1050.000000	98.076002 
1049.000000	98.060279 
1048.000000	98.047348 
1047.000000	98.032722 
1046.000000	98.012425 
1045.000000	97.985556 
1044.000000	97.955567 
1043.000000	97.929128 
1042.000000	97.911495 
1041.000000	97.901879 
1040.000000	97.894376 
1039.000000	97.883788 
1038.000000	97.869595 
1037.000000	97.854427 
1036.000000	97.840735 
1035.000000	97.829975 
1034.000000	97.823309 
1033.000000	97.821183 
1032.000000	97.822252 
1031.000000	97.823579 
1030.000000	97.822233 
1029.000000	97.817076 
1028.000000	97.809707 
1027.000000	97.803605 
1026.000000	97.801174 
1025.000000	97.801340 
1024.000000	97.801104 
1023.000000	97.799725 
1022.000000	97.799826 
1021.000000	97.803271 
1020.000000	97.807232 
1019.000000	97.806432 
1018.000000	97.799365 
1017.000000	97.790592 
1016.000000	97.786046 
1015.000000	97.787114 
1014.000000	97.790235 
1013.000000	97.791625 
1012.000000	97.790853 
1011.000000	97.789612 
1010.000000	97.788585 
1009.000000	97.786811 
1008.000000	97.783447 
1007.000000	97.778760 
1006.000000	97.773622 
1005.000000	97.769574 
1004.000000	97.769462 
1003.000000	97.775994 
1002.000000	97.788373 
1001.000000	97.801619 
1000.000000	97.810770 
999.000000	 97.815242 
998.000000	 97.818081 
997.000000	 97.821744 
996.000000	 97.826189 
995.000000	 97.830681 
994.000000	 97.835379 
993.000000	 97.840469 
992.000000	 97.845223 
991.000000	 97.849211 
990.000000	 97.853928 
989.000000	 97.861932 
988.000000	 97.873928 
987.000000	 97.887205 
986.000000	 97.897842 
985.000000	 97.904899 
984.000000	 97.911873 
983.000000	 97.923139 
982.000000	 97.939077 
981.000000	 97.955780 
980.000000	 97.969705 
979.000000	 97.981298 
978.000000	 97.993668 
977.000000	 98.009169 
976.000000	 98.028238 
975.000000	 98.049971 
974.000000	 98.072216 
973.000000	 98.092230 
972.000000	 98.109083 
971.000000	 98.124865 
970.000000	 98.141991 
969.000000	 98.160155 
968.000000	 98.177781 
967.000000	 98.195437 
966.000000	 98.214943 
965.000000	 98.235430 
964.000000	 98.253581 
963.000000	 98.268531 
962.000000	 98.283428 
961.000000	 98.300632 
960.000000	 98.318264 
959.000000	 98.333708 
958.000000	 98.348175 
957.000000	 98.364706 
956.000000	 98.382845 
955.000000	 98.398498 
954.000000	 98.409256 
953.000000	 98.417438 
952.000000	 98.427006 
951.000000	 98.438869 
950.000000	 98.450265 
949.000000	 98.458437 
948.000000	 98.464097 
947.000000	 98.470410 
946.000000	 98.478307 
945.000000	 98.484429 
944.000000	 98.485740 
943.000000	 98.485205 
942.000000	 98.489431 
941.000000	 98.500145 
940.000000	 98.511528 
939.000000	 98.517635 
938.000000	 98.519240 
937.000000	 98.520864 
936.000000	 98.523836 
935.000000	 98.525858 
934.000000	 98.525838 
933.000000	 98.525636 
932.000000	 98.527373 
931.000000	 98.531451 
930.000000	 98.536790 
929.000000	 98.541321 
928.000000	 98.543331 
927.000000	 98.544132 
926.000000	 98.547910 
925.000000	 98.556708 
924.000000	 98.567179 
923.000000	 98.574797 
922.000000	 98.579422 
921.000000	 98.583487 
920.000000	 98.586434 
919.000000	 98.585387 
918.000000	 98.580924 
917.000000	 98.577688 
916.000000	 98.578435 
915.000000	 98.581085 
914.000000	 98.583018 
913.000000	 98.585418 
912.000000	 98.591558 
911.000000	 98.602479 
910.000000	 98.615788 
909.000000	 98.627991 
908.000000	 98.637548 
907.000000	 98.646205 
906.000000	 98.657159 
905.000000	 98.671313 
904.000000	 98.686349 
903.000000	 98.700168 
902.000000	 98.713245 
901.000000	 98.726221 
900.000000	 98.738080 
899.000000	 98.749533 
898.000000	 98.765116 
897.000000	 98.787227 
896.000000	 98.809912 
895.000000	 98.823986 
894.000000	 98.828249 
893.000000	 98.830855 
892.000000	 98.839479 
891.000000	 98.854626 
890.000000	 98.872409 
889.000000	 98.888507 
888.000000	 98.898565 
887.000000	 98.900457 
886.000000	 98.898832 
885.000000	 98.902971 
884.000000	 98.917070 
883.000000	 98.935624 
882.000000	 98.950588 
881.000000	 98.960089 
880.000000	 98.967668 
879.000000	 98.975860 
878.000000	 98.983567 
877.000000	 98.988638 
876.000000	 98.991407 
875.000000	 98.996076 
874.000000	 99.007709 
873.000000	 99.025851 
872.000000	 99.042851 
871.000000	 99.052056 
870.000000	 99.055920 
869.000000	 99.061357 
868.000000	 99.068994 
867.000000	 99.073550 
866.000000	 99.074212 
865.000000	 99.077012 
864.000000	 99.085337 
863.000000	 99.095229 
862.000000	 99.102931 
861.000000	 99.110494 
860.000000	 99.119788 
859.000000	 99.126707 
858.000000	 99.126834 
857.000000	 99.123313 
856.000000	 99.124198 
855.000000	 99.134147 
854.000000	 99.151658 
853.000000	 99.171366 
852.000000	 99.185986 
851.000000	 99.189690 
850.000000	 99.183735 
849.000000	 99.176066 
848.000000	 99.172162 
847.000000	 99.169543 
846.000000	 99.164412 
845.000000	 99.159438 
844.000000	 99.160127 
843.000000	 99.166758 
842.000000	 99.175246 
841.000000	 99.183681 
840.000000	 99.192432 
839.000000	 99.198984 
838.000000	 99.198216 
837.000000	 99.188373 
836.000000	 99.173240 
835.000000	 99.158399 
834.000000	 99.147856 
833.000000	 99.143247 
832.000000	 99.143212 
831.000000	 99.144072 
830.000000	 99.144014 
829.000000	 99.145902 
828.000000	 99.153086 
827.000000	 99.163829 
826.000000	 99.173859 
825.000000	 99.183189 
824.000000	 99.194980 
823.000000	 99.208183 
822.000000	 99.217889 
821.000000	 99.223741 
820.000000	 99.231443 
819.000000	 99.243340 
818.000000	 99.252196 
817.000000	 99.247990 
816.000000	 99.229264 
815.000000	 99.204957 
814.000000	 99.184992 
813.000000	 99.171076 
812.000000	 99.157532 
811.000000	 99.138774 
810.000000	 99.113231 
809.000000	 99.080964 
808.000000	 99.041561 
807.000000	 98.996280 
806.000000	 98.949448 
805.000000	 98.905197 
804.000000	 98.864831 
803.000000	 98.829303 
802.000000	 98.801161 
801.000000	 98.780828 
800.000000	 98.764145 
799.000000	 98.748420 
798.000000	 98.738888 
797.000000	 98.743473 
796.000000	 98.761623 
795.000000	 98.783654 
794.000000	 98.801003 
793.000000	 98.811547 
792.000000	 98.814943 
791.000000	 98.810528 
790.000000	 98.802300 
789.000000	 98.798297 
788.000000	 98.800152 
787.000000	 98.798860 
786.000000	 98.786036 
785.000000	 98.764605 
784.000000	 98.743331 
783.000000	 98.725685 
782.000000	 98.710407 
781.000000	 98.699124 
780.000000	 98.695622 
779.000000	 98.698748 
778.000000	 98.702653 
777.000000	 98.703945 
776.000000	 98.703550 
775.000000	 98.702760 
774.000000	 98.703464 
773.000000	 98.711383 
772.000000	 98.731718 
771.000000	 98.759923 
770.000000	 98.782951 
769.000000	 98.792432 
768.000000	 98.792199 
767.000000	 98.791181 
766.000000	 98.793838 
765.000000	 98.799837 
764.000000	 98.808000 
763.000000	 98.816319 
762.000000	 98.820921 
761.000000	 98.818981 
760.000000	 98.811751 
759.000000	 98.803275 
758.000000	 98.798183 
757.000000	 98.801557 
756.000000	 98.816934 
755.000000	 98.841104 
754.000000	 98.863631 
753.000000	 98.875306 
752.000000	 98.875608 
751.000000	 98.869740 
750.000000	 98.861714 
749.000000	 98.854290 
748.000000	 98.852590 
747.000000	 98.860925 
746.000000	 98.875490 
745.000000	 98.886556 
744.000000	 98.890559 
743.000000	 98.895129 
742.000000	 98.908700 
741.000000	 98.929156 
740.000000	 98.947430 
739.000000	 98.959842 
738.000000	 98.971179 
737.000000	 98.985563 
736.000000	 98.999633 
735.000000	 99.006819 
734.000000	 99.004842 
733.000000	 98.996393 
732.000000	 98.984949 
731.000000	 98.973028 
730.000000	 98.963169 
729.000000	 98.957513 
728.000000	 98.955587 
727.000000	 98.955278 
726.000000	 98.957697 
725.000000	 98.968239 
724.000000	 98.990537 
723.000000	 99.020424 
722.000000	 99.047669 
721.000000	 99.063999 
720.000000	 99.068856 
719.000000	 99.067460 
718.000000	 99.064185 
717.000000	 99.058758 
716.000000	 99.049217 
715.000000	 99.037235 
714.000000	 99.028831 
713.000000	 99.029810 
712.000000	 99.041185 
711.000000	 99.058505 
710.000000	 99.074038 
709.000000	 99.080434 
708.000000	 99.074989 
707.000000	 99.061595 
706.000000	 99.048102 
705.000000	 99.040142 
704.000000	 99.038177 
703.000000	 99.040942 
702.000000	 99.046817 
701.000000	 99.049942 
700.000000	 99.040096 
699.000000	 99.010212 
698.000000	 98.964355 
697.000000	 98.915795 
696.000000	 98.878309 
695.000000	 98.861511 
694.000000	 98.868177 
693.000000	 98.891882 
692.000000	 98.919735 
691.000000	 98.940023 
690.000000	 98.948552 
689.000000	 98.947101 
688.000000	 98.940659 
687.000000	 98.939159 
686.000000	 98.952187 
685.000000	 98.975968 
684.000000	 98.992413 
683.000000	 98.987835 
682.000000	 98.969527 
681.000000	 98.957281 
680.000000	 98.961201 
679.000000	 98.974480 
678.000000	 98.986727 
677.000000	 98.997590 
676.000000	 99.012056 
675.000000	 99.029235 
674.000000	 99.045062 
673.000000	 99.058095 
672.000000	 99.064724 
671.000000	 99.055168 
670.000000	 99.020145 
669.000000	 98.964472 
668.000000	 98.924360 
667.000000	 98.922201 
666.000000	 98.937275 
665.000000	 98.961176 
664.000000	 98.996111 
663.000000	 99.038312 
662.000000	 99.080415 
661.000000	 99.114049 
660.000000	 99.126571 
659.000000	 99.105980 
658.000000	 99.062196 
657.000000	 99.029431 
656.000000	 99.031448 
655.000000	 99.056493 
654.000000	 99.079323 
653.000000	 99.090010 
652.000000	 99.088805 
651.000000	 99.075655 
650.000000	 99.059608 

