4000.000000	99.328214 
3999.000000	99.325742 
3998.000000	99.322550 
3997.000000	99.321237 
3996.000000	99.322240 
3995.000000	99.323897 
3994.000000	99.324661 
3993.000000	99.324507 
3992.000000	99.324068 
3991.000000	99.323206 
3990.000000	99.321193 
3989.000000	99.317932 
3988.000000	99.314367 
3987.000000	99.311858 
3986.000000	99.311594 
3985.000000	99.314264 
3984.000000	99.319524 
3983.000000	99.325886 
3982.000000	99.331714 
3981.000000	99.336387 
3980.000000	99.340222 
3979.000000	99.343302 
3978.000000	99.344902 
3977.000000	99.344152 
3976.000000	99.340957 
3975.000000	99.336053 
3974.000000	99.330490 
3973.000000	99.325277 
3972.000000	99.321398 
3971.000000	99.319740 
3970.000000	99.320903 
3969.000000	99.324747 
3968.000000	99.329901 
3967.000000	99.334091 
3966.000000	99.335460 
3965.000000	99.333908 
3964.000000	99.330925 
3963.000000	99.328387 
3962.000000	99.327410 
3961.000000	99.327879 
3960.000000	99.328524 
3959.000000	99.327578 
3958.000000	99.324444 
3957.000000	99.320724 
3956.000000	99.318781 
3955.000000	99.319234 
3954.000000	99.320510 
3953.000000	99.321073 
3952.000000	99.320890 
3951.000000	99.320646 
3950.000000	99.320240 
3949.000000	99.318584 
3948.000000	99.315148 
3947.000000	99.311407 
3946.000000	99.310133 
3945.000000	99.312583 
3944.000000	99.316587 
3943.000000	99.318169 
3942.000000	99.315688 
3941.000000	99.311817 
3940.000000	99.310071 
3939.000000	99.310333 
3938.000000	99.309997 
3937.000000	99.308102 
3936.000000	99.306391 
3935.000000	99.306851 
3934.000000	99.309465 
3933.000000	99.313134 
3932.000000	99.317024 
3931.000000	99.320617 
3930.000000	99.323370 
3929.000000	99.324720 
3928.000000	99.324859 
3927.000000	99.324231 
3926.000000	99.322257 
3925.000000	99.317968 
3924.000000	99.312418 
3923.000000	99.308433 
3922.000000	99.306455 
3921.000000	99.303970 
3920.000000	99.300456 
3919.000000	99.298995 
3918.000000	99.301293 
3917.000000	99.304663 
3916.000000	99.306140 
3915.000000	99.306949 
3914.000000	99.309913 
3913.000000	99.314815 
3912.000000	99.318888 
3911.000000	99.319561 
3910.000000	99.315859 
3909.000000	99.308951 
3908.000000	99.301724 
3907.000000	99.297823 
3906.000000	99.298472 
3905.000000	99.300886 
3904.000000	99.300536 
3903.000000	99.297523 
3902.000000	99.297161 
3901.000000	99.301757 
3900.000000	99.306560 
3899.000000	99.306342 
3898.000000	99.301931 
3897.000000	99.297117 
3896.000000	99.292924 
3895.000000	99.289313 
3894.000000	99.289950 
3893.000000	99.298497 
3892.000000	99.310331 
3891.000000	99.314960 
3890.000000	99.310927 
3889.000000	99.307902 
3888.000000	99.310325 
3887.000000	99.313587 
3886.000000	99.311668 
3885.000000	99.303761 
3884.000000	99.298220 
3883.000000	99.302316 
3882.000000	99.310720 
3881.000000	99.314023 
3880.000000	99.308767 
3879.000000	99.299890 
3878.000000	99.296622 
3877.000000	99.300883 
3876.000000	99.306043 
3875.000000	99.305378 
3874.000000	99.297172 
3873.000000	99.288058 
3872.000000	99.286107 
3871.000000	99.288467 
3870.000000	99.284460 
3869.000000	99.273599 
3868.000000	99.270965 
3867.000000	99.283488 
3866.000000	99.297826 
3865.000000	99.302293 
3864.000000	99.299762 
3863.000000	99.297988 
3862.000000	99.299166 
3861.000000	99.299500 
3860.000000	99.295652 
3859.000000	99.286395 
3858.000000	99.270559 
3857.000000	99.250892 
3856.000000	99.237056 
3855.000000	99.241458 
3854.000000	99.259276 
3853.000000	99.265733 
3852.000000	99.262141 
3851.000000	99.275693 
3850.000000	99.301637 
3849.000000	99.317593 
3848.000000	99.320159 
3847.000000	99.317366 
3846.000000	99.314219 
3845.000000	99.310878 
3844.000000	99.306811 
3843.000000	99.301855 
3842.000000	99.296828 
3841.000000	99.293449 
3840.000000	99.292404 
3839.000000	99.292834 
3838.000000	99.292651 
3837.000000	99.291147 
3836.000000	99.290450 
3835.000000	99.293026 
3834.000000	99.298051 
3833.000000	99.303017 
3832.000000	99.305683 
3831.000000	99.305914 
3830.000000	99.306553 
3829.000000	99.309873 
3828.000000	99.313714 
3827.000000	99.312725 
3826.000000	99.304534 
3825.000000	99.295109 
3824.000000	99.293582 
3823.000000	99.302368 
3822.000000	99.313351 
3821.000000	99.312273 
3820.000000	99.299073 
3819.000000	99.293632 
3818.000000	99.302017 
3817.000000	99.310095 
3816.000000	99.307659 
3815.000000	99.298756 
3814.000000	99.297362 
3813.000000	99.305793 
3812.000000	99.310051 
3811.000000	99.303633 
3810.000000	99.295706 
3809.000000	99.296547 
3808.000000	99.304510 
3807.000000	99.307167 
3806.000000	99.299195 
3805.000000	99.292004 
3804.000000	99.294964 
3803.000000	99.303086 
3802.000000	99.305932 
3801.000000	99.295694 
3800.000000	99.281395 
3799.000000	99.280235 
3798.000000	99.288339 
3797.000000	99.292094 
3796.000000	99.289252 
3795.000000	99.287156 
3794.000000	99.292606 
3793.000000	99.303803 
3792.000000	99.313975 
3791.000000	99.318832 
3790.000000	99.318115 
3789.000000	99.313959 
3788.000000	99.310810 
3787.000000	99.313111 
3786.000000	99.320844 
3785.000000	99.328597 
3784.000000	99.331892 
3783.000000	99.332278 
3782.000000	99.333804 
3781.000000	99.336690 
3780.000000	99.337188 
3779.000000	99.332171 
3778.000000	99.323950 
3777.000000	99.318095 
3776.000000	99.315587 
3775.000000	99.313252 
3774.000000	99.310594 
3773.000000	99.310902 
3772.000000	99.314944 
3771.000000	99.317366 
3770.000000	99.312090 
3769.000000	99.301889 
3768.000000	99.297078 
3767.000000	99.301933 
3766.000000	99.309226 
3765.000000	99.310926 
3764.000000	99.308079 
3763.000000	99.307585 
3762.000000	99.311564 
3761.000000	99.316254 
3760.000000	99.319237 
3759.000000	99.320401 
3758.000000	99.318746 
3757.000000	99.313008 
3756.000000	99.304158 
3755.000000	99.295284 
3754.000000	99.288450 
3753.000000	99.285390 
3752.000000	99.287556 
3751.000000	99.290426 
3750.000000	99.284797 
3749.000000	99.271099 
3748.000000	99.260864 
3747.000000	99.261294 
3746.000000	99.270070 
3745.000000	99.278249 
3744.000000	99.273270 
3743.000000	99.263379 
3742.000000	99.270416 
3741.000000	99.284452 
3740.000000	99.285022 
3739.000000	99.276402 
3738.000000	99.272239 
3737.000000	99.275387 
3736.000000	99.277817 
3735.000000	99.275781 
3734.000000	99.274755 
3733.000000	99.278238 
3732.000000	99.282380 
3731.000000	99.285477 
3730.000000	99.290987 
3729.000000	99.298977 
3728.000000	99.305285 
3727.000000	99.308609 
3726.000000	99.311970 
3725.000000	99.318236 
3724.000000	99.325519 
3723.000000	99.328317 
3722.000000	99.325193 
3721.000000	99.320787 
3720.000000	99.320355 
3719.000000	99.323715 
3718.000000	99.325353 
3717.000000	99.320101 
3716.000000	99.307743 
3715.000000	99.291979 
3714.000000	99.276822 
3713.000000	99.266088 
3712.000000	99.261110 
3711.000000	99.259567 
3710.000000	99.260799 
3709.000000	99.266216 
3708.000000	99.273669 
3707.000000	99.278494 
3706.000000	99.278305 
3705.000000	99.274501 
3704.000000	99.270147 
3703.000000	99.267856 
3702.000000	99.267946 
3701.000000	99.269080 
3700.000000	99.271734 
3699.000000	99.276557 
3698.000000	99.279990 
3697.000000	99.277363 
3696.000000	99.269491 
3695.000000	99.262184 
3694.000000	99.258917 
3693.000000	99.257442 
3692.000000	99.254842 
3691.000000	99.251169 
3690.000000	99.246756 
3689.000000	99.239947 
3688.000000	99.232433 
3687.000000	99.232374 
3686.000000	99.242882 
3685.000000	99.254993 
3684.000000	99.259097 
3683.000000	99.255320 
3682.000000	99.249194 
3681.000000	99.242427 
3680.000000	99.231360 
3679.000000	99.215978 
3678.000000	99.203771 
3677.000000	99.200918 
3676.000000	99.201268 
3675.000000	99.192040 
3674.000000	99.181321 
3673.000000	99.187157 
3672.000000	99.203765 
3671.000000	99.217947 
3670.000000	99.225186 
3669.000000	99.224634 
3668.000000	99.223431 
3667.000000	99.225991 
3666.000000	99.227094 
3665.000000	99.224390 
3664.000000	99.220968 
3663.000000	99.219104 
3662.000000	99.217449 
3661.000000	99.213706 
3660.000000	99.208484 
3659.000000	99.205621 
3658.000000	99.207305 
3657.000000	99.209485 
3656.000000	99.204809 
3655.000000	99.194113 
3654.000000	99.186425 
3653.000000	99.184392 
3652.000000	99.184737 
3651.000000	99.186669 
3650.000000	99.187647 
3649.000000	99.181064 
3648.000000	99.168889 
3647.000000	99.161706 
3646.000000	99.164746 
3645.000000	99.174518 
3644.000000	99.184668 
3643.000000	99.190948 
3642.000000	99.192780 
3641.000000	99.192651 
3640.000000	99.193964 
3639.000000	99.198584 
3638.000000	99.205745 
3637.000000	99.213708 
3636.000000	99.219279 
3635.000000	99.216785 
3634.000000	99.201982 
3633.000000	99.178367 
3632.000000	99.156774 
3631.000000	99.147324 
3630.000000	99.152675 
3629.000000	99.160922 
3628.000000	99.158513 
3627.000000	99.155576 
3626.000000	99.163776 
3625.000000	99.174297 
3624.000000	99.178500 
3623.000000	99.177490 
3622.000000	99.175109 
3621.000000	99.173712 
3620.000000	99.173851 
3619.000000	99.174502 
3618.000000	99.175549 
3617.000000	99.179469 
3616.000000	99.186145 
3615.000000	99.191146 
3614.000000	99.190382 
3613.000000	99.183274 
3612.000000	99.173670 
3611.000000	99.167443 
3610.000000	99.168135 
3609.000000	99.175182 
3608.000000	99.184796 
3607.000000	99.192797 
3606.000000	99.197544 
3605.000000	99.199295 
3604.000000	99.199082 
3603.000000	99.198726 
3602.000000	99.199274 
3601.000000	99.200543 
3600.000000	99.203170 
3599.000000	99.208925 
3598.000000	99.217525 
3597.000000	99.225805 
3596.000000	99.230698 
3595.000000	99.231011 
3594.000000	99.227796 
3593.000000	99.224306 
3592.000000	99.224375 
3591.000000	99.229332 
3590.000000	99.237562 
3589.000000	99.244831 
3588.000000	99.245233 
3587.000000	99.236104 
3586.000000	99.223808 
3585.000000	99.217309 
3584.000000	99.217728 
3583.000000	99.220662 
3582.000000	99.222907 
3581.000000	99.223644 
3580.000000	99.222963 
3579.000000	99.221228 
3578.000000	99.218925 
3577.000000	99.216599 
3576.000000	99.215144 
3575.000000	99.215142 
3574.000000	99.216100 
3573.000000	99.216461 
3572.000000	99.214936 
3571.000000	99.211722 
3570.000000	99.208599 
3569.000000	99.207530 
3568.000000	99.208442 
3567.000000	99.209210 
3566.000000	99.209597 
3565.000000	99.212555 
3564.000000	99.218270 
3563.000000	99.222852 
3562.000000	99.223540 
3561.000000	99.220980 
3560.000000	99.217580 
3559.000000	99.215423 
3558.000000	99.215144 
3557.000000	99.215917 
3556.000000	99.216719 
3555.000000	99.217391 
3554.000000	99.217935 
3553.000000	99.217375 
3552.000000	99.214339 
3551.000000	99.209045 
3550.000000	99.203287 
3549.000000	99.198638 
3548.000000	99.195915 
3547.000000	99.195742 
3546.000000	99.198036 
3545.000000	99.201676 
3544.000000	99.205274 
3543.000000	99.207725 
3542.000000	99.208400 
3541.000000	99.207609 
3540.000000	99.206994 
3539.000000	99.208632 
3538.000000	99.212980 
3537.000000	99.217921 
3536.000000	99.220280 
3535.000000	99.218573 
3534.000000	99.213790 
3533.000000	99.208130 
3532.000000	99.203706 
3531.000000	99.202025 
3530.000000	99.203291 
3529.000000	99.205821 
3528.000000	99.207318 
3527.000000	99.207010 
3526.000000	99.206123 
3525.000000	99.205874 
3524.000000	99.205977 
3523.000000	99.205223 
3522.000000	99.202895 
3521.000000	99.199194 
3520.000000	99.194888 
3519.000000	99.191240 
3518.000000	99.189900 
3517.000000	99.191894 
3516.000000	99.196402 
3515.000000	99.201080 
3514.000000	99.203980 
3513.000000	99.204855 
3512.000000	99.204365 
3511.000000	99.202858 
3510.000000	99.200820 
3509.000000	99.199876 
3508.000000	99.202093 
3507.000000	99.207419 
3506.000000	99.212230 
3505.000000	99.211405 
3504.000000	99.202885 
3503.000000	99.190641 
3502.000000	99.182689 
3501.000000	99.184710 
3500.000000	99.194912 
3499.000000	99.205328 
3498.000000	99.208450 
3497.000000	99.203345 
3496.000000	99.195875 
3495.000000	99.192778 
3494.000000	99.195482 
3493.000000	99.199672 
3492.000000	99.200186 
3491.000000	99.195727 
3490.000000	99.189348 
3489.000000	99.185186 
3488.000000	99.185055 
3487.000000	99.187799 
3486.000000	99.191180 
3485.000000	99.193906 
3484.000000	99.196001 
3483.000000	99.197786 
3482.000000	99.198825 
3481.000000	99.198129 
3480.000000	99.195498 
3479.000000	99.192282 
3478.000000	99.190433 
3477.000000	99.190487 
3476.000000	99.190711 
3475.000000	99.188704 
3474.000000	99.184204 
3473.000000	99.179730 
3472.000000	99.178042 
3471.000000	99.179420 
3470.000000	99.181949 
3469.000000	99.183903 
3468.000000	99.184865 
3467.000000	99.184804 
3466.000000	99.183275 
3465.000000	99.179966 
3464.000000	99.175343 
3463.000000	99.170311 
3462.000000	99.165582 
3461.000000	99.161758 
3460.000000	99.159728 
3459.000000	99.160407 
3458.000000	99.163862 
3457.000000	99.168713 
3456.000000	99.172488 
3455.000000	99.173062 
3454.000000	99.170275 
3453.000000	99.166206 
3452.000000	99.163725 
3451.000000	99.164506 
3450.000000	99.168012 
3449.000000	99.171934 
3448.000000	99.173762 
3447.000000	99.172515 
3446.000000	99.169584 
3445.000000	99.167552 
3444.000000	99.167701 
3443.000000	99.168832 
3442.000000	99.168688 
3441.000000	99.166491 
3440.000000	99.163893 
3439.000000	99.163171 
3438.000000	99.164734 
3437.000000	99.166799 
3436.000000	99.167432 
3435.000000	99.166532 
3434.000000	99.165502 
3433.000000	99.165368 
3432.000000	99.165835 
3431.000000	99.166108 
3430.000000	99.165876 
3429.000000	99.165146 
3428.000000	99.163754 
3427.000000	99.161442 
3426.000000	99.158470 
3425.000000	99.155875 
3424.000000	99.154933 
3423.000000	99.156035 
3422.000000	99.157865 
3421.000000	99.158077 
3420.000000	99.155445 
3419.000000	99.151571 
3418.000000	99.149924 
3417.000000	99.152591 
3416.000000	99.157894 
3415.000000	99.161494 
3414.000000	99.160120 
3413.000000	99.154313 
3412.000000	99.147601 
3411.000000	99.143383 
3410.000000	99.142961 
3409.000000	99.145845 
3408.000000	99.150635 
3407.000000	99.155245 
3406.000000	99.157436 
3405.000000	99.156461 
3404.000000	99.154127 
3403.000000	99.153417 
3402.000000	99.155760 
3401.000000	99.159910 
3400.000000	99.163347 
3399.000000	99.164459 
3398.000000	99.163615 
3397.000000	99.162456 
3396.000000	99.162045 
3395.000000	99.161722 
3394.000000	99.160231 
3393.000000	99.157915 
3392.000000	99.156816 
3391.000000	99.158123 
3390.000000	99.160476 
3389.000000	99.161670 
3388.000000	99.161253 
3387.000000	99.160436 
3386.000000	99.160064 
3385.000000	99.160005 
3384.000000	99.160167 
3383.000000	99.160545 
3382.000000	99.160041 
3381.000000	99.156726 
3380.000000	99.150060 
3379.000000	99.142219 
3378.000000	99.136679 
3377.000000	99.135765 
3376.000000	99.139489 
3375.000000	99.145901 
3374.000000	99.152233 
3373.000000	99.156368 
3372.000000	99.157862 
3371.000000	99.157566 
3370.000000	99.156370 
3369.000000	99.154731 
3368.000000	99.153156 
3367.000000	99.152178 
3366.000000	99.151555 
3365.000000	99.150366 
3364.000000	99.148475 
3363.000000	99.147278 
3362.000000	99.148129 
3361.000000	99.150322 
3360.000000	99.151494 
3359.000000	99.150300 
3358.000000	99.148260 
3357.000000	99.148562 
3356.000000	99.152845 
3355.000000	99.159088 
3354.000000	99.162877 
3353.000000	99.161190 
3352.000000	99.155202 
3351.000000	99.149413 
3350.000000	99.148046 
3349.000000	99.152214 
3348.000000	99.159828 
3347.000000	99.167288 
3346.000000	99.171379 
3345.000000	99.170851 
3344.000000	99.167159 
3343.000000	99.163238 
3342.000000	99.160858 
3341.000000	99.159445 
3340.000000	99.157765 
3339.000000	99.156001 
3338.000000	99.155209 
3337.000000	99.155185 
3336.000000	99.154306 
3335.000000	99.151968 
3334.000000	99.150125 
3333.000000	99.151456 
3332.000000	99.156244 
3331.000000	99.161739 
3330.000000	99.164786 
3329.000000	99.164800 
3328.000000	99.164002 
3327.000000	99.164826 
3326.000000	99.167356 
3325.000000	99.169582 
3324.000000	99.170005 
3323.000000	99.169331 
3322.000000	99.169172 
3321.000000	99.169579 
3320.000000	99.168787 
3319.000000	99.165692 
3318.000000	99.161901 
3317.000000	99.160548 
3316.000000	99.163030 
3315.000000	99.167300 
3314.000000	99.169573 
3313.000000	99.167721 
3312.000000	99.163056 
3311.000000	99.159008 
3310.000000	99.158180 
3309.000000	99.160580 
3308.000000	99.164442 
3307.000000	99.168232 
3306.000000	99.171445 
3305.000000	99.173606 
3304.000000	99.173435 
3303.000000	99.169844 
3302.000000	99.163759 
3301.000000	99.158270 
3300.000000	99.156441 
3299.000000	99.159006 
3298.000000	99.164173 
3297.000000	99.169354 
3296.000000	99.172875 
3295.000000	99.174440 
3294.000000	99.174691 
3293.000000	99.174658 
3292.000000	99.175233 
3291.000000	99.176649 
3290.000000	99.178282 
3289.000000	99.179021 
3288.000000	99.178096 
3287.000000	99.175806 
3286.000000	99.173448 
3285.000000	99.172320 
3284.000000	99.172636 
3283.000000	99.173505 
3282.000000	99.173987 
3281.000000	99.173879 
3280.000000	99.173293 
3279.000000	99.172107 
3278.000000	99.170555 
3277.000000	99.170039 
3276.000000	99.172295 
3275.000000	99.177271 
3274.000000	99.182277 
3273.000000	99.183642 
3272.000000	99.179199 
3271.000000	99.169563 
3270.000000	99.157920 
3269.000000	99.148742 
3268.000000	99.145705 
3267.000000	99.149723 
3266.000000	99.158689 
3265.000000	99.169149 
3264.000000	99.178241 
3263.000000	99.184501 
3262.000000	99.187966 
3261.000000	99.189894 
3260.000000	99.191480 
3259.000000	99.192272 
3258.000000	99.190571 
3257.000000	99.185911 
3256.000000	99.180429 
3255.000000	99.177089 
3254.000000	99.177055 
3253.000000	99.179373 
3252.000000	99.182366 
3251.000000	99.184342 
3250.000000	99.183735 
3249.000000	99.180277 
3248.000000	99.176124 
3247.000000	99.174454 
3246.000000	99.176343 
3245.000000	99.179723 
3244.000000	99.181829 
3243.000000	99.182154 
3242.000000	99.182699 
3241.000000	99.185749 
3240.000000	99.191472 
3239.000000	99.197251 
3238.000000	99.199488 
3237.000000	99.196650 
3236.000000	99.190734 
3235.000000	99.185467 
3234.000000	99.183198 
3233.000000	99.183852 
3232.000000	99.186301 
3231.000000	99.189636 
3230.000000	99.193053 
3229.000000	99.195614 
3228.000000	99.196687 
3227.000000	99.196148 
3226.000000	99.194033 
3225.000000	99.190661 
3224.000000	99.187264 
3223.000000	99.185497 
3222.000000	99.185695 
3221.000000	99.186267 
3220.000000	99.185513 
3219.000000	99.183621 
3218.000000	99.182244 
3217.000000	99.182389 
3216.000000	99.183425 
3215.000000	99.184120 
3214.000000	99.184036 
3213.000000	99.183762 
3212.000000	99.184309 
3211.000000	99.186607 
3210.000000	99.191168 
3209.000000	99.197525 
3208.000000	99.203755 
3207.000000	99.207114 
3206.000000	99.206013 
3205.000000	99.201814 
3204.000000	99.198210 
3203.000000	99.198179 
3202.000000	99.201534 
3201.000000	99.205728 
3200.000000	99.208669 
3199.000000	99.210183 
3198.000000	99.211186 
3197.000000	99.212586 
3196.000000	99.215121 
3195.000000	99.219034 
3194.000000	99.223044 
3193.000000	99.224369 
3192.000000	99.220963 
3191.000000	99.213881 
3190.000000	99.206904 
3189.000000	99.203666 
3188.000000	99.205185 
3187.000000	99.209671 
3186.000000	99.214148 
3185.000000	99.216345 
3184.000000	99.215721 
3183.000000	99.213169 
3182.000000	99.209867 
3181.000000	99.206447 
3180.000000	99.203228 
3179.000000	99.200813 
3178.000000	99.199840 
3177.000000	99.200106 
3176.000000	99.200455 
3175.000000	99.199983 
3174.000000	99.199308 
3173.000000	99.200271 
3172.000000	99.204023 
3171.000000	99.209453 
3170.000000	99.214037 
3169.000000	99.216546 
3168.000000	99.218415 
3167.000000	99.221757 
3166.000000	99.226372 
3165.000000	99.229711 
3164.000000	99.229894 
3163.000000	99.227757 
3162.000000	99.225436 
3161.000000	99.223933 
3160.000000	99.222989 
3159.000000	99.222584 
3158.000000	99.223094 
3157.000000	99.224001 
3156.000000	99.223759 
3155.000000	99.221581 
3154.000000	99.218705 
3153.000000	99.217341 
3152.000000	99.218494 
3151.000000	99.220960 
3150.000000	99.222357 
3149.000000	99.221292 
3148.000000	99.218909 
3147.000000	99.218122 
3146.000000	99.220711 
3145.000000	99.225126 
3144.000000	99.227862 
3143.000000	99.227197 
3142.000000	99.224960 
3141.000000	99.224263 
3140.000000	99.226050 
3139.000000	99.228425 
3138.000000	99.229143 
3137.000000	99.228111 
3136.000000	99.227232 
3135.000000	99.228093 
3134.000000	99.230155 
3133.000000	99.231285 
3132.000000	99.229936 
3131.000000	99.226525 
3130.000000	99.222623 
3129.000000	99.219274 
3128.000000	99.216674 
3127.000000	99.215230 
3126.000000	99.215918 
3125.000000	99.219044 
3124.000000	99.223201 
3123.000000	99.226104 
3122.000000	99.226403 
3121.000000	99.224528 
3120.000000	99.222105 
3119.000000	99.220766 
3118.000000	99.221190 
3117.000000	99.222834 
3116.000000	99.224568 
3115.000000	99.225674 
3114.000000	99.226054 
3113.000000	99.225514 
3112.000000	99.223535 
3111.000000	99.220249 
3110.000000	99.217048 
3109.000000	99.215416 
3108.000000	99.215334 
3107.000000	99.215539 
3106.000000	99.215249 
3105.000000	99.214943 
3104.000000	99.215573 
3103.000000	99.217841 
3102.000000	99.222256 
3101.000000	99.228873 
3100.000000	99.236303 
3099.000000	99.241606 
3098.000000	99.242394 
3097.000000	99.239388 
3096.000000	99.236243 
3095.000000	99.236277 
3094.000000	99.239562 
3093.000000	99.243417 
3092.000000	99.245231 
3091.000000	99.244256 
3090.000000	99.241193 
3089.000000	99.237313 
3088.000000	99.234348 
3087.000000	99.234073 
3086.000000	99.236793 
3085.000000	99.240426 
3084.000000	99.242088 
3083.000000	99.240769 
3082.000000	99.237920 
3081.000000	99.235450 
3080.000000	99.233855 
3079.000000	99.232467 
3078.000000	99.230745 
3077.000000	99.228810 
3076.000000	99.227181 
3075.000000	99.226505 
3074.000000	99.227224 
3073.000000	99.229074 
3072.000000	99.231286 
3071.000000	99.233615 
3070.000000	99.236535 
3069.000000	99.239709 
3068.000000	99.240925 
3067.000000	99.237904 
3066.000000	99.231476 
3065.000000	99.225799 
3064.000000	99.224555 
3063.000000	99.227303 
3062.000000	99.230259 
3061.000000	99.230410 
3060.000000	99.228250 
3059.000000	99.226563 
3058.000000	99.227286 
3057.000000	99.229995 
3056.000000	99.233026 
3055.000000	99.235342 
3054.000000	99.236992 
3053.000000	99.238149 
3052.000000	99.238449 
3051.000000	99.237623 
3050.000000	99.236357 
3049.000000	99.235767 
3048.000000	99.235777 
3047.000000	99.234606 
3046.000000	99.230547 
3045.000000	99.224203 
3044.000000	99.218427 
3043.000000	99.215855 
3042.000000	99.216756 
3041.000000	99.219300 
3040.000000	99.221464 
3039.000000	99.222478 
3038.000000	99.222788 
3037.000000	99.223200 
3036.000000	99.224125 
3035.000000	99.225403 
3034.000000	99.226628 
3033.000000	99.227502 
3032.000000	99.227667 
3031.000000	99.226244 
3030.000000	99.221990 
3029.000000	99.214343 
3028.000000	99.204422 
3027.000000	99.194922 
3026.000000	99.188750 
3025.000000	99.187245 
3024.000000	99.189113 
3023.000000	99.190926 
3022.000000	99.189170 
3021.000000	99.182596 
3020.000000	99.173116 
3019.000000	99.164419 
3018.000000	99.159437 
3017.000000	99.158699 
3016.000000	99.160555 
3015.000000	99.162555 
3014.000000	99.162613 
3013.000000	99.159370 
3012.000000	99.152155 
3011.000000	99.141154 
3010.000000	99.127837 
3009.000000	99.114912 
3008.000000	99.105293 
3007.000000	99.100703 
3006.000000	99.100981 
3005.000000	99.104277 
3004.000000	99.107497 
3003.000000	99.107121 
3002.000000	99.101026 
3001.000000	99.090475 
3000.000000	99.079802 
2999.000000	99.072962 
2998.000000	99.070299 
2997.000000	99.069317 
2996.000000	99.068268 
2995.000000	99.067665 
2994.000000	99.067814 
2993.000000	99.066322 
2992.000000	99.059788 
2991.000000	99.047936 
2990.000000	99.034799 
2989.000000	99.025168 
2988.000000	99.020397 
2987.000000	99.018247 
2986.000000	99.016317 
2985.000000	99.014669 
2984.000000	99.014820 
2983.000000	99.017038 
2982.000000	99.019544 
2981.000000	99.020366 
2980.000000	99.019240 
2979.000000	99.017246 
2978.000000	99.015102 
2977.000000	99.012589 
2976.000000	99.009517 
2975.000000	99.006334 
2974.000000	99.003295 
2973.000000	98.999647 
2972.000000	98.994362 
2971.000000	98.987528 
2970.000000	98.980429 
2969.000000	98.974239 
2968.000000	98.969217 
2967.000000	98.965174 
2966.000000	98.962089 
2965.000000	98.959865 
2964.000000	98.957982 
2963.000000	98.955997 
2962.000000	98.954175 
2961.000000	98.953062 
2960.000000	98.952581 
2959.000000	98.952241 
2958.000000	98.952316 
2957.000000	98.953853 
2956.000000	98.956816 
2955.000000	98.958878 
2954.000000	98.957367 
2953.000000	98.952861 
2952.000000	98.949840 
2951.000000	98.952658 
2950.000000	98.960805 
2949.000000	98.968866 
2948.000000	98.971424 
2947.000000	98.967551 
2946.000000	98.960336 
2945.000000	98.952915 
2944.000000	98.945997 
2943.000000	98.938858 
2942.000000	98.931010 
2941.000000	98.921966 
2940.000000	98.910376 
2939.000000	98.894917 
2938.000000	98.876098 
2937.000000	98.856263 
2936.000000	98.837669 
2935.000000	98.821217 
2934.000000	98.806857 
2933.000000	98.793867 
2932.000000	98.780280 
2931.000000	98.763313 
2930.000000	98.741656 
2929.000000	98.717107 
2928.000000	98.693355 
2927.000000	98.673556 
2926.000000	98.659546 
2925.000000	98.652255 
2924.000000	98.651413 
2923.000000	98.655119 
2922.000000	98.661172 
2921.000000	98.669122 
2920.000000	98.680032 
2919.000000	98.694214 
2918.000000	98.710368 
2917.000000	98.727342 
2916.000000	98.745614 
2915.000000	98.766348 
2914.000000	98.789676 
2913.000000	98.814451 
2912.000000	98.838957 
2911.000000	98.861184 
2910.000000	98.879153 
2909.000000	98.892015 
2908.000000	98.900752 
2907.000000	98.907157 
2906.000000	98.912354 
2905.000000	98.916625 
2904.000000	98.920077 
2903.000000	98.922759 
2902.000000	98.924637 
2901.000000	98.926520 
2900.000000	98.930492 
2899.000000	98.938305 
2898.000000	98.949053 
2897.000000	98.959594 
2896.000000	98.967879 
2895.000000	98.974980 
2894.000000	98.983325 
2893.000000	98.993529 
2892.000000	99.003677 
2891.000000	99.011339 
2890.000000	99.015661 
2889.000000	99.017672 
2888.000000	99.019148 
2887.000000	99.021252 
2886.000000	99.023938 
2885.000000	99.026455 
2884.000000	99.028445 
2883.000000	99.030530 
2882.000000	99.033800 
2881.000000	99.038848 
2880.000000	99.045311 
2879.000000	99.052223 
2878.000000	99.058638 
2877.000000	99.063891 
2876.000000	99.067246 
2875.000000	99.067592 
2874.000000	99.064066 
2873.000000	99.057447 
2872.000000	99.050545 
2871.000000	99.046416 
2870.000000	99.045894 
2869.000000	99.047137 
2868.000000	99.047680 
2867.000000	99.046674 
2866.000000	99.045205 
2865.000000	99.044873 
2864.000000	99.046024 
2863.000000	99.046726 
2862.000000	99.043364 
2861.000000	99.033109 
2860.000000	99.016668 
2859.000000	98.998328 
2858.000000	98.982648 
2857.000000	98.971107 
2856.000000	98.962175 
2855.000000	98.954300 
2854.000000	98.948191 
2853.000000	98.946215 
2852.000000	98.950295 
2851.000000	98.960644 
2850.000000	98.976163 
2849.000000	98.995519 
2848.000000	99.017768 
2847.000000	99.042084 
2846.000000	99.066914 
2845.000000	99.089642 
2844.000000	99.107739 
2843.000000	99.120860 
2842.000000	99.131714 
2841.000000	99.143985 
2840.000000	99.158684 
2839.000000	99.172703 
2838.000000	99.181577 
2837.000000	99.183776 
2836.000000	99.181991 
2835.000000	99.180483 
2834.000000	99.181966 
2833.000000	99.186987 
2832.000000	99.194821 
2831.000000	99.203762 
2830.000000	99.211273 
2829.000000	99.215532 
2828.000000	99.217307 
2827.000000	99.219265 
2826.000000	99.222951 
2825.000000	99.227101 
2824.000000	99.229507 
2823.000000	99.229961 
2822.000000	99.230574 
2821.000000	99.233336 
2820.000000	99.237988 
2819.000000	99.242421 
2818.000000	99.244820 
2817.000000	99.245154 
2816.000000	99.244703 
2815.000000	99.244404 
2814.000000	99.244007 
2813.000000	99.242934 
2812.000000	99.241550 
2811.000000	99.241021 
2810.000000	99.241947 
2809.000000	99.243698 
2808.000000	99.245337 
2807.000000	99.246771 
2806.000000	99.248653 
2805.000000	99.251365 
2804.000000	99.254413 
2803.000000	99.256703 
2802.000000	99.257229 
2801.000000	99.255651 
2800.000000	99.252572 
2799.000000	99.249384 
2798.000000	99.247674 
2797.000000	99.248405 
2796.000000	99.251241 
2795.000000	99.254523 
2794.000000	99.256247 
2793.000000	99.255550 
2792.000000	99.253288 
2791.000000	99.251139 
2790.000000	99.250407 
2789.000000	99.251786 
2788.000000	99.255438 
2787.000000	99.260389 
2786.000000	99.264325 
2785.000000	99.265329 
2784.000000	99.264127 
2783.000000	99.263514 
2782.000000	99.265138 
2781.000000	99.267769 
2780.000000	99.269243 
2779.000000	99.269135 
2778.000000	99.268645 
2777.000000	99.268651 
2776.000000	99.268954 
2775.000000	99.269081 
2774.000000	99.268803 
2773.000000	99.267982 
2772.000000	99.266697 
2771.000000	99.265456 
2770.000000	99.264710 
2769.000000	99.264388 
2768.000000	99.264539 
2767.000000	99.265951 
2766.000000	99.269125 
2765.000000	99.272880 
2764.000000	99.275135 
2763.000000	99.275231 
2762.000000	99.274549 
2761.000000	99.274722 
2760.000000	99.276235 
2759.000000	99.278913 
2758.000000	99.282486 
2757.000000	99.286095 
2756.000000	99.288357 
2755.000000	99.288791 
2754.000000	99.288374 
2753.000000	99.287822 
2752.000000	99.286170 
2751.000000	99.282246 
2750.000000	99.276971 
2749.000000	99.272724 
2748.000000	99.270380 
2747.000000	99.268341 
2746.000000	99.264960 
2745.000000	99.260906 
2744.000000	99.258412 
2743.000000	99.258799 
2742.000000	99.261527 
2741.000000	99.265327 
2740.000000	99.269428 
2739.000000	99.273539 
2738.000000	99.277237 
2737.000000	99.279899 
2736.000000	99.281216 
2735.000000	99.281490 
2734.000000	99.281268 
2733.000000	99.280785 
2732.000000	99.279931 
2731.000000	99.278670 
2730.000000	99.277252 
2729.000000	99.276030 
2728.000000	99.275383 
2727.000000	99.275827 
2726.000000	99.277657 
2725.000000	99.280261 
2724.000000	99.282358 
2723.000000	99.283403 
2722.000000	99.284313 
2721.000000	99.286166 
2720.000000	99.288496 
2719.000000	99.289606 
2718.000000	99.288398 
2717.000000	99.285256 
2716.000000	99.281502 
2715.000000	99.278900 
2714.000000	99.279303 
2713.000000	99.283182 
2712.000000	99.288168 
2711.000000	99.290642 
2710.000000	99.289734 
2709.000000	99.288535 
2708.000000	99.290113 
2707.000000	99.293311 
2706.000000	99.294058 
2705.000000	99.290408 
2704.000000	99.284662 
2703.000000	99.280440 
2702.000000	99.279197 
2701.000000	99.279987 
2700.000000	99.281321 
2699.000000	99.282250 
2698.000000	99.282325 
2697.000000	99.281526 
2696.000000	99.280400 
2695.000000	99.279966 
2694.000000	99.281189 
2693.000000	99.284045 
2692.000000	99.286737 
2691.000000	99.286559 
2690.000000	99.282685 
2689.000000	99.277975 
2688.000000	99.276609 
2687.000000	99.279492 
2686.000000	99.283076 
2685.000000	99.283443 
2684.000000	99.280663 
2683.000000	99.278316 
2682.000000	99.279411 
2681.000000	99.283744 
2680.000000	99.288806 
2679.000000	99.292177 
2678.000000	99.293093 
2677.000000	99.292568 
2676.000000	99.292311 
2675.000000	99.293151 
2674.000000	99.294394 
2673.000000	99.294789 
2672.000000	99.293834 
2671.000000	99.291808 
2670.000000	99.288901 
2669.000000	99.284982 
2668.000000	99.280284 
2667.000000	99.275925 
2666.000000	99.273569 
2665.000000	99.274519 
2664.000000	99.278795 
2663.000000	99.284856 
2662.000000	99.290453 
2661.000000	99.294084 
2660.000000	99.295547 
2659.000000	99.295204 
2658.000000	99.293355 
2657.000000	99.290611 
2656.000000	99.288160 
2655.000000	99.286935 
2654.000000	99.286741 
2653.000000	99.286673 
2652.000000	99.286127 
2651.000000	99.285048 
2650.000000	99.283732 
2649.000000	99.282918 
2648.000000	99.283529 
2647.000000	99.285516 
2646.000000	99.287300 
2645.000000	99.287220 
2644.000000	99.285379 
2643.000000	99.283390 
2642.000000	99.282570 
2641.000000	99.283086 
2640.000000	99.284583 
2639.000000	99.286725 
2638.000000	99.289116 
2637.000000	99.291363 
2636.000000	99.293127 
2635.000000	99.293734 
2634.000000	99.292338 
2633.000000	99.289363 
2632.000000	99.287172 
2631.000000	99.287988 
2630.000000	99.291337 
2629.000000	99.294727 
2628.000000	99.296708 
2627.000000	99.298002 
2626.000000	99.299680 
2625.000000	99.301585 
2624.000000	99.302727 
2623.000000	99.302008 
2622.000000	99.298564 
2621.000000	99.292853 
2620.000000	99.287520 
2619.000000	99.285442 
2618.000000	99.286353 
2617.000000	99.286889 
2616.000000	99.284742 
2615.000000	99.281346 
2614.000000	99.279635 
2613.000000	99.280575 
2612.000000	99.283067 
2611.000000	99.286099 
2610.000000	99.289509 
2609.000000	99.293129 
2608.000000	99.296399 
2607.000000	99.298867 
2606.000000	99.300583 
2605.000000	99.302048 
2604.000000	99.303541 
2603.000000	99.303917 
2602.000000	99.300901 
2601.000000	99.294499 
2600.000000	99.289808 
2599.000000	99.293534 
2598.000000	99.306297 
2597.000000	99.320467 
2596.000000	99.327239 
2595.000000	99.324246 
2594.000000	99.315048 
2593.000000	99.303860 
2592.000000	99.293603 
2591.000000	99.287239 
2590.000000	99.287066 
2589.000000	99.292413 
2588.000000	99.300306 
2587.000000	99.308156 
2586.000000	99.313677 
2585.000000	99.313379 
2584.000000	99.305138 
2583.000000	99.292985 
2582.000000	99.285630 
2581.000000	99.287950 
2580.000000	99.295835 
2579.000000	99.301181 
2578.000000	99.300297 
2577.000000	99.295758 
2576.000000	99.291715 
2575.000000	99.289843 
2574.000000	99.289359 
2573.000000	99.288767 
2572.000000	99.287071 
2571.000000	99.284353 
2570.000000	99.281647 
2569.000000	99.280067 
2568.000000	99.280314 
2567.000000	99.283029 
2566.000000	99.288519 
2565.000000	99.295446 
2564.000000	99.300829 
2563.000000	99.302488 
2562.000000	99.300986 
2561.000000	99.298408 
2560.000000	99.296102 
2559.000000	99.294493 
2558.000000	99.293846 
2557.000000	99.293542 
2556.000000	99.291602 
2555.000000	99.287270 
2554.000000	99.283667 
2553.000000	99.285268 
2552.000000	99.292276 
2551.000000	99.300012 
2550.000000	99.304782 
2549.000000	99.307688 
2548.000000	99.310893 
2547.000000	99.312741 
2546.000000	99.309899 
2545.000000	99.303151 
2544.000000	99.297387 
2543.000000	99.295499 
2542.000000	99.295388 
2541.000000	99.294102 
2540.000000	99.292265 
2539.000000	99.292428 
2538.000000	99.294719 
2537.000000	99.296287 
2536.000000	99.294531 
2535.000000	99.289482 
2534.000000	99.283531 
2533.000000	99.279948 
2532.000000	99.280970 
2531.000000	99.286015 
2530.000000	99.292123 
2529.000000	99.297162 
2528.000000	99.301919 
2527.000000	99.307825 
2526.000000	99.313534 
2525.000000	99.315801 
2524.000000	99.313661 
2523.000000	99.309895 
2522.000000	99.307971 
2521.000000	99.308983 
2520.000000	99.311990 
2519.000000	99.315736 
2518.000000	99.319035 
2517.000000	99.320442 
2516.000000	99.318710 
2515.000000	99.313556 
2514.000000	99.305817 
2513.000000	99.297065 
2512.000000	99.288799 
2511.000000	99.281370 
2510.000000	99.274267 
2509.000000	99.268564 
2508.000000	99.268279 
2507.000000	99.276883 
2506.000000	99.291729 
2505.000000	99.303921 
2504.000000	99.305502 
2503.000000	99.296307 
2502.000000	99.283284 
2501.000000	99.274439 
2500.000000	99.274288 
2499.000000	99.283223 
2498.000000	99.298447 
2497.000000	99.314985 
2496.000000	99.327425 
2495.000000	99.331983 
2494.000000	99.327362 
2493.000000	99.314457 
2492.000000	99.296161 
2491.000000	99.277250 
2490.000000	99.263263 
2489.000000	99.258297 
2488.000000	99.262995 
2487.000000	99.274088 
2486.000000	99.286146 
2485.000000	99.294891 
2484.000000	99.299525 
2483.000000	99.301648 
2482.000000	99.302247 
2481.000000	99.300903 
2480.000000	99.298081 
2479.000000	99.296320 
2478.000000	99.297654 
2477.000000	99.300701 
2476.000000	99.301806 
2475.000000	99.298853 
2474.000000	99.292938 
2473.000000	99.286765 
2472.000000	99.282785 
2471.000000	99.282772 
2470.000000	99.287526 
2469.000000	99.295851 
2468.000000	99.304352 
2467.000000	99.309211 
2466.000000	99.308745 
2465.000000	99.304530 
2464.000000	99.299934 
2463.000000	99.296976 
2462.000000	99.294426 
2461.000000	99.289666 
2460.000000	99.282846 
2459.000000	99.278257 
2458.000000	99.280491 
2457.000000	99.289466 
2456.000000	99.300085 
2455.000000	99.306514 
2454.000000	99.306051 
2453.000000	99.299534 
2452.000000	99.290002 
2451.000000	99.281617 
2450.000000	99.278325 
2449.000000	99.281697 
2448.000000	99.289702 
2447.000000	99.298244 
2446.000000	99.304234 
2445.000000	99.307223 
2444.000000	99.308331 
2443.000000	99.308111 
2442.000000	99.305830 
2441.000000	99.300951 
2440.000000	99.295093 
2439.000000	99.291965 
2438.000000	99.294762 
2437.000000	99.303212 
2436.000000	99.312927 
2435.000000	99.317637 
2434.000000	99.312786 
2433.000000	99.298434 
2432.000000	99.279630 
2431.000000	99.263519 
2430.000000	99.255093 
2429.000000	99.255132 
2428.000000	99.261826 
2427.000000	99.273295 
2426.000000	99.287450 
2425.000000	99.299967 
2424.000000	99.304680 
2423.000000	99.297959 
2422.000000	99.282859 
2421.000000	99.268015 
2420.000000	99.261563 
2419.000000	99.265825 
2418.000000	99.277316 
2417.000000	99.290766 
2416.000000	99.302312 
2415.000000	99.309563 
2414.000000	99.310737 
2413.000000	99.305433 
2412.000000	99.295898 
2411.000000	99.286188 
2410.000000	99.279639 
2409.000000	99.277554 
2408.000000	99.279958 
2407.000000	99.286322 
2406.000000	99.294993 
2405.000000	99.302910 
2404.000000	99.307017 
2403.000000	99.306096 
2402.000000	99.301192 
2401.000000	99.294786 
2400.000000	99.289651 
2399.000000	99.287576 
2398.000000	99.288348 
2397.000000	99.290185 
2396.000000	99.291558 
2395.000000	99.292173 
2394.000000	99.291904 
2393.000000	99.289765 
2392.000000	99.285226 
2391.000000	99.280269 
2390.000000	99.278802 
2389.000000	99.283416 
2388.000000	99.293059 
2387.000000	99.304032 
2386.000000	99.312645 
2385.000000	99.316742 
2384.000000	99.315712 
2383.000000	99.310266 
2382.000000	99.302486 
2381.000000	99.295292 
2380.000000	99.290842 
2379.000000	99.289153 
2378.000000	99.288747 
2377.000000	99.288889 
2376.000000	99.290565 
2375.000000	99.294403 
2374.000000	99.298002 
2373.000000	99.297094 
2372.000000	99.290398 
2371.000000	99.282378 
2370.000000	99.279768 
2369.000000	99.285317 
2368.000000	99.295655 
2367.000000	99.304947 
2366.000000	99.309431 
2365.000000	99.308592 
2364.000000	99.303731 
2363.000000	99.296561 
2362.000000	99.288264 
2361.000000	99.279430 
2360.000000	99.272022 
2359.000000	99.270009 
2358.000000	99.276683 
2357.000000	99.291383 
2356.000000	99.308181 
2355.000000	99.319583 
2354.000000	99.321095 
2353.000000	99.313605 
2352.000000	99.302657 
2351.000000	99.294194 
2350.000000	99.291224 
2349.000000	99.291935 
2348.000000	99.292240 
2347.000000	99.290354 
2346.000000	99.287340 
2345.000000	99.285051 
2344.000000	99.282572 
2343.000000	99.278331 
2342.000000	99.273378 
2341.000000	99.270664 
2340.000000	99.272658 
2339.000000	99.279224 
2338.000000	99.289563 
2337.000000	99.302089 
2336.000000	99.314095 
2335.000000	99.322160 
2334.000000	99.324239 
2333.000000	99.320024 
2332.000000	99.310390 
2331.000000	99.296563 
2330.000000	99.281960 
2329.000000	99.272156 
2328.000000	99.272534 
2327.000000	99.284487 
2326.000000	99.302378 
2325.000000	99.317115 
2324.000000	99.321289 
2323.000000	99.315599 
2322.000000	99.308012 
2321.000000	99.306533 
2320.000000	99.312621 
2319.000000	99.321173 
2318.000000	99.327857 
2317.000000	99.332525 
2316.000000	99.337350 
2315.000000	99.342092 
2314.000000	99.344237 
2313.000000	99.342358 
2312.000000	99.338269 
2311.000000	99.335579 
2310.000000	99.337059 
2309.000000	99.343541 
2308.000000	99.353310 
2307.000000	99.362840 
2306.000000	99.368524 
2305.000000	99.368915 
2304.000000	99.364295 
2303.000000	99.354929 
2302.000000	99.341018 
2301.000000	99.324603 
2300.000000	99.309596 
2299.000000	99.298964 
2298.000000	99.293427 
2297.000000	99.293579 
2296.000000	99.300557 
2295.000000	99.312446 
2294.000000	99.321527 
2293.000000	99.319362 
2292.000000	99.305130 
2291.000000	99.287339 
2290.000000	99.276244 
2289.000000	99.276265 
2288.000000	99.285100 
2287.000000	99.297728 
2286.000000	99.309471 
2285.000000	99.316980 
2284.000000	99.318393 
2283.000000	99.312856 
2282.000000	99.299749 
2281.000000	99.279612 
2280.000000	99.256885 
2279.000000	99.240457 
2278.000000	99.239361 
2277.000000	99.256233 
2276.000000	99.284473 
2275.000000	99.311781 
2274.000000	99.327092 
2273.000000	99.325532 
2272.000000	99.308699 
2271.000000	99.282212 
2270.000000	99.254483 
2269.000000	99.236339 
2268.000000	99.237112 
2267.000000	99.257625 
2266.000000	99.287501 
2265.000000	99.311601 
2264.000000	99.319956 
2263.000000	99.312073 
2262.000000	99.294753 
2261.000000	99.278233 
2260.000000	99.271458 
2259.000000	99.276329 
2258.000000	99.286563 
2257.000000	99.295244 
2256.000000	99.302709 
2255.000000	99.312969 
2254.000000	99.323334 
2253.000000	99.323898 
2252.000000	99.309779 
2251.000000	99.288825 
2250.000000	99.273914 
2249.000000	99.270961 
2248.000000	99.277324 
2247.000000	99.288598 
2246.000000	99.302005 
2245.000000	99.314035 
2244.000000	99.319494 
2243.000000	99.314731 
2242.000000	99.300557 
2241.000000	99.281831 
2240.000000	99.264956 
2239.000000	99.255108 
2238.000000	99.254225 
2237.000000	99.260588 
2236.000000	99.269810 
2235.000000	99.275878 
2234.000000	99.272573 
2233.000000	99.257112 
2232.000000	99.234048 
2231.000000	99.214019 
2230.000000	99.207095 
2229.000000	99.217127 
2228.000000	99.241513 
2227.000000	99.273722 
2226.000000	99.305029 
2225.000000	99.326801 
2224.000000	99.334552 
2223.000000	99.329745 
2222.000000	99.316836 
2221.000000	99.299722 
2220.000000	99.281601 
2219.000000	99.266311 
2218.000000	99.258075 
2217.000000	99.260285 
2216.000000	99.274550 
2215.000000	99.298862 
2214.000000	99.325133 
2213.000000	99.340660 
2212.000000	99.335968 
2211.000000	99.313025 
2210.000000	99.285523 
2209.000000	99.270254 
2208.000000	99.276072 
2207.000000	99.298922 
2206.000000	99.326262 
2205.000000	99.345927 
2204.000000	99.351326 
2203.000000	99.340316 
2202.000000	99.313559 
2201.000000	99.276514 
2200.000000	99.239481 
2199.000000	99.211317 
2198.000000	99.194329 
2197.000000	99.188003 
2196.000000	99.195016 
2195.000000	99.218352 
2194.000000	99.252755 
2193.000000	99.284120 
2192.000000	99.299303 
2191.000000	99.294460 
2190.000000	99.275087 
2189.000000	99.252889 
2188.000000	99.241848 
2187.000000	99.250865 
2186.000000	99.277481 
2185.000000	99.310825 
2184.000000	99.340188 
2183.000000	99.357340 
2182.000000	99.354020 
2181.000000	99.327479 
2180.000000	99.290280 
2179.000000	99.264980 
2178.000000	99.264532 
2177.000000	99.282480 
2176.000000	99.303696 
2175.000000	99.318414 
2174.000000	99.322823 
2173.000000	99.313974 
2172.000000	99.291522 
2171.000000	99.261275 
2170.000000	99.232506 
2169.000000	99.213614 
2168.000000	99.211137 
2167.000000	99.227554 
2166.000000	99.256389 
2165.000000	99.283906 
2164.000000	99.300359 
2163.000000	99.306294 
2162.000000	99.305511 
2161.000000	99.298813 
2160.000000	99.289251 
2159.000000	99.286115 
2158.000000	99.296356 
2157.000000	99.317259 
2156.000000	99.342884 
2155.000000	99.369368 
2154.000000	99.388325 
2153.000000	99.384980 
2152.000000	99.352004 
2151.000000	99.300920 
2150.000000	99.253970 
2149.000000	99.227788 
2148.000000	99.227234 
2147.000000	99.248443 
2146.000000	99.280718 
2145.000000	99.309348 
2144.000000	99.324776 
2143.000000	99.328085 
2142.000000	99.323700 
2141.000000	99.311453 
2140.000000	99.291494 
2139.000000	99.272293 
2138.000000	99.265424 
2137.000000	99.273235 
2136.000000	99.288064 
2135.000000	99.303116 
2134.000000	99.317488 
2133.000000	99.330034 
2132.000000	99.334768 
2131.000000	99.325165 
2130.000000	99.300757 
2129.000000	99.269411 
2128.000000	99.244639 
2127.000000	99.238495 
2126.000000	99.253106 
2125.000000	99.278682 
2124.000000	99.302153 
2123.000000	99.317212 
2122.000000	99.323775 
2121.000000	99.320807 
2120.000000	99.305739 
2119.000000	99.281325 
2118.000000	99.257858 
2117.000000	99.245892 
2116.000000	99.248674 
2115.000000	99.262528 
2114.000000	99.281355 
2113.000000	99.298618 
2112.000000	99.307866 
2111.000000	99.305296 
2110.000000	99.292871 
2109.000000	99.278173 
2108.000000	99.270189 
2107.000000	99.273704 
2106.000000	99.285977 
2105.000000	99.298473 
2104.000000	99.303006 
2103.000000	99.296997 
2102.000000	99.283097 
2101.000000	99.265156 
2100.000000	99.245873 
2099.000000	99.227741 
2098.000000	99.214913 
2097.000000	99.213161 
2096.000000	99.226588 
2095.000000	99.252257 
2094.000000	99.277958 
2093.000000	99.289008 
2092.000000	99.280395 
2091.000000	99.260917 
2090.000000	99.243891 
2089.000000	99.235454 
2088.000000	99.233325 
2087.000000	99.234504 
2086.000000	99.239787 
2085.000000	99.250480 
2084.000000	99.264072 
2083.000000	99.274639 
2082.000000	99.276567 
2081.000000	99.268296 
2080.000000	99.254086 
2079.000000	99.241990 
2078.000000	99.239254 
2077.000000	99.249751 
2076.000000	99.274820 
2075.000000	99.312716 
2074.000000	99.354272 
2073.000000	99.382836 
2072.000000	99.384669 
2071.000000	99.360052 
2070.000000	99.321924 
2069.000000	99.285034 
2068.000000	99.258587 
2067.000000	99.246818 
2066.000000	99.250833 
2065.000000	99.267536 
2064.000000	99.290016 
2063.000000	99.311262 
2062.000000	99.326335 
2061.000000	99.331922 
2060.000000	99.327329 
2059.000000	99.316400 
2058.000000	99.305831 
2057.000000	99.300545 
2056.000000	99.301339 
2055.000000	99.305974 
2054.000000	99.310292 
2053.000000	99.309084 
2052.000000	99.298892 
2051.000000	99.280641 
2050.000000	99.258811 
2049.000000	99.238830 
2048.000000	99.226153 
2047.000000	99.226290 
2046.000000	99.242720 
2045.000000	99.273937 
2044.000000	99.313889 
2043.000000	99.354289 
2042.000000	99.384641 
2041.000000	99.393673 
2040.000000	99.376989 
2039.000000	99.342998 
2038.000000	99.307576 
2037.000000	99.282787 
2036.000000	99.271701 
2035.000000	99.271772 
2034.000000	99.278743 
2033.000000	99.286739 
2032.000000	99.289341 
2031.000000	99.283245 
2030.000000	99.269663 
2029.000000	99.252645 
2028.000000	99.237731 
2027.000000	99.231672 
2026.000000	99.240656 
2025.000000	99.266354 
2024.000000	99.302095 
2023.000000	99.331870 
2022.000000	99.335996 
2021.000000	99.305099 
2020.000000	99.252546 
2019.000000	99.207889 
2018.000000	99.193446 
2017.000000	99.207567 
2016.000000	99.232694 
2015.000000	99.257176 
2014.000000	99.282944 
2013.000000	99.314618 
2012.000000	99.348726 
2011.000000	99.374554 
2010.000000	99.382269 
2009.000000	99.371015 
2008.000000	99.351378 
2007.000000	99.337357 
2006.000000	99.333344 
2005.000000	99.331596 
2004.000000	99.323902 
2003.000000	99.310688 
2002.000000	99.296018 
2001.000000	99.278944 
2000.000000	99.255782 
1999.000000	99.228595 
1998.000000	99.206851 
1997.000000	99.202443 
1996.000000	99.224408 
1995.000000	99.274346 
1994.000000	99.340682 
1993.000000	99.398355 
1992.000000	99.422838 
1991.000000	99.408478 
1990.000000	99.369153 
1989.000000	99.323872 
1988.000000	99.287490 
1987.000000	99.269299 
1986.000000	99.270324 
1985.000000	99.281953 
1984.000000	99.294183 
1983.000000	99.305688 
1982.000000	99.320368 
1981.000000	99.334963 
1980.000000	99.338444 
1979.000000	99.325850 
1978.000000	99.306225 
1977.000000	99.292989 
1976.000000	99.289620 
1975.000000	99.289471 
1974.000000	99.286334 
1973.000000	99.280508 
1972.000000	99.275505 
1971.000000	99.271194 
1970.000000	99.261134 
1969.000000	99.239123 
1968.000000	99.210809 
1967.000000	99.195857 
1966.000000	99.212118 
1965.000000	99.257439 
1964.000000	99.311527 
1963.000000	99.353286 
1962.000000	99.371859 
1961.000000	99.365846 
1960.000000	99.340509 
1959.000000	99.306741 
1958.000000	99.277114 
1957.000000	99.258584 
1956.000000	99.249842 
1955.000000	99.246757 
1954.000000	99.247565 
1953.000000	99.251505 
1952.000000	99.255239 
1951.000000	99.254097 
1950.000000	99.246811 
1949.000000	99.237113 
1948.000000	99.231276 
1947.000000	99.233609 
1946.000000	99.242737 
1945.000000	99.251986 
1944.000000	99.254636 
1943.000000	99.249200 
1942.000000	99.238785 
1941.000000	99.225694 
1940.000000	99.209067 
1939.000000	99.189222 
1938.000000	99.172846 
1937.000000	99.170826 
1936.000000	99.189061 
1935.000000	99.221975 
1934.000000	99.256384 
1933.000000	99.282425 
1932.000000	99.299862 
1931.000000	99.312770 
1930.000000	99.319813 
1929.000000	99.313656 
1928.000000	99.292526 
1927.000000	99.266626 
1926.000000	99.249835 
1925.000000	99.246952 
1924.000000	99.251380 
1923.000000	99.255211 
1922.000000	99.256378 
1921.000000	99.255442 
1920.000000	99.249736 
1919.000000	99.235213 
1918.000000	99.213803 
1917.000000	99.196286 
1916.000000	99.194505 
1915.000000	99.211229 
1914.000000	99.238886 
1913.000000	99.265614 
1912.000000	99.281714 
1911.000000	99.282625 
1910.000000	99.267804 
1909.000000	99.241011 
1908.000000	99.212593 
1907.000000	99.194736 
1906.000000	99.192712 
1905.000000	99.202090 
1904.000000	99.214667 
1903.000000	99.226694 
1902.000000	99.237745 
1901.000000	99.245869 
1900.000000	99.249137 
1899.000000	99.249319 
1898.000000	99.250136 
1897.000000	99.252769 
1896.000000	99.255235 
1895.000000	99.256185 
1894.000000	99.255749 
1893.000000	99.253576 
1892.000000	99.248730 
1891.000000	99.240745 
1890.000000	99.228764 
1889.000000	99.211972 
1888.000000	99.193986 
1887.000000	99.183286 
1886.000000	99.186393 
1885.000000	99.202265 
1884.000000	99.223769 
1883.000000	99.244016 
1882.000000	99.258751 
1881.000000	99.264630 
1880.000000	99.260994 
1879.000000	99.251912 
1878.000000	99.243195 
1877.000000	99.237892 
1876.000000	99.235315 
1875.000000	99.233681 
1874.000000	99.231569 
1873.000000	99.227511 
1872.000000	99.221570 
1871.000000	99.216827 
1870.000000	99.216250 
1869.000000	99.218187 
1868.000000	99.220291 
1867.000000	99.226684 
1866.000000	99.241547 
1865.000000	99.259699 
1864.000000	99.270154 
1863.000000	99.266468 
1862.000000	99.250944 
1861.000000	99.230364 
1860.000000	99.211315 
1859.000000	99.198795 
1858.000000	99.194505 
1857.000000	99.195403 
1856.000000	99.197519 
1855.000000	99.201781 
1854.000000	99.212127 
1853.000000	99.227309 
1852.000000	99.240739 
1851.000000	99.248161 
1850.000000	99.250955 
1849.000000	99.253036 
1848.000000	99.255631 
1847.000000	99.257173 
1846.000000	99.255712 
1845.000000	99.250655 
1844.000000	99.243429 
1843.000000	99.238717 
1842.000000	99.240414 
1841.000000	99.245348 
1840.000000	99.247550 
1839.000000	99.244260 
1838.000000	99.237550 
1837.000000	99.232406 
1836.000000	99.233205 
1835.000000	99.241934 
1834.000000	99.256677 
1833.000000	99.272245 
1832.000000	99.283094 
1831.000000	99.284181 
1830.000000	99.271887 
1829.000000	99.249803 
1828.000000	99.228063 
1827.000000	99.213086 
1826.000000	99.204690 
1825.000000	99.200616 
1824.000000	99.199386 
1823.000000	99.201251 
1822.000000	99.205613 
1821.000000	99.210350 
1820.000000	99.215123 
1819.000000	99.222174 
1818.000000	99.232573 
1817.000000	99.241977 
1816.000000	99.244790 
1815.000000	99.243163 
1814.000000	99.244466 
1813.000000	99.251733 
1812.000000	99.260319 
1811.000000	99.264668 
1810.000000	99.265379 
1809.000000	99.264396 
1808.000000	99.260199 
1807.000000	99.251963 
1806.000000	99.242840 
1805.000000	99.236544 
1804.000000	99.233909 
1803.000000	99.234581 
1802.000000	99.237616 
1801.000000	99.240194 
1800.000000	99.239079 
1799.000000	99.234681 
1798.000000	99.231114 
1797.000000	99.229648 
1796.000000	99.227845 
1795.000000	99.224189 
1794.000000	99.220158 
1793.000000	99.217458 
1792.000000	99.215223 
1791.000000	99.213555 
1790.000000	99.215218 
1789.000000	99.219622 
1788.000000	99.224734 
1787.000000	99.231825 
1786.000000	99.243419 
1785.000000	99.257088 
1784.000000	99.266657 
1783.000000	99.270308 
1782.000000	99.269487 
1781.000000	99.264203 
1780.000000	99.253602 
1779.000000	99.239349 
1778.000000	99.226844 
1777.000000	99.218803 
1776.000000	99.213771 
1775.000000	99.208695 
1774.000000	99.202848 
1773.000000	99.199318 
1772.000000	99.200657 
1771.000000	99.206877 
1770.000000	99.216852 
1769.000000	99.226179 
1768.000000	99.229414 
1767.000000	99.225273 
1766.000000	99.218018 
1765.000000	99.212193 
1764.000000	99.208146 
1763.000000	99.204232 
1762.000000	99.199728 
1761.000000	99.196233 
1760.000000	99.195425 
1759.000000	99.196068 
1758.000000	99.197223 
1757.000000	99.199125 
1756.000000	99.201828 
1755.000000	99.203674 
1754.000000	99.203484 
1753.000000	99.202931 
1752.000000	99.204652 
1751.000000	99.205232 
1750.000000	99.198094 
1749.000000	99.183359 
1748.000000	99.166558 
1747.000000	99.152379 
1746.000000	99.140567 
1745.000000	99.129817 
1744.000000	99.120237 
1743.000000	99.112336 
1742.000000	99.107215 
1741.000000	99.105923 
1740.000000	99.107948 
1739.000000	99.112161 
1738.000000	99.119385 
1737.000000	99.129438 
1736.000000	99.142191 
1735.000000	99.159661 
1734.000000	99.174425 
1733.000000	99.177305 
1732.000000	99.176725 
1731.000000	99.177069 
1730.000000	99.175997 
1729.000000	99.172857 
1728.000000	99.169405 
1727.000000	99.168002 
1726.000000	99.169806 
1725.000000	99.175587 
1724.000000	99.183377 
1723.000000	99.189153 
1722.000000	99.191794 
1721.000000	99.192134 
1720.000000	99.191524 
1719.000000	99.191871 
1718.000000	99.192638 
1717.000000	99.188378 
1716.000000	99.178777 
1715.000000	99.170482 
1714.000000	99.166492 
1713.000000	99.164021 
1712.000000	99.159662 
1711.000000	99.155043 
1710.000000	99.154219 
1709.000000	99.157457 
1708.000000	99.161746 
1707.000000	99.166124 
1706.000000	99.172740 
1705.000000	99.180477 
1704.000000	99.185066 
1703.000000	99.185031 
1702.000000	99.183659 
1701.000000	99.185503 
1700.000000	99.182663 
1699.000000	99.174604 
1698.000000	99.175252 
1697.000000	99.180732 
1696.000000	99.179857 
1695.000000	99.169322 
1694.000000	99.160443 
1693.000000	99.159543 
1692.000000	99.161658 
1691.000000	99.164633 
1690.000000	99.169387 
1689.000000	99.174806 
1688.000000	99.179395 
1687.000000	99.182281 
1686.000000	99.186497 
1685.000000	99.195230 
1684.000000	99.196375 
1683.000000	99.185891 
1682.000000	99.179126 
1681.000000	99.176542 
1680.000000	99.174614 
1679.000000	99.172374 
1678.000000	99.168021 
1677.000000	99.161445 
1676.000000	99.156078 
1675.000000	99.153870 
1674.000000	99.154159 
1673.000000	99.158346 
1672.000000	99.165985 
1671.000000	99.174667 
1670.000000	99.179848 
1669.000000	99.176595 
1668.000000	99.169871 
1667.000000	99.165644 
1666.000000	99.161852 
1665.000000	99.155743 
1664.000000	99.148593 
1663.000000	99.143118 
1662.000000	99.139068 
1661.000000	99.136059 
1660.000000	99.136385 
1659.000000	99.140401 
1658.000000	99.145440 
1657.000000	99.148354 
1656.000000	99.148533 
1655.000000	99.149448 
1654.000000	99.155864 
1653.000000	99.151034 
1652.000000	99.131409 
1651.000000	99.129617 
1650.000000	99.139166 
1649.000000	99.145368 
1648.000000	99.147353 
1647.000000	99.144758 
1646.000000	99.136933 
1645.000000	99.132360 
1644.000000	99.135677 
1643.000000	99.142666 
1642.000000	99.148259 
1641.000000	99.149802 
1640.000000	99.148016 
1639.000000	99.144680 
1638.000000	99.142351 
1637.000000	99.144589 
1636.000000	99.150870 
1635.000000	99.154033 
1634.000000	99.154376 
1633.000000	99.155319 
1632.000000	99.152911 
1631.000000	99.146564 
1630.000000	99.139852 
1629.000000	99.136202 
1628.000000	99.136326 
1627.000000	99.138953 
1626.000000	99.141835 
1625.000000	99.144078 
1624.000000	99.147539 
1623.000000	99.152980 
1622.000000	99.158212 
1621.000000	99.161343 
1620.000000	99.161993 
1619.000000	99.160595 
1618.000000	99.159471 
1617.000000	99.158770 
1616.000000	99.157255 
1615.000000	99.158107 
1614.000000	99.161440 
1613.000000	99.163252 
1612.000000	99.163688 
1611.000000	99.165499 
1610.000000	99.167860 
1609.000000	99.168285 
1608.000000	99.168135 
1607.000000	99.170719 
1606.000000	99.175674 
1605.000000	99.180571 
1604.000000	99.185242 
1603.000000	99.189155 
1602.000000	99.190562 
1601.000000	99.189595 
1600.000000	99.189257 
1599.000000	99.191507 
1598.000000	99.194786 
1597.000000	99.196865 
1596.000000	99.197095 
1595.000000	99.195227 
1594.000000	99.190737 
1593.000000	99.185091 
1592.000000	99.182339 
1591.000000	99.184929 
1590.000000	99.190570 
1589.000000	99.195577 
1588.000000	99.199742 
1587.000000	99.204744 
1586.000000	99.209455 
1585.000000	99.210196 
1584.000000	99.206600 
1583.000000	99.201172 
1582.000000	99.194263 
1581.000000	99.185511 
1580.000000	99.176278 
1579.000000	99.167702 
1578.000000	99.159952 
1577.000000	99.155361 
1576.000000	99.155436 
1575.000000	99.160235 
1574.000000	99.168478 
1573.000000	99.174972 
1572.000000	99.177492 
1571.000000	99.179323 
1570.000000	99.181668 
1569.000000	99.181781 
1568.000000	99.182833 
1567.000000	99.187604 
1566.000000	99.192254 
1565.000000	99.192921 
1564.000000	99.189275 
1563.000000	99.181430 
1562.000000	99.168343 
1561.000000	99.152656 
1560.000000	99.149176 
1559.000000	99.154915 
1558.000000	99.151295 
1557.000000	99.156913 
1556.000000	99.173718 
1555.000000	99.188067 
1554.000000	99.192471 
1553.000000	99.187785 
1552.000000	99.180306 
1551.000000	99.173468 
1550.000000	99.168475 
1549.000000	99.165633 
1548.000000	99.165198 
1547.000000	99.166685 
1546.000000	99.167423 
1545.000000	99.165086 
1544.000000	99.159569 
1543.000000	99.153813 
1542.000000	99.152124 
1541.000000	99.156102 
1540.000000	99.158666 
1539.000000	99.157817 
1538.000000	99.164235 
1537.000000	99.178055 
1536.000000	99.191273 
1535.000000	99.202408 
1534.000000	99.209522 
1533.000000	99.206524 
1532.000000	99.196358 
1531.000000	99.188754 
1530.000000	99.187496 
1529.000000	99.190768 
1528.000000	99.196071 
1527.000000	99.203020 
1526.000000	99.210793 
1525.000000	99.216321 
1524.000000	99.217546 
1523.000000	99.216330 
1522.000000	99.215795 
1521.000000	99.213261 
1520.000000	99.207299 
1519.000000	99.201741 
1518.000000	99.198014 
1517.000000	99.196482 
1516.000000	99.195982 
1515.000000	99.195535 
1514.000000	99.195160 
1513.000000	99.195165 
1512.000000	99.195469 
1511.000000	99.194469 
1510.000000	99.192090 
1509.000000	99.191037 
1508.000000	99.198179 
1507.000000	99.211618 
1506.000000	99.216573 
1505.000000	99.214498 
1504.000000	99.215187 
1503.000000	99.217280 
1502.000000	99.218242 
1501.000000	99.216912 
1500.000000	99.211456 
1499.000000	99.202318 
1498.000000	99.194816 
1497.000000	99.193742 
1496.000000	99.195622 
1495.000000	99.197139 
1494.000000	99.200492 
1493.000000	99.206381 
1492.000000	99.212766 
1491.000000	99.216963 
1490.000000	99.216374 
1489.000000	99.210626 
1488.000000	99.202741 
1487.000000	99.197231 
1486.000000	99.196333 
1485.000000	99.196165 
1484.000000	99.192868 
1483.000000	99.186415 
1482.000000	99.178826 
1481.000000	99.171930 
1480.000000	99.166123 
1479.000000	99.162617 
1478.000000	99.162844 
1477.000000	99.166392 
1476.000000	99.170429 
1475.000000	99.174545 
1474.000000	99.179510 
1473.000000	99.179994 
1472.000000	99.168375 
1471.000000	99.149012 
1470.000000	99.133146 
1469.000000	99.123687 
1468.000000	99.118309 
1467.000000	99.116133 
1466.000000	99.117737 
1465.000000	99.120931 
1464.000000	99.121828 
1463.000000	99.119055 
1462.000000	99.113626 
1461.000000	99.105460 
1460.000000	99.094701 
1459.000000	99.084596 
1458.000000	99.081832 
1457.000000	99.087304 
1456.000000	99.094153 
1455.000000	99.101046 
1454.000000	99.107435 
1453.000000	99.112269 
1452.000000	99.115360 
1451.000000	99.115296 
1450.000000	99.112198 
1449.000000	99.109310 
1448.000000	99.109891 
1447.000000	99.115456 
1446.000000	99.125012 
1445.000000	99.136099 
1444.000000	99.145698 
1443.000000	99.149784 
1442.000000	99.147576 
1441.000000	99.141882 
1440.000000	99.136220 
1439.000000	99.132941 
1438.000000	99.136270 
1437.000000	99.148068 
1436.000000	99.159541 
1435.000000	99.162095 
1434.000000	99.156688 
1433.000000	99.146466 
1432.000000	99.132866 
1431.000000	99.117289 
1430.000000	99.103266 
1429.000000	99.095921 
1428.000000	99.096418 
1427.000000	99.102509 
1426.000000	99.111905 
1425.000000	99.124067 
1424.000000	99.136354 
1423.000000	99.141254 
1422.000000	99.134809 
1421.000000	99.120694 
1420.000000	99.106768 
1419.000000	99.097810 
1418.000000	99.095142 
1417.000000	99.099361 
1416.000000	99.106131 
1415.000000	99.109389 
1414.000000	99.107159 
1413.000000	99.101917 
1412.000000	99.096219 
1411.000000	99.089275 
1410.000000	99.080409 
1409.000000	99.072805 
1408.000000	99.070818 
1407.000000	99.076776 
1406.000000	99.088788 
1405.000000	99.101228 
1404.000000	99.108698 
1403.000000	99.109516 
1402.000000	99.106682 
1401.000000	99.103947 
1400.000000	99.102340 
1399.000000	99.099633 
1398.000000	99.094290 
1397.000000	99.087546 
1396.000000	99.080838 
1395.000000	99.076335 
1394.000000	99.077686 
1393.000000	99.087634 
1392.000000	99.103181 
1391.000000	99.116609 
1390.000000	99.123315 
1389.000000	99.125152 
1388.000000	99.126392 
1387.000000	99.128559 
1386.000000	99.131212 
1385.000000	99.134612 
1384.000000	99.138118 
1383.000000	99.138092 
1382.000000	99.131198 
1381.000000	99.118589 
1380.000000	99.105584 
1379.000000	99.097754 
1378.000000	99.097790 
1377.000000	99.105762 
1376.000000	99.120222 
1375.000000	99.137502 
1374.000000	99.151125 
1373.000000	99.156456 
1372.000000	99.154261 
1371.000000	99.147715 
1370.000000	99.139028 
1369.000000	99.130147 
1368.000000	99.124167 
1367.000000	99.123666 
1366.000000	99.129479 
1365.000000	99.140867 
1364.000000	99.155328 
1363.000000	99.167443 
1362.000000	99.171320 
1361.000000	99.166422 
1360.000000	99.158450 
1359.000000	99.154547 
1358.000000	99.159091 
1357.000000	99.172061 
1356.000000	99.189394 
1355.000000	99.205090 
1354.000000	99.214558 
1353.000000	99.216398 
1352.000000	99.211087 
1351.000000	99.200188 
1350.000000	99.186562 
1349.000000	99.174514 
1348.000000	99.168195 
1347.000000	99.168605 
1346.000000	99.173909 
1345.000000	99.181505 
1344.000000	99.189082 
1343.000000	99.194203 
1342.000000	99.195053 
1341.000000	99.191977 
1340.000000	99.187436 
1339.000000	99.183963 
1338.000000	99.183067 
1337.000000	99.185803 
1336.000000	99.192244 
1335.000000	99.199971 
1334.000000	99.204878 
1333.000000	99.204390 
1332.000000	99.199128 
1331.000000	99.191230 
1330.000000	99.182507 
1329.000000	99.175137 
1328.000000	99.172494 
1327.000000	99.177288 
1326.000000	99.188674 
1325.000000	99.202426 
1324.000000	99.213757 
1323.000000	99.219085 
1322.000000	99.216661 
1321.000000	99.207240 
1320.000000	99.194459 
1319.000000	99.183412 
1318.000000	99.177817 
1317.000000	99.178210 
1316.000000	99.182770 
1315.000000	99.189086 
1314.000000	99.194717 
1313.000000	99.196910 
1312.000000	99.193249 
1311.000000	99.183653 
1310.000000	99.171706 
1309.000000	99.163160 
1308.000000	99.162163 
1307.000000	99.168571 
1306.000000	99.178740 
1305.000000	99.188696 
1304.000000	99.195899 
1303.000000	99.198247 
1302.000000	99.193432 
1301.000000	99.180629 
1300.000000	99.162894 
1299.000000	99.147024 
1298.000000	99.140100 
1297.000000	99.145140 
1296.000000	99.159513 
1295.000000	99.177061 
1294.000000	99.191511 
1293.000000	99.198445 
1292.000000	99.195639 
1291.000000	99.183821 
1290.000000	99.167643 
1289.000000	99.154090 
1288.000000	99.148137 
1287.000000	99.149839 
1286.000000	99.155932 
1285.000000	99.163300 
1284.000000	99.169649 
1283.000000	99.171906 
1282.000000	99.166670 
1281.000000	99.153343 
1280.000000	99.135876 
1279.000000	99.120537 
1278.000000	99.112185 
1277.000000	99.112627 
1276.000000	99.120995 
1275.000000	99.134017 
1274.000000	99.146107 
1273.000000	99.151029 
1272.000000	99.144937 
1271.000000	99.128474 
1270.000000	99.106217 
1269.000000	99.084243 
1268.000000	99.067990 
1267.000000	99.061078 
1266.000000	99.064261 
1265.000000	99.074752 
1264.000000	99.087077 
1263.000000	99.095559 
1262.000000	99.096817 
1261.000000	99.090767 
1260.000000	99.080238 
1259.000000	99.069902 
1258.000000	99.064561 
1257.000000	99.067028 
1256.000000	99.076807 
1255.000000	99.090506 
1254.000000	99.103138 
1253.000000	99.109149 
1252.000000	99.103600 
1251.000000	99.084790 
1250.000000	99.056906 
1249.000000	99.029069 
1248.000000	99.010395 
1247.000000	99.005036 
1246.000000	99.010733 
1245.000000	99.020934 
1244.000000	99.028530 
1243.000000	99.029490 
1242.000000	99.024434 
1241.000000	99.016575 
1240.000000	99.008093 
1239.000000	98.999415 
1238.000000	98.991865 
1237.000000	98.988949 
1236.000000	98.993590 
1235.000000	99.004851 
1234.000000	99.018142 
1233.000000	99.027574 
1232.000000	99.027375 
1231.000000	99.013647 
1230.000000	98.988309 
1229.000000	98.961010 
1228.000000	98.943879 
1227.000000	98.942625 
1226.000000	98.953139 
1225.000000	98.966503 
1224.000000	98.975493 
1223.000000	98.976005 
1222.000000	98.965460 
1221.000000	98.943068 
1220.000000	98.911741 
1219.000000	98.878071 
1218.000000	98.849479 
1217.000000	98.831148 
1216.000000	98.824700 
1215.000000	98.827945 
1214.000000	98.835006 
1213.000000	98.837830 
1212.000000	98.829514 
1211.000000	98.807865 
1210.000000	98.776853 
1209.000000	98.744598 
1208.000000	98.719257 
1207.000000	98.705620 
1206.000000	98.703987 
1205.000000	98.710795 
1204.000000	98.719595 
1203.000000	98.722284 
1202.000000	98.711794 
1201.000000	98.685573 
1200.000000	98.647019 
1199.000000	98.603864 
1198.000000	98.565339 
1197.000000	98.539611 
1196.000000	98.531059 
1195.000000	98.537389 
1194.000000	98.549444 
1193.000000	98.555798 
1192.000000	98.548740 
1191.000000	98.526371 
1190.000000	98.490881 
1189.000000	98.447112 
1188.000000	98.402840 
1187.000000	98.367580 
1186.000000	98.348005 
1185.000000	98.343587 
1184.000000	98.346901 
1183.000000	98.347801 
1182.000000	98.337945 
1181.000000	98.313790 
1180.000000	98.277605 
1179.000000	98.236210 
1178.000000	98.197987 
1177.000000	98.169988 
1176.000000	98.156260 
1175.000000	98.156194 
1174.000000	98.162905 
1173.000000	98.164818 
1172.000000	98.151544 
1171.000000	98.119515 
1170.000000	98.072480 
1169.000000	98.017762 
1168.000000	97.963396 
1167.000000	97.918100 
1166.000000	97.890607 
1165.000000	97.886050 
1164.000000	97.902294 
1163.000000	97.930130 
1162.000000	97.957751 
1161.000000	97.976215 
1160.000000	97.982228 
1159.000000	97.977543 
1158.000000	97.966720 
1157.000000	97.954739 
1156.000000	97.945186 
1155.000000	97.939503 
1154.000000	97.936978 
1153.000000	97.934437 
1152.000000	97.925670 
1151.000000	97.902853 
1150.000000	97.861692 
1149.000000	97.806919 
1148.000000	97.751909 
1147.000000	97.711103 
1146.000000	97.691308 
1145.000000	97.689031 
1144.000000	97.694352 
1143.000000	97.696274 
1142.000000	97.686500 
1141.000000	97.661855 
1140.000000	97.624897 
1139.000000	97.581939 
1138.000000	97.540030 
1137.000000	97.505479 
1136.000000	97.483488 
1135.000000	97.476059 
1134.000000	97.478669 
1133.000000	97.480246 
1132.000000	97.468414 
1131.000000	97.436366 
1130.000000	97.386588 
1129.000000	97.329096 
1128.000000	97.275450 
1127.000000	97.232652 
1126.000000	97.201547 
1125.000000	97.180283 
1124.000000	97.167278 
1123.000000	97.158758 
1122.000000	97.145043 
1121.000000	97.113763 
1120.000000	97.059093 
1119.000000	96.987251 
1118.000000	96.912872 
1117.000000	96.851188 
1116.000000	96.812722 
1115.000000	96.800721 
1114.000000	96.809602 
1113.000000	96.826536 
1112.000000	96.836940 
1111.000000	96.829865 
1110.000000	96.800518 
1109.000000	96.751448 
1108.000000	96.693061 
1107.000000	96.640665 
1106.000000	96.606895 
1105.000000	96.594619 
1104.000000	96.596487 
1103.000000	96.600249 
1102.000000	96.594757 
1101.000000	96.573697 
1100.000000	96.536655 
1099.000000	96.488557 
1098.000000	96.438316 
1097.000000	96.396651 
1096.000000	96.372580 
1095.000000	96.368778 
1094.000000	96.378917 
1093.000000	96.389971 
1092.000000	96.387682 
1091.000000	96.361427 
1090.000000	96.308185 
1089.000000	96.235430 
1088.000000	96.159379 
1087.000000	96.097109 
1086.000000	96.058431 
1085.000000	96.044680 
1084.000000	96.052271 
1083.000000	96.073307 
1082.000000	96.094048 
1081.000000	96.099008 
1080.000000	96.080145 
1079.000000	96.041546 
1078.000000	95.995540 
1077.000000	95.955915 
1076.000000	95.933357 
1075.000000	95.931827 
1074.000000	95.945408 
1073.000000	95.959755 
1072.000000	95.958295 
1071.000000	95.927832 
1070.000000	95.861941 
1069.000000	95.764836 
1068.000000	95.653975 
1067.000000	95.554962 
1066.000000	95.488281 
1065.000000	95.458473 
1064.000000	95.454780 
1063.000000	95.458901 
1062.000000	95.451721 
1061.000000	95.418368 
1060.000000	95.353245 
1059.000000	95.262499 
1058.000000	95.160929 
1057.000000	95.065305 
1056.000000	94.988822 
1055.000000	94.938139 
1054.000000	94.911970 
1053.000000	94.901609 
1052.000000	94.893712 
1051.000000	94.874231 
1050.000000	94.833354 
1049.000000	94.770577 
1048.000000	94.695692 
1047.000000	94.623329 
1046.000000	94.565146 
1045.000000	94.525156 
1044.000000	94.498427 
1043.000000	94.471638 
1042.000000	94.428016 
1041.000000	94.356884 
1040.000000	94.259794 
1039.000000	94.147429 
1038.000000	94.033253 
1037.000000	93.931627 
1036.000000	93.857362 
1035.000000	93.820014 
1034.000000	93.817152 
1033.000000	93.835879 
1032.000000	93.860075 
1031.000000	93.874358 
1030.000000	93.866609 
1029.000000	93.835048 
1028.000000	93.792880 
1027.000000	93.759753 
1026.000000	93.746594 
1025.000000	93.751225 
1024.000000	93.766475 
1023.000000	93.785959 
1022.000000	93.802021 
1021.000000	93.805300 
1020.000000	93.789994 
1019.000000	93.757751 
1018.000000	93.716891 
1017.000000	93.680853 
1016.000000	93.665551 
1015.000000	93.681338 
1014.000000	93.724233 
1013.000000	93.777050 
1012.000000	93.819319 
1011.000000	93.834823 
1010.000000	93.814542 
1009.000000	93.760722 
1008.000000	93.689506 
1007.000000	93.624277 
1006.000000	93.583164 
1005.000000	93.573391 
1004.000000	93.594592 
1003.000000	93.640884 
1002.000000	93.699359 
1001.000000	93.753431 
1000.000000	93.791305 
999.000000	 93.809845 
998.000000	 93.812133 
997.000000	 93.806354 
996.000000	 93.806320 
995.000000	 93.825919 
994.000000	 93.868736 
993.000000	 93.925007 
992.000000	 93.979443 
991.000000	 94.019655 
990.000000	 94.039010 
989.000000	 94.038371 
988.000000	 94.028453 
987.000000	 94.027233 
986.000000	 94.051062 
985.000000	 94.106888 
984.000000	 94.190836 
983.000000	 94.290637 
982.000000	 94.389858 
981.000000	 94.474237 
980.000000	 94.536539 
979.000000	 94.576398 
978.000000	 94.598806 
977.000000	 94.614961 
976.000000	 94.640858 
975.000000	 94.689233 
974.000000	 94.761831 
973.000000	 94.851128 
972.000000	 94.947257 
971.000000	 95.040056 
970.000000	 95.118557 
969.000000	 95.176301 
968.000000	 95.218310 
967.000000	 95.258711 
966.000000	 95.310548 
965.000000	 95.379654 
964.000000	 95.465623 
963.000000	 95.562556 
962.000000	 95.658485 
961.000000	 95.739599 
960.000000	 95.797665 
959.000000	 95.832362 
958.000000	 95.848675 
957.000000	 95.856358 
956.000000	 95.870823 
955.000000	 95.907887 
954.000000	 95.973554 
953.000000	 96.059970 
952.000000	 96.151300 
951.000000	 96.231060 
950.000000	 96.285785 
949.000000	 96.308591 
948.000000	 96.303049 
947.000000	 96.281798 
946.000000	 96.259305 
945.000000	 96.246102 
944.000000	 96.248399 
943.000000	 96.267947 
942.000000	 96.298904 
941.000000	 96.327438 
940.000000	 96.338357 
939.000000	 96.323942 
938.000000	 96.288372 
937.000000	 96.246469 
936.000000	 96.218484 
935.000000	 96.222055 
934.000000	 96.263981 
933.000000	 96.337161 
932.000000	 96.424502 
931.000000	 96.505710 
930.000000	 96.563500 
929.000000	 96.588554 
928.000000	 96.581974 
927.000000	 96.554519 
926.000000	 96.523684 
925.000000	 96.508862 
924.000000	 96.523757 
923.000000	 96.568420 
922.000000	 96.627875 
921.000000	 96.680579 
920.000000	 96.709245 
919.000000	 96.705670 
918.000000	 96.671377 
917.000000	 96.618324 
916.000000	 96.566443 
915.000000	 96.534366 
914.000000	 96.529700 
913.000000	 96.548345 
912.000000	 96.580870 
911.000000	 96.616354 
910.000000	 96.643187 
909.000000	 96.653335 
908.000000	 96.648291 
907.000000	 96.639138 
906.000000	 96.641186 
905.000000	 96.669639 
904.000000	 96.736061 
903.000000	 96.841650 
902.000000	 96.972648 
901.000000	 97.106628 
900.000000	 97.223937 
899.000000	 97.311621 
898.000000	 97.361732 
897.000000	 97.374844 
896.000000	 97.365979 
895.000000	 97.359835 
894.000000	 97.375460 
893.000000	 97.416454 
892.000000	 97.474581 
891.000000	 97.536591 
890.000000	 97.586664 
889.000000	 97.610497 
888.000000	 97.603889 
887.000000	 97.576701 
886.000000	 97.546465 
885.000000	 97.529500 
884.000000	 97.537424 
883.000000	 97.574518 
882.000000	 97.632001 
881.000000	 97.688318 
880.000000	 97.721880 
879.000000	 97.724696 
878.000000	 97.702892 
877.000000	 97.668389 
876.000000	 97.635637 
875.000000	 97.623515 
874.000000	 97.650326 
873.000000	 97.721549 
872.000000	 97.824289 
871.000000	 97.934585 
870.000000	 98.029337 
869.000000	 98.094014 
868.000000	 98.124800 
867.000000	 98.127468 
866.000000	 98.114199 
865.000000	 98.099546 
864.000000	 98.097627 
863.000000	 98.119240 
862.000000	 98.165629 
861.000000	 98.222719 
860.000000	 98.264944 
859.000000	 98.269596 
858.000000	 98.230455 
857.000000	 98.159775 
856.000000	 98.080521 
855.000000	 98.017965 
854.000000	 97.992619 
853.000000	 98.012284 
852.000000	 98.067267 
851.000000	 98.134797 
850.000000	 98.190602 
849.000000	 98.218473 
848.000000	 98.212846 
847.000000	 98.178727 
846.000000	 98.132368 
845.000000	 98.097721 
844.000000	 98.095769 
843.000000	 98.133913 
842.000000	 98.203967 
841.000000	 98.287667 
840.000000	 98.362068 
839.000000	 98.403477 
838.000000	 98.395638 
837.000000	 98.340258 
836.000000	 98.258399 
835.000000	 98.178991 
834.000000	 98.124822 
833.000000	 98.106646 
832.000000	 98.123742 
831.000000	 98.162855 
830.000000	 98.197495 
829.000000	 98.197972 
828.000000	 98.150395 
827.000000	 98.067006 
826.000000	 97.976511 
825.000000	 97.905393 
824.000000	 97.869929 
823.000000	 97.879814 
822.000000	 97.937135 
821.000000	 98.027627 
820.000000	 98.119795 
819.000000	 98.179678 
818.000000	 98.189847 
817.000000	 98.156311 
816.000000	 98.099888 
815.000000	 98.043575 
814.000000	 98.005980 
813.000000	 97.998979 
812.000000	 98.023372 
811.000000	 98.063122 
810.000000	 98.086676 
809.000000	 98.060675 
808.000000	 97.967964 
807.000000	 97.815854 
806.000000	 97.629794 
805.000000	 97.440647 
804.000000	 97.276728 
803.000000	 97.160498 
802.000000	 97.101893 
801.000000	 97.090287 
800.000000	 97.096916 
799.000000	 97.090855 
798.000000	 97.056869 
797.000000	 97.000892 
796.000000	 96.941202 
795.000000	 96.896955 
794.000000	 96.883424 
793.000000	 96.910757 
792.000000	 96.979463 
791.000000	 97.074842 
790.000000	 97.169515 
789.000000	 97.235427 
788.000000	 97.254377 
787.000000	 97.220312 
786.000000	 97.139773 
785.000000	 97.034779 
784.000000	 96.940313 
783.000000	 96.889558 
782.000000	 96.895169 
781.000000	 96.943468 
780.000000	 97.005587 
779.000000	 97.052816 
778.000000	 97.066568 
777.000000	 97.044353 
776.000000	 97.002029 
775.000000	 96.967293 
774.000000	 96.964785 
773.000000	 97.003864 
772.000000	 97.078478 
771.000000	 97.174183 
770.000000	 97.271736 
769.000000	 97.347078 
768.000000	 97.376151 
767.000000	 97.347513 
766.000000	 97.273502 
765.000000	 97.187416 
764.000000	 97.126595 
763.000000	 97.114472 
762.000000	 97.152531 
761.000000	 97.223302 
760.000000	 97.300042 
759.000000	 97.357999 
758.000000	 97.382714 
757.000000	 97.371648 
756.000000	 97.330397 
755.000000	 97.270710 
754.000000	 97.212631 
753.000000	 97.182585 
752.000000	 97.201788 
751.000000	 97.272759 
750.000000	 97.375470 
749.000000	 97.475258 
748.000000	 97.536556 
747.000000	 97.538315 
746.000000	 97.487569 
745.000000	 97.419618 
744.000000	 97.377921 
743.000000	 97.389132 
742.000000	 97.455277 
741.000000	 97.562574 
740.000000	 97.688151 
739.000000	 97.799843 
738.000000	 97.863601 
737.000000	 97.861029 
736.000000	 97.798393 
735.000000	 97.698970 
734.000000	 97.593552 
733.000000	 97.517445 
732.000000	 97.501507 
731.000000	 97.551748 
730.000000	 97.638869 
729.000000	 97.716879 
728.000000	 97.753341 
727.000000	 97.740226 
726.000000	 97.685283 
725.000000	 97.606226 
724.000000	 97.532303 
723.000000	 97.498227 
722.000000	 97.527403 
721.000000	 97.619490 
720.000000	 97.751240 
719.000000	 97.885522 
718.000000	 97.983935 
717.000000	 98.021145 
716.000000	 97.994523 
715.000000	 97.923506 
714.000000	 97.841296 
713.000000	 97.784818 
712.000000	 97.782966 
711.000000	 97.841031 
710.000000	 97.931607 
709.000000	 98.007599 
708.000000	 98.030513 
707.000000	 97.987646 
706.000000	 97.887575 
705.000000	 97.750611 
704.000000	 97.608373 
703.000000	 97.501540 
702.000000	 97.461520 
701.000000	 97.487901 
700.000000	 97.545930 
699.000000	 97.587944 
698.000000	 97.580538 
697.000000	 97.518679 
696.000000	 97.422141 
695.000000	 97.322299 
694.000000	 97.250406 
693.000000	 97.231529 
692.000000	 97.279576 
691.000000	 97.391011 
690.000000	 97.543018 
689.000000	 97.700224 
688.000000	 97.824504 
687.000000	 97.882285 
686.000000	 97.853776 
685.000000	 97.747848 
684.000000	 97.609693 
683.000000	 97.503379 
682.000000	 97.476397 
681.000000	 97.534843 
680.000000	 97.645557 
679.000000	 97.757249 
678.000000	 97.825065 
677.000000	 97.827929 
676.000000	 97.776214 
675.000000	 97.699278 
674.000000	 97.621834 
673.000000	 97.558369 
672.000000	 97.520962 
671.000000	 97.527292 
670.000000	 97.598397 
669.000000	 97.747303 
668.000000	 97.911550 
667.000000	 97.960150 
666.000000	 97.873142 
665.000000	 97.722032 
664.000000	 97.560749 
663.000000	 97.446357 
662.000000	 97.431477 
661.000000	 97.525476 
660.000000	 97.691653 
659.000000	 97.872776 
658.000000	 98.008765 
657.000000	 98.052452 
656.000000	 97.989526 
655.000000	 97.845311 
654.000000	 97.675118 
653.000000	 97.541986 
652.000000	 97.496190 
651.000000	 97.560070 
650.000000	 97.709503 

