4000.000000	99.769366 
3999.000000	99.769195 
3998.000000	99.768870 
3997.000000	99.768613 
3996.000000	99.768535 
3995.000000	99.768615 
3994.000000	99.768753 
3993.000000	99.768835 
3992.000000	99.768784 
3991.000000	99.768560 
3990.000000	99.768141 
3989.000000	99.767607 
3988.000000	99.767155 
3987.000000	99.766959 
3986.000000	99.767013 
3985.000000	99.767111 
3984.000000	99.767002 
3983.000000	99.766599 
3982.000000	99.766037 
3981.000000	99.765559 
3980.000000	99.765306 
3979.000000	99.765243 
3978.000000	99.765283 
3977.000000	99.765443 
3976.000000	99.765808 
3975.000000	99.766323 
3974.000000	99.766702 
3973.000000	99.766617 
3972.000000	99.765971 
3971.000000	99.764956 
3970.000000	99.763931 
3969.000000	99.763209 
3968.000000	99.762926 
3967.000000	99.763022 
3966.000000	99.763330 
3965.000000	99.763701 
3964.000000	99.764050 
3963.000000	99.764251 
3962.000000	99.764075 
3961.000000	99.763328 
3960.000000	99.762114 
3959.000000	99.760917 
3958.000000	99.760274 
3957.000000	99.760348 
3956.000000	99.760890 
3955.000000	99.761600 
3954.000000	99.762483 
3953.000000	99.763710 
3952.000000	99.765153 
3951.000000	99.766224 
3950.000000	99.766357 
3949.000000	99.765626 
3948.000000	99.764775 
3947.000000	99.764469 
3946.000000	99.764657 
3945.000000	99.764794 
3944.000000	99.764495 
3943.000000	99.763839 
3942.000000	99.763151 
3941.000000	99.762648 
3940.000000	99.762390 
3939.000000	99.762439 
3938.000000	99.762876 
3937.000000	99.763642 
3936.000000	99.764471 
3935.000000	99.765037 
3934.000000	99.765193 
3933.000000	99.765069 
3932.000000	99.765021 
3931.000000	99.765427 
3930.000000	99.766434 
3929.000000	99.767776 
3928.000000	99.768769 
3927.000000	99.768723 
3926.000000	99.767496 
3925.000000	99.765666 
3924.000000	99.763975 
3923.000000	99.762744 
3922.000000	99.761924 
3921.000000	99.761506 
3920.000000	99.761605 
3919.000000	99.762164 
3918.000000	99.762937 
3917.000000	99.763740 
3916.000000	99.764537 
3915.000000	99.765223 
3914.000000	99.765529 
3913.000000	99.765224 
3912.000000	99.764414 
3911.000000	99.763596 
3910.000000	99.763306 
3909.000000	99.763689 
3908.000000	99.764417 
3907.000000	99.765019 
3906.000000	99.765351 
3905.000000	99.765697 
3904.000000	99.766382 
3903.000000	99.767326 
3902.000000	99.768126 
3901.000000	99.768541 
3900.000000	99.768659 
3899.000000	99.768608 
3898.000000	99.768406 
3897.000000	99.768064 
3896.000000	99.767695 
3895.000000	99.767407 
3894.000000	99.767205 
3893.000000	99.767060 
3892.000000	99.767031 
3891.000000	99.767173 
3890.000000	99.767368 
3889.000000	99.767412 
3888.000000	99.767269 
3887.000000	99.767114 
3886.000000	99.767116 
3885.000000	99.767213 
3884.000000	99.767210 
3883.000000	99.767039 
3882.000000	99.766837 
3881.000000	99.766819 
3880.000000	99.767032 
3879.000000	99.767322 
3878.000000	99.767512 
3877.000000	99.767587 
3876.000000	99.767644 
3875.000000	99.767760 
3874.000000	99.767914 
3873.000000	99.768023 
3872.000000	99.768043 
3871.000000	99.768005 
3870.000000	99.767991 
3869.000000	99.768037 
3868.000000	99.768092 
3867.000000	99.768095 
3866.000000	99.768067 
3865.000000	99.768076 
3864.000000	99.768153 
3863.000000	99.768260 
3862.000000	99.768353 
3861.000000	99.768445 
3860.000000	99.768579 
3859.000000	99.768772 
3858.000000	99.768980 
3857.000000	99.769120 
3856.000000	99.769127 
3855.000000	99.769021 
3854.000000	99.768900 
3853.000000	99.768825 
3852.000000	99.768755 
3851.000000	99.768634 
3850.000000	99.768490 
3849.000000	99.768399 
3848.000000	99.768410 
3847.000000	99.768525 
3846.000000	99.768725 
3845.000000	99.768994 
3844.000000	99.769324 
3843.000000	99.769643 
3842.000000	99.769787 
3841.000000	99.769626 
3840.000000	99.769202 
3839.000000	99.768780 
3838.000000	99.768631 
3837.000000	99.768804 
3836.000000	99.769092 
3835.000000	99.769199 
3834.000000	99.768970 
3833.000000	99.768476 
3832.000000	99.767969 
3831.000000	99.767669 
3830.000000	99.767592 
3829.000000	99.767605 
3828.000000	99.767672 
3827.000000	99.767951 
3826.000000	99.768541 
3825.000000	99.769214 
3824.000000	99.769533 
3823.000000	99.769278 
3822.000000	99.768735 
3821.000000	99.768478 
3820.000000	99.768594 
3819.000000	99.768559 
3818.000000	99.767969 
3817.000000	99.767106 
3816.000000	99.766602 
3815.000000	99.766513 
3814.000000	99.766306 
3813.000000	99.765782 
3812.000000	99.765420 
3811.000000	99.765728 
3810.000000	99.766544 
3809.000000	99.767159 
3808.000000	99.767244 
3807.000000	99.767273 
3806.000000	99.767680 
3805.000000	99.768008 
3804.000000	99.767499 
3803.000000	99.766167 
3802.000000	99.764865 
3801.000000	99.764094 
3800.000000	99.763253 
3799.000000	99.761729 
3798.000000	99.759987 
3797.000000	99.759189 
3796.000000	99.759827 
3795.000000	99.761075 
3794.000000	99.761642 
3793.000000	99.761017 
3792.000000	99.759552 
3791.000000	99.757858 
3790.000000	99.756288 
3789.000000	99.754914 
3788.000000	99.753763 
3787.000000	99.752941 
3786.000000	99.752613 
3785.000000	99.752882 
3784.000000	99.753560 
3783.000000	99.754240 
3782.000000	99.754795 
3781.000000	99.755553 
3780.000000	99.756751 
3779.000000	99.757864 
3778.000000	99.757913 
3777.000000	99.756650 
3776.000000	99.755103 
3775.000000	99.754694 
3774.000000	99.755821 
3773.000000	99.757575 
3772.000000	99.758845 
3771.000000	99.759497 
3770.000000	99.760139 
3769.000000	99.761000 
3768.000000	99.761610 
3767.000000	99.761636 
3766.000000	99.761504 
3765.000000	99.761843 
3764.000000	99.762619 
3763.000000	99.763158 
3762.000000	99.762978 
3761.000000	99.762140 
3760.000000	99.761047 
3759.000000	99.760394 
3758.000000	99.760969 
3757.000000	99.763037 
3756.000000	99.765973 
3755.000000	99.768743 
3754.000000	99.770686 
3753.000000	99.771654 
3752.000000	99.771595 
3751.000000	99.770651 
3750.000000	99.769588 
3749.000000	99.768964 
3748.000000	99.768153 
3747.000000	99.766313 
3746.000000	99.763949 
3745.000000	99.762922 
3744.000000	99.764004 
3743.000000	99.765417 
3742.000000	99.765551 
3741.000000	99.765027 
3740.000000	99.765230 
3739.000000	99.766471 
3738.000000	99.767772 
3737.000000	99.768177 
3736.000000	99.767736 
3735.000000	99.766969 
3734.000000	99.766061 
3733.000000	99.765007 
3732.000000	99.763904 
3731.000000	99.762560 
3730.000000	99.760492 
3729.000000	99.757762 
3728.000000	99.755404 
3727.000000	99.754486 
3726.000000	99.754754 
3725.000000	99.754763 
3724.000000	99.753634 
3723.000000	99.751936 
3722.000000	99.750746 
3721.000000	99.750382 
3720.000000	99.750314 
3719.000000	99.750073 
3718.000000	99.749706 
3717.000000	99.749314 
3716.000000	99.748658 
3715.000000	99.747429 
3714.000000	99.745709 
3713.000000	99.743880 
3712.000000	99.742129 
3711.000000	99.740330 
3710.000000	99.738376 
3709.000000	99.736363 
3708.000000	99.734464 
3707.000000	99.732765 
3706.000000	99.731260 
3705.000000	99.729956 
3704.000000	99.728957 
3703.000000	99.728376 
3702.000000	99.728115 
3701.000000	99.727755 
3700.000000	99.726786 
3699.000000	99.725001 
3698.000000	99.722704 
3697.000000	99.720545 
3696.000000	99.719033 
3695.000000	99.718270 
3694.000000	99.718110 
3693.000000	99.718297 
3692.000000	99.718412 
3691.000000	99.717864 
3690.000000	99.716248 
3689.000000	99.713915 
3688.000000	99.711899 
3687.000000	99.710818 
3686.000000	99.710515 
3685.000000	99.710625 
3684.000000	99.710901 
3683.000000	99.711121 
3682.000000	99.711080 
3681.000000	99.710880 
3680.000000	99.710873 
3679.000000	99.711035 
3678.000000	99.710798 
3677.000000	99.709804 
3676.000000	99.708600 
3675.000000	99.707988 
3674.000000	99.707712 
3673.000000	99.706864 
3672.000000	99.705357 
3671.000000	99.704204 
3670.000000	99.704049 
3669.000000	99.704129 
3668.000000	99.703488 
3667.000000	99.702348 
3666.000000	99.701662 
3665.000000	99.701871 
3664.000000	99.702332 
3663.000000	99.702016 
3662.000000	99.700627 
3661.000000	99.698988 
3660.000000	99.698289 
3659.000000	99.699205 
3658.000000	99.701737 
3657.000000	99.705356 
3656.000000	99.709070 
3655.000000	99.711734 
3654.000000	99.712643 
3653.000000	99.712023 
3652.000000	99.711100 
3651.000000	99.711248 
3650.000000	99.712468 
3649.000000	99.713236 
3648.000000	99.712594 
3647.000000	99.711200 
3646.000000	99.710122 
3645.000000	99.709630 
3644.000000	99.709290 
3643.000000	99.708575 
3642.000000	99.707233 
3641.000000	99.705521 
3640.000000	99.704190 
3639.000000	99.703909 
3638.000000	99.704494 
3637.000000	99.704986 
3636.000000	99.704831 
3635.000000	99.704687 
3634.000000	99.705517 
3633.000000	99.707168 
3632.000000	99.708568 
3631.000000	99.709209 
3630.000000	99.709750 
3629.000000	99.710624 
3628.000000	99.710851 
3627.000000	99.709501 
3626.000000	99.707210 
3625.000000	99.705572 
3624.000000	99.705593 
3623.000000	99.707033 
3622.000000	99.708934 
3621.000000	99.710540 
3620.000000	99.711626 
3619.000000	99.712223 
3618.000000	99.712404 
3617.000000	99.712285 
3616.000000	99.712100 
3615.000000	99.712178 
3614.000000	99.712732 
3613.000000	99.713708 
3612.000000	99.714933 
3611.000000	99.716344 
3610.000000	99.717947 
3609.000000	99.719466 
3608.000000	99.720280 
3607.000000	99.720070 
3606.000000	99.719217 
3605.000000	99.718422 
3604.000000	99.718061 
3603.000000	99.717950 
3602.000000	99.717745 
3601.000000	99.717450 
3600.000000	99.717386 
3599.000000	99.717796 
3598.000000	99.718636 
3597.000000	99.719726 
3596.000000	99.721058 
3595.000000	99.722731 
3594.000000	99.724503 
3593.000000	99.725657 
3592.000000	99.725515 
3591.000000	99.723974 
3590.000000	99.721687 
3589.000000	99.719701 
3588.000000	99.718762 
3587.000000	99.718946 
3586.000000	99.719825 
3585.000000	99.720801 
3584.000000	99.721438 
3583.000000	99.721701 
3582.000000	99.721905 
3581.000000	99.722310 
3580.000000	99.722740 
3579.000000	99.722697 
3578.000000	99.721917 
3577.000000	99.720616 
3576.000000	99.719165 
3575.000000	99.717726 
3574.000000	99.716323 
3573.000000	99.715170 
3572.000000	99.714690 
3571.000000	99.715223 
3570.000000	99.716862 
3569.000000	99.719458 
3568.000000	99.722450 
3567.000000	99.724882 
3566.000000	99.726062 
3565.000000	99.726087 
3564.000000	99.725581 
3563.000000	99.725115 
3562.000000	99.724853 
3561.000000	99.724612 
3560.000000	99.724143 
3559.000000	99.723338 
3558.000000	99.722309 
3557.000000	99.721408 
3556.000000	99.721127 
3555.000000	99.721813 
3554.000000	99.723275 
3553.000000	99.724672 
3552.000000	99.724987 
3551.000000	99.723773 
3550.000000	99.721433 
3549.000000	99.718929 
3548.000000	99.717174 
3547.000000	99.716543 
3546.000000	99.716857 
3545.000000	99.717701 
3544.000000	99.718800 
3543.000000	99.720141 
3542.000000	99.721788 
3541.000000	99.723614 
3540.000000	99.725173 
3539.000000	99.725864 
3538.000000	99.725306 
3537.000000	99.723629 
3536.000000	99.721468 
3535.000000	99.719606 
3534.000000	99.718541 
3533.000000	99.718279 
3532.000000	99.718381 
3531.000000	99.718226 
3530.000000	99.717439 
3529.000000	99.716193 
3528.000000	99.715032 
3527.000000	99.714396 
3526.000000	99.714423 
3525.000000	99.715176 
3524.000000	99.716741 
3523.000000	99.718921 
3522.000000	99.721085 
3521.000000	99.722590 
3520.000000	99.723290 
3519.000000	99.723478 
3518.000000	99.723383 
3517.000000	99.722900 
3516.000000	99.721926 
3515.000000	99.720798 
3514.000000	99.720139 
3513.000000	99.720239 
3512.000000	99.720736 
3511.000000	99.720939 
3510.000000	99.720435 
3509.000000	99.719342 
3508.000000	99.718008 
3507.000000	99.716604 
3506.000000	99.715139 
3505.000000	99.713794 
3504.000000	99.713016 
3503.000000	99.713133 
3502.000000	99.713986 
3501.000000	99.714988 
3500.000000	99.715531 
3499.000000	99.715324 
3498.000000	99.714438 
3497.000000	99.713211 
3496.000000	99.712069 
3495.000000	99.711281 
3494.000000	99.710814 
3493.000000	99.710459 
3492.000000	99.710099 
3491.000000	99.709785 
3490.000000	99.709573 
3489.000000	99.709392 
3488.000000	99.709143 
3487.000000	99.708861 
3486.000000	99.708716 
3485.000000	99.708834 
3484.000000	99.709138 
3483.000000	99.709372 
3482.000000	99.709281 
3481.000000	99.708807 
3480.000000	99.708102 
3479.000000	99.707382 
3478.000000	99.706808 
3477.000000	99.706476 
3476.000000	99.706446 
3475.000000	99.706670 
3474.000000	99.706901 
3473.000000	99.706812 
3472.000000	99.706272 
3471.000000	99.705446 
3470.000000	99.704673 
3469.000000	99.704162 
3468.000000	99.703891 
3467.000000	99.703741 
3466.000000	99.703617 
3465.000000	99.703468 
3464.000000	99.703254 
3463.000000	99.702959 
3462.000000	99.702611 
3461.000000	99.702254 
3460.000000	99.701920 
3459.000000	99.701648 
3458.000000	99.701510 
3457.000000	99.701544 
3456.000000	99.701671 
3455.000000	99.701743 
3454.000000	99.701719 
3453.000000	99.701701 
3452.000000	99.701751 
3451.000000	99.701755 
3450.000000	99.701590 
3449.000000	99.701370 
3448.000000	99.701349 
3447.000000	99.701504 
3446.000000	99.701411 
3445.000000	99.700764 
3444.000000	99.699910 
3443.000000	99.699603 
3442.000000	99.700207 
3441.000000	99.701330 
3440.000000	99.702237 
3439.000000	99.702560 
3438.000000	99.702474 
3437.000000	99.702391 
3436.000000	99.702636 
3435.000000	99.703268 
3434.000000	99.704022 
3433.000000	99.704455 
3432.000000	99.704293 
3431.000000	99.703631 
3430.000000	99.702811 
3429.000000	99.702195 
3428.000000	99.702124 
3427.000000	99.702913 
3426.000000	99.704601 
3425.000000	99.706642 
3424.000000	99.708131 
3423.000000	99.708508 
3422.000000	99.707980 
3421.000000	99.707245 
3420.000000	99.706814 
3419.000000	99.706663 
3418.000000	99.706545 
3417.000000	99.706406 
3416.000000	99.706347 
3415.000000	99.706234 
3414.000000	99.705612 
3413.000000	99.704176 
3412.000000	99.702254 
3411.000000	99.700640 
3410.000000	99.699870 
3409.000000	99.699862 
3408.000000	99.700215 
3407.000000	99.700621 
3406.000000	99.700896 
3405.000000	99.700827 
3404.000000	99.700359 
3403.000000	99.699871 
3402.000000	99.700008 
3401.000000	99.701057 
3400.000000	99.702577 
3399.000000	99.703658 
3398.000000	99.703600 
3397.000000	99.702339 
3396.000000	99.700417 
3395.000000	99.698600 
3394.000000	99.697417 
3393.000000	99.696999 
3392.000000	99.697224 
3391.000000	99.697860 
3390.000000	99.698585 
3389.000000	99.699063 
3388.000000	99.699182 
3387.000000	99.699187 
3386.000000	99.699466 
3385.000000	99.700182 
3384.000000	99.701162 
3383.000000	99.702055 
3382.000000	99.702538 
3381.000000	99.702467 
3380.000000	99.702020 
3379.000000	99.701651 
3378.000000	99.701680 
3377.000000	99.701933 
3376.000000	99.701958 
3375.000000	99.701606 
3374.000000	99.701188 
3373.000000	99.701025 
3372.000000	99.701059 
3371.000000	99.701081 
3370.000000	99.701179 
3369.000000	99.701650 
3368.000000	99.702491 
3367.000000	99.703216 
3366.000000	99.703355 
3365.000000	99.702957 
3364.000000	99.702490 
3363.000000	99.702308 
3362.000000	99.702287 
3361.000000	99.702048 
3360.000000	99.701426 
3359.000000	99.700700 
3358.000000	99.700373 
3357.000000	99.700688 
3356.000000	99.701379 
3355.000000	99.701842 
3354.000000	99.701676 
3353.000000	99.701023 
3352.000000	99.700376 
3351.000000	99.700105 
3350.000000	99.700182 
3349.000000	99.700361 
3348.000000	99.700481 
3347.000000	99.700533 
3346.000000	99.700541 
3345.000000	99.700530 
3344.000000	99.700615 
3343.000000	99.700969 
3342.000000	99.701671 
3341.000000	99.702628 
3340.000000	99.703651 
3339.000000	99.704486 
3338.000000	99.704824 
3337.000000	99.704508 
3336.000000	99.703802 
3335.000000	99.703304 
3334.000000	99.703479 
3333.000000	99.704317 
3332.000000	99.705497 
3331.000000	99.706712 
3330.000000	99.707697 
3329.000000	99.708124 
3328.000000	99.707714 
3327.000000	99.706468 
3326.000000	99.704724 
3325.000000	99.703018 
3324.000000	99.701905 
3323.000000	99.701778 
3322.000000	99.702630 
3321.000000	99.704088 
3320.000000	99.705806 
3319.000000	99.707652 
3318.000000	99.709432 
3317.000000	99.710695 
3316.000000	99.711174 
3315.000000	99.711280 
3314.000000	99.711779 
3313.000000	99.712853 
3312.000000	99.713848 
3311.000000	99.714091 
3310.000000	99.713660 
3309.000000	99.713195 
3308.000000	99.713176 
3307.000000	99.713602 
3306.000000	99.714220 
3305.000000	99.714794 
3304.000000	99.715169 
3303.000000	99.715273 
3302.000000	99.715108 
3301.000000	99.714596 
3300.000000	99.713434 
3299.000000	99.711293 
3298.000000	99.708326 
3297.000000	99.705455 
3296.000000	99.703891 
3295.000000	99.704221 
3294.000000	99.706038 
3293.000000	99.708319 
3292.000000	99.710220 
3291.000000	99.711551 
3290.000000	99.712561 
3289.000000	99.713459 
3288.000000	99.714147 
3287.000000	99.714354 
3286.000000	99.714051 
3285.000000	99.713692 
3284.000000	99.713907 
3283.000000	99.714828 
3282.000000	99.715800 
3281.000000	99.715936 
3280.000000	99.714914 
3279.000000	99.713153 
3278.000000	99.711413 
3277.000000	99.710349 
3276.000000	99.710264 
3275.000000	99.710973 
3274.000000	99.711796 
3273.000000	99.712003 
3272.000000	99.711460 
3271.000000	99.710680 
3270.000000	99.710194 
3269.000000	99.710011 
3268.000000	99.709826 
3267.000000	99.709565 
3266.000000	99.709465 
3265.000000	99.709670 
3264.000000	99.710007 
3263.000000	99.710214 
3262.000000	99.710221 
3261.000000	99.710138 
3260.000000	99.710089 
3259.000000	99.710156 
3258.000000	99.710391 
3257.000000	99.710789 
3256.000000	99.711223 
3255.000000	99.711480 
3254.000000	99.711420 
3253.000000	99.711081 
3252.000000	99.710634 
3251.000000	99.710247 
3250.000000	99.709994 
3249.000000	99.709876 
3248.000000	99.709874 
3247.000000	99.709965 
3246.000000	99.710079 
3245.000000	99.710105 
3244.000000	99.709962 
3243.000000	99.709654 
3242.000000	99.709250 
3241.000000	99.708841 
3240.000000	99.708531 
3239.000000	99.708424 
3238.000000	99.708581 
3237.000000	99.708964 
3236.000000	99.709409 
3235.000000	99.709694 
3234.000000	99.709640 
3233.000000	99.709221 
3232.000000	99.708612 
3231.000000	99.708096 
3230.000000	99.707846 
3229.000000	99.707827 
3228.000000	99.707918 
3227.000000	99.708060 
3226.000000	99.708208 
3225.000000	99.708255 
3224.000000	99.708128 
3223.000000	99.707921 
3222.000000	99.707818 
3221.000000	99.707891 
3220.000000	99.708089 
3219.000000	99.708368 
3218.000000	99.708726 
3217.000000	99.709077 
3216.000000	99.709234 
3215.000000	99.709097 
3214.000000	99.708782 
3213.000000	99.708517 
3212.000000	99.708430 
3211.000000	99.708483 
3210.000000	99.708555 
3209.000000	99.708533 
3208.000000	99.708365 
3207.000000	99.708088 
3206.000000	99.707809 
3205.000000	99.707615 
3204.000000	99.707522 
3203.000000	99.707501 
3202.000000	99.707522 
3201.000000	99.707565 
3200.000000	99.707606 
3199.000000	99.707621 
3198.000000	99.707597 
3197.000000	99.707527 
3196.000000	99.707391 
3195.000000	99.707167 
3194.000000	99.706876 
3193.000000	99.706597 
3192.000000	99.706421 
3191.000000	99.706372 
3190.000000	99.706391 
3189.000000	99.706386 
3188.000000	99.706316 
3187.000000	99.706200 
3186.000000	99.706080 
3185.000000	99.705990 
3184.000000	99.705948 
3183.000000	99.705942 
3182.000000	99.705924 
3181.000000	99.705829 
3180.000000	99.705640 
3179.000000	99.705390 
3178.000000	99.705138 
3177.000000	99.704912 
3176.000000	99.704714 
3175.000000	99.704539 
3174.000000	99.704377 
3173.000000	99.704211 
3172.000000	99.704024 
3171.000000	99.703823 
3170.000000	99.703627 
3169.000000	99.703442 
3168.000000	99.703238 
3167.000000	99.702993 
3166.000000	99.702736 
3165.000000	99.702530 
3164.000000	99.702416 
3163.000000	99.702366 
3162.000000	99.702294 
3161.000000	99.702120 
3160.000000	99.701829 
3159.000000	99.701474 
3158.000000	99.701142 
3157.000000	99.700895 
3156.000000	99.700733 
3155.000000	99.700607 
3154.000000	99.700440 
3153.000000	99.700146 
3152.000000	99.699680 
3151.000000	99.699100 
3150.000000	99.698567 
3149.000000	99.698209 
3148.000000	99.698040 
3147.000000	99.698032 
3146.000000	99.698202 
3145.000000	99.698552 
3144.000000	99.698987 
3143.000000	99.699328 
3142.000000	99.699397 
3141.000000	99.699090 
3140.000000	99.698426 
3139.000000	99.697601 
3138.000000	99.696922 
3137.000000	99.696609 
3136.000000	99.696641 
3135.000000	99.696833 
3134.000000	99.697007 
3133.000000	99.697069 
3132.000000	99.696990 
3131.000000	99.696813 
3130.000000	99.696671 
3129.000000	99.696708 
3128.000000	99.696963 
3127.000000	99.697365 
3126.000000	99.697841 
3125.000000	99.698370 
3124.000000	99.698924 
3123.000000	99.699359 
3122.000000	99.699463 
3121.000000	99.699138 
3120.000000	99.698546 
3119.000000	99.698056 
3118.000000	99.697968 
3117.000000	99.698299 
3116.000000	99.698850 
3115.000000	99.699420 
3114.000000	99.699932 
3113.000000	99.700375 
3112.000000	99.700730 
3111.000000	99.701023 
3110.000000	99.701345 
3109.000000	99.701755 
3108.000000	99.702183 
3107.000000	99.702476 
3106.000000	99.702570 
3105.000000	99.702616 
3104.000000	99.702881 
3103.000000	99.703487 
3102.000000	99.704247 
3101.000000	99.704806 
3100.000000	99.705036 
3099.000000	99.705159 
3098.000000	99.705434 
3097.000000	99.705805 
3096.000000	99.706049 
3095.000000	99.706184 
3094.000000	99.706476 
3093.000000	99.707016 
3092.000000	99.707512 
3091.000000	99.707615 
3090.000000	99.707301 
3089.000000	99.706849 
3088.000000	99.706546 
3087.000000	99.706476 
3086.000000	99.706534 
3085.000000	99.706514 
3084.000000	99.706274 
3083.000000	99.705908 
3082.000000	99.705702 
3081.000000	99.705841 
3080.000000	99.706209 
3079.000000	99.706517 
3078.000000	99.706615 
3077.000000	99.706589 
3076.000000	99.706583 
3075.000000	99.706624 
3074.000000	99.706600 
3073.000000	99.706323 
3072.000000	99.705729 
3071.000000	99.705105 
3070.000000	99.704970 
3069.000000	99.705531 
3068.000000	99.706332 
3067.000000	99.706656 
3066.000000	99.706278 
3065.000000	99.705574 
3064.000000	99.704923 
3063.000000	99.704246 
3062.000000	99.703103 
3061.000000	99.701076 
3060.000000	99.698265 
3059.000000	99.695552 
3058.000000	99.694124 
3057.000000	99.694405 
3056.000000	99.695485 
3055.000000	99.695850 
3054.000000	99.694795 
3053.000000	99.692884 
3052.000000	99.691174 
3051.000000	99.690266 
3050.000000	99.690060 
3049.000000	99.690025 
3048.000000	99.689641 
3047.000000	99.688839 
3046.000000	99.688040 
3045.000000	99.687610 
3044.000000	99.687311 
3043.000000	99.686621 
3042.000000	99.685568 
3041.000000	99.684834 
3040.000000	99.684825 
3039.000000	99.684922 
3038.000000	99.684020 
3037.000000	99.681707 
3036.000000	99.678660 
3035.000000	99.675919 
3034.000000	99.673930 
3033.000000	99.672359 
3032.000000	99.670710 
3031.000000	99.668955 
3030.000000	99.667499 
3029.000000	99.666521 
3028.000000	99.665469 
3027.000000	99.663450 
3026.000000	99.660249 
3025.000000	99.656865 
3024.000000	99.654682 
3023.000000	99.653858 
3022.000000	99.652793 
3021.000000	99.649540 
3020.000000	99.643740 
3019.000000	99.637043 
3018.000000	99.631590 
3017.000000	99.628128 
3016.000000	99.625921 
3015.000000	99.624175 
3014.000000	99.623010 
3013.000000	99.622767 
3012.000000	99.622684 
3011.000000	99.620873 
3010.000000	99.616013 
3009.000000	99.608914 
3008.000000	99.602208 
3007.000000	99.598064 
3006.000000	99.596304 
3005.000000	99.594965 
3004.000000	99.592571 
3003.000000	99.589495 
3002.000000	99.586906 
3001.000000	99.585025 
3000.000000	99.582970 
2999.000000	99.580016 
2998.000000	99.576258 
2997.000000	99.572029 
2996.000000	99.567338 
2995.000000	99.562202 
2994.000000	99.557108 
2993.000000	99.552658 
2992.000000	99.548896 
2991.000000	99.545264 
2990.000000	99.541279 
2989.000000	99.537165 
2988.000000	99.533842 
2987.000000	99.532310 
2986.000000	99.532924 
2985.000000	99.535104 
2984.000000	99.537614 
2983.000000	99.539123 
2982.000000	99.538723 
2981.000000	99.536405 
2980.000000	99.533328 
2979.000000	99.531189 
2978.000000	99.530737 
2977.000000	99.530907 
2976.000000	99.529863 
2975.000000	99.526960 
2974.000000	99.523342 
2973.000000	99.520721 
2972.000000	99.520005 
2971.000000	99.520981 
2970.000000	99.522690 
2969.000000	99.523976 
2968.000000	99.524222 
2967.000000	99.523877 
2966.000000	99.524071 
2965.000000	99.525528 
2964.000000	99.527936 
2963.000000	99.530269 
2962.000000	99.531541 
2961.000000	99.531379 
2960.000000	99.530359 
2959.000000	99.529820 
2958.000000	99.530848 
2957.000000	99.533298 
2956.000000	99.536080 
2955.000000	99.538360 
2954.000000	99.540102 
2953.000000	99.541540 
2952.000000	99.542696 
2951.000000	99.543480 
2950.000000	99.543703 
2949.000000	99.542917 
2948.000000	99.540870 
2947.000000	99.538333 
2946.000000	99.536759 
2945.000000	99.536633 
2944.000000	99.536663 
2943.000000	99.535088 
2942.000000	99.531426 
2941.000000	99.526582 
2940.000000	99.521829 
2939.000000	99.518233 
2938.000000	99.516592 
2937.000000	99.516973 
2936.000000	99.518052 
2935.000000	99.517550 
2934.000000	99.513972 
2933.000000	99.507969 
2932.000000	99.501795 
2931.000000	99.497231 
2930.000000	99.494079 
2929.000000	99.490770 
2928.000000	99.486246 
2927.000000	99.481006 
2926.000000	99.476379 
2925.000000	99.473305 
2924.000000	99.472049 
2923.000000	99.472523 
2922.000000	99.474353 
2921.000000	99.476978 
2920.000000	99.480231 
2919.000000	99.484529 
2918.000000	99.489903 
2917.000000	99.495117 
2916.000000	99.498537 
2915.000000	99.499919 
2914.000000	99.500704 
2913.000000	99.502436 
2912.000000	99.505405 
2911.000000	99.508962 
2910.000000	99.512641 
2909.000000	99.516630 
2908.000000	99.521321 
2907.000000	99.526514 
2906.000000	99.530907 
2905.000000	99.532582 
2904.000000	99.530567 
2903.000000	99.526203 
2902.000000	99.522748 
2901.000000	99.523019 
2900.000000	99.527455 
2899.000000	99.534173 
2898.000000	99.540480 
2897.000000	99.544598 
2896.000000	99.546449 
2895.000000	99.547356 
2894.000000	99.548985 
2893.000000	99.552154 
2892.000000	99.556343 
2891.000000	99.560196 
2890.000000	99.562586 
2889.000000	99.563474 
2888.000000	99.563963 
2887.000000	99.565406 
2886.000000	99.568225 
2885.000000	99.571569 
2884.000000	99.574165 
2883.000000	99.575375 
2882.000000	99.575436 
2881.000000	99.575096 
2880.000000	99.575311 
2879.000000	99.576930 
2878.000000	99.580148 
2877.000000	99.584215 
2876.000000	99.588036 
2875.000000	99.591047 
2874.000000	99.593152 
2873.000000	99.594023 
2872.000000	99.593201 
2871.000000	99.591101 
2870.000000	99.589312 
2869.000000	99.589388 
2868.000000	99.591490 
2867.000000	99.594390 
2866.000000	99.596606 
2865.000000	99.597498 
2864.000000	99.597557 
2863.000000	99.597734 
2862.000000	99.598314 
2861.000000	99.598551 
2860.000000	99.597713 
2859.000000	99.596193 
2858.000000	99.595027 
2857.000000	99.594521 
2856.000000	99.594159 
2855.000000	99.593741 
2854.000000	99.593681 
2853.000000	99.594255 
2852.000000	99.595504 
2851.000000	99.597864 
2850.000000	99.601867 
2849.000000	99.607097 
2848.000000	99.612515 
2847.000000	99.618076 
2846.000000	99.624871 
2845.000000	99.633151 
2844.000000	99.641295 
2843.000000	99.647547 
2842.000000	99.651973 
2841.000000	99.655742 
2840.000000	99.659214 
2839.000000	99.661702 
2838.000000	99.662706 
2837.000000	99.662528 
2836.000000	99.661956 
2835.000000	99.661990 
2834.000000	99.663491 
2833.000000	99.666339 
2832.000000	99.669171 
2831.000000	99.670691 
2830.000000	99.671163 
2829.000000	99.671949 
2828.000000	99.673708 
2827.000000	99.675762 
2826.000000	99.677280 
2825.000000	99.678305 
2824.000000	99.679232 
2823.000000	99.679886 
2822.000000	99.679759 
2821.000000	99.678995 
2820.000000	99.678628 
2819.000000	99.679589 
2818.000000	99.681645 
2817.000000	99.683590 
2816.000000	99.684493 
2815.000000	99.684559 
2814.000000	99.684672 
2813.000000	99.685329 
2812.000000	99.686237 
2811.000000	99.686805 
2810.000000	99.686704 
2809.000000	99.685997 
2808.000000	99.685045 
2807.000000	99.684381 
2806.000000	99.684487 
2805.000000	99.685559 
2804.000000	99.687428 
2803.000000	99.689559 
2802.000000	99.691123 
2801.000000	99.691400 
2800.000000	99.690377 
2799.000000	99.688916 
2798.000000	99.688116 
2797.000000	99.688431 
2796.000000	99.689578 
2795.000000	99.691032 
2794.000000	99.692388 
2793.000000	99.693367 
2792.000000	99.693821 
2791.000000	99.693849 
2790.000000	99.693742 
2789.000000	99.693704 
2788.000000	99.693706 
2787.000000	99.693650 
2786.000000	99.693526 
2785.000000	99.693396 
2784.000000	99.693345 
2783.000000	99.693470 
2782.000000	99.693820 
2781.000000	99.694306 
2780.000000	99.694748 
2779.000000	99.695056 
2778.000000	99.695316 
2777.000000	99.695635 
2776.000000	99.695966 
2775.000000	99.696161 
2774.000000	99.696162 
2773.000000	99.696033 
2772.000000	99.695866 
2771.000000	99.695718 
2770.000000	99.695642 
2769.000000	99.695698 
2768.000000	99.695915 
2767.000000	99.696260 
2766.000000	99.696634 
2765.000000	99.696906 
2764.000000	99.696993 
2763.000000	99.696983 
2762.000000	99.697072 
2761.000000	99.697305 
2760.000000	99.697453 
2759.000000	99.697267 
2758.000000	99.696773 
2757.000000	99.696207 
2756.000000	99.695738 
2755.000000	99.695466 
2754.000000	99.695571 
2753.000000	99.696148 
2752.000000	99.696942 
2751.000000	99.697461 
2750.000000	99.697448 
2749.000000	99.697041 
2748.000000	99.696503 
2747.000000	99.695963 
2746.000000	99.695518 
2745.000000	99.695368 
2744.000000	99.695618 
2743.000000	99.696075 
2742.000000	99.696421 
2741.000000	99.696564 
2740.000000	99.696647 
2739.000000	99.696779 
2738.000000	99.696913 
2737.000000	99.696972 
2736.000000	99.696934 
2735.000000	99.696758 
2734.000000	99.696378 
2733.000000	99.695856 
2732.000000	99.695464 
2731.000000	99.695514 
2730.000000	99.696087 
2729.000000	99.696953 
2728.000000	99.697810 
2727.000000	99.698606 
2726.000000	99.699540 
2725.000000	99.700682 
2724.000000	99.701698 
2723.000000	99.702141 
2722.000000	99.701932 
2721.000000	99.701403 
2720.000000	99.700814 
2719.000000	99.700038 
2718.000000	99.698881 
2717.000000	99.697566 
2716.000000	99.696699 
2715.000000	99.696732 
2714.000000	99.697605 
2713.000000	99.698875 
2712.000000	99.700066 
2711.000000	99.700912 
2710.000000	99.701368 
2709.000000	99.701528 
2708.000000	99.701558 
2707.000000	99.701612 
2706.000000	99.701731 
2705.000000	99.701805 
2704.000000	99.701686 
2703.000000	99.701355 
2702.000000	99.700991 
2701.000000	99.700858 
2700.000000	99.701064 
2699.000000	99.701454 
2698.000000	99.701739 
2697.000000	99.701771 
2696.000000	99.701641 
2695.000000	99.701483 
2694.000000	99.701232 
2693.000000	99.700725 
2692.000000	99.700032 
2691.000000	99.699587 
2690.000000	99.699765 
2689.000000	99.700443 
2688.000000	99.701181 
2687.000000	99.701643 
2686.000000	99.701884 
2685.000000	99.702105 
2684.000000	99.702290 
2683.000000	99.702203 
2682.000000	99.701725 
2681.000000	99.701048 
2680.000000	99.700524 
2679.000000	99.700332 
2678.000000	99.700381 
2677.000000	99.700537 
2676.000000	99.700797 
2675.000000	99.701203 
2674.000000	99.701668 
2673.000000	99.702021 
2672.000000	99.702191 
2671.000000	99.702255 
2670.000000	99.702306 
2669.000000	99.702340 
2668.000000	99.702318 
2667.000000	99.702266 
2666.000000	99.702270 
2665.000000	99.702393 
2664.000000	99.702661 
2663.000000	99.703087 
2662.000000	99.703650 
2661.000000	99.704255 
2660.000000	99.704773 
2659.000000	99.705104 
2658.000000	99.705189 
2657.000000	99.705025 
2656.000000	99.704711 
2655.000000	99.704402 
2654.000000	99.704166 
2653.000000	99.703987 
2652.000000	99.703951 
2651.000000	99.704260 
2650.000000	99.704863 
2649.000000	99.705202 
2648.000000	99.704662 
2647.000000	99.703296 
2646.000000	99.702033 
2645.000000	99.701784 
2644.000000	99.702634 
2643.000000	99.703925 
2642.000000	99.704921 
2641.000000	99.705336 
2640.000000	99.705285 
2639.000000	99.705159 
2638.000000	99.705459 
2637.000000	99.706397 
2636.000000	99.707597 
2635.000000	99.708421 
2634.000000	99.708665 
2633.000000	99.708761 
2632.000000	99.709281 
2631.000000	99.710361 
2630.000000	99.711599 
2629.000000	99.712357 
2628.000000	99.712200 
2627.000000	99.711205 
2626.000000	99.709915 
2625.000000	99.708859 
2624.000000	99.708132 
2623.000000	99.707555 
2622.000000	99.707076 
2621.000000	99.706803 
2620.000000	99.706676 
2619.000000	99.706391 
2618.000000	99.705734 
2617.000000	99.704873 
2616.000000	99.704205 
2615.000000	99.703868 
2614.000000	99.703467 
2613.000000	99.702412 
2612.000000	99.700709 
2611.000000	99.699309 
2610.000000	99.699291 
2609.000000	99.700736 
2608.000000	99.702651 
2607.000000	99.704017 
2606.000000	99.704750 
2605.000000	99.705475 
2604.000000	99.706695 
2603.000000	99.708353 
2602.000000	99.709840 
2601.000000	99.710429 
2600.000000	99.709942 
2599.000000	99.709004 
2598.000000	99.708413 
2597.000000	99.708191 
2596.000000	99.707735 
2595.000000	99.706871 
2594.000000	99.706127 
2593.000000	99.705830 
2592.000000	99.705583 
2591.000000	99.704965 
2590.000000	99.704274 
2589.000000	99.704152 
2588.000000	99.704789 
2587.000000	99.705843 
2586.000000	99.706881 
2585.000000	99.707608 
2584.000000	99.707867 
2583.000000	99.707753 
2582.000000	99.707594 
2581.000000	99.707565 
2580.000000	99.707418 
2579.000000	99.706837 
2578.000000	99.705914 
2577.000000	99.705063 
2576.000000	99.704557 
2575.000000	99.704390 
2574.000000	99.704549 
2573.000000	99.705124 
2572.000000	99.706113 
2571.000000	99.707284 
2570.000000	99.708261 
2569.000000	99.708728 
2568.000000	99.708587 
2567.000000	99.708034 
2566.000000	99.707546 
2565.000000	99.707513 
2564.000000	99.707930 
2563.000000	99.708475 
2562.000000	99.708855 
2561.000000	99.709029 
2560.000000	99.709070 
2559.000000	99.709027 
2558.000000	99.708975 
2557.000000	99.709056 
2556.000000	99.709352 
2555.000000	99.709745 
2554.000000	99.710038 
2553.000000	99.710188 
2552.000000	99.710343 
2551.000000	99.710639 
2550.000000	99.711001 
2549.000000	99.711196 
2548.000000	99.711085 
2547.000000	99.710789 
2546.000000	99.710618 
2545.000000	99.710794 
2544.000000	99.711257 
2543.000000	99.711713 
2542.000000	99.711910 
2541.000000	99.711857 
2540.000000	99.711736 
2539.000000	99.711663 
2538.000000	99.711587 
2537.000000	99.711437 
2536.000000	99.711281 
2535.000000	99.711282 
2534.000000	99.711517 
2533.000000	99.711911 
2532.000000	99.712308 
2531.000000	99.712601 
2530.000000	99.712801 
2529.000000	99.713068 
2528.000000	99.713628 
2527.000000	99.714571 
2526.000000	99.715651 
2525.000000	99.716378 
2524.000000	99.716416 
2523.000000	99.715832 
2522.000000	99.715077 
2521.000000	99.714668 
2520.000000	99.714817 
2519.000000	99.715364 
2518.000000	99.715936 
2517.000000	99.716256 
2516.000000	99.716374 
2515.000000	99.716617 
2514.000000	99.717328 
2513.000000	99.718594 
2512.000000	99.720142 
2511.000000	99.721407 
2510.000000	99.721905 
2509.000000	99.721597 
2508.000000	99.720914 
2507.000000	99.720360 
2506.000000	99.720087 
2505.000000	99.719990 
2504.000000	99.720066 
2503.000000	99.720418 
2502.000000	99.720938 
2501.000000	99.721262 
2500.000000	99.721166 
2499.000000	99.720829 
2498.000000	99.720599 
2497.000000	99.720614 
2496.000000	99.720791 
2495.000000	99.721052 
2494.000000	99.721389 
2493.000000	99.721767 
2492.000000	99.722124 
2491.000000	99.722452 
2490.000000	99.722759 
2489.000000	99.722957 
2488.000000	99.722912 
2487.000000	99.722623 
2486.000000	99.722257 
2485.000000	99.722026 
2484.000000	99.722030 
2483.000000	99.722219 
2482.000000	99.722468 
2481.000000	99.722662 
2480.000000	99.722768 
2479.000000	99.722819 
2478.000000	99.722847 
2477.000000	99.722863 
2476.000000	99.722884 
2475.000000	99.722926 
2474.000000	99.722975 
2473.000000	99.722987 
2472.000000	99.722934 
2471.000000	99.722847 
2470.000000	99.722776 
2469.000000	99.722747 
2468.000000	99.722762 
2467.000000	99.722822 
2466.000000	99.722919 
2465.000000	99.723013 
2464.000000	99.723055 
2463.000000	99.723031 
2462.000000	99.722978 
2461.000000	99.722943 
2460.000000	99.722937 
2459.000000	99.722953 
2458.000000	99.722994 
2457.000000	99.723066 
2456.000000	99.723164 
2455.000000	99.723282 
2454.000000	99.723403 
2453.000000	99.723492 
2452.000000	99.723522 
2451.000000	99.723525 
2450.000000	99.723593 
2449.000000	99.723779 
2448.000000	99.724057 
2447.000000	99.724333 
2446.000000	99.724538 
2445.000000	99.724651 
2444.000000	99.724683 
2443.000000	99.724676 
2442.000000	99.724684 
2441.000000	99.724743 
2440.000000	99.724829 
2439.000000	99.724903 
2438.000000	99.724992 
2437.000000	99.725177 
2436.000000	99.725511 
2435.000000	99.725973 
2434.000000	99.726431 
2433.000000	99.726692 
2432.000000	99.726645 
2431.000000	99.726356 
2430.000000	99.726048 
2429.000000	99.725876 
2428.000000	99.725813 
2427.000000	99.725781 
2426.000000	99.725812 
2425.000000	99.725989 
2424.000000	99.726244 
2423.000000	99.726352 
2422.000000	99.726174 
2421.000000	99.725826 
2420.000000	99.725579 
2419.000000	99.725640 
2418.000000	99.726044 
2417.000000	99.726662 
2416.000000	99.727210 
2415.000000	99.727386 
2414.000000	99.727085 
2413.000000	99.726490 
2412.000000	99.725941 
2411.000000	99.725643 
2410.000000	99.725509 
2409.000000	99.725278 
2408.000000	99.724814 
2407.000000	99.724285 
2406.000000	99.723993 
2405.000000	99.724040 
2404.000000	99.724276 
2403.000000	99.724536 
2402.000000	99.724797 
2401.000000	99.725056 
2400.000000	99.725187 
2399.000000	99.725025 
2398.000000	99.724531 
2397.000000	99.723824 
2396.000000	99.723160 
2395.000000	99.722854 
2394.000000	99.723103 
2393.000000	99.723763 
2392.000000	99.724406 
2391.000000	99.724713 
2390.000000	99.724720 
2389.000000	99.724645 
2388.000000	99.724642 
2387.000000	99.724790 
2386.000000	99.725151 
2385.000000	99.725694 
2384.000000	99.726246 
2383.000000	99.726647 
2382.000000	99.726951 
2381.000000	99.727353 
2380.000000	99.727943 
2379.000000	99.728586 
2378.000000	99.729052 
2377.000000	99.729216 
2376.000000	99.729131 
2375.000000	99.728988 
2374.000000	99.729001 
2373.000000	99.729264 
2372.000000	99.729725 
2371.000000	99.730232 
2370.000000	99.730629 
2369.000000	99.730867 
2368.000000	99.731014 
2367.000000	99.731166 
2366.000000	99.731344 
2365.000000	99.731504 
2364.000000	99.731616 
2363.000000	99.731718 
2362.000000	99.731880 
2361.000000	99.732128 
2360.000000	99.732436 
2359.000000	99.732742 
2358.000000	99.732985 
2357.000000	99.733144 
2356.000000	99.733242 
2355.000000	99.733337 
2354.000000	99.733469 
2353.000000	99.733623 
2352.000000	99.733765 
2351.000000	99.733874 
2350.000000	99.733963 
2349.000000	99.734052 
2348.000000	99.734153 
2347.000000	99.734258 
2346.000000	99.734352 
2345.000000	99.734439 
2344.000000	99.734530 
2343.000000	99.734628 
2342.000000	99.734730 
2341.000000	99.734888 
2340.000000	99.735191 
2339.000000	99.735626 
2338.000000	99.735975 
2337.000000	99.735980 
2336.000000	99.735657 
2335.000000	99.735323 
2334.000000	99.735160 
2333.000000	99.734929 
2332.000000	99.734377 
2331.000000	99.733774 
2330.000000	99.733735 
2329.000000	99.734379 
2328.000000	99.735135 
2327.000000	99.735412 
2326.000000	99.735248 
2325.000000	99.735098 
2324.000000	99.735123 
2323.000000	99.735034 
2322.000000	99.734513 
2321.000000	99.733705 
2320.000000	99.733059 
2319.000000	99.732854 
2318.000000	99.733038 
2317.000000	99.733419 
2316.000000	99.733945 
2315.000000	99.734666 
2314.000000	99.735529 
2313.000000	99.736219 
2312.000000	99.736361 
2311.000000	99.735892 
2310.000000	99.735303 
2309.000000	99.735430 
2308.000000	99.736785 
2307.000000	99.738883 
2306.000000	99.740246 
2305.000000	99.739634 
2304.000000	99.737333 
2303.000000	99.735216 
2302.000000	99.734982 
2301.000000	99.736430 
2300.000000	99.737893 
2299.000000	99.738248 
2298.000000	99.737878 
2297.000000	99.737481 
2296.000000	99.736767 
2295.000000	99.734966 
2294.000000	99.732133 
2293.000000	99.729306 
2292.000000	99.727423 
2291.000000	99.726524 
2290.000000	99.726046 
2289.000000	99.725556 
2288.000000	99.725097 
2287.000000	99.724918 
2286.000000	99.724889 
2285.000000	99.724354 
2284.000000	99.722830 
2283.000000	99.720855 
2282.000000	99.719690 
2281.000000	99.719982 
2280.000000	99.721133 
2279.000000	99.722151 
2278.000000	99.722795 
2277.000000	99.723452 
2276.000000	99.724180 
2275.000000	99.724459 
2274.000000	99.723920 
2273.000000	99.722939 
2272.000000	99.722383 
2271.000000	99.722813 
2270.000000	99.723941 
2269.000000	99.724787 
2268.000000	99.724436 
2267.000000	99.722744 
2266.000000	99.720402 
2265.000000	99.718355 
2264.000000	99.717211 
2263.000000	99.717141 
2262.000000	99.717868 
2261.000000	99.718719 
2260.000000	99.719202 
2259.000000	99.719562 
2258.000000	99.720543 
2257.000000	99.722481 
2256.000000	99.724779 
2255.000000	99.726372 
2254.000000	99.726609 
2253.000000	99.725667 
2252.000000	99.724330 
2251.000000	99.723466 
2250.000000	99.723517 
2249.000000	99.724323 
2248.000000	99.725345 
2247.000000	99.726108 
2246.000000	99.726415 
2245.000000	99.726232 
2244.000000	99.725603 
2243.000000	99.724721 
2242.000000	99.723901 
2241.000000	99.723422 
2240.000000	99.723411 
2239.000000	99.723798 
2238.000000	99.724237 
2237.000000	99.724226 
2236.000000	99.723672 
2235.000000	99.723245 
2234.000000	99.723819 
2233.000000	99.725558 
2232.000000	99.727875 
2231.000000	99.730153 
2230.000000	99.732030 
2229.000000	99.733143 
2228.000000	99.733196 
2227.000000	99.732448 
2226.000000	99.731742 
2225.000000	99.731822 
2224.000000	99.732873 
2223.000000	99.734698 
2222.000000	99.736828 
2221.000000	99.738378 
2220.000000	99.738400 
2219.000000	99.736725 
2218.000000	99.734260 
2217.000000	99.732198 
2216.000000	99.731043 
2215.000000	99.730815 
2214.000000	99.731528 
2213.000000	99.732879 
2212.000000	99.733858 
2211.000000	99.733489 
2210.000000	99.731925 
2209.000000	99.730269 
2208.000000	99.729307 
2207.000000	99.729074 
2206.000000	99.729680 
2205.000000	99.731584 
2204.000000	99.734589 
2203.000000	99.737382 
2202.000000	99.738687 
2201.000000	99.738497 
2200.000000	99.737792 
2199.000000	99.737239 
2198.000000	99.736821 
2197.000000	99.736481 
2196.000000	99.736353 
2195.000000	99.736277 
2194.000000	99.735666 
2193.000000	99.734316 
2192.000000	99.733150 
2191.000000	99.733557 
2190.000000	99.735748 
2189.000000	99.738072 
2188.000000	99.738533 
2187.000000	99.736744 
2186.000000	99.733842 
2185.000000	99.730852 
2184.000000	99.727873 
2183.000000	99.725060 
2182.000000	99.723371 
2181.000000	99.723602 
2180.000000	99.725485 
2179.000000	99.728329 
2178.000000	99.731773 
2177.000000	99.735321 
2176.000000	99.738053 
2175.000000	99.739493 
2174.000000	99.740171 
2173.000000	99.740768 
2172.000000	99.741192 
2171.000000	99.741057 
2170.000000	99.740522 
2169.000000	99.739980 
2168.000000	99.739364 
2167.000000	99.738499 
2166.000000	99.737865 
2165.000000	99.738202 
2164.000000	99.739319 
2163.000000	99.739922 
2162.000000	99.738917 
2161.000000	99.736632 
2160.000000	99.734768 
2159.000000	99.735040 
2158.000000	99.737835 
2157.000000	99.741795 
2156.000000	99.744661 
2155.000000	99.745120 
2154.000000	99.743502 
2153.000000	99.741295 
2152.000000	99.739897 
2151.000000	99.739680 
2150.000000	99.740097 
2149.000000	99.740223 
2148.000000	99.739338 
2147.000000	99.737266 
2146.000000	99.734340 
2145.000000	99.731212 
2144.000000	99.728752 
2143.000000	99.727824 
2142.000000	99.728783 
2141.000000	99.731074 
2140.000000	99.733620 
2139.000000	99.735687 
2138.000000	99.737143 
2137.000000	99.738048 
2136.000000	99.738481 
2135.000000	99.738663 
2134.000000	99.738656 
2133.000000	99.737960 
2132.000000	99.736109 
2131.000000	99.733702 
2130.000000	99.732029 
2129.000000	99.731437 
2128.000000	99.730885 
2127.000000	99.729549 
2126.000000	99.728192 
2125.000000	99.728102 
2124.000000	99.729180 
2123.000000	99.730001 
2122.000000	99.729655 
2121.000000	99.728691 
2120.000000	99.728236 
2119.000000	99.728906 
2118.000000	99.730608 
2117.000000	99.732838 
2116.000000	99.734926 
2115.000000	99.736368 
2114.000000	99.737137 
2113.000000	99.737356 
2112.000000	99.737035 
2111.000000	99.736403 
2110.000000	99.736096 
2109.000000	99.736620 
2108.000000	99.737706 
2107.000000	99.738622 
2106.000000	99.739047 
2105.000000	99.739307 
2104.000000	99.739795 
2103.000000	99.740462 
2102.000000	99.740926 
2101.000000	99.740908 
2100.000000	99.740449 
2099.000000	99.739855 
2098.000000	99.739509 
2097.000000	99.739680 
2096.000000	99.740384 
2095.000000	99.741386 
2094.000000	99.742287 
2093.000000	99.742706 
2092.000000	99.742467 
2091.000000	99.741687 
2090.000000	99.740799 
2089.000000	99.740268 
2088.000000	99.740271 
2087.000000	99.740685 
2086.000000	99.741346 
2085.000000	99.742223 
2084.000000	99.743227 
2083.000000	99.744072 
2082.000000	99.744442 
2081.000000	99.744303 
2080.000000	99.744019 
2079.000000	99.744060 
2078.000000	99.744520 
2077.000000	99.744973 
2076.000000	99.744914 
2075.000000	99.744311 
2074.000000	99.743605 
2073.000000	99.743204 
2072.000000	99.743110 
2071.000000	99.743159 
2070.000000	99.743369 
2069.000000	99.743787 
2068.000000	99.744142 
2067.000000	99.744032 
2066.000000	99.743536 
2065.000000	99.743259 
2064.000000	99.743622 
2063.000000	99.744452 
2062.000000	99.745437 
2061.000000	99.746528 
2060.000000	99.747710 
2059.000000	99.748771 
2058.000000	99.749468 
2057.000000	99.749807 
2056.000000	99.750005 
2055.000000	99.750271 
2054.000000	99.750687 
2053.000000	99.751258 
2052.000000	99.751968 
2051.000000	99.752784 
2050.000000	99.753672 
2049.000000	99.754595 
2048.000000	99.755510 
2047.000000	99.756374 
2046.000000	99.757174 
2045.000000	99.757929 
2044.000000	99.758638 
2043.000000	99.759310 
2042.000000	99.759967 
2041.000000	99.760619 
2040.000000	99.761261 
2039.000000	99.761880 
2038.000000	99.762471 
2037.000000	99.763037 
2036.000000	99.763588 
2035.000000	99.764136 
2034.000000	99.764687 
2033.000000	99.765234 
2032.000000	99.765762 
2031.000000	99.766250 
2030.000000	99.766688 
2029.000000	99.767066 
2028.000000	99.767380 
2027.000000	99.767639 
2026.000000	99.767865 
2025.000000	99.768085 
2024.000000	99.768306 
2023.000000	99.768509 
2022.000000	99.768671 
2021.000000	99.768788 
2020.000000	99.768877 
2019.000000	99.768962 
2018.000000	99.769054 
2017.000000	99.769150 
2016.000000	99.769238 
2015.000000	99.769309 
2014.000000	99.769362 
2013.000000	99.769395 
2012.000000	99.769400 
2011.000000	99.769366 
2010.000000	99.769289 
2009.000000	99.769177 
2008.000000	99.769045 
2007.000000	99.768900 
2006.000000	99.768736 
2005.000000	99.768545 
2004.000000	99.768294 
2003.000000	99.767911 
2002.000000	99.767408 
2001.000000	99.766931 
2000.000000	99.766585 
1999.000000	99.766271 
1998.000000	99.765858 
1997.000000	99.765450 
1996.000000	99.765285 
1995.000000	99.765407 
1994.000000	99.765567 
1993.000000	99.765459 
1992.000000	99.765041 
1991.000000	99.764618 
1990.000000	99.764542 
1989.000000	99.764875 
1988.000000	99.765387 
1987.000000	99.765830 
1986.000000	99.766125 
1985.000000	99.766271 
1984.000000	99.766270 
1983.000000	99.766240 
1982.000000	99.766464 
1981.000000	99.767115 
1980.000000	99.767979 
1979.000000	99.768547 
1978.000000	99.768437 
1977.000000	99.767653 
1976.000000	99.766543 
1975.000000	99.765598 
1974.000000	99.764978 
1973.000000	99.764257 
1972.000000	99.762946 
1971.000000	99.761276 
1970.000000	99.760162 
1969.000000	99.760247 
1968.000000	99.761172 
1967.000000	99.761801 
1966.000000	99.761240 
1965.000000	99.759455 
1964.000000	99.757090 
1963.000000	99.755048 
1962.000000	99.753982 
1961.000000	99.754021 
1960.000000	99.754687 
1959.000000	99.755269 
1958.000000	99.755302 
1957.000000	99.754730 
1956.000000	99.753866 
1955.000000	99.753248 
1954.000000	99.753268 
1953.000000	99.753851 
1952.000000	99.754470 
1951.000000	99.754590 
1950.000000	99.754095 
1949.000000	99.753223 
1948.000000	99.752244 
1947.000000	99.751311 
1946.000000	99.750535 
1945.000000	99.749972 
1944.000000	99.749531 
1943.000000	99.749005 
1942.000000	99.748292 
1941.000000	99.747504 
1940.000000	99.746826 
1939.000000	99.746331 
1938.000000	99.745968 
1937.000000	99.745645 
1936.000000	99.745320 
1935.000000	99.745036 
1934.000000	99.744845 
1933.000000	99.744691 
1932.000000	99.744403 
1931.000000	99.743861 
1930.000000	99.743158 
1929.000000	99.742539 
1928.000000	99.742123 
1927.000000	99.741804 
1926.000000	99.741443 
1925.000000	99.741103 
1924.000000	99.740928 
1923.000000	99.740893 
1922.000000	99.740817 
1921.000000	99.740630 
1920.000000	99.740378 
1919.000000	99.740037 
1918.000000	99.739490 
1917.000000	99.738710 
1916.000000	99.737885 
1915.000000	99.737323 
1914.000000	99.737198 
1913.000000	99.737443 
1912.000000	99.737822 
1911.000000	99.738096 
1910.000000	99.738170 
1909.000000	99.738013 
1908.000000	99.737584 
1907.000000	99.736955 
1906.000000	99.736444 
1905.000000	99.736405 
1904.000000	99.736856 
1903.000000	99.737449 
1902.000000	99.737786 
1901.000000	99.737739 
1900.000000	99.737411 
1899.000000	99.736946 
1898.000000	99.736440 
1897.000000	99.735970 
1896.000000	99.735576 
1895.000000	99.735243 
1894.000000	99.734976 
1893.000000	99.734876 
1892.000000	99.735070 
1891.000000	99.735568 
1890.000000	99.736200 
1889.000000	99.736701 
1888.000000	99.736906 
1887.000000	99.736826 
1886.000000	99.736549 
1885.000000	99.736194 
1884.000000	99.735873 
1883.000000	99.735646 
1882.000000	99.735508 
1881.000000	99.735432 
1880.000000	99.735409 
1879.000000	99.735420 
1878.000000	99.735402 
1877.000000	99.735300 
1876.000000	99.735132 
1875.000000	99.734980 
1874.000000	99.734909 
1873.000000	99.734910 
1872.000000	99.734941 
1871.000000	99.734990 
1870.000000	99.735062 
1869.000000	99.735142 
1868.000000	99.735196 
1867.000000	99.735217 
1866.000000	99.735217 
1865.000000	99.735210 
1864.000000	99.735213 
1863.000000	99.735227 
1862.000000	99.735244 
1861.000000	99.735257 
1860.000000	99.735258 
1859.000000	99.735252 
1858.000000	99.735244 
1857.000000	99.735239 
1856.000000	99.735239 
1855.000000	99.735244 
1854.000000	99.735252 
1853.000000	99.735260 
1852.000000	99.735269 
1851.000000	99.735276 
1850.000000	99.735284 
1849.000000	99.735288 
1848.000000	99.735276 
1847.000000	99.735240 
1846.000000	99.735182 
1845.000000	99.735112 
1844.000000	99.735040 
1843.000000	99.734964 
1842.000000	99.734876 
1841.000000	99.734782 
1840.000000	99.734704 
1839.000000	99.734667 
1838.000000	99.734672 
1837.000000	99.734693 
1836.000000	99.734704 
1835.000000	99.734709 
1834.000000	99.734722 
1833.000000	99.734725 
1832.000000	99.734671 
1831.000000	99.734524 
1830.000000	99.734319 
1829.000000	99.734170 
1828.000000	99.734190 
1827.000000	99.734379 
1826.000000	99.734541 
1825.000000	99.734432 
1824.000000	99.733965 
1823.000000	99.733359 
1822.000000	99.732874 
1821.000000	99.732583 
1820.000000	99.732423 
1819.000000	99.732271 
1818.000000	99.732069 
1817.000000	99.731865 
1816.000000	99.731745 
1815.000000	99.731718 
1814.000000	99.731678 
1813.000000	99.731503 
1812.000000	99.731202 
1811.000000	99.730906 
1810.000000	99.730729 
1809.000000	99.730663 
1808.000000	99.730635 
1807.000000	99.730606 
1806.000000	99.730564 
1805.000000	99.730483 
1804.000000	99.730354 
1803.000000	99.730223 
1802.000000	99.730136 
1801.000000	99.730083 
1800.000000	99.730021 
1799.000000	99.729931 
1798.000000	99.729816 
1797.000000	99.729661 
1796.000000	99.729461 
1795.000000	99.729268 
1794.000000	99.729156 
1793.000000	99.729143 
1792.000000	99.729173 
1791.000000	99.729185 
1790.000000	99.729163 
1789.000000	99.729098 
1788.000000	99.728981 
1787.000000	99.728823 
1786.000000	99.728659 
1785.000000	99.728517 
1784.000000	99.728394 
1783.000000	99.728269 
1782.000000	99.728117 
1781.000000	99.727918 
1780.000000	99.727675 
1779.000000	99.727419 
1778.000000	99.727181 
1777.000000	99.726962 
1776.000000	99.726747 
1775.000000	99.726524 
1774.000000	99.726274 
1773.000000	99.725971 
1772.000000	99.725606 
1771.000000	99.725215 
1770.000000	99.724856 
1769.000000	99.724543 
1768.000000	99.724250 
1767.000000	99.723939 
1766.000000	99.723620 
1765.000000	99.723324 
1764.000000	99.723036 
1763.000000	99.722699 
1762.000000	99.722275 
1761.000000	99.721797 
1760.000000	99.721346 
1759.000000	99.720956 
1758.000000	99.720599 
1757.000000	99.720217 
1756.000000	99.719768 
1755.000000	99.719255 
1754.000000	99.718729 
1753.000000	99.718254 
1752.000000	99.717871 
1751.000000	99.717573 
1750.000000	99.717274 
1749.000000	99.716852 
1748.000000	99.716240 
1747.000000	99.715511 
1746.000000	99.714868 
1745.000000	99.714491 
1744.000000	99.714365 
1743.000000	99.714281 
1742.000000	99.714102 
1741.000000	99.713927 
1740.000000	99.713891 
1739.000000	99.713944 
1738.000000	99.713967 
1737.000000	99.713991 
1736.000000	99.714118 
1735.000000	99.714375 
1734.000000	99.714613 
1733.000000	99.714629 
1732.000000	99.714474 
1731.000000	99.714341 
1730.000000	99.714330 
1729.000000	99.714443 
1728.000000	99.714688 
1727.000000	99.715093 
1726.000000	99.715618 
1725.000000	99.716131 
1724.000000	99.716480 
1723.000000	99.716601 
1722.000000	99.716572 
1721.000000	99.716567 
1720.000000	99.716789 
1719.000000	99.717409 
1718.000000	99.718454 
1717.000000	99.719639 
1716.000000	99.720552 
1715.000000	99.721158 
1714.000000	99.721676 
1713.000000	99.722296 
1712.000000	99.723060 
1711.000000	99.723922 
1710.000000	99.724833 
1709.000000	99.725737 
1708.000000	99.726604 
1707.000000	99.727455 
1706.000000	99.728339 
1705.000000	99.729263 
1704.000000	99.730176 
1703.000000	99.731060 
1702.000000	99.731934 
1701.000000	99.732840 
1700.000000	99.733746 
1699.000000	99.734546 
1698.000000	99.735257 
1697.000000	99.735952 
1696.000000	99.736695 
1695.000000	99.737564 
1694.000000	99.738554 
1693.000000	99.739591 
1692.000000	99.740641 
1691.000000	99.741724 
1690.000000	99.742867 
1689.000000	99.744007 
1688.000000	99.745022 
1687.000000	99.745879 
1686.000000	99.746692 
1685.000000	99.747735 
1684.000000	99.749027 
1683.000000	99.750133 
1682.000000	99.750899 
1681.000000	99.751490 
1680.000000	99.752030 
1679.000000	99.752591 
1678.000000	99.753313 
1677.000000	99.754360 
1676.000000	99.755766 
1675.000000	99.757180 
1674.000000	99.758127 
1673.000000	99.758630 
1672.000000	99.759071 
1671.000000	99.759554 
1670.000000	99.759798 
1669.000000	99.759667 
1668.000000	99.759646 
1667.000000	99.760255 
1666.000000	99.761428 
1665.000000	99.762739 
1664.000000	99.763795 
1663.000000	99.764476 
1662.000000	99.764819 
1661.000000	99.764839 
1660.000000	99.764714 
1659.000000	99.764861 
1658.000000	99.765700 
1657.000000	99.767342 
1656.000000	99.769555 
1655.000000	99.771679 
1654.000000	99.772706 
1653.000000	99.771757 
1652.000000	99.769364 
1651.000000	99.767061 
1650.000000	99.765538 
1649.000000	99.764913 
1648.000000	99.764773 
1647.000000	99.764656 
1646.000000	99.764546 
1645.000000	99.764626 
1644.000000	99.764723 
1643.000000	99.764667 
1642.000000	99.764391 
1641.000000	99.763788 
1640.000000	99.762872 
1639.000000	99.761986 
1638.000000	99.761570 
1637.000000	99.761654 
1636.000000	99.761621 
1635.000000	99.761080 
1634.000000	99.760599 
1633.000000	99.760665 
1632.000000	99.760965 
1631.000000	99.760909 
1630.000000	99.760213 
1629.000000	99.759049 
1628.000000	99.757756 
1627.000000	99.756559 
1626.000000	99.755509 
1625.000000	99.754563 
1624.000000	99.753717 
1623.000000	99.753104 
1622.000000	99.752886 
1621.000000	99.752978 
1620.000000	99.753075 
1619.000000	99.752803 
1618.000000	99.751872 
1617.000000	99.750369 
1616.000000	99.748809 
1615.000000	99.747636 
1614.000000	99.746918 
1613.000000	99.746586 
1612.000000	99.746567 
1611.000000	99.746816 
1610.000000	99.747256 
1609.000000	99.747695 
1608.000000	99.747855 
1607.000000	99.747521 
1606.000000	99.746731 
1605.000000	99.745809 
1604.000000	99.745159 
1603.000000	99.744917 
1602.000000	99.744890 
1601.000000	99.744823 
1600.000000	99.744725 
1599.000000	99.744803 
1598.000000	99.745137 
1597.000000	99.745544 
1596.000000	99.745726 
1595.000000	99.745541 
1594.000000	99.745132 
1593.000000	99.744813 
1592.000000	99.744813 
1591.000000	99.745136 
1590.000000	99.745632 
1589.000000	99.746126 
1588.000000	99.746534 
1587.000000	99.746875 
1586.000000	99.747208 
1585.000000	99.747554 
1584.000000	99.747905 
1583.000000	99.748259 
1582.000000	99.748617 
1581.000000	99.748975 
1580.000000	99.749339 
1579.000000	99.749738 
1578.000000	99.750207 
1577.000000	99.750769 
1576.000000	99.751357 
1575.000000	99.751808 
1574.000000	99.752070 
1573.000000	99.752248 
1572.000000	99.752453 
1571.000000	99.752774 
1570.000000	99.753335 
1569.000000	99.754185 
1568.000000	99.755219 
1567.000000	99.756214 
1566.000000	99.756968 
1565.000000	99.757378 
1564.000000	99.757537 
1563.000000	99.757622 
1562.000000	99.757734 
1561.000000	99.757829 
1560.000000	99.758158 
1559.000000	99.759096 
1558.000000	99.760318 
1557.000000	99.761359 
1556.000000	99.762253 
1555.000000	99.763099 
1554.000000	99.763689 
1553.000000	99.763873 
1552.000000	99.763770 
1551.000000	99.763716 
1550.000000	99.763979 
1549.000000	99.764637 
1548.000000	99.765533 
1547.000000	99.766447 
1546.000000	99.767205 
1545.000000	99.767694 
1544.000000	99.767830 
1543.000000	99.767547 
1542.000000	99.766893 
1541.000000	99.766180 
1540.000000	99.765877 
1539.000000	99.766182 
1538.000000	99.766662 
1537.000000	99.766861 
1536.000000	99.766921 
1535.000000	99.767225 
1534.000000	99.768096 
1533.000000	99.769320 
1532.000000	99.770249 
1531.000000	99.770563 
1530.000000	99.770439 
1529.000000	99.770100 
1528.000000	99.769562 
1527.000000	99.768769 
1526.000000	99.767891 
1525.000000	99.767261 
1524.000000	99.767044 
1523.000000	99.767133 
1522.000000	99.767355 
1521.000000	99.767564 
1520.000000	99.767624 
1519.000000	99.767609 
1518.000000	99.767799 
1517.000000	99.768209 
1516.000000	99.768336 
1515.000000	99.767792 
1514.000000	99.766744 
1513.000000	99.765793 
1512.000000	99.765600 
1511.000000	99.766419 
1510.000000	99.768058 
1509.000000	99.770030 
1508.000000	99.771517 
1507.000000	99.771002 
1506.000000	99.768126 
1505.000000	99.764610 
1504.000000	99.761799 
1503.000000	99.760140 
1502.000000	99.759440 
1501.000000	99.759037 
1500.000000	99.758329 
1499.000000	99.757349 
1498.000000	99.756481 
1497.000000	99.755619 
1496.000000	99.753979 
1495.000000	99.751397 
1494.000000	99.748890 
1493.000000	99.747353 
1492.000000	99.746615 
1491.000000	99.745778 
1490.000000	99.744274 
1489.000000	99.742586 
1488.000000	99.741405 
1487.000000	99.740729 
1486.000000	99.740309 
1485.000000	99.740021 
1484.000000	99.739861 
1483.000000	99.739670 
1482.000000	99.738999 
1481.000000	99.737566 
1480.000000	99.735657 
1479.000000	99.733879 
1478.000000	99.732607 
1477.000000	99.731869 
1476.000000	99.731500 
1475.000000	99.731244 
1474.000000	99.730678 
1473.000000	99.729297 
1472.000000	99.727167 
1471.000000	99.725150 
1470.000000	99.723922 
1469.000000	99.723443 
1468.000000	99.723334 
1467.000000	99.723253 
1466.000000	99.723056 
1465.000000	99.722743 
1464.000000	99.722439 
1463.000000	99.722247 
1462.000000	99.722106 
1461.000000	99.721799 
1460.000000	99.721157 
1459.000000	99.720264 
1458.000000	99.719500 
1457.000000	99.719148 
1456.000000	99.718957 
1455.000000	99.718683 
1454.000000	99.718614 
1453.000000	99.719033 
1452.000000	99.719609 
1451.000000	99.719638 
1450.000000	99.718769 
1449.000000	99.717387 
1448.000000	99.716256 
1447.000000	99.715811 
1446.000000	99.715935 
1445.000000	99.716286 
1444.000000	99.716537 
1443.000000	99.716310 
1442.000000	99.715436 
1441.000000	99.714163 
1440.000000	99.712926 
1439.000000	99.711928 
1438.000000	99.711189 
1437.000000	99.710962 
1436.000000	99.711439 
1435.000000	99.712238 
1434.000000	99.713019 
1433.000000	99.713825 
1432.000000	99.714480 
1431.000000	99.714586 
1430.000000	99.714032 
1429.000000	99.713209 
1428.000000	99.712453 
1427.000000	99.711786 
1426.000000	99.711190 
1425.000000	99.710809 
1424.000000	99.710913 
1423.000000	99.711418 
1422.000000	99.711926 
1421.000000	99.712152 
1420.000000	99.712166 
1419.000000	99.711886 
1418.000000	99.710498 
1417.000000	99.707433 
1416.000000	99.703089 
1415.000000	99.698561 
1414.000000	99.694983 
1413.000000	99.692643 
1412.000000	99.690720 
1411.000000	99.688327 
1410.000000	99.685858 
1409.000000	99.684796 
1408.000000	99.685954 
1407.000000	99.688512 
1406.000000	99.690787 
1405.000000	99.691888 
1404.000000	99.692496 
1403.000000	99.693604 
1402.000000	99.695321 
1401.000000	99.697215 
1400.000000	99.699007 
1399.000000	99.700575 
1398.000000	99.701403 
1397.000000	99.700547 
1396.000000	99.697532 
1395.000000	99.693713 
1394.000000	99.691847 
1393.000000	99.693296 
1392.000000	99.696997 
1391.000000	99.701048 
1390.000000	99.704340 
1389.000000	99.706729 
1388.000000	99.708395 
1387.000000	99.709432 
1386.000000	99.709890 
1385.000000	99.709775 
1384.000000	99.709051 
1383.000000	99.707962 
1382.000000	99.707318 
1381.000000	99.707983 
1380.000000	99.709999 
1379.000000	99.712676 
1378.000000	99.715372 
1377.000000	99.717895 
1376.000000	99.720235 
1375.000000	99.722278 
1374.000000	99.723902 
1373.000000	99.725150 
1372.000000	99.726097 
1371.000000	99.726801 
1370.000000	99.727498 
1369.000000	99.728568 
1368.000000	99.730269 
1367.000000	99.732429 
1366.000000	99.734555 
1365.000000	99.736231 
1364.000000	99.737333 
1363.000000	99.738065 
1362.000000	99.738862 
1361.000000	99.740059 
1360.000000	99.741707 
1359.000000	99.743768 
1358.000000	99.746165 
1357.000000	99.748529 
1356.000000	99.750258 
1355.000000	99.751017 
1354.000000	99.751141 
1353.000000	99.751404 
1352.000000	99.752323 
1351.000000	99.753857 
1350.000000	99.755553 
1349.000000	99.756798 
1348.000000	99.757300 
1347.000000	99.757350 
1346.000000	99.757495 
1345.000000	99.757856 
1344.000000	99.758102 
1343.000000	99.758140 
1342.000000	99.758439 
1341.000000	99.759415 
1340.000000	99.760748 
1339.000000	99.761651 
1338.000000	99.761814 
1337.000000	99.761672 
1336.000000	99.761851 
1335.000000	99.762599 
1334.000000	99.763686 
1333.000000	99.764580 
1332.000000	99.764858 
1331.000000	99.764559 
1330.000000	99.764137 
1329.000000	99.763987 
1328.000000	99.764106 
1327.000000	99.764357 
1326.000000	99.764830 
1325.000000	99.765672 
1324.000000	99.766664 
1323.000000	99.767268 
1322.000000	99.767222 
1321.000000	99.766880 
1320.000000	99.766869 
1319.000000	99.767399 
1318.000000	99.768064 
1317.000000	99.768351 
1316.000000	99.768247 
1315.000000	99.768231 
1314.000000	99.768679 
1313.000000	99.769396 
1312.000000	99.769839 
1311.000000	99.769796 
1310.000000	99.769578 
1309.000000	99.769557 
1308.000000	99.769708 
1307.000000	99.769794 
1306.000000	99.769758 
1305.000000	99.769693 
1304.000000	99.769649 
1303.000000	99.769627 
1302.000000	99.769617 
1301.000000	99.769412 
1300.000000	99.768699 
1299.000000	99.767648 
1298.000000	99.767140 
1297.000000	99.767871 
1296.000000	99.769382 
1295.000000	99.770378 
1294.000000	99.770160 
1293.000000	99.769240 
1292.000000	99.768621 
1291.000000	99.768849 
1290.000000	99.769812 
1289.000000	99.770931 
1288.000000	99.771447 
1287.000000	99.771005 
1286.000000	99.770106 
1285.000000	99.769604 
1284.000000	99.769597 
1283.000000	99.769372 
1282.000000	99.768507 
1281.000000	99.767432 
1280.000000	99.766803 
1279.000000	99.766881 
1278.000000	99.767647 
1277.000000	99.768924 
1276.000000	99.770080 
1275.000000	99.770270 
1274.000000	99.769460 
1273.000000	99.768724 
1272.000000	99.768962 
1271.000000	99.769704 
1270.000000	99.769871 
1269.000000	99.769342 
1268.000000	99.768956 
1267.000000	99.769163 
1266.000000	99.769580 
1265.000000	99.769943 
1264.000000	99.770533 
1263.000000	99.771155 
1262.000000	99.770506 
1261.000000	99.767392 
1260.000000	99.762422 
1259.000000	99.757792 
1258.000000	99.755134 
1257.000000	99.754099 
1256.000000	99.753286 
1255.000000	99.752029 
1254.000000	99.750784 
1253.000000	99.750092 
1252.000000	99.750014 
1251.000000	99.750649 
1250.000000	99.752318 
1249.000000	99.754769 
1248.000000	99.756837 
1247.000000	99.757478 
1246.000000	99.756629 
1245.000000	99.754544 
1244.000000	99.751039 
1243.000000	99.746415 
1242.000000	99.742690 
1241.000000	99.742509 
1240.000000	99.746549 
1239.000000	99.752636 
1238.000000	99.757489 
1237.000000	99.758827 
1236.000000	99.756066 
1235.000000	99.750356 
1234.000000	99.744275 
1233.000000	99.740230 
1232.000000	99.738371 
1231.000000	99.736696 
1230.000000	99.733650 
1229.000000	99.729981 
1228.000000	99.727459 
1227.000000	99.726278 
1226.000000	99.724413 
1225.000000	99.719554 
1224.000000	99.711434 
1223.000000	99.702400 
1222.000000	99.695621 
1221.000000	99.692214 
1220.000000	99.690135 
1219.000000	99.686274 
1218.000000	99.679503 
1217.000000	99.671206 
1216.000000	99.663116 
1215.000000	99.655624 
1214.000000	99.648267 
1213.000000	99.640685 
1212.000000	99.632484 
1211.000000	99.623043 
1210.000000	99.612323 
1209.000000	99.601412 
1208.000000	99.591532 
1207.000000	99.582729 
1206.000000	99.574008 
1205.000000	99.564414 
1204.000000	99.553545 
1203.000000	99.541516 
1202.000000	99.529125 
1201.000000	99.517718 
1200.000000	99.508098 
1199.000000	99.499559 
1198.000000	99.490572 
1197.000000	99.480376 
1196.000000	99.469362 
1195.000000	99.458029 
1194.000000	99.446360 
1193.000000	99.434288 
1192.000000	99.422041 
1191.000000	99.409682 
1190.000000	99.396910 
1189.000000	99.383647 
1188.000000	99.370176 
1187.000000	99.356224 
1186.000000	99.340578 
1185.000000	99.322487 
1184.000000	99.303119 
1183.000000	99.284843 
1182.000000	99.269183 
1181.000000	99.256034 
1180.000000	99.244422 
1179.000000	99.232916 
1178.000000	99.219555 
1177.000000	99.202876 
1176.000000	99.183576 
1175.000000	99.164133 
1174.000000	99.146215 
1173.000000	99.129150 
1172.000000	99.111246 
1171.000000	99.091599 
1170.000000	99.070330 
1169.000000	99.048518 
1168.000000	99.028813 
1167.000000	99.014703 
1166.000000	99.007780 
1165.000000	99.006410 
1164.000000	99.008030 
1163.000000	99.011976 
1162.000000	99.018830 
1161.000000	99.027770 
1160.000000	99.036020 
1159.000000	99.040628 
1158.000000	99.039685 
1157.000000	99.032396 
1156.000000	99.019534 
1155.000000	99.003777 
1154.000000	98.988065 
1153.000000	98.973222 
1152.000000	98.958124 
1151.000000	98.941852 
1150.000000	98.924317 
1149.000000	98.905241 
1148.000000	98.884634 
1147.000000	98.864544 
1146.000000	98.848082 
1145.000000	98.835589 
1144.000000	98.823512 
1143.000000	98.808437 
1142.000000	98.790955 
1141.000000	98.774079 
1140.000000	98.758830 
1139.000000	98.743271 
1138.000000	98.725582 
1137.000000	98.706195 
1136.000000	98.686419 
1135.000000	98.666355 
1134.000000	98.645158 
1133.000000	98.622688 
1132.000000	98.599990 
1131.000000	98.578332 
1130.000000	98.558508 
1129.000000	98.540965 
1128.000000	98.525508 
1127.000000	98.510245 
1126.000000	98.491787 
1125.000000	98.467893 
1124.000000	98.440041 
1123.000000	98.412429 
1122.000000	98.388081 
1121.000000	98.366791 
1120.000000	98.347075 
1119.000000	98.328747 
1118.000000	98.312582 
1117.000000	98.298286 
1116.000000	98.284109 
1115.000000	98.268402 
1114.000000	98.250718 
1113.000000	98.231312 
1112.000000	98.210278 
1111.000000	98.187607 
1110.000000	98.163964 
1109.000000	98.141128 
1108.000000	98.121124 
1107.000000	98.104454 
1106.000000	98.089494 
1105.000000	98.074152 
1104.000000	98.057938 
1103.000000	98.041808 
1102.000000	98.026489 
1101.000000	98.012203 
1100.000000	97.999655 
1099.000000	97.989578 
1098.000000	97.981140 
1097.000000	97.972090 
1096.000000	97.961081 
1095.000000	97.948650 
1094.000000	97.935693 
1093.000000	97.922308 
1092.000000	97.908476 
1091.000000	97.894411 
1090.000000	97.879530 
1089.000000	97.862421 
1088.000000	97.842643 
1087.000000	97.821581 
1086.000000	97.800948 
1085.000000	97.781510 
1084.000000	97.763799 
1083.000000	97.748789 
1082.000000	97.737001 
1081.000000	97.727694 
1080.000000	97.719239 
1079.000000	97.709487 
1078.000000	97.696104 
1077.000000	97.678097 
1076.000000	97.657040 
1075.000000	97.635270 
1074.000000	97.613013 
1073.000000	97.589053 
1072.000000	97.563501 
1071.000000	97.536711 
1070.000000	97.505523 
1069.000000	97.464944 
1068.000000	97.415649 
1067.000000	97.366650 
1066.000000	97.327314 
1065.000000	97.298107 
1064.000000	97.271375 
1063.000000	97.238985 
1062.000000	97.197152 
1061.000000	97.146910 
1060.000000	97.093811 
1059.000000	97.045870 
1058.000000	97.007891 
1057.000000	96.977478 
1056.000000	96.948353 
1055.000000	96.916610 
1054.000000	96.881748 
1053.000000	96.843147 
1052.000000	96.799093 
1051.000000	96.749931 
1050.000000	96.699643 
1049.000000	96.652930 
1048.000000	96.611444 
1047.000000	96.572702 
1046.000000	96.532072 
1045.000000	96.487104 
1044.000000	96.441096 
1043.000000	96.401050 
1042.000000	96.370580 
1041.000000	96.345867 
1040.000000	96.319934 
1039.000000	96.289885 
1038.000000	96.258716 
1037.000000	96.231400 
1036.000000	96.211133 
1035.000000	96.198463 
1034.000000	96.191802 
1033.000000	96.188484 
1032.000000	96.186048 
1031.000000	96.182704 
1030.000000	96.177352 
1029.000000	96.170751 
1028.000000	96.166503 
1027.000000	96.168576 
1026.000000	96.176810 
1025.000000	96.186405 
1024.000000	96.192984 
1023.000000	96.196873 
1022.000000	96.201455 
1021.000000	96.208511 
1020.000000	96.216073 
1019.000000	96.220124 
1018.000000	96.217977 
1017.000000	96.210748 
1016.000000	96.202838 
1015.000000	96.198522 
1014.000000	96.199083 
1013.000000	96.203485 
1012.000000	96.210367 
1011.000000	96.217774 
1010.000000	96.222402 
1009.000000	96.221990 
1008.000000	96.218307 
1007.000000	96.215630 
1006.000000	96.216747 
1005.000000	96.222724 
1004.000000	96.235497 
1003.000000	96.256739 
1002.000000	96.283624 
1001.000000	96.309339 
1000.000000	96.329411 
999.000000	 96.345255 
998.000000	 96.360700 
997.000000	 96.377775 
996.000000	 96.396941 
995.000000	 96.418510 
994.000000	 96.441695 
993.000000	 96.464056 
992.000000	 96.483914 
991.000000	 96.502613 
990.000000	 96.523402 
989.000000	 96.548689 
988.000000	 96.578418 
987.000000	 96.609787 
986.000000	 96.638735 
985.000000	 96.663951 
984.000000	 96.689604 
983.000000	 96.721810 
982.000000	 96.761960 
981.000000	 96.805528 
980.000000	 96.847902 
979.000000	 96.889266 
978.000000	 96.932876 
977.000000	 96.980795 
976.000000	 97.032344 
975.000000	 97.084730 
974.000000	 97.134291 
973.000000	 97.179124 
972.000000	 97.221468 
971.000000	 97.265606 
970.000000	 97.312530 
969.000000	 97.358792 
968.000000	 97.401760 
967.000000	 97.443517 
966.000000	 97.487632 
965.000000	 97.534153 
964.000000	 97.580318 
963.000000	 97.624731 
962.000000	 97.667994 
961.000000	 97.709891 
960.000000	 97.748882 
959.000000	 97.784761 
958.000000	 97.819470 
957.000000	 97.854238 
956.000000	 97.887476 
955.000000	 97.916757 
954.000000	 97.942263 
953.000000	 97.967093 
952.000000	 97.993800 
951.000000	 98.021029 
950.000000	 98.044483 
949.000000	 98.061981 
948.000000	 98.076927 
947.000000	 98.094879 
946.000000	 98.116170 
945.000000	 98.134478 
944.000000	 98.144680 
943.000000	 98.150154 
942.000000	 98.159539 
941.000000	 98.176761 
940.000000	 98.197220 
939.000000	 98.213887 
938.000000	 98.224068 
937.000000	 98.229681 
936.000000	 98.234027 
935.000000	 98.239968 
934.000000	 98.249271 
933.000000	 98.261607 
932.000000	 98.274787 
931.000000	 98.286938 
930.000000	 98.297814 
929.000000	 98.307850 
928.000000	 98.317565 
927.000000	 98.328408 
926.000000	 98.342068 
925.000000	 98.357666 
924.000000	 98.371426 
923.000000	 98.380663 
922.000000	 98.386522 
921.000000	 98.391140 
920.000000	 98.394011 
919.000000	 98.393757 
918.000000	 98.392134 
917.000000	 98.393008 
916.000000	 98.397377 
915.000000	 98.402481 
914.000000	 98.406767 
913.000000	 98.413339 
912.000000	 98.426637 
911.000000	 98.446977 
910.000000	 98.470131 
909.000000	 98.492154 
908.000000	 98.513366 
907.000000	 98.537042 
906.000000	 98.565194 
905.000000	 98.596663 
904.000000	 98.629027 
903.000000	 98.660999 
902.000000	 98.692126 
901.000000	 98.721252 
900.000000	 98.747515 
899.000000	 98.773241 
898.000000	 98.803390 
897.000000	 98.840130 
896.000000	 98.879006 
895.000000	 98.912454 
894.000000	 98.936945 
893.000000	 98.955273 
892.000000	 98.972516 
891.000000	 98.991544 
890.000000	 99.012047 
889.000000	 99.031908 
888.000000	 99.049330 
887.000000	 99.065337 
886.000000	 99.084435 
885.000000	 99.110791 
884.000000	 99.142933 
883.000000	 99.173664 
882.000000	 99.196429 
881.000000	 99.211099 
880.000000	 99.223053 
879.000000	 99.237437 
878.000000	 99.254792 
877.000000	 99.272061 
876.000000	 99.287370 
875.000000	 99.303047 
874.000000	 99.322965 
873.000000	 99.347140 
872.000000	 99.371041 
871.000000	 99.390895 
870.000000	 99.407255 
869.000000	 99.421974 
868.000000	 99.434641 
867.000000	 99.444938 
866.000000	 99.456221 
865.000000	 99.472724 
864.000000	 99.493993 
863.000000	 99.515759 
862.000000	 99.535897 
861.000000	 99.555674 
860.000000	 99.574914 
859.000000	 99.590126 
858.000000	 99.599018 
857.000000	 99.603977 
856.000000	 99.609916 
855.000000	 99.620848 
854.000000	 99.638473 
853.000000	 99.660757 
852.000000	 99.681610 
851.000000	 99.695832 
850.000000	 99.705094 
849.000000	 99.714894 
848.000000	 99.724931 
847.000000	 99.727896 
846.000000	 99.720047 
845.000000	 99.707855 
844.000000	 99.700816 
843.000000	 99.701612 
842.000000	 99.707029 
841.000000	 99.714678 
840.000000	 99.723909 
839.000000	 99.732171 
838.000000	 99.735104 
837.000000	 99.730048 
836.000000	 99.717330 
835.000000	 99.699676 
834.000000	 99.682281 
833.000000	 99.670809 
832.000000	 99.666479 
831.000000	 99.665290 
830.000000	 99.664972 
829.000000	 99.669798 
828.000000	 99.684005 
827.000000	 99.702925 
826.000000	 99.717217 
825.000000	 99.725354 
824.000000	 99.734517 
823.000000	 99.748257 
822.000000	 99.761267 
821.000000	 99.769024 
820.000000	 99.774864 
819.000000	 99.783003 
818.000000	 99.789764 
817.000000	 99.786954 
816.000000	 99.771989 
815.000000	 99.750624 
814.000000	 99.729580 
813.000000	 99.709376 
812.000000	 99.685422 
811.000000	 99.653161 
810.000000	 99.609800 
809.000000	 99.553401 
808.000000	 99.484233 
807.000000	 99.406982 
806.000000	 99.328185 
805.000000	 99.250656 
804.000000	 99.173571 
803.000000	 99.098609 
802.000000	 99.031915 
801.000000	 98.978373 
800.000000	 98.938021 
799.000000	 98.910600 
798.000000	 98.899489 
797.000000	 98.906980 
796.000000	 98.928089 
795.000000	 98.953652 
794.000000	 98.978729 
793.000000	 99.003580 
792.000000	 99.027018 
791.000000	 99.044494 
790.000000	 99.054001 
789.000000	 99.058679 
788.000000	 99.061104 
787.000000	 99.059093 
786.000000	 99.049579 
785.000000	 99.032737 
784.000000	 99.009556 
783.000000	 98.979400 
782.000000	 98.943898 
781.000000	 98.910496 
780.000000	 98.887704 
779.000000	 98.877867 
778.000000	 98.877490 
777.000000	 98.883348 
776.000000	 98.895021 
775.000000	 98.912399 
774.000000	 98.934477 
773.000000	 98.960742 
772.000000	 98.990645 
771.000000	 99.021228 
770.000000	 99.047858 
769.000000	 99.067735 
768.000000	 99.080747 
767.000000	 99.087519 
766.000000	 99.089462 
765.000000	 99.090569 
764.000000	 99.095903 
763.000000	 99.106937 
762.000000	 99.119993 
761.000000	 99.130097 
760.000000	 99.135388 
759.000000	 99.137903 
758.000000	 99.141777 
757.000000	 99.150617 
756.000000	 99.164916 
755.000000	 99.181551 
754.000000	 99.196891 
753.000000	 99.210083 
752.000000	 99.221658 
751.000000	 99.230033 
750.000000	 99.232943 
749.000000	 99.232944 
748.000000	 99.237808 
747.000000	 99.252675 
746.000000	 99.273742 
745.000000	 99.292956 
744.000000	 99.308441 
743.000000	 99.326592 
742.000000	 99.352817 
741.000000	 99.383385 
740.000000	 99.409093 
739.000000	 99.425572 
738.000000	 99.436882 
737.000000	 99.449059 
736.000000	 99.462919 
735.000000	 99.474670 
734.000000	 99.481386 
733.000000	 99.483622 
732.000000	 99.483998 
731.000000	 99.485662 
730.000000	 99.491331 
729.000000	 99.500951 
728.000000	 99.510279 
727.000000	 99.514920 
726.000000	 99.516869 
725.000000	 99.524206 
724.000000	 99.542352 
723.000000	 99.567466 
722.000000	 99.590153 
721.000000	 99.604351 
720.000000	 99.611069 
719.000000	 99.614771 
718.000000	 99.618033 
717.000000	 99.619703 
716.000000	 99.617201 
715.000000	 99.610513 
714.000000	 99.604288 
713.000000	 99.605279 
712.000000	 99.616846 
711.000000	 99.635922 
710.000000	 99.655005 
709.000000	 99.666625 
708.000000	 99.666846 
707.000000	 99.656968 
706.000000	 99.642781 
705.000000	 99.630440 
704.000000	 99.622087 
703.000000	 99.615753 
702.000000	 99.608055 
701.000000	 99.595014 
700.000000	 99.571811 
699.000000	 99.535826 
698.000000	 99.491460 
697.000000	 99.449693 
696.000000	 99.421423 
695.000000	 99.411976 
694.000000	 99.420874 
693.000000	 99.443243 
692.000000	 99.470642 
691.000000	 99.494027 
690.000000	 99.509023 
689.000000	 99.517608 
688.000000	 99.524430 
687.000000	 99.533264 
686.000000	 99.546124 
685.000000	 99.562327 
684.000000	 99.577699 
683.000000	 99.587756 
682.000000	 99.592855 
681.000000	 99.597548 
680.000000	 99.604321 
679.000000	 99.611501 
678.000000	 99.618266 
677.000000	 99.627356 
676.000000	 99.640169 
675.000000	 99.652716 
674.000000	 99.660545 
673.000000	 99.664661 
672.000000	 99.668960 
671.000000	 99.674792 
670.000000	 99.681200 
669.000000	 99.686782 
668.000000	 99.687944 
667.000000	 99.683135 
666.000000	 99.678943 
665.000000	 99.682125 
664.000000	 99.694507 
663.000000	 99.712598 
662.000000	 99.728449 
661.000000	 99.735050 
660.000000	 99.730319 
659.000000	 99.717702 
658.000000	 99.706789 
657.000000	 99.708355 
656.000000	 99.724836 
655.000000	 99.747448 
654.000000	 99.763978 
653.000000	 99.770346 
652.000000	 99.770164 
651.000000	 99.768504 
650.000000	 99.769358 

