4000.000000	99.302072 
3999.000000	99.301625 
3998.000000	99.301352 
3997.000000	99.301518 
3996.000000	99.302001 
3995.000000	99.302327 
3994.000000	99.302185 
3993.000000	99.301724 
3992.000000	99.301377 
3991.000000	99.301342 
3990.000000	99.301390 
3989.000000	99.301138 
3988.000000	99.300422 
3987.000000	99.299446 
3986.000000	99.298672 
3985.000000	99.298527 
3984.000000	99.299115 
3983.000000	99.300197 
3982.000000	99.301404 
3981.000000	99.302465 
3980.000000	99.303207 
3979.000000	99.303489 
3978.000000	99.303279 
3977.000000	99.302752 
3976.000000	99.302165 
3975.000000	99.301598 
3974.000000	99.300896 
3973.000000	99.299916 
3972.000000	99.298782 
3971.000000	99.297854 
3970.000000	99.297472 
3969.000000	99.297716 
3968.000000	99.298352 
3967.000000	99.298942 
3966.000000	99.299103 
3965.000000	99.298732 
3964.000000	99.297999 
3963.000000	99.297202 
3962.000000	99.296585 
3961.000000	99.296212 
3960.000000	99.295980 
3959.000000	99.295709 
3958.000000	99.295312 
3957.000000	99.294877 
3956.000000	99.294545 
3955.000000	99.294313 
3954.000000	99.294021 
3953.000000	99.293548 
3952.000000	99.292927 
3951.000000	99.292278 
3950.000000	99.291680 
3949.000000	99.291116 
3948.000000	99.290541 
3947.000000	99.289992 
3946.000000	99.289563 
3945.000000	99.289271 
3944.000000	99.288991 
3943.000000	99.288552 
3942.000000	99.287910 
3941.000000	99.287209 
3940.000000	99.286646 
3939.000000	99.286240 
3938.000000	99.285814 
3937.000000	99.285200 
3936.000000	99.284388 
3935.000000	99.283508 
3934.000000	99.282712 
3933.000000	99.282150 
3932.000000	99.281921 
3931.000000	99.281999 
3930.000000	99.282159 
3929.000000	99.282111 
3928.000000	99.281708 
3927.000000	99.281030 
3926.000000	99.280171 
3925.000000	99.279181 
3924.000000	99.278197 
3923.000000	99.277439 
3922.000000	99.276934 
3921.000000	99.276462 
3920.000000	99.275914 
3919.000000	99.275432 
3918.000000	99.275114 
3917.000000	99.274853 
3916.000000	99.274548 
3915.000000	99.274282 
3914.000000	99.274121 
3913.000000	99.273955 
3912.000000	99.273621 
3911.000000	99.273099 
3910.000000	99.272475 
3909.000000	99.271878 
3908.000000	99.271371 
3907.000000	99.270958 
3906.000000	99.270599 
3905.000000	99.270246 
3904.000000	99.269880 
3903.000000	99.269533 
3902.000000	99.269253 
3901.000000	99.269033 
3900.000000	99.268824 
3899.000000	99.268597 
3898.000000	99.268355 
3897.000000	99.268103 
3896.000000	99.267855 
3895.000000	99.267618 
3894.000000	99.267391 
3893.000000	99.267171 
3892.000000	99.266956 
3891.000000	99.266740 
3890.000000	99.266522 
3889.000000	99.266305 
3888.000000	99.266096 
3887.000000	99.265892 
3886.000000	99.265685 
3885.000000	99.265474 
3884.000000	99.265267 
3883.000000	99.265074 
3882.000000	99.264895 
3881.000000	99.264722 
3880.000000	99.264547 
3879.000000	99.264372 
3878.000000	99.264202 
3877.000000	99.264042 
3876.000000	99.263887 
3875.000000	99.263731 
3874.000000	99.263575 
3873.000000	99.263430 
3872.000000	99.263307 
3871.000000	99.263210 
3870.000000	99.263138 
3869.000000	99.263092 
3868.000000	99.263078 
3867.000000	99.263105 
3866.000000	99.263161 
3865.000000	99.263217 
3864.000000	99.263256 
3863.000000	99.263284 
3862.000000	99.263297 
3861.000000	99.263272 
3860.000000	99.263200 
3859.000000	99.263096 
3858.000000	99.262979 
3857.000000	99.262889 
3856.000000	99.262900 
3855.000000	99.263051 
3854.000000	99.263286 
3853.000000	99.263491 
3852.000000	99.263686 
3851.000000	99.263922 
3850.000000	99.264177 
3849.000000	99.264424 
3848.000000	99.264656 
3847.000000	99.264874 
3846.000000	99.265077 
3845.000000	99.265272 
3844.000000	99.265469 
3843.000000	99.265674 
3842.000000	99.265884 
3841.000000	99.266093 
3840.000000	99.266302 
3839.000000	99.266513 
3838.000000	99.266724 
3837.000000	99.266932 
3836.000000	99.267137 
3835.000000	99.267344 
3834.000000	99.267558 
3833.000000	99.267784 
3832.000000	99.268018 
3831.000000	99.268255 
3830.000000	99.268486 
3829.000000	99.268708 
3828.000000	99.268922 
3827.000000	99.269134 
3826.000000	99.269345 
3825.000000	99.269562 
3824.000000	99.269796 
3823.000000	99.270060 
3822.000000	99.270352 
3821.000000	99.270661 
3820.000000	99.270982 
3819.000000	99.271325 
3818.000000	99.271693 
3817.000000	99.272072 
3816.000000	99.272438 
3815.000000	99.272777 
3814.000000	99.273092 
3813.000000	99.273382 
3812.000000	99.273642 
3811.000000	99.273873 
3810.000000	99.274088 
3809.000000	99.274300 
3808.000000	99.274508 
3807.000000	99.274711 
3806.000000	99.274912 
3805.000000	99.275123 
3804.000000	99.275356 
3803.000000	99.275611 
3802.000000	99.275876 
3801.000000	99.276144 
3800.000000	99.276421 
3799.000000	99.276718 
3798.000000	99.277031 
3797.000000	99.277346 
3796.000000	99.277654 
3795.000000	99.277954 
3794.000000	99.278253 
3793.000000	99.278548 
3792.000000	99.278828 
3791.000000	99.279079 
3790.000000	99.279288 
3789.000000	99.279454 
3788.000000	99.279584 
3787.000000	99.279696 
3786.000000	99.279827 
3785.000000	99.280001 
3784.000000	99.280159 
3783.000000	99.280232 
3782.000000	99.280242 
3781.000000	99.280206 
3780.000000	99.280003 
3779.000000	99.279497 
3778.000000	99.278757 
3777.000000	99.278074 
3776.000000	99.277581 
3775.000000	99.277153 
3774.000000	99.276689 
3773.000000	99.276320 
3772.000000	99.276165 
3771.000000	99.276052 
3770.000000	99.275650 
3769.000000	99.274939 
3768.000000	99.274316 
3767.000000	99.274066 
3766.000000	99.273954 
3765.000000	99.273584 
3764.000000	99.272946 
3763.000000	99.272446 
3762.000000	99.272334 
3761.000000	99.272402 
3760.000000	99.272364 
3759.000000	99.272109 
3758.000000	99.271533 
3757.000000	99.270537 
3756.000000	99.269207 
3755.000000	99.267879 
3754.000000	99.266758 
3753.000000	99.265961 
3752.000000	99.265675 
3751.000000	99.265579 
3750.000000	99.264552 
3749.000000	99.262125 
3748.000000	99.259529 
3747.000000	99.258238 
3746.000000	99.258528 
3745.000000	99.259338 
3744.000000	99.258388 
3743.000000	99.256134 
3742.000000	99.256365 
3741.000000	99.258677 
3740.000000	99.259220 
3739.000000	99.257530 
3738.000000	99.255885 
3737.000000	99.255660 
3736.000000	99.256041 
3735.000000	99.256195 
3734.000000	99.256714 
3733.000000	99.257736 
3732.000000	99.257847 
3731.000000	99.256574 
3730.000000	99.255645 
3729.000000	99.256209 
3728.000000	99.257288 
3727.000000	99.257712 
3726.000000	99.257746 
3725.000000	99.258583 
3724.000000	99.260435 
3723.000000	99.261580 
3722.000000	99.260734 
3721.000000	99.258736 
3720.000000	99.257279 
3719.000000	99.256580 
3718.000000	99.254951 
3717.000000	99.250961 
3716.000000	99.245215 
3715.000000	99.239664 
3714.000000	99.235452 
3713.000000	99.232615 
3712.000000	99.230579 
3711.000000	99.228733 
3710.000000	99.227510 
3709.000000	99.227537 
3708.000000	99.227865 
3707.000000	99.226827 
3706.000000	99.223866 
3705.000000	99.219936 
3704.000000	99.216348 
3703.000000	99.213673 
3702.000000	99.211195 
3701.000000	99.207793 
3700.000000	99.203827 
3699.000000	99.200586 
3698.000000	99.197812 
3697.000000	99.193839 
3696.000000	99.188185 
3695.000000	99.182374 
3694.000000	99.177971 
3693.000000	99.175060 
3692.000000	99.173252 
3691.000000	99.172447 
3690.000000	99.171799 
3689.000000	99.169409 
3688.000000	99.164868 
3687.000000	99.161121 
3686.000000	99.160755 
3685.000000	99.162238 
3684.000000	99.162270 
3683.000000	99.159904 
3682.000000	99.156297 
3681.000000	99.152061 
3680.000000	99.146246 
3679.000000	99.138686 
3678.000000	99.131825 
3677.000000	99.128500 
3676.000000	99.128056 
3675.000000	99.126011 
3674.000000	99.122488 
3673.000000	99.122509 
3672.000000	99.125752 
3671.000000	99.128354 
3670.000000	99.128403 
3669.000000	99.125912 
3668.000000	99.123555 
3667.000000	99.123300 
3666.000000	99.123775 
3665.000000	99.123615 
3664.000000	99.123052 
3663.000000	99.122597 
3662.000000	99.121977 
3661.000000	99.120619 
3660.000000	99.118734 
3659.000000	99.117569 
3658.000000	99.118049 
3657.000000	99.119242 
3656.000000	99.118928 
3655.000000	99.116905 
3654.000000	99.115692 
3653.000000	99.116301 
3652.000000	99.117565 
3651.000000	99.118873 
3650.000000	99.120027 
3649.000000	99.120110 
3648.000000	99.119286 
3647.000000	99.119112 
3646.000000	99.120684 
3645.000000	99.123896 
3644.000000	99.127731 
3643.000000	99.131011 
3642.000000	99.133138 
3641.000000	99.134393 
3640.000000	99.135513 
3639.000000	99.137020 
3638.000000	99.138900 
3637.000000	99.141024 
3636.000000	99.143024 
3635.000000	99.143887 
3634.000000	99.142749 
3633.000000	99.140154 
3632.000000	99.137962 
3631.000000	99.137710 
3630.000000	99.139575 
3629.000000	99.141716 
3628.000000	99.142118 
3627.000000	99.142408 
3626.000000	99.144645 
3625.000000	99.147525 
3624.000000	99.149267 
3623.000000	99.149812 
3622.000000	99.149934 
3621.000000	99.150269 
3620.000000	99.151045 
3619.000000	99.152158 
3618.000000	99.153564 
3617.000000	99.155612 
3616.000000	99.158329 
3615.000000	99.160909 
3614.000000	99.162327 
3613.000000	99.162135 
3612.000000	99.160949 
3611.000000	99.160152 
3610.000000	99.160763 
3609.000000	99.162735 
3608.000000	99.165223 
3607.000000	99.167501 
3606.000000	99.169595 
3605.000000	99.171761 
3604.000000	99.173978 
3603.000000	99.176149 
3602.000000	99.178210 
3601.000000	99.180102 
3600.000000	99.181974 
3599.000000	99.184163 
3598.000000	99.186593 
3597.000000	99.188566 
3596.000000	99.189439 
3595.000000	99.189095 
3594.000000	99.188030 
3593.000000	99.187173 
3592.000000	99.187442 
3591.000000	99.189069 
3590.000000	99.191625 
3589.000000	99.194207 
3588.000000	99.195574 
3587.000000	99.195041 
3586.000000	99.193774 
3585.000000	99.193741 
3584.000000	99.195261 
3583.000000	99.197075 
3582.000000	99.198053 
3581.000000	99.197868 
3580.000000	99.196808 
3579.000000	99.195419 
3578.000000	99.194173 
3577.000000	99.193300 
3576.000000	99.192962 
3575.000000	99.193268 
3574.000000	99.194133 
3573.000000	99.195110 
3572.000000	99.195557 
3571.000000	99.195043 
3570.000000	99.193648 
3569.000000	99.191929 
3568.000000	99.190544 
3567.000000	99.189937 
3566.000000	99.190363 
3565.000000	99.191906 
3564.000000	99.193958 
3563.000000	99.195397 
3562.000000	99.195664 
3561.000000	99.195079 
3560.000000	99.194295 
3559.000000	99.193670 
3558.000000	99.193147 
3557.000000	99.192577 
3556.000000	99.192034 
3555.000000	99.191766 
3554.000000	99.191861 
3553.000000	99.192057 
3552.000000	99.191939 
3551.000000	99.191344 
3550.000000	99.190440 
3549.000000	99.189495 
3548.000000	99.188731 
3547.000000	99.188373 
3546.000000	99.188556 
3545.000000	99.189170 
3544.000000	99.189896 
3543.000000	99.190387 
3542.000000	99.190463 
3541.000000	99.190169 
3540.000000	99.189732 
3539.000000	99.189409 
3538.000000	99.189300 
3537.000000	99.189316 
3536.000000	99.189310 
3535.000000	99.189231 
3534.000000	99.189134 
3533.000000	99.189068 
3532.000000	99.189054 
3531.000000	99.189132 
3530.000000	99.189357 
3529.000000	99.189721 
3528.000000	99.190150 
3527.000000	99.190561 
3526.000000	99.190869 
3525.000000	99.190942 
3524.000000	99.190703 
3523.000000	99.190255 
3522.000000	99.189817 
3521.000000	99.189505 
3520.000000	99.189249 
3519.000000	99.188968 
3518.000000	99.188700 
3517.000000	99.188531 
3516.000000	99.188468 
3515.000000	99.188439 
3514.000000	99.188393 
3513.000000	99.188346 
3512.000000	99.188309 
3511.000000	99.188229 
3510.000000	99.188050 
3509.000000	99.187778 
3508.000000	99.187478 
3507.000000	99.187200 
3506.000000	99.186937 
3505.000000	99.186663 
3504.000000	99.186366 
3503.000000	99.186060 
3502.000000	99.185761 
3501.000000	99.185469 
3500.000000	99.185176 
3499.000000	99.184870 
3498.000000	99.184541 
3497.000000	99.184183 
3496.000000	99.183796 
3495.000000	99.183388 
3494.000000	99.182971 
3493.000000	99.182551 
3492.000000	99.182131 
3491.000000	99.181711 
3490.000000	99.181291 
3489.000000	99.180870 
3488.000000	99.180445 
3487.000000	99.180007 
3486.000000	99.179555 
3485.000000	99.179087 
3484.000000	99.178611 
3483.000000	99.178133 
3482.000000	99.177657 
3481.000000	99.177184 
3480.000000	99.176710 
3479.000000	99.176234 
3478.000000	99.175754 
3477.000000	99.175273 
3476.000000	99.174788 
3475.000000	99.174290 
3474.000000	99.173771 
3473.000000	99.173234 
3472.000000	99.172700 
3471.000000	99.172185 
3470.000000	99.171692 
3469.000000	99.171202 
3468.000000	99.170693 
3467.000000	99.170155 
3466.000000	99.169589 
3465.000000	99.169011 
3464.000000	99.168436 
3463.000000	99.167843 
3462.000000	99.167161 
3461.000000	99.166349 
3460.000000	99.165483 
3459.000000	99.164732 
3458.000000	99.164245 
3457.000000	99.163992 
3456.000000	99.163765 
3455.000000	99.163402 
3454.000000	99.162949 
3453.000000	99.162601 
3452.000000	99.162472 
3451.000000	99.162447 
3450.000000	99.162314 
3449.000000	99.161985 
3448.000000	99.161484 
3447.000000	99.160800 
3446.000000	99.159921 
3445.000000	99.159024 
3444.000000	99.158399 
3443.000000	99.158146 
3442.000000	99.158064 
3441.000000	99.157868 
3440.000000	99.157484 
3439.000000	99.157022 
3438.000000	99.156556 
3437.000000	99.156020 
3436.000000	99.155339 
3435.000000	99.154612 
3434.000000	99.154098 
3433.000000	99.153981 
3432.000000	99.154197 
3431.000000	99.154460 
3430.000000	99.154457 
3429.000000	99.154003 
3428.000000	99.153103 
3427.000000	99.151943 
3426.000000	99.150818 
3425.000000	99.150024 
3424.000000	99.149748 
3423.000000	99.149982 
3422.000000	99.150477 
3421.000000	99.150816 
3420.000000	99.150682 
3419.000000	99.150113 
3418.000000	99.149487 
3417.000000	99.149145 
3416.000000	99.148999 
3415.000000	99.148601 
3414.000000	99.147667 
3413.000000	99.146511 
3412.000000	99.145807 
3411.000000	99.145943 
3410.000000	99.146742 
3409.000000	99.147720 
3408.000000	99.148450 
3407.000000	99.148630 
3406.000000	99.148082 
3405.000000	99.146980 
3404.000000	99.146038 
3403.000000	99.146117 
3402.000000	99.147518 
3401.000000	99.149682 
3400.000000	99.151565 
3399.000000	99.152487 
3398.000000	99.152595 
3397.000000	99.152586 
3396.000000	99.152923 
3395.000000	99.153331 
3394.000000	99.153242 
3393.000000	99.152597 
3392.000000	99.151940 
3391.000000	99.151673 
3390.000000	99.151538 
3389.000000	99.151060 
3388.000000	99.150224 
3387.000000	99.149438 
3386.000000	99.148993 
3385.000000	99.148847 
3384.000000	99.148886 
3383.000000	99.149102 
3382.000000	99.149427 
3381.000000	99.149610 
3380.000000	99.149395 
3379.000000	99.148771 
3378.000000	99.148016 
3377.000000	99.147549 
3376.000000	99.147685 
3375.000000	99.148450 
3374.000000	99.149577 
3373.000000	99.150684 
3372.000000	99.151472 
3371.000000	99.151782 
3370.000000	99.151652 
3369.000000	99.151392 
3368.000000	99.151448 
3367.000000	99.151978 
3366.000000	99.152591 
3365.000000	99.152685 
3364.000000	99.152070 
3363.000000	99.151203 
3362.000000	99.150763 
3361.000000	99.151030 
3360.000000	99.151707 
3359.000000	99.152211 
3358.000000	99.152217 
3357.000000	99.151945 
3356.000000	99.151934 
3355.000000	99.152460 
3354.000000	99.153250 
3353.000000	99.153802 
3352.000000	99.153964 
3351.000000	99.154097 
3350.000000	99.154656 
3349.000000	99.155760 
3348.000000	99.157168 
3347.000000	99.158519 
3346.000000	99.159501 
3345.000000	99.159906 
3344.000000	99.159679 
3343.000000	99.158950 
3342.000000	99.157986 
3341.000000	99.157095 
3340.000000	99.156592 
3339.000000	99.156685 
3338.000000	99.157269 
3337.000000	99.157873 
3336.000000	99.157991 
3335.000000	99.157543 
3334.000000	99.156962 
3333.000000	99.156815 
3332.000000	99.157332 
3331.000000	99.158282 
3330.000000	99.159211 
3329.000000	99.159811 
3328.000000	99.160113 
3327.000000	99.160362 
3326.000000	99.160746 
3325.000000	99.161256 
3324.000000	99.161806 
3323.000000	99.162387 
3322.000000	99.163030 
3321.000000	99.163640 
3320.000000	99.163976 
3319.000000	99.163882 
3318.000000	99.163497 
3317.000000	99.163190 
3316.000000	99.163248 
3315.000000	99.163652 
3314.000000	99.164144 
3313.000000	99.164492 
3312.000000	99.164712 
3311.000000	99.164999 
3310.000000	99.165475 
3309.000000	99.166030 
3308.000000	99.166410 
3307.000000	99.166487 
3306.000000	99.166363 
3305.000000	99.166211 
3304.000000	99.166045 
3303.000000	99.165778 
3302.000000	99.165450 
3301.000000	99.165325 
3300.000000	99.165661 
3299.000000	99.166458 
3298.000000	99.167384 
3297.000000	99.168048 
3296.000000	99.168334 
3295.000000	99.168400 
3294.000000	99.168478 
3293.000000	99.168688 
3292.000000	99.169017 
3291.000000	99.169376 
3290.000000	99.169632 
3289.000000	99.169682 
3288.000000	99.169546 
3287.000000	99.169391 
3286.000000	99.169431 
3285.000000	99.169763 
3284.000000	99.170302 
3283.000000	99.170862 
3282.000000	99.171298 
3281.000000	99.171521 
3280.000000	99.171440 
3279.000000	99.170989 
3278.000000	99.170295 
3277.000000	99.169759 
3276.000000	99.169748 
3275.000000	99.170226 
3274.000000	99.170783 
3273.000000	99.171046 
3272.000000	99.170962 
3271.000000	99.170677 
3270.000000	99.170337 
3269.000000	99.170100 
3268.000000	99.170218 
3267.000000	99.170901 
3266.000000	99.172104 
3265.000000	99.173532 
3264.000000	99.174827 
3263.000000	99.175754 
3262.000000	99.176276 
3261.000000	99.176562 
3260.000000	99.176854 
3259.000000	99.177241 
3258.000000	99.177577 
3257.000000	99.177663 
3256.000000	99.177464 
3255.000000	99.177117 
3254.000000	99.176853 
3253.000000	99.176884 
3252.000000	99.177277 
3251.000000	99.177868 
3250.000000	99.178340 
3249.000000	99.178519 
3248.000000	99.178550 
3247.000000	99.178715 
3246.000000	99.179090 
3245.000000	99.179481 
3244.000000	99.179713 
3243.000000	99.179877 
3242.000000	99.180227 
3241.000000	99.180894 
3240.000000	99.181738 
3239.000000	99.182422 
3238.000000	99.182710 
3237.000000	99.182645 
3236.000000	99.182543 
3235.000000	99.182714 
3234.000000	99.183186 
3233.000000	99.183769 
3232.000000	99.184318 
3231.000000	99.184872 
3230.000000	99.185486 
3229.000000	99.186034 
3228.000000	99.186301 
3227.000000	99.186226 
3226.000000	99.185970 
3225.000000	99.185778 
3224.000000	99.185810 
3223.000000	99.186091 
3222.000000	99.186558 
3221.000000	99.187114 
3220.000000	99.187690 
3219.000000	99.188240 
3218.000000	99.188707 
3217.000000	99.189011 
3216.000000	99.189149 
3215.000000	99.189283 
3214.000000	99.189622 
3213.000000	99.190185 
3212.000000	99.190785 
3211.000000	99.191302 
3210.000000	99.191901 
3209.000000	99.192829 
3208.000000	99.194024 
3207.000000	99.195077 
3206.000000	99.195627 
3205.000000	99.195757 
3204.000000	99.195920 
3203.000000	99.196510 
3202.000000	99.197589 
3201.000000	99.199034 
3200.000000	99.200728 
3199.000000	99.202438 
3198.000000	99.203674 
3197.000000	99.204017 
3196.000000	99.203623 
3195.000000	99.203233 
3194.000000	99.203428 
3193.000000	99.204028 
3192.000000	99.204478 
3191.000000	99.204667 
3190.000000	99.205084 
3189.000000	99.206166 
3188.000000	99.207761 
3187.000000	99.209296 
3186.000000	99.210323 
3185.000000	99.210736 
3184.000000	99.210606 
3183.000000	99.210083 
3182.000000	99.209467 
3181.000000	99.209158 
3180.000000	99.209382 
3179.000000	99.210046 
3178.000000	99.210860 
3177.000000	99.211539 
3176.000000	99.211886 
3175.000000	99.211876 
3174.000000	99.211796 
3173.000000	99.212176 
3172.000000	99.213323 
3171.000000	99.214953 
3170.000000	99.216358 
3169.000000	99.217121 
3168.000000	99.217492 
3167.000000	99.218018 
3166.000000	99.218893 
3165.000000	99.219799 
3164.000000	99.220362 
3163.000000	99.220567 
3162.000000	99.220680 
3161.000000	99.220927 
3160.000000	99.221357 
3159.000000	99.221930 
3158.000000	99.222552 
3157.000000	99.223073 
3156.000000	99.223368 
3155.000000	99.223446 
3154.000000	99.223426 
3153.000000	99.223440 
3152.000000	99.223576 
3151.000000	99.223872 
3150.000000	99.224269 
3149.000000	99.224634 
3148.000000	99.224907 
3147.000000	99.225215 
3146.000000	99.225715 
3145.000000	99.226318 
3144.000000	99.226736 
3143.000000	99.226869 
3142.000000	99.227007 
3141.000000	99.227558 
3140.000000	99.228575 
3139.000000	99.229653 
3138.000000	99.230314 
3137.000000	99.230452 
3136.000000	99.230348 
3135.000000	99.230300 
3134.000000	99.230334 
3133.000000	99.230294 
3132.000000	99.230142 
3131.000000	99.230058 
3130.000000	99.230218 
3129.000000	99.230535 
3128.000000	99.230761 
3127.000000	99.230837 
3126.000000	99.230984 
3125.000000	99.231359 
3124.000000	99.231781 
3123.000000	99.231938 
3122.000000	99.231771 
3121.000000	99.231576 
3120.000000	99.231772 
3119.000000	99.232596 
3118.000000	99.233881 
3117.000000	99.235027 
3116.000000	99.235371 
3115.000000	99.234732 
3114.000000	99.233544 
3113.000000	99.232375 
3112.000000	99.231409 
3111.000000	99.230621 
3110.000000	99.230252 
3109.000000	99.230639 
3108.000000	99.231627 
3107.000000	99.232573 
3106.000000	99.233072 
3105.000000	99.233384 
3104.000000	99.233986 
3103.000000	99.235005 
3102.000000	99.236234 
3101.000000	99.237422 
3100.000000	99.238348 
3099.000000	99.238776 
3098.000000	99.238619 
3097.000000	99.238147 
3096.000000	99.237856 
3095.000000	99.238042 
3094.000000	99.238597 
3093.000000	99.239208 
3092.000000	99.239646 
3091.000000	99.239843 
3090.000000	99.239804 
3089.000000	99.239601 
3088.000000	99.239508 
3087.000000	99.239946 
3086.000000	99.241076 
3085.000000	99.242456 
3084.000000	99.243331 
3083.000000	99.243335 
3082.000000	99.242809 
3081.000000	99.242415 
3080.000000	99.242510 
3079.000000	99.242909 
3078.000000	99.243104 
3077.000000	99.242586 
3076.000000	99.241163 
3075.000000	99.239275 
3074.000000	99.237959 
3073.000000	99.238179 
3072.000000	99.240085 
3071.000000	99.243033 
3070.000000	99.246146 
3069.000000	99.248452 
3068.000000	99.248621 
3067.000000	99.245525 
3066.000000	99.239732 
3065.000000	99.234056 
3064.000000	99.231545 
3063.000000	99.232720 
3062.000000	99.235234 
3061.000000	99.236429 
3060.000000	99.235966 
3059.000000	99.235650 
3058.000000	99.237095 
3057.000000	99.240062 
3056.000000	99.243024 
3055.000000	99.244853 
3054.000000	99.245591 
3053.000000	99.245718 
3052.000000	99.245248 
3051.000000	99.243898 
3050.000000	99.241925 
3049.000000	99.240182 
3048.000000	99.238978 
3047.000000	99.237279 
3046.000000	99.233721 
3045.000000	99.228431 
3044.000000	99.223334 
3043.000000	99.220361 
3042.000000	99.219662 
3041.000000	99.219805 
3040.000000	99.219348 
3039.000000	99.217843 
3038.000000	99.215562 
3037.000000	99.212846 
3036.000000	99.209881 
3035.000000	99.206750 
3034.000000	99.203468 
3033.000000	99.199924 
3032.000000	99.195859 
3031.000000	99.190973 
3030.000000	99.184924 
3029.000000	99.177306 
3028.000000	99.168026 
3027.000000	99.157898 
3026.000000	99.148591 
3025.000000	99.141450 
3024.000000	99.136123 
3023.000000	99.130614 
3022.000000	99.122936 
3021.000000	99.112672 
3020.000000	99.100994 
3019.000000	99.089543 
3018.000000	99.079518 
3017.000000	99.071454 
3016.000000	99.065085 
3015.000000	99.059323 
3014.000000	99.052810 
3013.000000	99.044687 
3012.000000	99.034588 
3011.000000	99.022100 
3010.000000	99.007047 
3009.000000	98.990607 
3008.000000	98.975429 
3007.000000	98.963864 
3006.000000	98.956080 
3005.000000	98.950113 
3004.000000	98.943418 
3003.000000	98.934155 
3002.000000	98.921657 
3001.000000	98.906716 
3000.000000	98.891440 
2999.000000	98.877956 
2998.000000	98.866975 
2997.000000	98.858100 
2996.000000	98.851259 
2995.000000	98.846491 
2994.000000	98.841724 
2993.000000	98.832229 
2992.000000	98.814373 
2991.000000	98.790324 
2990.000000	98.767750 
2989.000000	98.753719 
2988.000000	98.749372 
2987.000000	98.750637 
2986.000000	98.753233 
2985.000000	98.756261 
2984.000000	98.760890 
2983.000000	98.766973 
2982.000000	98.772207 
2981.000000	98.774383 
2980.000000	98.773552 
2979.000000	98.771520 
2978.000000	98.769762 
2977.000000	98.768430 
2976.000000	98.767153 
2975.000000	98.765987 
2974.000000	98.765128 
2973.000000	98.764126 
2972.000000	98.762066 
2971.000000	98.758790 
2970.000000	98.755766 
2969.000000	98.755471 
2968.000000	98.759746 
2967.000000	98.768430 
2966.000000	98.779338 
2965.000000	98.789658 
2964.000000	98.797729 
2963.000000	98.803828 
2962.000000	98.809372 
2961.000000	98.815361 
2960.000000	98.821583 
2959.000000	98.827273 
2958.000000	98.832359 
2957.000000	98.837698 
2956.000000	98.843810 
2955.000000	98.849583 
2954.000000	98.852970 
2953.000000	98.853670 
2952.000000	98.854754 
2951.000000	98.860414 
2950.000000	98.871300 
2949.000000	98.882741 
2948.000000	98.888859 
2947.000000	98.888297 
2946.000000	98.885114 
2945.000000	98.884156 
2944.000000	98.886242 
2943.000000	98.888728 
2942.000000	98.889669 
2941.000000	98.889724 
2940.000000	98.890120 
2939.000000	98.890419 
2938.000000	98.889245 
2937.000000	98.886444 
2936.000000	98.883510 
2935.000000	98.881968 
2934.000000	98.881955 
2933.000000	98.882538 
2932.000000	98.882947 
2931.000000	98.883111 
2930.000000	98.883061 
2929.000000	98.882165 
2928.000000	98.879420 
2927.000000	98.874783 
2926.000000	98.869900 
2925.000000	98.866926 
2924.000000	98.866495 
2923.000000	98.867371 
2922.000000	98.868224 
2921.000000	98.869099 
2920.000000	98.870688 
2919.000000	98.872739 
2918.000000	98.873966 
2917.000000	98.873406 
2916.000000	98.871287 
2915.000000	98.868644 
2914.000000	98.866582 
2913.000000	98.865806 
2912.000000	98.866175 
2911.000000	98.866568 
2910.000000	98.865770 
2909.000000	98.863724 
2908.000000	98.861497 
2907.000000	98.859736 
2906.000000	98.857646 
2905.000000	98.853833 
2904.000000	98.847818 
2903.000000	98.840721 
2902.000000	98.834995 
2901.000000	98.833692 
2900.000000	98.839005 
2899.000000	98.850383 
2898.000000	98.863816 
2897.000000	98.874168 
2896.000000	98.879229 
2895.000000	98.881133 
2894.000000	98.883709 
2893.000000	98.888778 
2892.000000	98.895165 
2891.000000	98.900644 
2890.000000	98.904165 
2889.000000	98.906290 
2888.000000	98.908190 
2887.000000	98.910733 
2886.000000	98.914316 
2885.000000	98.919024 
2884.000000	98.924612 
2883.000000	98.930438 
2882.000000	98.935805 
2881.000000	98.940698 
2880.000000	98.946156 
2879.000000	98.953543 
2878.000000	98.963190 
2877.000000	98.973764 
2876.000000	98.983096 
2875.000000	98.989702 
2874.000000	98.993505 
2873.000000	98.995430 
2872.000000	98.996703 
2871.000000	98.998553 
2870.000000	99.002038 
2869.000000	99.007622 
2868.000000	99.014859 
2867.000000	99.022816 
2866.000000	99.030968 
2865.000000	99.039494 
2864.000000	99.048548 
2863.000000	99.057456 
2862.000000	99.064996 
2861.000000	99.070529 
2860.000000	99.074686 
2859.000000	99.078880 
2858.000000	99.084226 
2857.000000	99.090958 
2856.000000	99.098689 
2855.000000	99.106985 
2854.000000	99.115447 
2853.000000	99.123332 
2852.000000	99.129548 
2851.000000	99.133524 
2850.000000	99.136213 
2849.000000	99.139746 
2848.000000	99.145575 
2847.000000	99.153133 
2846.000000	99.160576 
2845.000000	99.166543 
2844.000000	99.170789 
2843.000000	99.173570 
2842.000000	99.175396 
2841.000000	99.177444 
2840.000000	99.181145 
2839.000000	99.186557 
2838.000000	99.191680 
2837.000000	99.194251 
2836.000000	99.194159 
2835.000000	99.193650 
2834.000000	99.195161 
2833.000000	99.199261 
2832.000000	99.204644 
2831.000000	99.209495 
2830.000000	99.212761 
2829.000000	99.214579 
2828.000000	99.215900 
2827.000000	99.217607 
2826.000000	99.219779 
2825.000000	99.221865 
2824.000000	99.223533 
2823.000000	99.225179 
2822.000000	99.227524 
2821.000000	99.230827 
2820.000000	99.234564 
2819.000000	99.237881 
2818.000000	99.240360 
2817.000000	99.242329 
2816.000000	99.244353 
2815.000000	99.246470 
2814.000000	99.248168 
2813.000000	99.249135 
2812.000000	99.249620 
2811.000000	99.249845 
2810.000000	99.249484 
2809.000000	99.248202 
2808.000000	99.246438 
2807.000000	99.245153 
2806.000000	99.244903 
2805.000000	99.245609 
2804.000000	99.247103 
2803.000000	99.249268 
2802.000000	99.251595 
2801.000000	99.253222 
2800.000000	99.253737 
2799.000000	99.253644 
2798.000000	99.253792 
2797.000000	99.254501 
2796.000000	99.255405 
2795.000000	99.255979 
2794.000000	99.256071 
2793.000000	99.256001 
2792.000000	99.256248 
2791.000000	99.257047 
2790.000000	99.258276 
2789.000000	99.259748 
2788.000000	99.261393 
2787.000000	99.263004 
2786.000000	99.264111 
2785.000000	99.264470 
2784.000000	99.264533 
2783.000000	99.265005 
2782.000000	99.265903 
2781.000000	99.266483 
2780.000000	99.266256 
2779.000000	99.265667 
2778.000000	99.265576 
2777.000000	99.266285 
2776.000000	99.267374 
2775.000000	99.268242 
2774.000000	99.268576 
2773.000000	99.268422 
2772.000000	99.268117 
2771.000000	99.268155 
2770.000000	99.268869 
2769.000000	99.270215 
2768.000000	99.271906 
2767.000000	99.273712 
2766.000000	99.275451 
2765.000000	99.276749 
2764.000000	99.277203 
2763.000000	99.276887 
2762.000000	99.276448 
2761.000000	99.276484 
2760.000000	99.277026 
2759.000000	99.277815 
2758.000000	99.278754 
2757.000000	99.279849 
2756.000000	99.280932 
2755.000000	99.281762 
2754.000000	99.282270 
2753.000000	99.282458 
2752.000000	99.282188 
2751.000000	99.281377 
2750.000000	99.280363 
2749.000000	99.279735 
2748.000000	99.279739 
2747.000000	99.280066 
2746.000000	99.280244 
2745.000000	99.280091 
2744.000000	99.279786 
2743.000000	99.279696 
2742.000000	99.280154 
2741.000000	99.281254 
2740.000000	99.282738 
2739.000000	99.284140 
2738.000000	99.285113 
2737.000000	99.285573 
2736.000000	99.285588 
2735.000000	99.285279 
2734.000000	99.284859 
2733.000000	99.284614 
2732.000000	99.284736 
2731.000000	99.285198 
2730.000000	99.285818 
2729.000000	99.286424 
2728.000000	99.286990 
2727.000000	99.287628 
2726.000000	99.288416 
2725.000000	99.289224 
2724.000000	99.289772 
2723.000000	99.289959 
2722.000000	99.290032 
2721.000000	99.290331 
2720.000000	99.290882 
2719.000000	99.291373 
2718.000000	99.291505 
2717.000000	99.291309 
2716.000000	99.291133 
2715.000000	99.291423 
2714.000000	99.292425 
2713.000000	99.293935 
2712.000000	99.295262 
2711.000000	99.295753 
2710.000000	99.295382 
2709.000000	99.294783 
2708.000000	99.294593 
2707.000000	99.294785 
2706.000000	99.294878 
2705.000000	99.294607 
2704.000000	99.294164 
2703.000000	99.293832 
2702.000000	99.293634 
2701.000000	99.293411 
2700.000000	99.293108 
2699.000000	99.292873 
2698.000000	99.292898 
2697.000000	99.293221 
2696.000000	99.293681 
2695.000000	99.294082 
2694.000000	99.294390 
2693.000000	99.294701 
2692.000000	99.294997 
2691.000000	99.295043 
2690.000000	99.294649 
2689.000000	99.294018 
2688.000000	99.293674 
2687.000000	99.293952 
2686.000000	99.294664 
2685.000000	99.295285 
2684.000000	99.295459 
2683.000000	99.295276 
2682.000000	99.295093 
2681.000000	99.295200 
2680.000000	99.295643 
2679.000000	99.296245 
2678.000000	99.296704 
2677.000000	99.296759 
2676.000000	99.296411 
2675.000000	99.295945 
2674.000000	99.295672 
2673.000000	99.295614 
2672.000000	99.295510 
2671.000000	99.295137 
2670.000000	99.294527 
2669.000000	99.293854 
2668.000000	99.293261 
2667.000000	99.292848 
2666.000000	99.292715 
2665.000000	99.292894 
2664.000000	99.293265 
2663.000000	99.293625 
2662.000000	99.293863 
2661.000000	99.293988 
2660.000000	99.294023 
2659.000000	99.293949 
2658.000000	99.293769 
2657.000000	99.293553 
2656.000000	99.293399 
2655.000000	99.293368 
2654.000000	99.293460 
2653.000000	99.293606 
2652.000000	99.293687 
2651.000000	99.293627 
2650.000000	99.293476 
2649.000000	99.293397 
2648.000000	99.293487 
2647.000000	99.293684 
2646.000000	99.293850 
2645.000000	99.293952 
2644.000000	99.294056 
2643.000000	99.294211 
2642.000000	99.294382 
2641.000000	99.294518 
2640.000000	99.294622 
2639.000000	99.294740 
2638.000000	99.294907 
2637.000000	99.295121 
2636.000000	99.295342 
2635.000000	99.295512 
2634.000000	99.295594 
2633.000000	99.295616 
2632.000000	99.295678 
2631.000000	99.295850 
2630.000000	99.296119 
2629.000000	99.296411 
2628.000000	99.296679 
2627.000000	99.296942 
2626.000000	99.297232 
2625.000000	99.297553 
2624.000000	99.297911 
2623.000000	99.298324 
2622.000000	99.298720 
2621.000000	99.298926 
2620.000000	99.298835 
2619.000000	99.298551 
2618.000000	99.298309 
2617.000000	99.298227 
2616.000000	99.298260 
2615.000000	99.298350 
2614.000000	99.298518 
2613.000000	99.298763 
2612.000000	99.298985 
2611.000000	99.299092 
2610.000000	99.299113 
2609.000000	99.299166 
2608.000000	99.299320 
2607.000000	99.299565 
2606.000000	99.299895 
2605.000000	99.300342 
2604.000000	99.300873 
2603.000000	99.301288 
2602.000000	99.301349 
2601.000000	99.301061 
2600.000000	99.300730 
2599.000000	99.300674 
2598.000000	99.300916 
2597.000000	99.301234 
2596.000000	99.301380 
2595.000000	99.301147 
2594.000000	99.300389 
2593.000000	99.299191 
2592.000000	99.298074 
2591.000000	99.297690 
2590.000000	99.298250 
2589.000000	99.299360 
2588.000000	99.300332 
2587.000000	99.300687 
2586.000000	99.300250 
2585.000000	99.299038 
2584.000000	99.297318 
2583.000000	99.295653 
2582.000000	99.294582 
2581.000000	99.294203 
2580.000000	99.294164 
2579.000000	99.294055 
2578.000000	99.293792 
2577.000000	99.293583 
2576.000000	99.293629 
2575.000000	99.293939 
2574.000000	99.294313 
2573.000000	99.294482 
2572.000000	99.294300 
2571.000000	99.293837 
2570.000000	99.293255 
2569.000000	99.292664 
2568.000000	99.292149 
2567.000000	99.291888 
2566.000000	99.292024 
2565.000000	99.292420 
2564.000000	99.292718 
2563.000000	99.292727 
2562.000000	99.292572 
2561.000000	99.292399 
2560.000000	99.292127 
2559.000000	99.291702 
2558.000000	99.291380 
2557.000000	99.291355 
2556.000000	99.291273 
2555.000000	99.290726 
2554.000000	99.290236 
2553.000000	99.291005 
2552.000000	99.293349 
2551.000000	99.295877 
2550.000000	99.296846 
2549.000000	99.296040 
2548.000000	99.294659 
2547.000000	99.293650 
2546.000000	99.292906 
2545.000000	99.292207 
2544.000000	99.291953 
2543.000000	99.292574 
2542.000000	99.293824 
2541.000000	99.295077 
2540.000000	99.295931 
2539.000000	99.296162 
2538.000000	99.295411 
2537.000000	99.293345 
2536.000000	99.290109 
2535.000000	99.286523 
2534.000000	99.283822 
2533.000000	99.283046 
2532.000000	99.284310 
2531.000000	99.286513 
2530.000000	99.288220 
2529.000000	99.289100 
2528.000000	99.290069 
2527.000000	99.291971 
2526.000000	99.294612 
2525.000000	99.297264 
2524.000000	99.299618 
2523.000000	99.301803 
2522.000000	99.303771 
2521.000000	99.305114 
2520.000000	99.305389 
2519.000000	99.304394 
2518.000000	99.302295 
2517.000000	99.299739 
2516.000000	99.297540 
2515.000000	99.296024 
2514.000000	99.294926 
2513.000000	99.294028 
2512.000000	99.293438 
2511.000000	99.293024 
2510.000000	99.292211 
2509.000000	99.290955 
2508.000000	99.290422 
2507.000000	99.291798 
2506.000000	99.294548 
2505.000000	99.296597 
2504.000000	99.296493 
2503.000000	99.294759 
2502.000000	99.293046 
2501.000000	99.292404 
2500.000000	99.292701 
2499.000000	99.293417 
2498.000000	99.294413 
2497.000000	99.295821 
2496.000000	99.297556 
2495.000000	99.299092 
2494.000000	99.299711 
2493.000000	99.298984 
2492.000000	99.297090 
2491.000000	99.294770 
2490.000000	99.292918 
2489.000000	99.292048 
2488.000000	99.292106 
2487.000000	99.292679 
2486.000000	99.293328 
2485.000000	99.293866 
2484.000000	99.294335 
2483.000000	99.294783 
2482.000000	99.295145 
2481.000000	99.295347 
2480.000000	99.295431 
2479.000000	99.295516 
2478.000000	99.295641 
2477.000000	99.295732 
2476.000000	99.295715 
2475.000000	99.295608 
2474.000000	99.295498 
2473.000000	99.295446 
2472.000000	99.295489 
2471.000000	99.295676 
2470.000000	99.295988 
2469.000000	99.296228 
2468.000000	99.296079 
2467.000000	99.295394 
2466.000000	99.294430 
2465.000000	99.293717 
2464.000000	99.293542 
2463.000000	99.293679 
2462.000000	99.293656 
2461.000000	99.293288 
2460.000000	99.292844 
2459.000000	99.292692 
2458.000000	99.292918 
2457.000000	99.293311 
2456.000000	99.293587 
2455.000000	99.293559 
2454.000000	99.293186 
2453.000000	99.292575 
2452.000000	99.291956 
2451.000000	99.291544 
2450.000000	99.291405 
2449.000000	99.291452 
2448.000000	99.291549 
2447.000000	99.291602 
2446.000000	99.291594 
2445.000000	99.291596 
2444.000000	99.291727 
2443.000000	99.292026 
2442.000000	99.292361 
2441.000000	99.292524 
2440.000000	99.292432 
2439.000000	99.292180 
2438.000000	99.291915 
2437.000000	99.291728 
2436.000000	99.291649 
2435.000000	99.291637 
2434.000000	99.291531 
2433.000000	99.291145 
2432.000000	99.290453 
2431.000000	99.289695 
2430.000000	99.289221 
2429.000000	99.289181 
2428.000000	99.289466 
2427.000000	99.289866 
2426.000000	99.290252 
2425.000000	99.290554 
2424.000000	99.290650 
2423.000000	99.290429 
2422.000000	99.289941 
2421.000000	99.289477 
2420.000000	99.289355 
2419.000000	99.289648 
2418.000000	99.290175 
2417.000000	99.290694 
2416.000000	99.291110 
2415.000000	99.291455 
2414.000000	99.291761 
2413.000000	99.292049 
2412.000000	99.292344 
2411.000000	99.292640 
2410.000000	99.292886 
2409.000000	99.293055 
2408.000000	99.293221 
2407.000000	99.293519 
2406.000000	99.294007 
2405.000000	99.294605 
2404.000000	99.295170 
2403.000000	99.295608 
2402.000000	99.295923 
2401.000000	99.296175 
2400.000000	99.296430 
2399.000000	99.296719 
2398.000000	99.297047 
2397.000000	99.297431 
2396.000000	99.297900 
2395.000000	99.298463 
2394.000000	99.299084 
2393.000000	99.299711 
2392.000000	99.300320 
2391.000000	99.300922 
2390.000000	99.301541 
2389.000000	99.302177 
2388.000000	99.302809 
2387.000000	99.303416 
2386.000000	99.303988 
2385.000000	99.304532 
2384.000000	99.305056 
2383.000000	99.305569 
2382.000000	99.306079 
2381.000000	99.306588 
2380.000000	99.307089 
2379.000000	99.307570 
2378.000000	99.308018 
2377.000000	99.308431 
2376.000000	99.308818 
2375.000000	99.309191 
2374.000000	99.309556 
2373.000000	99.309911 
2372.000000	99.310247 
2371.000000	99.310560 
2370.000000	99.310848 
2369.000000	99.311107 
2368.000000	99.311332 
2367.000000	99.311519 
2366.000000	99.311674 
2365.000000	99.311805 
2364.000000	99.311923 
2363.000000	99.312032 
2362.000000	99.312129 
2361.000000	99.312215 
2360.000000	99.312291 
2359.000000	99.312361 
2358.000000	99.312430 
2357.000000	99.312499 
2356.000000	99.312559 
2355.000000	99.312598 
2354.000000	99.312605 
2353.000000	99.312575 
2352.000000	99.312515 
2351.000000	99.312436 
2350.000000	99.312349 
2349.000000	99.312262 
2348.000000	99.312176 
2347.000000	99.312088 
2346.000000	99.311997 
2345.000000	99.311880 
2344.000000	99.311699 
2343.000000	99.311473 
2342.000000	99.311309 
2341.000000	99.311293 
2340.000000	99.311389 
2339.000000	99.311436 
2338.000000	99.311326 
2337.000000	99.311080 
2336.000000	99.310815 
2335.000000	99.310660 
2334.000000	99.310695 
2333.000000	99.310808 
2332.000000	99.310676 
2331.000000	99.310018 
2330.000000	99.308884 
2329.000000	99.307715 
2328.000000	99.306905 
2327.000000	99.306685 
2326.000000	99.306929 
2325.000000	99.307272 
2324.000000	99.307283 
2323.000000	99.306851 
2322.000000	99.306452 
2321.000000	99.306691 
2320.000000	99.307752 
2319.000000	99.309152 
2318.000000	99.310209 
2317.000000	99.310539 
2316.000000	99.310163 
2315.000000	99.309275 
2314.000000	99.308047 
2313.000000	99.306866 
2312.000000	99.306323 
2311.000000	99.306985 
2310.000000	99.308771 
2309.000000	99.310802 
2308.000000	99.311832 
2307.000000	99.311135 
2306.000000	99.308948 
2305.000000	99.306313 
2304.000000	99.304159 
2303.000000	99.302693 
2302.000000	99.301636 
2301.000000	99.300829 
2300.000000	99.300326 
2299.000000	99.299983 
2298.000000	99.299348 
2297.000000	99.298294 
2296.000000	99.297321 
2295.000000	99.296949 
2294.000000	99.296928 
2293.000000	99.296535 
2292.000000	99.295498 
2291.000000	99.294298 
2290.000000	99.293469 
2289.000000	99.293026 
2288.000000	99.292665 
2287.000000	99.292199 
2286.000000	99.291593 
2285.000000	99.290800 
2284.000000	99.289843 
2283.000000	99.288929 
2282.000000	99.288235 
2281.000000	99.287616 
2280.000000	99.286789 
2279.000000	99.285808 
2278.000000	99.285110 
2277.000000	99.284990 
2276.000000	99.285237 
2275.000000	99.285349 
2274.000000	99.285008 
2273.000000	99.284229 
2272.000000	99.283087 
2271.000000	99.281496 
2270.000000	99.279435 
2269.000000	99.277412 
2268.000000	99.276366 
2267.000000	99.276906 
2266.000000	99.278688 
2265.000000	99.280533 
2264.000000	99.281263 
2263.000000	99.280494 
2262.000000	99.278997 
2261.000000	99.278297 
2260.000000	99.279377 
2259.000000	99.281520 
2258.000000	99.282670 
2257.000000	99.281443 
2256.000000	99.278476 
2255.000000	99.275663 
2254.000000	99.274034 
2253.000000	99.273062 
2252.000000	99.272075 
2251.000000	99.271454 
2250.000000	99.272010 
2249.000000	99.273796 
2248.000000	99.276059 
2247.000000	99.277997 
2246.000000	99.279020 
2245.000000	99.278610 
2244.000000	99.276623 
2243.000000	99.273769 
2242.000000	99.271257 
2241.000000	99.269735 
2240.000000	99.268744 
2239.000000	99.267269 
2238.000000	99.264815 
2237.000000	99.261928 
2236.000000	99.259535 
2235.000000	99.257851 
2234.000000	99.256211 
2233.000000	99.254241 
2232.000000	99.252889 
2231.000000	99.253618 
2230.000000	99.256782 
2229.000000	99.261419 
2228.000000	99.266482 
2227.000000	99.271418 
2226.000000	99.275304 
2225.000000	99.276539 
2224.000000	99.274237 
2223.000000	99.269465 
2222.000000	99.264797 
2221.000000	99.262548 
2220.000000	99.263394 
2219.000000	99.266544 
2218.000000	99.270615 
2217.000000	99.274459 
2216.000000	99.277567 
2215.000000	99.279807 
2214.000000	99.280992 
2213.000000	99.280921 
2212.000000	99.279786 
2211.000000	99.278354 
2210.000000	99.277587 
2209.000000	99.278009 
2208.000000	99.279309 
2207.000000	99.280487 
2206.000000	99.280608 
2205.000000	99.279545 
2204.000000	99.277941 
2203.000000	99.276523 
2202.000000	99.275624 
2201.000000	99.275289 
2200.000000	99.275384 
2199.000000	99.275517 
2198.000000	99.275256 
2197.000000	99.274667 
2196.000000	99.274388 
2195.000000	99.274873 
2194.000000	99.275872 
2193.000000	99.276777 
2192.000000	99.277220 
2191.000000	99.277275 
2190.000000	99.277150 
2189.000000	99.277012 
2188.000000	99.276979 
2187.000000	99.277109 
2186.000000	99.277381 
2185.000000	99.277714 
2184.000000	99.278007 
2183.000000	99.278211 
2182.000000	99.278333 
2181.000000	99.278412 
2180.000000	99.278511 
2179.000000	99.278660 
2178.000000	99.278834 
2177.000000	99.278979 
2176.000000	99.279064 
2175.000000	99.279106 
2174.000000	99.279147 
2173.000000	99.279220 
2172.000000	99.279348 
2171.000000	99.279548 
2170.000000	99.279830 
2169.000000	99.280176 
2168.000000	99.280553 
2167.000000	99.280938 
2166.000000	99.281323 
2165.000000	99.281710 
2164.000000	99.282115 
2163.000000	99.282554 
2162.000000	99.283037 
2161.000000	99.283555 
2160.000000	99.284090 
2159.000000	99.284627 
2158.000000	99.285164 
2157.000000	99.285689 
2156.000000	99.286179 
2155.000000	99.286622 
2154.000000	99.287025 
2153.000000	99.287382 
2152.000000	99.287694 
2151.000000	99.288008 
2150.000000	99.288394 
2149.000000	99.288895 
2148.000000	99.289484 
2147.000000	99.290091 
2146.000000	99.290618 
2145.000000	99.290955 
2144.000000	99.291063 
2143.000000	99.291046 
2142.000000	99.291059 
2141.000000	99.291143 
2140.000000	99.291233 
2139.000000	99.291282 
2138.000000	99.291302 
2137.000000	99.291282 
2136.000000	99.291199 
2135.000000	99.291118 
2134.000000	99.291150 
2133.000000	99.291314 
2132.000000	99.291460 
2131.000000	99.291369 
2130.000000	99.290904 
2129.000000	99.290123 
2128.000000	99.289318 
2127.000000	99.288781 
2126.000000	99.288572 
2125.000000	99.288441 
2124.000000	99.288150 
2123.000000	99.287845 
2122.000000	99.287811 
2121.000000	99.287926 
2120.000000	99.287707 
2119.000000	99.286967 
2118.000000	99.286140 
2117.000000	99.285783 
2116.000000	99.285943 
2115.000000	99.286189 
2114.000000	99.286095 
2113.000000	99.285545 
2112.000000	99.284715 
2111.000000	99.283956 
2110.000000	99.283599 
2109.000000	99.283737 
2108.000000	99.284128 
2107.000000	99.284278 
2106.000000	99.283568 
2105.000000	99.281474 
2104.000000	99.278028 
2103.000000	99.274226 
2102.000000	99.271633 
2101.000000	99.271285 
2100.000000	99.273062 
2099.000000	99.275893 
2098.000000	99.278522 
2097.000000	99.280261 
2096.000000	99.281126 
2095.000000	99.281232 
2094.000000	99.280057 
2093.000000	99.276841 
2092.000000	99.272188 
2091.000000	99.268646 
2090.000000	99.268569 
2089.000000	99.271661 
2088.000000	99.275172 
2087.000000	99.276825 
2086.000000	99.276838 
2085.000000	99.276721 
2084.000000	99.277318 
2083.000000	99.278517 
2082.000000	99.280153 
2081.000000	99.282270 
2080.000000	99.284706 
2079.000000	99.286950 
2078.000000	99.288538 
2077.000000	99.289547 
2076.000000	99.290769 
2075.000000	99.293149 
2074.000000	99.296595 
2073.000000	99.299592 
2072.000000	99.300625 
2071.000000	99.299813 
2070.000000	99.298562 
2069.000000	99.297654 
2068.000000	99.296518 
2067.000000	99.294613 
2066.000000	99.292674 
2065.000000	99.292065 
2064.000000	99.293353 
2063.000000	99.295992 
2062.000000	99.299051 
2061.000000	99.301786 
2060.000000	99.303726 
2059.000000	99.304628 
2058.000000	99.304501 
2057.000000	99.303682 
2056.000000	99.302588 
2055.000000	99.301298 
2054.000000	99.299497 
2053.000000	99.297053 
2052.000000	99.294727 
2051.000000	99.293860 
2050.000000	99.295074 
2049.000000	99.297490 
2048.000000	99.299411 
2047.000000	99.299823 
2046.000000	99.298876 
2045.000000	99.297214 
2044.000000	99.295528 
2043.000000	99.294485 
2042.000000	99.294502 
2041.000000	99.295413 
2040.000000	99.296604 
2039.000000	99.297638 
2038.000000	99.298443 
2037.000000	99.298938 
2036.000000	99.298969 
2035.000000	99.298661 
2034.000000	99.298401 
2033.000000	99.298278 
2032.000000	99.297905 
2031.000000	99.296943 
2030.000000	99.295460 
2029.000000	99.293744 
2028.000000	99.292033 
2027.000000	99.290565 
2026.000000	99.289676 
2025.000000	99.289681 
2024.000000	99.290596 
2023.000000	99.291906 
2022.000000	99.292650 
2021.000000	99.292099 
2020.000000	99.290647 
2019.000000	99.289673 
2018.000000	99.290125 
2017.000000	99.291414 
2016.000000	99.291971 
2015.000000	99.290925 
2014.000000	99.288864 
2013.000000	99.287127 
2012.000000	99.286646 
2011.000000	99.287605 
2010.000000	99.289675 
2009.000000	99.292348 
2008.000000	99.295035 
2007.000000	99.297154 
2006.000000	99.298270 
2005.000000	99.298178 
2004.000000	99.297105 
2003.000000	99.295725 
2002.000000	99.294719 
2001.000000	99.294235 
2000.000000	99.293883 
1999.000000	99.293208 
1998.000000	99.292131 
1997.000000	99.291086 
1996.000000	99.290705 
1995.000000	99.291265 
1994.000000	99.292455 
1993.000000	99.293622 
1992.000000	99.294288 
1991.000000	99.294427 
1990.000000	99.294230 
1989.000000	99.293876 
1988.000000	99.293556 
1987.000000	99.293461 
1986.000000	99.293551 
1985.000000	99.293521 
1984.000000	99.293189 
1983.000000	99.292812 
1982.000000	99.292796 
1981.000000	99.293075 
1980.000000	99.292992 
1979.000000	99.292004 
1978.000000	99.290272 
1977.000000	99.288642 
1976.000000	99.287734 
1975.000000	99.287407 
1974.000000	99.287172 
1973.000000	99.287011 
1972.000000	99.287424 
1971.000000	99.288666 
1970.000000	99.290161 
1969.000000	99.290765 
1968.000000	99.289831 
1967.000000	99.287808 
1966.000000	99.285960 
1965.000000	99.284976 
1964.000000	99.284508 
1963.000000	99.284077 
1962.000000	99.283874 
1961.000000	99.284325 
1960.000000	99.285209 
1959.000000	99.285836 
1958.000000	99.286027 
1957.000000	99.286212 
1956.000000	99.286482 
1955.000000	99.286355 
1954.000000	99.285721 
1953.000000	99.285273 
1952.000000	99.285346 
1951.000000	99.284934 
1950.000000	99.282776 
1949.000000	99.279064 
1948.000000	99.275479 
1947.000000	99.273278 
1946.000000	99.271895 
1945.000000	99.269742 
1944.000000	99.266219 
1943.000000	99.262664 
1942.000000	99.261155 
1941.000000	99.262377 
1940.000000	99.264888 
1939.000000	99.266489 
1938.000000	99.266435 
1937.000000	99.266283 
1936.000000	99.268117 
1935.000000	99.271835 
1934.000000	99.275184 
1933.000000	99.276745 
1932.000000	99.277825 
1931.000000	99.280464 
1930.000000	99.284275 
1929.000000	99.286383 
1928.000000	99.285241 
1927.000000	99.282629 
1926.000000	99.281439 
1925.000000	99.282576 
1924.000000	99.284543 
1923.000000	99.285905 
1922.000000	99.286446 
1921.000000	99.286332 
1920.000000	99.285066 
1919.000000	99.281916 
1918.000000	99.276975 
1917.000000	99.271734 
1916.000000	99.268318 
1915.000000	99.267808 
1914.000000	99.269624 
1913.000000	99.272332 
1912.000000	99.274656 
1911.000000	99.276060 
1910.000000	99.276407 
1909.000000	99.275773 
1908.000000	99.275071 
1907.000000	99.275552 
1906.000000	99.277356 
1905.000000	99.279105 
1904.000000	99.279290 
1903.000000	99.278037 
1902.000000	99.276599 
1901.000000	99.275855 
1900.000000	99.275897 
1899.000000	99.276560 
1898.000000	99.277632 
1897.000000	99.278667 
1896.000000	99.279027 
1895.000000	99.278489 
1894.000000	99.277429 
1893.000000	99.276431 
1892.000000	99.275949 
1891.000000	99.276238 
1890.000000	99.277070 
1889.000000	99.277569 
1888.000000	99.277065 
1887.000000	99.275877 
1886.000000	99.274822 
1885.000000	99.274433 
1884.000000	99.274776 
1883.000000	99.275856 
1882.000000	99.277592 
1881.000000	99.279499 
1880.000000	99.281113 
1879.000000	99.282503 
1878.000000	99.284041 
1877.000000	99.285880 
1876.000000	99.287689 
1875.000000	99.288877 
1874.000000	99.288843 
1873.000000	99.287151 
1872.000000	99.284083 
1871.000000	99.280916 
1870.000000	99.279027 
1869.000000	99.278537 
1868.000000	99.278541 
1867.000000	99.278867 
1866.000000	99.279996 
1865.000000	99.281629 
1864.000000	99.282682 
1863.000000	99.282407 
1862.000000	99.281037 
1861.000000	99.279489 
1860.000000	99.278777 
1859.000000	99.279528 
1858.000000	99.281461 
1857.000000	99.283315 
1856.000000	99.284033 
1855.000000	99.283894 
1854.000000	99.283921 
1853.000000	99.284345 
1852.000000	99.284632 
1851.000000	99.284635 
1850.000000	99.284876 
1849.000000	99.286011 
1848.000000	99.287965 
1847.000000	99.289963 
1846.000000	99.291109 
1845.000000	99.291040 
1844.000000	99.290275 
1843.000000	99.290025 
1842.000000	99.290914 
1841.000000	99.292139 
1840.000000	99.292646 
1839.000000	99.292155 
1838.000000	99.291073 
1837.000000	99.289941 
1836.000000	99.289009 
1835.000000	99.288423 
1834.000000	99.288258 
1833.000000	99.288374 
1832.000000	99.288523 
1831.000000	99.288536 
1830.000000	99.288434 
1829.000000	99.288492 
1828.000000	99.288873 
1827.000000	99.289307 
1826.000000	99.289475 
1825.000000	99.289455 
1824.000000	99.289445 
1823.000000	99.289373 
1822.000000	99.288931 
1821.000000	99.288090 
1820.000000	99.287437 
1819.000000	99.287613 
1818.000000	99.288651 
1817.000000	99.289837 
1816.000000	99.290348 
1815.000000	99.290210 
1814.000000	99.290045 
1813.000000	99.290258 
1812.000000	99.290654 
1811.000000	99.290895 
1810.000000	99.291138 
1809.000000	99.291528 
1808.000000	99.291690 
1807.000000	99.291274 
1806.000000	99.290484 
1805.000000	99.289808 
1804.000000	99.289425 
1803.000000	99.289137 
1802.000000	99.288540 
1801.000000	99.287378 
1800.000000	99.285977 
1799.000000	99.285128 
1798.000000	99.285400 
1797.000000	99.286545 
1796.000000	99.287795 
1795.000000	99.288668 
1794.000000	99.289237 
1793.000000	99.289677 
1792.000000	99.289834 
1791.000000	99.289639 
1790.000000	99.289484 
1789.000000	99.289472 
1788.000000	99.289460 
1787.000000	99.289553 
1786.000000	99.290013 
1785.000000	99.290681 
1784.000000	99.291015 
1783.000000	99.290839 
1782.000000	99.290269 
1781.000000	99.289486 
1780.000000	99.288734 
1779.000000	99.288115 
1778.000000	99.287772 
1777.000000	99.287702 
1776.000000	99.287896 
1775.000000	99.288206 
1774.000000	99.288381 
1773.000000	99.288475 
1772.000000	99.288748 
1771.000000	99.289335 
1770.000000	99.290067 
1769.000000	99.290460 
1768.000000	99.290265 
1767.000000	99.289709 
1766.000000	99.289237 
1765.000000	99.289102 
1764.000000	99.289270 
1763.000000	99.289599 
1762.000000	99.289872 
1761.000000	99.289990 
1760.000000	99.290106 
1759.000000	99.290328 
1758.000000	99.290660 
1757.000000	99.290998 
1756.000000	99.291264 
1755.000000	99.291410 
1754.000000	99.291432 
1753.000000	99.291398 
1752.000000	99.291420 
1751.000000	99.291445 
1750.000000	99.291358 
1749.000000	99.291200 
1748.000000	99.291092 
1747.000000	99.291115 
1746.000000	99.291238 
1745.000000	99.291382 
1744.000000	99.291471 
1743.000000	99.291468 
1742.000000	99.291407 
1741.000000	99.291347 
1740.000000	99.291301 
1739.000000	99.291266 
1738.000000	99.291286 
1737.000000	99.291299 
1736.000000	99.291208 
1735.000000	99.291103 
1734.000000	99.291008 
1733.000000	99.290799 
1732.000000	99.290589 
1731.000000	99.290328 
1730.000000	99.289946 
1729.000000	99.289572 
1728.000000	99.289364 
1727.000000	99.289310 
1726.000000	99.289232 
1725.000000	99.289040 
1724.000000	99.288712 
1723.000000	99.288219 
1722.000000	99.287673 
1721.000000	99.287159 
1720.000000	99.286720 
1719.000000	99.286504 
1718.000000	99.286611 
1717.000000	99.286662 
1716.000000	99.286342 
1715.000000	99.285915 
1714.000000	99.285636 
1713.000000	99.285324 
1712.000000	99.284658 
1711.000000	99.283754 
1710.000000	99.283040 
1709.000000	99.282716 
1708.000000	99.282634 
1707.000000	99.282506 
1706.000000	99.282101 
1705.000000	99.281245 
1704.000000	99.280037 
1703.000000	99.278793 
1702.000000	99.277752 
1701.000000	99.277017 
1700.000000	99.275911 
1699.000000	99.274477 
1698.000000	99.273651 
1697.000000	99.273131 
1696.000000	99.272282 
1695.000000	99.270975 
1694.000000	99.269800 
1693.000000	99.268966 
1692.000000	99.268132 
1691.000000	99.267256 
1690.000000	99.266485 
1689.000000	99.265783 
1688.000000	99.265077 
1687.000000	99.264339 
1686.000000	99.263693 
1685.000000	99.263270 
1684.000000	99.262674 
1683.000000	99.261735 
1682.000000	99.260779 
1681.000000	99.259796 
1680.000000	99.258785 
1679.000000	99.257829 
1678.000000	99.256931 
1677.000000	99.256063 
1676.000000	99.255222 
1675.000000	99.254396 
1674.000000	99.253572 
1673.000000	99.252774 
1672.000000	99.251996 
1671.000000	99.251225 
1670.000000	99.250450 
1669.000000	99.249664 
1668.000000	99.248885 
1667.000000	99.248136 
1666.000000	99.247416 
1665.000000	99.246723 
1664.000000	99.246059 
1663.000000	99.245432 
1662.000000	99.244839 
1661.000000	99.244277 
1660.000000	99.243766 
1659.000000	99.243319 
1658.000000	99.242916 
1657.000000	99.242508 
1656.000000	99.242058 
1655.000000	99.241607 
1654.000000	99.241354 
1653.000000	99.241091 
1652.000000	99.240471 
1651.000000	99.240150 
1650.000000	99.240116 
1649.000000	99.239981 
1648.000000	99.239783 
1647.000000	99.239585 
1646.000000	99.239183 
1645.000000	99.238823 
1644.000000	99.238809 
1643.000000	99.239049 
1642.000000	99.239264 
1641.000000	99.239186 
1640.000000	99.238874 
1639.000000	99.238537 
1638.000000	99.238497 
1637.000000	99.239215 
1636.000000	99.240694 
1635.000000	99.241856 
1634.000000	99.242479 
1633.000000	99.243007 
1632.000000	99.242805 
1631.000000	99.241872 
1630.000000	99.240961 
1629.000000	99.240767 
1628.000000	99.241462 
1627.000000	99.242893 
1626.000000	99.244513 
1625.000000	99.245712 
1624.000000	99.246543 
1623.000000	99.247352 
1622.000000	99.248283 
1621.000000	99.249258 
1620.000000	99.250057 
1619.000000	99.250462 
1618.000000	99.251001 
1617.000000	99.251932 
1616.000000	99.253120 
1615.000000	99.255509 
1614.000000	99.258923 
1613.000000	99.261935 
1612.000000	99.264597 
1611.000000	99.267804 
1610.000000	99.270775 
1609.000000	99.271808 
1608.000000	99.271040 
1607.000000	99.270282 
1606.000000	99.270434 
1605.000000	99.271235 
1604.000000	99.272884 
1603.000000	99.275227 
1602.000000	99.277366 
1601.000000	99.278737 
1600.000000	99.279872 
1599.000000	99.281473 
1598.000000	99.283455 
1597.000000	99.285422 
1596.000000	99.287101 
1595.000000	99.288171 
1594.000000	99.288378 
1593.000000	99.288207 
1592.000000	99.288819 
1591.000000	99.290676 
1590.000000	99.292771 
1589.000000	99.293910 
1588.000000	99.294339 
1587.000000	99.295151 
1586.000000	99.296568 
1585.000000	99.297674 
1584.000000	99.298192 
1583.000000	99.298599 
1582.000000	99.298856 
1581.000000	99.298773 
1580.000000	99.298475 
1579.000000	99.298063 
1578.000000	99.297467 
1577.000000	99.296956 
1576.000000	99.296690 
1575.000000	99.296891 
1574.000000	99.297662 
1573.000000	99.298480 
1572.000000	99.299084 
1571.000000	99.299697 
1570.000000	99.300322 
1569.000000	99.300661 
1568.000000	99.300819 
1567.000000	99.300901 
1566.000000	99.300829 
1565.000000	99.300687 
1564.000000	99.300625 
1563.000000	99.300645 
1562.000000	99.300676 
1561.000000	99.300737 
1560.000000	99.300888 
1559.000000	99.301032 
1558.000000	99.301083 
1557.000000	99.301109 
1556.000000	99.301116 
1555.000000	99.301097 
1554.000000	99.301059 
1553.000000	99.301002 
1552.000000	99.300930 
1551.000000	99.300844 
1550.000000	99.300746 
1549.000000	99.300640 
1548.000000	99.300528 
1547.000000	99.300412 
1546.000000	99.300292 
1545.000000	99.300172 
1544.000000	99.300059 
1543.000000	99.299959 
1542.000000	99.299875 
1541.000000	99.299797 
1540.000000	99.299711 
1539.000000	99.299609 
1538.000000	99.299495 
1537.000000	99.299371 
1536.000000	99.299235 
1535.000000	99.299086 
1534.000000	99.298926 
1533.000000	99.298758 
1532.000000	99.298585 
1531.000000	99.298412 
1530.000000	99.298240 
1529.000000	99.298066 
1528.000000	99.297885 
1527.000000	99.297691 
1526.000000	99.297497 
1525.000000	99.297328 
1524.000000	99.297198 
1523.000000	99.297116 
1522.000000	99.297101 
1521.000000	99.297031 
1520.000000	99.296733 
1519.000000	99.296198 
1518.000000	99.295487 
1517.000000	99.294790 
1516.000000	99.294271 
1515.000000	99.293914 
1514.000000	99.293589 
1513.000000	99.293243 
1512.000000	99.292892 
1511.000000	99.292438 
1510.000000	99.291824 
1509.000000	99.291188 
1508.000000	99.291033 
1507.000000	99.291451 
1506.000000	99.291484 
1505.000000	99.290924 
1504.000000	99.290392 
1503.000000	99.289986 
1502.000000	99.289633 
1501.000000	99.289279 
1500.000000	99.288681 
1499.000000	99.287643 
1498.000000	99.286389 
1497.000000	99.285365 
1496.000000	99.284466 
1495.000000	99.283721 
1494.000000	99.283640 
1493.000000	99.284340 
1492.000000	99.285470 
1491.000000	99.286428 
1490.000000	99.286482 
1489.000000	99.285249 
1488.000000	99.282997 
1487.000000	99.280455 
1486.000000	99.278279 
1485.000000	99.276209 
1484.000000	99.274129 
1483.000000	99.272542 
1482.000000	99.271884 
1481.000000	99.271890 
1480.000000	99.271546 
1479.000000	99.270450 
1478.000000	99.269099 
1477.000000	99.268120 
1476.000000	99.267323 
1475.000000	99.266655 
1474.000000	99.266695 
1473.000000	99.267348 
1472.000000	99.267087 
1471.000000	99.265165 
1470.000000	99.262701 
1469.000000	99.260335 
1468.000000	99.258110 
1467.000000	99.256354 
1466.000000	99.255487 
1465.000000	99.255073 
1464.000000	99.254528 
1463.000000	99.253772 
1462.000000	99.253066 
1461.000000	99.252307 
1460.000000	99.251258 
1459.000000	99.249693 
1458.000000	99.246934 
1457.000000	99.241096 
1456.000000	99.232950 
1455.000000	99.227366 
1454.000000	99.224829 
1453.000000	99.224056 
1452.000000	99.225186 
1451.000000	99.227524 
1450.000000	99.229627 
1449.000000	99.230719 
1448.000000	99.230692 
1447.000000	99.230218 
1446.000000	99.229901 
1445.000000	99.230240 
1444.000000	99.231935 
1443.000000	99.233997 
1442.000000	99.235202 
1441.000000	99.234911 
1440.000000	99.233361 
1439.000000	99.231016 
1438.000000	99.229909 
1437.000000	99.231413 
1436.000000	99.232232 
1435.000000	99.229702 
1434.000000	99.225096 
1433.000000	99.220461 
1432.000000	99.217388 
1431.000000	99.216249 
1430.000000	99.215771 
1429.000000	99.214706 
1428.000000	99.212314 
1427.000000	99.209223 
1426.000000	99.206277 
1425.000000	99.204112 
1424.000000	99.202517 
1423.000000	99.199143 
1422.000000	99.192467 
1421.000000	99.183535 
1420.000000	99.175486 
1419.000000	99.169889 
1418.000000	99.165709 
1417.000000	99.161613 
1416.000000	99.155569 
1415.000000	99.146594 
1414.000000	99.136141 
1413.000000	99.126937 
1412.000000	99.120726 
1411.000000	99.116794 
1410.000000	99.113284 
1409.000000	99.109314 
1408.000000	99.105264 
1407.000000	99.102682 
1406.000000	99.102865 
1405.000000	99.105603 
1404.000000	99.109776 
1403.000000	99.114310 
1402.000000	99.119315 
1401.000000	99.125360 
1400.000000	99.132049 
1399.000000	99.137048 
1398.000000	99.137437 
1397.000000	99.131544 
1396.000000	99.119696 
1395.000000	99.106643 
1394.000000	99.100454 
1393.000000	99.105458 
1392.000000	99.118409 
1391.000000	99.132134 
1390.000000	99.141766 
1389.000000	99.146566 
1388.000000	99.147595 
1387.000000	99.145810 
1386.000000	99.142765 
1385.000000	99.140696 
1384.000000	99.140763 
1383.000000	99.142117 
1382.000000	99.143372 
1381.000000	99.144275 
1380.000000	99.145762 
1379.000000	99.148763 
1378.000000	99.153254 
1377.000000	99.158632 
1376.000000	99.164381 
1375.000000	99.170215 
1374.000000	99.175922 
1373.000000	99.181836 
1372.000000	99.188501 
1371.000000	99.195736 
1370.000000	99.202553 
1369.000000	99.208038 
1368.000000	99.212171 
1367.000000	99.215442 
1366.000000	99.218590 
1365.000000	99.222462 
1364.000000	99.227567 
1363.000000	99.233221 
1362.000000	99.237814 
1361.000000	99.240594 
1360.000000	99.242457 
1359.000000	99.244978 
1358.000000	99.249216 
1357.000000	99.255060 
1356.000000	99.261189 
1355.000000	99.265894 
1354.000000	99.268789 
1353.000000	99.271355 
1352.000000	99.274801 
1351.000000	99.278474 
1350.000000	99.280717 
1349.000000	99.281274 
1348.000000	99.281501 
1347.000000	99.282130 
1346.000000	99.283057 
1345.000000	99.284391 
1344.000000	99.286627 
1343.000000	99.289388 
1342.000000	99.291611 
1341.000000	99.293154 
1340.000000	99.295054 
1339.000000	99.297590 
1338.000000	99.299595 
1337.000000	99.300328 
1336.000000	99.300458 
1335.000000	99.300715 
1334.000000	99.300843 
1333.000000	99.300404 
1332.000000	99.299664 
1331.000000	99.299044 
1330.000000	99.298384 
1329.000000	99.297486 
1328.000000	99.296691 
1327.000000	99.296356 
1326.000000	99.296259 
1325.000000	99.296297 
1324.000000	99.297057 
1323.000000	99.298720 
1322.000000	99.300458 
1321.000000	99.301588 
1320.000000	99.302680 
1319.000000	99.304509 
1318.000000	99.306400 
1317.000000	99.306659 
1316.000000	99.304571 
1315.000000	99.301234 
1314.000000	99.298425 
1313.000000	99.297071 
1312.000000	99.296895 
1311.000000	99.297273 
1310.000000	99.298016 
1309.000000	99.299220 
1308.000000	99.300468 
1307.000000	99.300736 
1306.000000	99.299378 
1305.000000	99.297172 
1304.000000	99.295944 
1303.000000	99.296838 
1302.000000	99.299324 
1301.000000	99.301831 
1300.000000	99.303113 
1299.000000	99.303028 
1298.000000	99.302569 
1297.000000	99.303141 
1296.000000	99.305259 
1295.000000	99.307681 
1294.000000	99.308247 
1293.000000	99.305925 
1292.000000	99.301787 
1291.000000	99.298084 
1290.000000	99.296554 
1289.000000	99.297523 
1288.000000	99.300009 
1287.000000	99.302244 
1286.000000	99.302575 
1285.000000	99.300453 
1284.000000	99.296593 
1283.000000	99.292226 
1282.000000	99.288148 
1281.000000	99.284574 
1280.000000	99.281735 
1279.000000	99.279914 
1278.000000	99.278876 
1277.000000	99.277925 
1276.000000	99.276658 
1275.000000	99.275312 
1274.000000	99.274155 
1273.000000	99.272863 
1272.000000	99.270842 
1271.000000	99.268037 
1270.000000	99.265064 
1269.000000	99.262403 
1268.000000	99.259756 
1267.000000	99.256382 
1266.000000	99.251969 
1265.000000	99.246987 
1264.000000	99.242173 
1263.000000	99.237799 
1262.000000	99.233593 
1261.000000	99.229346 
1260.000000	99.225454 
1259.000000	99.222496 
1258.000000	99.220216 
1257.000000	99.217440 
1256.000000	99.213497 
1255.000000	99.209467 
1254.000000	99.207164 
1253.000000	99.206708 
1252.000000	99.206072 
1251.000000	99.203731 
1250.000000	99.200981 
1249.000000	99.200567 
1248.000000	99.203334 
1247.000000	99.207097 
1246.000000	99.208519 
1245.000000	99.205187 
1244.000000	99.196441 
1243.000000	99.184400 
1242.000000	99.174490 
1241.000000	99.172465 
1240.000000	99.179171 
1239.000000	99.188881 
1238.000000	99.194246 
1237.000000	99.192696 
1236.000000	99.186946 
1235.000000	99.180615 
1234.000000	99.174979 
1233.000000	99.169423 
1232.000000	99.162988 
1231.000000	99.155065 
1230.000000	99.146108 
1229.000000	99.138216 
1228.000000	99.133809 
1227.000000	99.133015 
1226.000000	99.133072 
1225.000000	99.130819 
1224.000000	99.125281 
1223.000000	99.117622 
1222.000000	99.109487 
1221.000000	99.101957 
1220.000000	99.095583 
1219.000000	99.090519 
1218.000000	99.086289 
1217.000000	99.081498 
1216.000000	99.074076 
1215.000000	99.062432 
1214.000000	99.046774 
1213.000000	99.028972 
1212.000000	99.010846 
1211.000000	98.993130 
1210.000000	98.976369 
1209.000000	98.961544 
1208.000000	98.948614 
1207.000000	98.935305 
1206.000000	98.919177 
1205.000000	98.900802 
1204.000000	98.883262 
1203.000000	98.868278 
1202.000000	98.854432 
1201.000000	98.839557 
1200.000000	98.823220 
1199.000000	98.806083 
1198.000000	98.788275 
1197.000000	98.769480 
1196.000000	98.749638 
1195.000000	98.728774 
1194.000000	98.706893 
1193.000000	98.684609 
1192.000000	98.663019 
1191.000000	98.642292 
1190.000000	98.621186 
1189.000000	98.598746 
1188.000000	98.575658 
1187.000000	98.553182 
1186.000000	98.531650 
1185.000000	98.510817 
1184.000000	98.490617 
1183.000000	98.470466 
1182.000000	98.448876 
1181.000000	98.425125 
1180.000000	98.400450 
1179.000000	98.376175 
1178.000000	98.351562 
1177.000000	98.325194 
1176.000000	98.297676 
1175.000000	98.270791 
1174.000000	98.244213 
1173.000000	98.215362 
1172.000000	98.183017 
1171.000000	98.149305 
1170.000000	98.117516 
1169.000000	98.089276 
1168.000000	98.064250 
1167.000000	98.041393 
1166.000000	98.020272 
1165.000000	98.002473 
1164.000000	97.991811 
1163.000000	97.991653 
1162.000000	98.001515 
1161.000000	98.017102 
1160.000000	98.033377 
1159.000000	98.046106 
1158.000000	98.050950 
1157.000000	98.043815 
1156.000000	98.023558 
1155.000000	97.993699 
1154.000000	97.960731 
1153.000000	97.930515 
1152.000000	97.905503 
1151.000000	97.883923 
1150.000000	97.861403 
1149.000000	97.834767 
1148.000000	97.804822 
1147.000000	97.774840 
1146.000000	97.746570 
1145.000000	97.718914 
1144.000000	97.690122 
1143.000000	97.659631 
1142.000000	97.628024 
1141.000000	97.597081 
1140.000000	97.569631 
1139.000000	97.546869 
1138.000000	97.525286 
1137.000000	97.498754 
1136.000000	97.464664 
1135.000000	97.426282 
1134.000000	97.388226 
1133.000000	97.351406 
1132.000000	97.313838 
1131.000000	97.274856 
1130.000000	97.236590 
1129.000000	97.201572 
1128.000000	97.169649 
1127.000000	97.137139 
1126.000000	97.099459 
1125.000000	97.055687 
1124.000000	97.010183 
1123.000000	96.968300 
1122.000000	96.930723 
1121.000000	96.893828 
1120.000000	96.855022 
1119.000000	96.815156 
1118.000000	96.775722 
1117.000000	96.736721 
1116.000000	96.698185 
1115.000000	96.661232 
1114.000000	96.626494 
1113.000000	96.593557 
1112.000000	96.562472 
1111.000000	96.533231 
1110.000000	96.503170 
1109.000000	96.468078 
1108.000000	96.427507 
1107.000000	96.386650 
1106.000000	96.350918 
1105.000000	96.320328 
1104.000000	96.290772 
1103.000000	96.259323 
1102.000000	96.226692 
1101.000000	96.195359 
1100.000000	96.166729 
1099.000000	96.140073 
1098.000000	96.113765 
1097.000000	96.087495 
1096.000000	96.062497 
1095.000000	96.038649 
1094.000000	96.012595 
1093.000000	95.980569 
1092.000000	95.942271 
1091.000000	95.900117 
1090.000000	95.855924 
1089.000000	95.810916 
1088.000000	95.767998 
1087.000000	95.730300 
1086.000000	95.697173 
1085.000000	95.664772 
1084.000000	95.631098 
1083.000000	95.597603 
1082.000000	95.565525 
1081.000000	95.533727 
1080.000000	95.500765 
1079.000000	95.466325 
1078.000000	95.430394 
1077.000000	95.394052 
1076.000000	95.361112 
1075.000000	95.335286 
1074.000000	95.315075 
1073.000000	95.294624 
1072.000000	95.269075 
1071.000000	95.234648 
1070.000000	95.184603 
1069.000000	95.112810 
1068.000000	95.024442 
1067.000000	94.937951 
1066.000000	94.871002 
1065.000000	94.826120 
1064.000000	94.792598 
1063.000000	94.757868 
1062.000000	94.713561 
1061.000000	94.655404 
1060.000000	94.584094 
1059.000000	94.506616 
1058.000000	94.432636 
1057.000000	94.367977 
1056.000000	94.312149 
1055.000000	94.260815 
1054.000000	94.209301 
1053.000000	94.155257 
1052.000000	94.099532 
1051.000000	94.043647 
1050.000000	93.986101 
1049.000000	93.923078 
1048.000000	93.853171 
1047.000000	93.779366 
1046.000000	93.706414 
1045.000000	93.637984 
1044.000000	93.575223 
1043.000000	93.515503 
1042.000000	93.453973 
1041.000000	93.389616 
1040.000000	93.328632 
1039.000000	93.278573 
1038.000000	93.240645 
1037.000000	93.211194 
1036.000000	93.188390 
1035.000000	93.172542 
1034.000000	93.161726 
1033.000000	93.152530 
1032.000000	93.143609 
1031.000000	93.133555 
1030.000000	93.118307 
1029.000000	93.097973 
1028.000000	93.084068 
1027.000000	93.090696 
1026.000000	93.117468 
1025.000000	93.148190 
1024.000000	93.167750 
1023.000000	93.173977 
1022.000000	93.172651 
1021.000000	93.169305 
1020.000000	93.168495 
1019.000000	93.173825 
1018.000000	93.184120 
1017.000000	93.193562 
1016.000000	93.198390 
1015.000000	93.200393 
1014.000000	93.202807 
1013.000000	93.206569 
1012.000000	93.211427 
1011.000000	93.216858 
1010.000000	93.221493 
1009.000000	93.225552 
1008.000000	93.233643 
1007.000000	93.250704 
1006.000000	93.275483 
1005.000000	93.302585 
1004.000000	93.330322 
1003.000000	93.361269 
1002.000000	93.395777 
1001.000000	93.431046 
1000.000000	93.466577 
999.000000	 93.504356 
998.000000	 93.543306 
997.000000	 93.579871 
996.000000	 93.614979 
995.000000	 93.654161 
994.000000	 93.699284 
993.000000	 93.745915 
992.000000	 93.790496 
991.000000	 93.834580 
990.000000	 93.880015 
989.000000	 93.925370 
988.000000	 93.969920 
987.000000	 94.016857 
986.000000	 94.069860 
985.000000	 94.129632 
984.000000	 94.195324 
983.000000	 94.265945 
982.000000	 94.339217 
981.000000	 94.412279 
980.000000	 94.484977 
979.000000	 94.560302 
978.000000	 94.640963 
977.000000	 94.727628 
976.000000	 94.819758 
975.000000	 94.914974 
974.000000	 95.008349 
973.000000	 95.096292 
972.000000	 95.181080 
971.000000	 95.268157 
970.000000	 95.359234 
969.000000	 95.451309 
968.000000	 95.541716 
967.000000	 95.630075 
966.000000	 95.715493 
965.000000	 95.795969 
964.000000	 95.871157 
963.000000	 95.942693 
962.000000	 96.011764 
961.000000	 96.079062 
960.000000	 96.146316 
959.000000	 96.214165 
958.000000	 96.278887 
957.000000	 96.335426 
956.000000	 96.384118 
955.000000	 96.430923 
954.000000	 96.480374 
953.000000	 96.531455 
952.000000	 96.580961 
951.000000	 96.627275 
950.000000	 96.669610 
949.000000	 96.706718 
948.000000	 96.738092 
947.000000	 96.764578 
946.000000	 96.786813 
945.000000	 96.804841 
944.000000	 96.819945 
943.000000	 96.835119 
942.000000	 96.853029 
941.000000	 96.874551 
940.000000	 96.898917 
939.000000	 96.923566 
938.000000	 96.944667 
937.000000	 96.960595 
936.000000	 96.974889 
935.000000	 96.993178 
934.000000	 97.017001 
933.000000	 97.043026 
932.000000	 97.068216 
931.000000	 97.092715 
930.000000	 97.117087 
929.000000	 97.139424 
928.000000	 97.156398 
927.000000	 97.166016 
926.000000	 97.169516 
925.000000	 97.172171 
924.000000	 97.181435 
923.000000	 97.201209 
922.000000	 97.227163 
921.000000	 97.249769 
920.000000	 97.262643 
919.000000	 97.266652 
918.000000	 97.266660 
917.000000	 97.266818 
916.000000	 97.269097 
915.000000	 97.273700 
914.000000	 97.279879 
913.000000	 97.288028 
912.000000	 97.301329 
911.000000	 97.323596 
910.000000	 97.355391 
909.000000	 97.393999 
908.000000	 97.437052 
907.000000	 97.484138 
906.000000	 97.534867 
905.000000	 97.587381 
904.000000	 97.639104 
903.000000	 97.688206 
902.000000	 97.735342 
901.000000	 97.784704 
900.000000	 97.840981 
899.000000	 97.902913 
898.000000	 97.961687 
897.000000	 98.008909 
896.000000	 98.045044 
895.000000	 98.077609 
894.000000	 98.112671 
893.000000	 98.150840 
892.000000	 98.189993 
891.000000	 98.227849 
890.000000	 98.262347 
889.000000	 98.293363 
888.000000	 98.324450 
887.000000	 98.359926 
886.000000	 98.399870 
885.000000	 98.440354 
884.000000	 98.478064 
883.000000	 98.511604 
882.000000	 98.539280 
881.000000	 98.560153 
880.000000	 98.577917 
879.000000	 98.599375 
878.000000	 98.627201 
877.000000	 98.657674 
876.000000	 98.686979 
875.000000	 98.715728 
874.000000	 98.745104 
873.000000	 98.772377 
872.000000	 98.793719 
871.000000	 98.809482 
870.000000	 98.824181 
869.000000	 98.842607 
868.000000	 98.867724 
867.000000	 98.900186 
866.000000	 98.936931 
865.000000	 98.971540 
864.000000	 98.999200 
863.000000	 99.021584 
862.000000	 99.044747 
861.000000	 99.071795 
860.000000	 99.099585 
859.000000	 99.123239 
858.000000	 99.141663 
857.000000	 99.157290 
856.000000	 99.172362 
855.000000	 99.187933 
854.000000	 99.205317 
853.000000	 99.225104 
852.000000	 99.244410 
851.000000	 99.258496 
850.000000	 99.266768 
849.000000	 99.274366 
848.000000	 99.285568 
847.000000	 99.297990 
846.000000	 99.306276 
845.000000	 99.309486 
844.000000	 99.311002 
843.000000	 99.312339 
842.000000	 99.311535 
841.000000	 99.307510 
840.000000	 99.301293 
839.000000	 99.292164 
838.000000	 99.277633 
837.000000	 99.259281 
836.000000	 99.243881 
835.000000	 99.235156 
834.000000	 99.228335 
833.000000	 99.217732 
832.000000	 99.207035 
831.000000	 99.206091 
830.000000	 99.217766 
829.000000	 99.233634 
828.000000	 99.244212 
827.000000	 99.248882 
826.000000	 99.253124 
825.000000	 99.259489 
824.000000	 99.265129 
823.000000	 99.267047 
822.000000	 99.266430 
821.000000	 99.266988 
820.000000	 99.270318 
819.000000	 99.274107 
818.000000	 99.275188 
817.000000	 99.273462 
816.000000	 99.270809 
815.000000	 99.265696 
814.000000	 99.251575 
813.000000	 99.222672 
812.000000	 99.179167 
811.000000	 99.123782 
810.000000	 99.054862 
809.000000	 98.966906 
808.000000	 98.858190 
807.000000	 98.734389 
806.000000	 98.603409 
805.000000	 98.469763 
804.000000	 98.336433 
803.000000	 98.209734 
802.000000	 98.098902 
801.000000	 98.011401 
800.000000	 97.950184 
799.000000	 97.914465 
798.000000	 97.901979 
797.000000	 97.910946 
796.000000	 97.939302 
795.000000	 97.981067 
794.000000	 98.025907 
793.000000	 98.065665 
792.000000	 98.099998 
791.000000	 98.132220 
790.000000	 98.161084 
789.000000	 98.180329 
788.000000	 98.185156 
787.000000	 98.174906 
786.000000	 98.149769 
785.000000	 98.109441 
784.000000	 98.056528 
783.000000	 97.998252 
782.000000	 97.943085 
781.000000	 97.897349 
780.000000	 97.865329 
779.000000	 97.849806 
778.000000	 97.851335 
777.000000	 97.869048 
776.000000	 97.902423 
775.000000	 97.950107 
774.000000	 98.007385 
773.000000	 98.067614 
772.000000	 98.126305 
771.000000	 98.181718 
770.000000	 98.232337 
769.000000	 98.276213 
768.000000	 98.311982 
767.000000	 98.338594 
766.000000	 98.355520 
765.000000	 98.365608 
764.000000	 98.375658 
763.000000	 98.390279 
762.000000	 98.406042 
761.000000	 98.415797 
760.000000	 98.418869 
759.000000	 98.423279 
758.000000	 98.436962 
757.000000	 98.459317 
756.000000	 98.482053 
755.000000	 98.496535 
754.000000	 98.500922 
753.000000	 98.502520 
752.000000	 98.512921 
751.000000	 98.538540 
750.000000	 98.575163 
749.000000	 98.612173 
748.000000	 98.641182 
747.000000	 98.660026 
746.000000	 98.671741 
745.000000	 98.682765 
744.000000	 98.700009 
743.000000	 98.725972 
742.000000	 98.757330 
741.000000	 98.790365 
740.000000	 98.825546 
739.000000	 98.863901 
738.000000	 98.901734 
737.000000	 98.933080 
736.000000	 98.955401 
735.000000	 98.969282 
734.000000	 98.975638 
733.000000	 98.978357 
732.000000	 98.987020 
731.000000	 99.009443 
730.000000	 99.041037 
729.000000	 99.068171 
728.000000	 99.083563 
727.000000	 99.091908 
726.000000	 99.098982 
725.000000	 99.102710 
724.000000	 99.098973 
723.000000	 99.090566 
722.000000	 99.085778 
721.000000	 99.091263 
720.000000	 99.109047 
719.000000	 99.136643 
718.000000	 99.166812 
717.000000	 99.190354 
716.000000	 99.202225 
715.000000	 99.204325 
714.000000	 99.202407 
713.000000	 99.201993 
712.000000	 99.207301 
711.000000	 99.219606 
710.000000	 99.234259 
709.000000	 99.243291 
708.000000	 99.242900 
707.000000	 99.235432 
706.000000	 99.222836 
705.000000	 99.202948 
704.000000	 99.174875 
703.000000	 99.143400 
702.000000	 99.114337 
701.000000	 99.087055 
700.000000	 99.054444 
699.000000	 99.009801 
698.000000	 98.952971 
697.000000	 98.892768 
696.000000	 98.844176 
695.000000	 98.819288 
694.000000	 98.819712 
693.000000	 98.838738 
692.000000	 98.869941 
691.000000	 98.910677 
690.000000	 98.957334 
689.000000	 99.003236 
688.000000	 99.043285 
687.000000	 99.075933 
686.000000	 99.099193 
685.000000	 99.109771 
684.000000	 99.109433 
683.000000	 99.108247 
682.000000	 99.116952 
681.000000	 99.137127 
680.000000	 99.159803 
679.000000	 99.173092 
678.000000	 99.171677 
677.000000	 99.161958 
676.000000	 99.159829 
675.000000	 99.177064 
674.000000	 99.207582 
673.000000	 99.232009 
672.000000	 99.239191 
671.000000	 99.238976 
670.000000	 99.250645 
669.000000	 99.283026 
668.000000	 99.313507 
667.000000	 99.315949 
666.000000	 99.297228 
665.000000	 99.275209 
664.000000	 99.264324 
663.000000	 99.275009 
662.000000	 99.302880 
661.000000	 99.327615 
660.000000	 99.331806 
659.000000	 99.317250 
658.000000	 99.298450 
657.000000	 99.285439 
656.000000	 99.278930 
655.000000	 99.277828 
654.000000	 99.280990 
653.000000	 99.285196 
652.000000	 99.288910 
651.000000	 99.294963 
650.000000	 99.304732 

