4000.000000	99.565255 
3999.000000	99.562273 
3998.000000	99.559814 
3997.000000	99.559780 
3996.000000	99.561233 
3995.000000	99.561907 
3994.000000	99.560966 
3993.000000	99.559944 
3992.000000	99.561012 
3991.000000	99.564554 
3990.000000	99.568609 
3989.000000	99.570461 
3988.000000	99.568735 
3987.000000	99.564331 
3986.000000	99.559635 
3985.000000	99.556693 
3984.000000	99.555809 
3983.000000	99.555853 
3982.000000	99.555762 
3981.000000	99.555220 
3980.000000	99.554022 
3979.000000	99.551888 
3978.000000	99.549554 
3977.000000	99.549184 
3976.000000	99.552517 
3975.000000	99.558491 
3974.000000	99.563436 
3973.000000	99.563795 
3972.000000	99.558683 
3971.000000	99.550298 
3970.000000	99.542506 
3969.000000	99.538793 
3968.000000	99.540514 
3967.000000	99.546374 
3966.000000	99.553521 
3965.000000	99.559234 
3964.000000	99.561753 
3963.000000	99.560301 
3962.000000	99.555176 
3961.000000	99.547789 
3960.000000	99.540285 
3959.000000	99.534825 
3958.000000	99.532712 
3957.000000	99.533853 
3956.000000	99.536949 
3955.000000	99.540659 
3954.000000	99.544826 
3953.000000	99.550011 
3952.000000	99.555617 
3951.000000	99.559162 
3950.000000	99.558521 
3949.000000	99.554951 
3948.000000	99.552453 
3947.000000	99.553599 
3946.000000	99.557208 
3945.000000	99.560401 
3944.000000	99.561671 
3943.000000	99.561315 
3942.000000	99.559957 
3941.000000	99.557430 
3940.000000	99.553463 
3939.000000	99.549085 
3938.000000	99.546451 
3937.000000	99.546993 
3936.000000	99.549844 
3935.000000	99.552544 
3934.000000	99.553422 
3933.000000	99.552906 
3932.000000	99.552660 
3931.000000	99.553733 
3930.000000	99.556239 
3929.000000	99.559966 
3928.000000	99.563918 
3927.000000	99.566140 
3926.000000	99.565121 
3925.000000	99.561157 
3924.000000	99.555970 
3923.000000	99.550982 
3922.000000	99.546471 
3921.000000	99.542302 
3920.000000	99.538547 
3919.000000	99.535780 
3918.000000	99.535320 
3917.000000	99.538537 
3916.000000	99.545179 
3915.000000	99.552617 
3914.000000	99.557932 
3913.000000	99.559920 
3912.000000	99.559293 
3911.000000	99.557606 
3910.000000	99.555938 
3909.000000	99.554721 
3908.000000	99.553831 
3907.000000	99.552764 
3906.000000	99.551591 
3905.000000	99.551342 
3904.000000	99.552950 
3903.000000	99.555835 
3902.000000	99.558498 
3901.000000	99.560930 
3900.000000	99.564467 
3899.000000	99.568632 
3898.000000	99.571069 
3897.000000	99.570347 
3896.000000	99.567609 
3895.000000	99.564732 
3894.000000	99.562026 
3893.000000	99.559164 
3892.000000	99.558057 
3891.000000	99.561681 
3890.000000	99.568841 
3889.000000	99.573647 
3888.000000	99.571788 
3887.000000	99.565865 
3886.000000	99.563120 
3885.000000	99.565247 
3884.000000	99.564894 
3883.000000	99.555830 
3882.000000	99.542290 
3881.000000	99.535739 
3880.000000	99.542060 
3879.000000	99.553172 
3878.000000	99.556429 
3877.000000	99.549364 
3876.000000	99.542551 
3875.000000	99.548671 
3874.000000	99.567817 
3873.000000	99.585545 
3872.000000	99.587859 
3871.000000	99.576054 
3870.000000	99.564684 
3869.000000	99.563601 
3868.000000	99.567714 
3867.000000	99.568243 
3866.000000	99.565054 
3865.000000	99.563962 
3864.000000	99.567365 
3863.000000	99.570892 
3862.000000	99.569992 
3861.000000	99.566905 
3860.000000	99.568705 
3859.000000	99.580719 
3858.000000	99.601775 
3857.000000	99.623524 
3856.000000	99.634395 
3855.000000	99.630066 
3854.000000	99.620037 
3853.000000	99.614173 
3852.000000	99.607787 
3851.000000	99.593687 
3850.000000	99.574779 
3849.000000	99.559033 
3848.000000	99.550726 
3847.000000	99.549465 
3846.000000	99.553118 
3845.000000	99.560674 
3844.000000	99.572910 
3843.000000	99.588654 
3842.000000	99.602088 
3841.000000	99.607019 
3840.000000	99.602408 
3839.000000	99.593682 
3838.000000	99.587605 
3837.000000	99.584905 
3836.000000	99.580608 
3835.000000	99.571090 
3834.000000	99.558090 
3833.000000	99.547438 
3832.000000	99.543975 
3831.000000	99.546701 
3830.000000	99.549831 
3829.000000	99.548948 
3828.000000	99.546718 
3827.000000	99.551017 
3826.000000	99.565565 
3825.000000	99.584343 
3824.000000	99.596595 
3823.000000	99.597098 
3822.000000	99.591544 
3821.000000	99.589397 
3820.000000	99.591640 
3819.000000	99.591524 
3818.000000	99.584944 
3817.000000	99.576249 
3816.000000	99.572817 
3815.000000	99.573547 
3814.000000	99.570860 
3813.000000	99.563751 
3812.000000	99.559071 
3811.000000	99.562026 
3810.000000	99.569898 
3809.000000	99.575791 
3808.000000	99.578088 
3807.000000	99.581885 
3806.000000	99.589396 
3805.000000	99.595608 
3804.000000	99.595080 
3803.000000	99.589164 
3802.000000	99.584916 
3801.000000	99.584590 
3800.000000	99.580979 
3799.000000	99.569133 
3798.000000	99.554826 
3797.000000	99.548323 
3796.000000	99.552814 
3795.000000	99.560805 
3794.000000	99.562970 
3793.000000	99.557726 
3792.000000	99.550411 
3791.000000	99.546413 
3790.000000	99.546794 
3789.000000	99.549215 
3788.000000	99.551151 
3787.000000	99.551387 
3786.000000	99.550177 
3785.000000	99.548942 
3784.000000	99.549038 
3783.000000	99.550209 
3782.000000	99.551031 
3781.000000	99.550809 
3780.000000	99.550278 
3779.000000	99.550019 
3778.000000	99.548830 
3777.000000	99.545326 
3776.000000	99.540971 
3775.000000	99.539788 
3774.000000	99.544069 
3773.000000	99.551539 
3772.000000	99.557995 
3771.000000	99.561587 
3770.000000	99.563304 
3769.000000	99.564312 
3768.000000	99.564382 
3767.000000	99.563353 
3766.000000	99.562599 
3765.000000	99.562921 
3764.000000	99.562268 
3763.000000	99.557482 
3762.000000	99.549184 
3761.000000	99.542873 
3760.000000	99.543686 
3759.000000	99.551765 
3758.000000	99.563181 
3757.000000	99.574592 
3756.000000	99.585431 
3755.000000	99.596301 
3754.000000	99.607003 
3753.000000	99.615446 
3752.000000	99.618174 
3751.000000	99.614302 
3750.000000	99.608536 
3749.000000	99.605459 
3748.000000	99.602622 
3747.000000	99.593339 
3746.000000	99.576251 
3745.000000	99.562598 
3744.000000	99.563575 
3743.000000	99.570368 
3742.000000	99.569916 
3741.000000	99.564695 
3740.000000	99.563501 
3739.000000	99.568474 
3738.000000	99.574325 
3737.000000	99.576217 
3736.000000	99.574943 
3735.000000	99.573029 
3734.000000	99.570869 
3733.000000	99.568296 
3732.000000	99.566201 
3731.000000	99.564352 
3730.000000	99.560153 
3729.000000	99.552274 
3728.000000	99.544038 
3727.000000	99.540514 
3726.000000	99.541524 
3725.000000	99.540763 
3724.000000	99.534519 
3723.000000	99.526864 
3722.000000	99.524683 
3721.000000	99.529980 
3720.000000	99.538161 
3719.000000	99.544297 
3718.000000	99.548005 
3717.000000	99.551487 
3716.000000	99.555690 
3715.000000	99.559207 
3714.000000	99.560205 
3713.000000	99.558201 
3712.000000	99.553574 
3711.000000	99.547016 
3710.000000	99.539735 
3709.000000	99.533156 
3708.000000	99.528207 
3707.000000	99.524638 
3706.000000	99.521538 
3705.000000	99.518560 
3704.000000	99.517268 
3703.000000	99.520700 
3702.000000	99.529726 
3701.000000	99.540093 
3700.000000	99.544625 
3699.000000	99.539971 
3698.000000	99.530987 
3697.000000	99.526702 
3696.000000	99.531600 
3695.000000	99.542187 
3694.000000	99.552253 
3693.000000	99.559111 
3692.000000	99.563266 
3691.000000	99.564077 
3690.000000	99.559387 
3689.000000	99.551203 
3688.000000	99.545394 
3687.000000	99.543455 
3686.000000	99.542071 
3685.000000	99.539106 
3684.000000	99.535088 
3683.000000	99.531549 
3682.000000	99.529907 
3681.000000	99.531919 
3680.000000	99.538867 
3679.000000	99.547792 
3678.000000	99.551785 
3677.000000	99.547326 
3676.000000	99.539874 
3675.000000	99.537386 
3674.000000	99.539684 
3673.000000	99.541420 
3672.000000	99.540748 
3671.000000	99.540955 
3670.000000	99.543450 
3669.000000	99.543687 
3668.000000	99.538434 
3667.000000	99.530763 
3666.000000	99.525760 
3665.000000	99.525155 
3664.000000	99.526314 
3663.000000	99.525935 
3662.000000	99.523134 
3661.000000	99.519309 
3660.000000	99.516384 
3659.000000	99.516092 
3658.000000	99.520986 
3657.000000	99.533096 
3656.000000	99.549182 
3655.000000	99.560253 
3654.000000	99.559198 
3653.000000	99.547752 
3652.000000	99.535683 
3651.000000	99.533787 
3650.000000	99.542738 
3649.000000	99.550116 
3648.000000	99.546136 
3647.000000	99.534675 
3646.000000	99.524974 
3645.000000	99.520997 
3644.000000	99.520504 
3643.000000	99.519728 
3642.000000	99.516675 
3641.000000	99.512235 
3640.000000	99.509649 
3639.000000	99.511613 
3638.000000	99.516746 
3637.000000	99.519918 
3636.000000	99.518394 
3635.000000	99.516328 
3634.000000	99.519821 
3633.000000	99.527760 
3632.000000	99.531510 
3631.000000	99.525303 
3630.000000	99.516172 
3629.000000	99.516171 
3628.000000	99.522332 
3627.000000	99.520299 
3626.000000	99.506014 
3625.000000	99.490048 
3624.000000	99.484449 
3623.000000	99.491461 
3622.000000	99.503434 
3621.000000	99.511165 
3620.000000	99.511654 
3619.000000	99.508708 
3618.000000	99.506767 
3617.000000	99.505934 
3616.000000	99.504226 
3615.000000	99.501786 
3614.000000	99.500810 
3613.000000	99.502673 
3612.000000	99.506711 
3611.000000	99.511794 
3610.000000	99.518060 
3609.000000	99.525415 
3608.000000	99.531035 
3607.000000	99.531757 
3606.000000	99.528171 
3605.000000	99.524036 
3604.000000	99.522114 
3603.000000	99.521823 
3602.000000	99.521024 
3601.000000	99.519307 
3600.000000	99.518142 
3599.000000	99.518711 
3598.000000	99.520551 
3597.000000	99.522384 
3596.000000	99.524227 
3595.000000	99.527292 
3594.000000	99.531463 
3593.000000	99.534064 
3592.000000	99.531941 
3591.000000	99.524521 
3590.000000	99.515076 
3589.000000	99.508348 
3588.000000	99.506056 
3587.000000	99.506060 
3586.000000	99.506670 
3585.000000	99.508507 
3584.000000	99.512113 
3583.000000	99.516206 
3582.000000	99.518645 
3581.000000	99.518290 
3580.000000	99.515715 
3579.000000	99.512330 
3578.000000	99.509197 
3577.000000	99.506328 
3576.000000	99.502889 
3575.000000	99.498581 
3574.000000	99.494752 
3573.000000	99.493921 
3572.000000	99.497527 
3571.000000	99.504255 
3570.000000	99.511136 
3569.000000	99.516237 
3568.000000	99.519366 
3567.000000	99.520679 
3566.000000	99.520394 
3565.000000	99.519440 
3564.000000	99.519245 
3563.000000	99.520859 
3562.000000	99.523818 
3561.000000	99.526115 
3560.000000	99.525805 
3559.000000	99.522759 
3558.000000	99.518812 
3557.000000	99.516296 
3556.000000	99.516327 
3555.000000	99.518261 
3554.000000	99.520380 
3553.000000	99.521183 
3552.000000	99.520423 
3551.000000	99.518757 
3550.000000	99.516500 
3549.000000	99.513264 
3548.000000	99.508962 
3547.000000	99.504808 
3546.000000	99.503025 
3545.000000	99.504913 
3544.000000	99.509330 
3543.000000	99.513694 
3542.000000	99.516559 
3541.000000	99.518948 
3540.000000	99.522859 
3539.000000	99.528636 
3538.000000	99.534017 
3537.000000	99.535846 
3536.000000	99.532893 
3535.000000	99.526875 
3534.000000	99.521049 
3533.000000	99.517912 
3532.000000	99.517713 
3531.000000	99.518456 
3530.000000	99.517384 
3529.000000	99.513194 
3528.000000	99.507015 
3527.000000	99.501170 
3526.000000	99.497467 
3525.000000	99.497100 
3524.000000	99.501087 
3523.000000	99.509267 
3522.000000	99.518920 
3521.000000	99.526001 
3520.000000	99.528745 
3519.000000	99.529235 
3518.000000	99.530636 
3517.000000	99.533194 
3516.000000	99.534286 
3515.000000	99.532235 
3514.000000	99.528581 
3513.000000	99.525864 
3512.000000	99.524193 
3511.000000	99.521123 
3510.000000	99.514895 
3509.000000	99.507031 
3508.000000	99.501243 
3507.000000	99.500181 
3506.000000	99.503541 
3505.000000	99.508655 
3504.000000	99.512690 
3503.000000	99.515023 
3502.000000	99.517551 
3501.000000	99.521889 
3500.000000	99.526374 
3499.000000	99.526915 
3498.000000	99.521152 
3497.000000	99.511383 
3496.000000	99.502767 
3495.000000	99.498904 
3494.000000	99.499730 
3493.000000	99.503042 
3492.000000	99.506548 
3491.000000	99.508218 
3490.000000	99.506640 
3489.000000	99.502640 
3488.000000	99.499799 
3487.000000	99.501775 
3486.000000	99.508772 
3485.000000	99.517292 
3484.000000	99.523085 
3483.000000	99.523786 
3482.000000	99.519570 
3481.000000	99.512703 
3480.000000	99.506534 
3479.000000	99.503628 
3478.000000	99.504298 
3477.000000	99.507329 
3476.000000	99.511884 
3475.000000	99.517687 
3474.000000	99.523255 
3473.000000	99.525533 
3472.000000	99.522590 
3471.000000	99.516044 
3470.000000	99.509696 
3469.000000	99.506223 
3468.000000	99.505938 
3467.000000	99.507922 
3466.000000	99.510897 
3465.000000	99.513165 
3464.000000	99.513342 
3463.000000	99.511731 
3462.000000	99.509901 
3461.000000	99.508389 
3460.000000	99.505905 
3459.000000	99.501726 
3458.000000	99.497987 
3457.000000	99.498039 
3456.000000	99.502480 
3455.000000	99.507708 
3454.000000	99.509355 
3453.000000	99.506840 
3452.000000	99.503777 
3451.000000	99.503902 
3450.000000	99.507353 
3449.000000	99.511411 
3448.000000	99.513916 
3447.000000	99.514635 
3446.000000	99.513488 
3445.000000	99.509487 
3444.000000	99.502793 
3443.000000	99.496446 
3442.000000	99.494069 
3441.000000	99.495862 
3440.000000	99.498412 
3439.000000	99.498638 
3438.000000	99.496759 
3437.000000	99.495354 
3436.000000	99.496712 
3435.000000	99.501327 
3434.000000	99.507814 
3433.000000	99.513502 
3432.000000	99.515923 
3431.000000	99.514788 
3430.000000	99.512427 
3429.000000	99.511931 
3428.000000	99.514720 
3427.000000	99.519581 
3426.000000	99.523509 
3425.000000	99.523655 
3424.000000	99.519583 
3423.000000	99.514163 
3422.000000	99.511489 
3421.000000	99.513254 
3420.000000	99.517624 
3419.000000	99.521864 
3418.000000	99.525025 
3417.000000	99.527284 
3416.000000	99.527687 
3415.000000	99.524228 
3414.000000	99.516383 
3413.000000	99.506629 
3412.000000	99.498798 
3411.000000	99.495165 
3410.000000	99.495290 
3409.000000	99.497276 
3408.000000	99.499641 
3407.000000	99.502064 
3406.000000	99.504731 
3405.000000	99.507374 
3404.000000	99.509208 
3403.000000	99.509697 
3402.000000	99.509205 
3401.000000	99.508752 
3400.000000	99.509148 
3399.000000	99.510268 
3398.000000	99.511023 
3397.000000	99.510153 
3396.000000	99.507432 
3395.000000	99.504248 
3394.000000	99.502688 
3393.000000	99.503797 
3392.000000	99.506611 
3391.000000	99.508834 
3390.000000	99.508499 
3389.000000	99.505275 
3388.000000	99.500670 
3387.000000	99.497286 
3386.000000	99.497640 
3385.000000	99.502957 
3384.000000	99.512212 
3383.000000	99.521794 
3382.000000	99.526930 
3381.000000	99.525206 
3380.000000	99.519514 
3379.000000	99.516235 
3378.000000	99.518714 
3377.000000	99.523038 
3376.000000	99.522169 
3375.000000	99.514461 
3374.000000	99.506046 
3373.000000	99.503897 
3372.000000	99.508173 
3371.000000	99.513174 
3370.000000	99.514728 
3369.000000	99.514168 
3368.000000	99.514823 
3367.000000	99.516960 
3366.000000	99.517969 
3365.000000	99.516677 
3364.000000	99.515323 
3363.000000	99.516551 
3362.000000	99.519585 
3361.000000	99.520638 
3360.000000	99.517082 
3359.000000	99.510404 
3358.000000	99.504773 
3357.000000	99.503275 
3356.000000	99.505839 
3355.000000	99.510056 
3354.000000	99.513063 
3353.000000	99.512906 
3352.000000	99.509345 
3351.000000	99.504081 
3350.000000	99.499805 
3349.000000	99.498483 
3348.000000	99.500265 
3347.000000	99.503656 
3346.000000	99.506476 
3345.000000	99.507138 
3344.000000	99.505999 
3343.000000	99.505497 
3342.000000	99.507948 
3341.000000	99.512796 
3340.000000	99.516641 
3339.000000	99.516417 
3338.000000	99.512071 
3337.000000	99.505912 
3336.000000	99.500238 
3335.000000	99.496345 
3334.000000	99.495282 
3333.000000	99.498190 
3332.000000	99.505166 
3331.000000	99.513946 
3330.000000	99.520333 
3329.000000	99.520817 
3328.000000	99.515460 
3327.000000	99.508060 
3326.000000	99.502858 
3325.000000	99.501064 
3324.000000	99.500960 
3323.000000	99.501007 
3322.000000	99.501749 
3321.000000	99.504578 
3320.000000	99.509706 
3319.000000	99.515680 
3318.000000	99.520131 
3317.000000	99.520903 
3316.000000	99.517710 
3315.000000	99.513227 
3314.000000	99.511360 
3313.000000	99.513496 
3312.000000	99.517224 
3311.000000	99.519318 
3310.000000	99.518915 
3309.000000	99.517044 
3308.000000	99.514573 
3307.000000	99.512244 
3306.000000	99.511585 
3305.000000	99.513671 
3304.000000	99.517314 
3303.000000	99.520356 
3302.000000	99.522474 
3301.000000	99.524544 
3300.000000	99.525070 
3299.000000	99.519949 
3298.000000	99.507452 
3297.000000	99.492073 
3296.000000	99.481660 
3295.000000	99.480968 
3294.000000	99.488782 
3293.000000	99.500358 
3292.000000	99.511334 
3291.000000	99.519587 
3290.000000	99.524862 
3289.000000	99.527464 
3288.000000	99.527371 
3287.000000	99.524737 
3286.000000	99.521237 
3285.000000	99.519995 
3284.000000	99.523139 
3283.000000	99.529523 
3282.000000	99.535523 
3281.000000	99.538125 
3280.000000	99.536843 
3279.000000	99.533038 
3278.000000	99.528406 
3277.000000	99.524250 
3276.000000	99.521184 
3275.000000	99.518862 
3274.000000	99.516444 
3273.000000	99.513860 
3272.000000	99.512267 
3271.000000	99.512625 
3270.000000	99.514007 
3269.000000	99.514067 
3268.000000	99.511437 
3267.000000	99.507169 
3266.000000	99.503436 
3265.000000	99.501173 
3264.000000	99.499678 
3263.000000	99.498593 
3262.000000	99.499287 
3261.000000	99.503396 
3260.000000	99.510269 
3259.000000	99.516793 
3258.000000	99.520001 
3257.000000	99.519337 
3256.000000	99.516444 
3255.000000	99.513884 
3254.000000	99.514448 
3253.000000	99.519939 
3252.000000	99.528782 
3251.000000	99.535668 
3250.000000	99.536024 
3249.000000	99.531412 
3248.000000	99.528416 
3247.000000	99.530953 
3246.000000	99.535221 
3245.000000	99.534056 
3244.000000	99.525328 
3243.000000	99.513903 
3242.000000	99.505684 
3241.000000	99.502141 
3240.000000	99.501172 
3239.000000	99.501267 
3238.000000	99.503189 
3237.000000	99.508035 
3236.000000	99.514721 
3235.000000	99.519694 
3234.000000	99.519350 
3233.000000	99.513258 
3232.000000	99.504955 
3231.000000	99.498918 
3230.000000	99.496709 
3229.000000	99.496653 
3228.000000	99.496742 
3227.000000	99.496481 
3226.000000	99.496155 
3225.000000	99.496198 
3224.000000	99.497761 
3223.000000	99.501994 
3222.000000	99.507696 
3221.000000	99.511442 
3220.000000	99.511550 
3219.000000	99.510459 
3218.000000	99.511247 
3217.000000	99.513140 
3216.000000	99.512913 
3215.000000	99.509987 
3214.000000	99.507411 
3213.000000	99.507508 
3212.000000	99.508996 
3211.000000	99.509214 
3210.000000	99.507104 
3209.000000	99.502967 
3208.000000	99.497258 
3207.000000	99.491358 
3206.000000	99.488318 
3205.000000	99.490679 
3204.000000	99.497436 
3203.000000	99.504312 
3202.000000	99.507345 
3201.000000	99.505852 
3200.000000	99.502323 
3199.000000	99.500251 
3198.000000	99.501817 
3197.000000	99.506521 
3196.000000	99.511411 
3195.000000	99.513068 
3194.000000	99.510207 
3193.000000	99.504821 
3192.000000	99.500583 
3191.000000	99.499522 
3190.000000	99.500089 
3189.000000	99.499042 
3188.000000	99.495503 
3187.000000	99.492548 
3186.000000	99.494139 
3185.000000	99.501009 
3184.000000	99.510218 
3183.000000	99.517908 
3182.000000	99.521266 
3181.000000	99.518685 
3180.000000	99.510466 
3179.000000	99.500107 
3178.000000	99.492997 
3177.000000	99.492192 
3176.000000	99.495922 
3175.000000	99.499917 
3174.000000	99.501463 
3173.000000	99.500823 
3172.000000	99.499975 
3171.000000	99.501007 
3170.000000	99.504743 
3169.000000	99.509496 
3168.000000	99.511598 
3167.000000	99.508632 
3166.000000	99.502174 
3165.000000	99.496395 
3164.000000	99.494068 
3163.000000	99.494944 
3162.000000	99.497756 
3161.000000	99.501947 
3160.000000	99.506592 
3159.000000	99.509190 
3158.000000	99.507522 
3157.000000	99.502611 
3156.000000	99.498157 
3155.000000	99.496250 
3154.000000	99.494765 
3153.000000	99.490252 
3152.000000	99.483010 
3151.000000	99.477674 
3150.000000	99.478155 
3149.000000	99.483150 
3148.000000	99.487718 
3147.000000	99.488776 
3146.000000	99.487915 
3145.000000	99.488792 
3144.000000	99.492755 
3143.000000	99.497547 
3142.000000	99.499948 
3141.000000	99.499224 
3140.000000	99.497911 
3139.000000	99.499113 
3138.000000	99.502901 
3137.000000	99.505759 
3136.000000	99.504123 
3135.000000	99.498307 
3134.000000	99.492290 
3133.000000	99.489434 
3132.000000	99.489028 
3131.000000	99.487514 
3130.000000	99.482938 
3129.000000	99.477690 
3128.000000	99.476603 
3127.000000	99.482232 
3126.000000	99.492115 
3125.000000	99.500892 
3124.000000	99.504981 
3123.000000	99.504663 
3122.000000	99.501914 
3121.000000	99.497638 
3120.000000	99.491961 
3119.000000	99.486150 
3118.000000	99.482405 
3117.000000	99.481534 
3116.000000	99.482098 
3115.000000	99.482361 
3114.000000	99.482209 
3113.000000	99.482615 
3112.000000	99.484019 
3111.000000	99.486073 
3110.000000	99.488639 
3109.000000	99.491962 
3108.000000	99.495437 
3107.000000	99.496933 
3106.000000	99.494634 
3105.000000	99.489958 
3104.000000	99.487438 
3103.000000	99.490363 
3102.000000	99.496944 
3101.000000	99.502258 
3100.000000	99.503920 
3099.000000	99.503839 
3098.000000	99.504178 
3097.000000	99.504258 
3096.000000	99.502981 
3095.000000	99.502031 
3094.000000	99.503926 
3093.000000	99.507825 
3092.000000	99.509873 
3091.000000	99.507701 
3090.000000	99.502751 
3089.000000	99.498157 
3088.000000	99.495855 
3087.000000	99.495665 
3086.000000	99.495703 
3085.000000	99.493851 
3084.000000	99.490198 
3083.000000	99.487626 
3082.000000	99.488441 
3081.000000	99.491000 
3080.000000	99.491871 
3079.000000	99.491009 
3078.000000	99.492176 
3077.000000	99.497816 
3076.000000	99.505945 
3075.000000	99.512772 
3074.000000	99.516073 
3073.000000	99.515100 
3072.000000	99.509703 
3071.000000	99.501449 
3070.000000	99.494101 
3069.000000	99.491082 
3068.000000	99.492798 
3067.000000	99.497116 
3066.000000	99.501444 
3065.000000	99.503640 
3064.000000	99.502325 
3063.000000	99.497772 
3062.000000	99.491976 
3061.000000	99.487083 
3060.000000	99.484238 
3059.000000	99.484030 
3058.000000	99.486755 
3057.000000	99.491569 
3056.000000	99.496518 
3055.000000	99.500052 
3054.000000	99.501503 
3053.000000	99.499999 
3052.000000	99.494793 
3051.000000	99.487375 
3050.000000	99.481320 
3049.000000	99.478781 
3048.000000	99.478666 
3047.000000	99.479316 
3046.000000	99.480944 
3045.000000	99.483781 
3044.000000	99.485989 
3043.000000	99.486095 
3042.000000	99.486207 
3041.000000	99.489898 
3040.000000	99.497144 
3039.000000	99.503838 
3038.000000	99.506430 
3037.000000	99.505010 
3036.000000	99.501636 
3035.000000	99.497723 
3034.000000	99.493760 
3033.000000	99.490014 
3032.000000	99.486755 
3031.000000	99.484754 
3030.000000	99.485811 
3029.000000	99.491264 
3028.000000	99.499326 
3027.000000	99.505191 
3026.000000	99.505121 
3025.000000	99.500129 
3024.000000	99.494848 
3023.000000	99.492824 
3022.000000	99.493438 
3021.000000	99.493341 
3020.000000	99.490297 
3019.000000	99.485262 
3018.000000	99.480776 
3017.000000	99.478017 
3016.000000	99.476224 
3015.000000	99.474916 
3014.000000	99.475404 
3013.000000	99.479267 
3012.000000	99.485961 
3011.000000	99.492784 
3010.000000	99.496928 
3009.000000	99.496960 
3008.000000	99.493049 
3007.000000	99.487173 
3006.000000	99.483088 
3005.000000	99.484491 
3004.000000	99.491706 
3003.000000	99.500245 
3002.000000	99.503786 
3001.000000	99.499604 
3000.000000	99.491248 
2999.000000	99.485181 
2998.000000	99.484317 
2997.000000	99.485430 
2996.000000	99.483502 
2995.000000	99.477726 
2994.000000	99.471891 
2993.000000	99.469467 
2992.000000	99.470355 
2991.000000	99.472605 
2990.000000	99.474940 
2989.000000	99.476431 
2988.000000	99.475734 
2987.000000	99.472717 
2986.000000	99.469818 
2985.000000	99.469739 
2984.000000	99.472110 
2983.000000	99.474049 
2982.000000	99.473871 
2981.000000	99.472845 
2980.000000	99.473337 
2979.000000	99.476439 
2978.000000	99.481361 
2977.000000	99.485824 
2976.000000	99.487021 
2975.000000	99.483814 
2974.000000	99.478638 
2973.000000	99.476122 
2972.000000	99.478822 
2971.000000	99.484770 
2970.000000	99.489728 
2969.000000	99.491392 
2968.000000	99.490887 
2967.000000	99.490787 
2966.000000	99.492563 
2965.000000	99.495990 
2964.000000	99.500075 
2963.000000	99.503769 
2962.000000	99.505925 
2961.000000	99.505434 
2960.000000	99.502101 
2959.000000	99.497349 
2958.000000	99.493629 
2957.000000	99.492972 
2956.000000	99.495893 
2955.000000	99.501022 
2954.000000	99.505456 
2953.000000	99.506435 
2952.000000	99.503933 
2951.000000	99.501306 
2950.000000	99.502046 
2949.000000	99.505864 
2948.000000	99.509276 
2947.000000	99.509973 
2946.000000	99.509082 
2945.000000	99.508740 
2944.000000	99.509313 
2943.000000	99.510058 
2942.000000	99.510973 
2941.000000	99.512540 
2940.000000	99.514595 
2939.000000	99.516781 
2938.000000	99.519354 
2937.000000	99.522364 
2936.000000	99.524922 
2935.000000	99.526610 
2934.000000	99.528793 
2933.000000	99.532981 
2932.000000	99.538421 
2931.000000	99.542785 
2930.000000	99.544778 
2929.000000	99.544594 
2928.000000	99.542372 
2927.000000	99.538249 
2926.000000	99.534023 
2925.000000	99.532676 
2924.000000	99.535207 
2923.000000	99.539036 
2922.000000	99.540423 
2921.000000	99.537981 
2920.000000	99.533469 
2919.000000	99.529718 
2918.000000	99.528052 
2917.000000	99.527172 
2916.000000	99.524371 
2915.000000	99.518254 
2914.000000	99.510336 
2913.000000	99.503557 
2912.000000	99.499494 
2911.000000	99.497798 
2910.000000	99.498222 
2909.000000	99.501813 
2908.000000	99.509198 
2907.000000	99.518199 
2906.000000	99.524164 
2905.000000	99.523167 
2904.000000	99.514990 
2903.000000	99.503203 
2902.000000	99.492918 
2901.000000	99.487983 
2900.000000	99.489652 
2899.000000	99.496380 
2898.000000	99.504178 
2897.000000	99.508325 
2896.000000	99.506331 
2895.000000	99.499888 
2894.000000	99.493351 
2893.000000	99.490151 
2892.000000	99.491001 
2891.000000	99.494816 
2890.000000	99.499806 
2889.000000	99.503611 
2888.000000	99.504222 
2887.000000	99.501871 
2886.000000	99.498897 
2885.000000	99.496928 
2884.000000	99.495393 
2883.000000	99.493653 
2882.000000	99.492967 
2881.000000	99.494525 
2880.000000	99.496667 
2879.000000	99.496491 
2878.000000	99.494124 
2877.000000	99.493228 
2876.000000	99.496508 
2875.000000	99.502185 
2874.000000	99.505896 
2873.000000	99.505447 
2872.000000	99.502930 
2871.000000	99.502460 
2870.000000	99.506026 
2869.000000	99.511206 
2868.000000	99.513041 
2867.000000	99.508785 
2866.000000	99.501079 
2865.000000	99.495893 
2864.000000	99.497024 
2863.000000	99.502854 
2862.000000	99.508531 
2861.000000	99.510828 
2860.000000	99.510768 
2859.000000	99.511893 
2858.000000	99.516388 
2857.000000	99.523028 
2856.000000	99.528699 
2855.000000	99.531413 
2854.000000	99.531272 
2853.000000	99.528910 
2852.000000	99.524247 
2851.000000	99.517282 
2850.000000	99.509240 
2849.000000	99.502182 
2848.000000	99.497915 
2847.000000	99.497553 
2846.000000	99.501051 
2845.000000	99.506337 
2844.000000	99.509757 
2843.000000	99.508734 
2842.000000	99.503989 
2841.000000	99.498577 
2840.000000	99.495175 
2839.000000	99.494708 
2838.000000	99.496554 
2837.000000	99.498914 
2836.000000	99.499726 
2835.000000	99.498626 
2834.000000	99.497569 
2833.000000	99.498191 
2832.000000	99.499047 
2831.000000	99.497221 
2830.000000	99.492709 
2829.000000	99.489349 
2828.000000	99.490725 
2827.000000	99.496347 
2826.000000	99.502513 
2825.000000	99.505900 
2824.000000	99.505620 
2823.000000	99.502798 
2822.000000	99.499165 
2821.000000	99.495901 
2820.000000	99.493309 
2819.000000	99.491581 
2818.000000	99.491591 
2817.000000	99.494106 
2816.000000	99.498171 
2815.000000	99.501202 
2814.000000	99.501176 
2813.000000	99.498195 
2812.000000	99.493756 
2811.000000	99.489321 
2810.000000	99.485890 
2809.000000	99.483997 
2808.000000	99.483326 
2807.000000	99.482977 
2806.000000	99.482877 
2805.000000	99.484495 
2804.000000	99.489230 
2803.000000	99.496165 
2802.000000	99.502043 
2801.000000	99.503684 
2800.000000	99.500379 
2799.000000	99.494398 
2798.000000	99.489633 
2797.000000	99.489245 
2796.000000	99.493405 
2795.000000	99.498935 
2794.000000	99.501865 
2793.000000	99.501135 
2792.000000	99.499620 
2791.000000	99.500889 
2790.000000	99.504908 
2789.000000	99.507626 
2788.000000	99.505195 
2787.000000	99.498172 
2786.000000	99.491047 
2785.000000	99.488019 
2784.000000	99.489884 
2783.000000	99.494691 
2782.000000	99.499983 
2781.000000	99.503837 
2780.000000	99.504839 
2779.000000	99.502559 
2778.000000	99.498298 
2777.000000	99.494593 
2776.000000	99.493474 
2775.000000	99.495106 
2774.000000	99.497949 
2773.000000	99.500059 
2772.000000	99.500388 
2771.000000	99.499168 
2770.000000	99.497235 
2769.000000	99.495267 
2768.000000	99.493865 
2767.000000	99.493857 
2766.000000	99.495601 
2765.000000	99.498018 
2764.000000	99.499455 
2763.000000	99.499864 
2762.000000	99.500933 
2761.000000	99.503254 
2760.000000	99.504541 
2759.000000	99.502082 
2758.000000	99.496419 
2757.000000	99.491152 
2756.000000	99.489229 
2755.000000	99.490585 
2754.000000	99.493266 
2753.000000	99.495360 
2752.000000	99.495510 
2751.000000	99.493013 
2750.000000	99.488457 
2749.000000	99.483701 
2748.000000	99.480469 
2747.000000	99.479132 
2746.000000	99.478956 
2745.000000	99.478926 
2744.000000	99.478185 
2743.000000	99.476698 
2742.000000	99.476120 
2741.000000	99.478990 
2740.000000	99.485724 
2739.000000	99.492808 
2738.000000	99.495515 
2737.000000	99.492835 
2736.000000	99.488508 
2735.000000	99.486377 
2734.000000	99.485884 
2733.000000	99.483684 
2732.000000	99.479183 
2731.000000	99.476179 
2730.000000	99.478127 
2729.000000	99.483600 
2728.000000	99.488407 
2727.000000	99.491182 
2726.000000	99.494324 
2725.000000	99.499209 
2724.000000	99.503130 
2723.000000	99.502640 
2722.000000	99.498314 
2721.000000	99.494187 
2720.000000	99.492943 
2719.000000	99.493340 
2718.000000	99.492363 
2717.000000	99.488620 
2716.000000	99.483587 
2715.000000	99.480491 
2714.000000	99.481968 
2713.000000	99.487799 
2712.000000	99.494764 
2711.000000	99.499519 
2710.000000	99.501574 
2709.000000	99.502600 
2708.000000	99.503155 
2707.000000	99.501625 
2706.000000	99.496848 
2705.000000	99.490417 
2704.000000	99.485383 
2703.000000	99.483455 
2702.000000	99.484335 
2701.000000	99.487062 
2700.000000	99.490799 
2699.000000	99.494513 
2698.000000	99.497046 
2697.000000	99.497944 
2696.000000	99.497740 
2695.000000	99.497218 
2694.000000	99.496755 
2693.000000	99.496523 
2692.000000	99.496871 
2691.000000	99.498047 
2690.000000	99.499566 
2689.000000	99.500124 
2688.000000	99.498460 
2687.000000	99.494515 
2686.000000	99.489877 
2685.000000	99.486846 
2684.000000	99.486704 
2683.000000	99.488722 
2682.000000	99.491059 
2681.000000	99.492649 
2680.000000	99.493915 
2679.000000	99.495529 
2678.000000	99.497066 
2677.000000	99.497634 
2676.000000	99.497550 
2675.000000	99.498261 
2674.000000	99.500137 
2673.000000	99.501283 
2672.000000	99.499495 
2671.000000	99.494970 
2670.000000	99.490142 
2669.000000	99.487132 
2668.000000	99.486413 
2667.000000	99.487879 
2666.000000	99.491711 
2665.000000	99.497353 
2664.000000	99.502504 
2663.000000	99.504343 
2662.000000	99.501971 
2661.000000	99.497377 
2660.000000	99.493924 
2659.000000	99.493743 
2658.000000	99.496076 
2657.000000	99.497925 
2656.000000	99.496667 
2655.000000	99.492261 
2654.000000	99.486935 
2653.000000	99.483060 
2652.000000	99.481831 
2651.000000	99.483457 
2650.000000	99.487217 
2649.000000	99.490926 
2648.000000	99.491578 
2647.000000	99.487580 
2646.000000	99.480244 
2645.000000	99.472878 
2644.000000	99.468745 
2643.000000	99.469556 
2642.000000	99.474577 
2641.000000	99.480781 
2640.000000	99.485133 
2639.000000	99.487483 
2638.000000	99.490244 
2637.000000	99.494657 
2636.000000	99.498630 
2635.000000	99.499410 
2634.000000	99.497470 
2633.000000	99.496596 
2632.000000	99.500532 
2631.000000	99.509902 
2630.000000	99.521160 
2629.000000	99.527812 
2628.000000	99.524595 
2627.000000	99.512587 
2626.000000	99.499391 
2625.000000	99.492343 
2624.000000	99.491886 
2623.000000	99.492924 
2622.000000	99.491623 
2621.000000	99.488518 
2620.000000	99.485459 
2619.000000	99.482585 
2618.000000	99.479349 
2617.000000	99.476502 
2616.000000	99.475464 
2615.000000	99.476453 
2614.000000	99.478286 
2613.000000	99.479754 
2612.000000	99.480750 
2611.000000	99.482103 
2610.000000	99.484231 
2609.000000	99.485982 
2608.000000	99.485568 
2607.000000	99.483150 
2606.000000	99.481544 
2605.000000	99.483365 
2604.000000	99.488209 
2603.000000	99.493631 
2602.000000	99.497846 
2601.000000	99.500143 
2600.000000	99.499915 
2599.000000	99.497396 
2598.000000	99.494768 
2597.000000	99.494369 
2596.000000	99.496001 
2595.000000	99.497828 
2594.000000	99.499272 
2593.000000	99.500652 
2592.000000	99.500460 
2591.000000	99.496163 
2590.000000	99.488331 
2589.000000	99.481087 
2588.000000	99.477266 
2587.000000	99.475576 
2586.000000	99.473947 
2585.000000	99.473321 
2584.000000	99.475972 
2583.000000	99.481574 
2582.000000	99.487165 
2581.000000	99.490483 
2580.000000	99.491676 
2579.000000	99.491907 
2578.000000	99.491429 
2577.000000	99.489118 
2576.000000	99.483644 
2575.000000	99.475599 
2574.000000	99.468575 
2573.000000	99.466841 
2572.000000	99.471005 
2571.000000	99.476715 
2570.000000	99.478547 
2569.000000	99.474871 
2568.000000	99.468639 
2567.000000	99.464203 
2566.000000	99.463904 
2565.000000	99.466981 
2564.000000	99.470918 
2563.000000	99.474015 
2562.000000	99.476884 
2561.000000	99.481132 
2560.000000	99.486833 
2559.000000	99.492187 
2558.000000	99.495601 
2557.000000	99.496944 
2556.000000	99.496559 
2555.000000	99.494426 
2554.000000	99.491036 
2553.000000	99.488099 
2552.000000	99.487389 
2551.000000	99.489173 
2550.000000	99.491957 
2549.000000	99.493290 
2548.000000	99.491002 
2547.000000	99.484914 
2546.000000	99.477733 
2545.000000	99.473213 
2544.000000	99.472866 
2543.000000	99.475337 
2542.000000	99.479213 
2541.000000	99.484962 
2540.000000	99.493013 
2539.000000	99.500933 
2538.000000	99.504224 
2537.000000	99.500456 
2536.000000	99.492242 
2535.000000	99.485612 
2534.000000	99.484983 
2533.000000	99.489321 
2532.000000	99.493411 
2531.000000	99.493054 
2530.000000	99.488695 
2529.000000	99.484177 
2528.000000	99.483296 
2527.000000	99.487866 
2526.000000	99.496768 
2525.000000	99.504934 
2524.000000	99.505295 
2523.000000	99.495093 
2522.000000	99.479883 
2521.000000	99.468503 
2520.000000	99.464350 
2519.000000	99.464343 
2518.000000	99.465646 
2517.000000	99.469054 
2516.000000	99.474991 
2515.000000	99.480686 
2514.000000	99.483862 
2513.000000	99.485968 
2512.000000	99.489015 
2511.000000	99.491746 
2510.000000	99.491864 
2509.000000	99.490087 
2508.000000	99.488998 
2507.000000	99.489305 
2506.000000	99.489987 
2505.000000	99.490969 
2504.000000	99.492972 
2503.000000	99.495560 
2502.000000	99.497649 
2501.000000	99.498917 
2500.000000	99.498461 
2499.000000	99.493637 
2498.000000	99.483493 
2497.000000	99.472565 
2496.000000	99.467816 
2495.000000	99.471718 
2494.000000	99.480920 
2493.000000	99.491245 
2492.000000	99.500679 
2491.000000	99.507507 
2490.000000	99.509387 
2489.000000	99.505753 
2488.000000	99.498761 
2487.000000	99.491154 
2486.000000	99.485525 
2485.000000	99.485454 
2484.000000	99.493145 
2483.000000	99.504453 
2482.000000	99.510362 
2481.000000	99.506407 
2480.000000	99.497880 
2479.000000	99.492999 
2478.000000	99.493855 
2477.000000	99.497371 
2476.000000	99.501997 
2475.000000	99.507998 
2474.000000	99.512265 
2473.000000	99.508927 
2472.000000	99.496881 
2471.000000	99.482642 
2470.000000	99.473698 
2469.000000	99.471896 
2468.000000	99.474844 
2467.000000	99.480343 
2466.000000	99.486510 
2465.000000	99.490197 
2464.000000	99.489265 
2463.000000	99.485824 
2462.000000	99.484130 
2461.000000	99.485263 
2460.000000	99.486374 
2459.000000	99.485294 
2458.000000	99.483450 
2457.000000	99.483495 
2456.000000	99.485914 
2455.000000	99.488871 
2454.000000	99.489996 
2453.000000	99.487726 
2452.000000	99.482505 
2451.000000	99.477670 
2450.000000	99.477662 
2449.000000	99.483662 
2448.000000	99.491406 
2447.000000	99.494506 
2446.000000	99.490018 
2445.000000	99.480716 
2444.000000	99.472676 
2443.000000	99.470726 
2442.000000	99.474752 
2441.000000	99.479454 
2440.000000	99.479087 
2439.000000	99.473816 
2438.000000	99.470471 
2437.000000	99.475675 
2436.000000	99.489076 
2435.000000	99.504564 
2434.000000	99.516576 
2433.000000	99.522933 
2432.000000	99.523036 
2431.000000	99.517308 
2430.000000	99.509082 
2429.000000	99.503393 
2428.000000	99.501614 
2427.000000	99.499529 
2426.000000	99.493143 
2425.000000	99.484818 
2424.000000	99.480861 
2423.000000	99.483523 
2422.000000	99.488105 
2421.000000	99.488671 
2420.000000	99.484900 
2419.000000	99.482286 
2418.000000	99.486329 
2417.000000	99.497166 
2416.000000	99.509489 
2415.000000	99.517357 
2414.000000	99.519042 
2413.000000	99.517075 
2412.000000	99.513915 
2411.000000	99.508899 
2410.000000	99.500379 
2409.000000	99.489674 
2408.000000	99.480907 
2407.000000	99.476902 
2406.000000	99.476935 
2405.000000	99.478901 
2404.000000	99.481960 
2403.000000	99.486069 
2402.000000	99.490225 
2401.000000	99.492737 
2400.000000	99.492853 
2399.000000	99.491011 
2398.000000	99.487821 
2397.000000	99.484036 
2396.000000	99.481420 
2395.000000	99.482068 
2394.000000	99.485955 
2393.000000	99.489886 
2392.000000	99.490099 
2391.000000	99.486002 
2390.000000	99.480612 
2389.000000	99.477096 
2388.000000	99.475497 
2387.000000	99.473429 
2386.000000	99.469598 
2385.000000	99.465738 
2384.000000	99.464780 
2383.000000	99.467578 
2382.000000	99.471957 
2381.000000	99.474939 
2380.000000	99.475675 
2379.000000	99.476090 
2378.000000	99.478434 
2377.000000	99.482038 
2376.000000	99.482865 
2375.000000	99.477876 
2374.000000	99.470222 
2373.000000	99.468123 
2372.000000	99.476289 
2371.000000	99.489174 
2370.000000	99.495806 
2369.000000	99.491918 
2368.000000	99.484098 
2367.000000	99.480149 
2366.000000	99.478399 
2365.000000	99.470451 
2364.000000	99.452933 
2363.000000	99.432899 
2362.000000	99.422863 
2361.000000	99.429799 
2360.000000	99.448524 
2359.000000	99.466711 
2358.000000	99.473852 
2357.000000	99.470082 
2356.000000	99.463883 
2355.000000	99.461931 
2354.000000	99.464073 
2353.000000	99.465781 
2352.000000	99.466078 
2351.000000	99.465978 
2350.000000	99.464700 
2349.000000	99.461020 
2348.000000	99.454282 
2347.000000	99.448135 
2346.000000	99.447039 
2345.000000	99.453692 
2344.000000	99.465977 
2343.000000	99.478325 
2342.000000	99.487950 
2341.000000	99.492342 
2340.000000	99.490823 
2339.000000	99.484554 
2338.000000	99.476647 
2337.000000	99.468798 
2336.000000	99.461769 
2335.000000	99.456511 
2334.000000	99.454743 
2333.000000	99.454398 
2332.000000	99.452241 
2331.000000	99.448185 
2330.000000	99.447175 
2329.000000	99.453143 
2328.000000	99.460466 
2327.000000	99.461544 
2326.000000	99.453991 
2325.000000	99.443982 
2324.000000	99.437278 
2323.000000	99.432529 
2322.000000	99.426281 
2321.000000	99.418880 
2320.000000	99.416870 
2319.000000	99.423990 
2318.000000	99.437860 
2317.000000	99.451586 
2316.000000	99.460082 
2315.000000	99.462243 
2314.000000	99.460379 
2313.000000	99.458041 
2312.000000	99.457198 
2311.000000	99.457375 
2310.000000	99.457279 
2309.000000	99.458201 
2308.000000	99.462523 
2307.000000	99.469318 
2306.000000	99.473080 
2305.000000	99.469825 
2304.000000	99.462564 
2303.000000	99.457784 
2302.000000	99.457650 
2301.000000	99.458906 
2300.000000	99.459779 
2299.000000	99.463887 
2298.000000	99.474520 
2297.000000	99.488101 
2296.000000	99.495667 
2295.000000	99.491338 
2294.000000	99.476644 
2293.000000	99.458798 
2292.000000	99.445534 
2291.000000	99.441291 
2290.000000	99.444813 
2289.000000	99.450376 
2288.000000	99.452635 
2287.000000	99.450845 
2286.000000	99.447489 
2285.000000	99.444000 
2284.000000	99.440161 
2283.000000	99.437010 
2282.000000	99.437158 
2281.000000	99.440890 
2280.000000	99.444740 
2279.000000	99.445533 
2278.000000	99.444187 
2277.000000	99.443419 
2276.000000	99.443566 
2275.000000	99.443283 
2274.000000	99.443743 
2273.000000	99.448961 
2272.000000	99.460538 
2271.000000	99.474130 
2270.000000	99.482982 
2269.000000	99.484353 
2268.000000	99.480381 
2267.000000	99.472664 
2266.000000	99.459359 
2265.000000	99.440530 
2264.000000	99.424059 
2263.000000	99.421060 
2262.000000	99.433633 
2261.000000	99.451082 
2260.000000	99.461550 
2259.000000	99.464995 
2258.000000	99.470806 
2257.000000	99.483836 
2256.000000	99.498004 
2255.000000	99.504580 
2254.000000	99.502616 
2253.000000	99.498002 
2252.000000	99.494371 
2251.000000	99.488744 
2250.000000	99.476991 
2249.000000	99.461711 
2248.000000	99.452337 
2247.000000	99.455783 
2246.000000	99.467555 
2245.000000	99.475086 
2244.000000	99.471214 
2243.000000	99.461534 
2242.000000	99.455641 
2241.000000	99.454141 
2240.000000	99.449380 
2239.000000	99.438179 
2238.000000	99.427943 
2237.000000	99.428332 
2236.000000	99.440840 
2235.000000	99.458429 
2234.000000	99.471972 
2233.000000	99.475290 
2232.000000	99.467821 
2231.000000	99.455276 
2230.000000	99.445524 
2229.000000	99.441791 
2228.000000	99.441670 
2227.000000	99.443322 
2226.000000	99.448703 
2225.000000	99.458765 
2224.000000	99.469727 
2223.000000	99.477270 
2222.000000	99.480955 
2221.000000	99.481585 
2220.000000	99.478265 
2219.000000	99.471989 
2218.000000	99.467783 
2217.000000	99.467542 
2216.000000	99.464117 
2215.000000	99.449988 
2214.000000	99.430601 
2213.000000	99.421421 
2212.000000	99.430434 
2211.000000	99.449674 
2210.000000	99.465504 
2209.000000	99.471398 
2208.000000	99.468951 
2207.000000	99.462737 
2206.000000	99.458249 
2205.000000	99.459846 
2204.000000	99.465454 
2203.000000	99.466594 
2202.000000	99.458803 
2201.000000	99.449719 
2200.000000	99.451002 
2199.000000	99.462974 
2198.000000	99.473009 
2197.000000	99.470223 
2196.000000	99.456986 
2195.000000	99.443740 
2194.000000	99.436856 
2193.000000	99.435187 
2192.000000	99.434950 
2191.000000	99.432388 
2190.000000	99.422306 
2189.000000	99.400434 
2188.000000	99.370778 
2187.000000	99.347110 
2186.000000	99.342582 
2185.000000	99.357494 
2184.000000	99.379440 
2183.000000	99.395310 
2182.000000	99.400728 
2181.000000	99.398784 
2180.000000	99.393997 
2179.000000	99.389319 
2178.000000	99.386467 
2177.000000	99.387020 
2176.000000	99.393711 
2175.000000	99.409958 
2174.000000	99.434887 
2173.000000	99.458736 
2172.000000	99.468380 
2171.000000	99.460153 
2170.000000	99.443581 
2169.000000	99.429447 
2168.000000	99.417750 
2167.000000	99.402924 
2166.000000	99.388747 
2165.000000	99.389409 
2164.000000	99.412241 
2163.000000	99.445185 
2162.000000	99.466583 
2161.000000	99.465481 
2160.000000	99.449613 
2159.000000	99.434936 
2158.000000	99.430639 
2157.000000	99.434804 
2156.000000	99.441205 
2155.000000	99.446936 
2154.000000	99.453569 
2153.000000	99.463236 
2152.000000	99.475004 
2151.000000	99.485236 
2150.000000	99.490568 
2149.000000	99.489363 
2148.000000	99.480850 
2147.000000	99.465361 
2146.000000	99.446702 
2145.000000	99.431642 
2144.000000	99.423628 
2143.000000	99.418205 
2142.000000	99.408906 
2141.000000	99.398647 
2140.000000	99.401004 
2139.000000	99.426109 
2138.000000	99.466286 
2137.000000	99.499458 
2136.000000	99.508545 
2135.000000	99.495924 
2134.000000	99.478181 
2133.000000	99.469219 
2132.000000	99.469681 
2131.000000	99.470151 
2130.000000	99.461710 
2129.000000	99.444364 
2128.000000	99.427843 
2127.000000	99.423850 
2126.000000	99.435485 
2125.000000	99.453736 
2124.000000	99.465205 
2123.000000	99.463114 
2122.000000	99.450503 
2121.000000	99.435372 
2120.000000	99.425621 
2119.000000	99.426815 
2118.000000	99.439412 
2117.000000	99.456126 
2116.000000	99.465895 
2115.000000	99.463828 
2114.000000	99.455642 
2113.000000	99.450418 
2112.000000	99.451214 
2111.000000	99.455254 
2110.000000	99.460147 
2109.000000	99.464717 
2108.000000	99.465045 
2107.000000	99.456418 
2106.000000	99.441579 
2105.000000	99.432263 
2104.000000	99.438342 
2103.000000	99.457427 
2102.000000	99.477785 
2101.000000	99.489174 
2100.000000	99.488134 
2099.000000	99.475713 
2098.000000	99.456221 
2097.000000	99.438927 
2096.000000	99.435075 
2095.000000	99.449025 
2094.000000	99.473430 
2093.000000	99.494927 
2092.000000	99.503964 
2091.000000	99.499159 
2090.000000	99.485396 
2089.000000	99.469901 
2088.000000	99.457790 
2087.000000	99.448980 
2086.000000	99.440637 
2085.000000	99.433749 
2084.000000	99.434249 
2083.000000	99.444312 
2082.000000	99.455263 
2081.000000	99.455385 
2080.000000	99.445637 
2079.000000	99.441502 
2078.000000	99.455517 
2077.000000	99.481494 
2076.000000	99.500263 
2075.000000	99.499177 
2074.000000	99.481618 
2073.000000	99.459415 
2072.000000	99.441494 
2071.000000	99.430468 
2070.000000	99.425335 
2069.000000	99.423465 
2068.000000	99.421702 
2067.000000	99.418857 
2066.000000	99.417044 
2065.000000	99.418582 
2064.000000	99.421825 
2063.000000	99.422879 
2062.000000	99.422576 
2061.000000	99.428875 
2060.000000	99.448202 
2059.000000	99.473780 
2058.000000	99.486810 
2057.000000	99.473645 
2056.000000	99.441169 
2055.000000	99.411379 
2054.000000	99.400473 
2053.000000	99.406357 
2052.000000	99.416499 
2051.000000	99.422816 
2050.000000	99.426449 
2049.000000	99.432786 
2048.000000	99.445607 
2047.000000	99.463143 
2046.000000	99.476535 
2045.000000	99.475496 
2044.000000	99.460508 
2043.000000	99.446370 
2042.000000	99.447488 
2041.000000	99.460855 
2040.000000	99.470078 
2039.000000	99.466021 
2038.000000	99.455417 
2037.000000	99.447803 
2036.000000	99.442389 
2035.000000	99.433200 
2034.000000	99.422080 
2033.000000	99.418971 
2032.000000	99.429940 
2031.000000	99.450513 
2030.000000	99.470872 
2029.000000	99.483381 
2028.000000	99.484850 
2027.000000	99.475924 
2026.000000	99.461403 
2025.000000	99.449934 
2024.000000	99.448860 
2023.000000	99.456945 
2022.000000	99.464563 
2021.000000	99.464098 
2020.000000	99.459312 
2019.000000	99.460493 
2018.000000	99.470666 
2017.000000	99.481559 
2016.000000	99.484731 
2015.000000	99.480032 
2014.000000	99.468756 
2013.000000	99.447068 
2012.000000	99.415472 
2011.000000	99.389281 
2010.000000	99.386611 
2009.000000	99.403931 
2008.000000	99.415875 
2007.000000	99.407848 
2006.000000	99.398898 
2005.000000	99.418646 
2004.000000	99.464554 
2003.000000	99.496077 
2002.000000	99.476001 
2001.000000	99.411954 
2000.000000	99.352164 
1999.000000	99.338840 
1998.000000	99.369812 
1997.000000	99.408392 
1996.000000	99.425599 
1995.000000	99.424449 
1994.000000	99.423561 
1993.000000	99.430044 
1992.000000	99.437040 
1991.000000	99.441552 
1990.000000	99.450274 
1989.000000	99.465637 
1988.000000	99.478208 
1987.000000	99.477905 
1986.000000	99.465676 
1985.000000	99.449564 
1984.000000	99.435142 
1983.000000	99.425228 
1982.000000	99.423924 
1981.000000	99.433004 
1980.000000	99.446385 
1979.000000	99.454780 
1978.000000	99.455382 
1977.000000	99.451879 
1976.000000	99.445200 
1975.000000	99.431940 
1974.000000	99.413732 
1973.000000	99.400319 
1972.000000	99.398640 
1971.000000	99.404169 
1970.000000	99.408537 
1969.000000	99.412490 
1968.000000	99.424414 
1967.000000	99.445340 
1966.000000	99.462039 
1965.000000	99.459638 
1964.000000	99.437546 
1963.000000	99.409909 
1962.000000	99.394270 
1961.000000	99.400651 
1960.000000	99.425428 
1959.000000	99.451503 
1958.000000	99.458460 
1957.000000	99.439893 
1956.000000	99.411273 
1955.000000	99.396151 
1954.000000	99.404308 
1953.000000	99.426858 
1952.000000	99.450391 
1951.000000	99.468469 
1950.000000	99.478393 
1949.000000	99.475970 
1948.000000	99.460889 
1947.000000	99.442277 
1946.000000	99.431039 
1945.000000	99.428253 
1944.000000	99.426751 
1943.000000	99.423336 
1942.000000	99.423283 
1941.000000	99.430699 
1940.000000	99.440565 
1939.000000	99.443730 
1938.000000	99.436488 
1937.000000	99.425385 
1936.000000	99.423096 
1935.000000	99.436350 
1934.000000	99.457032 
1933.000000	99.468943 
1932.000000	99.465156 
1931.000000	99.454672 
1930.000000	99.449196 
1929.000000	99.448322 
1928.000000	99.444931 
1927.000000	99.439294 
1926.000000	99.438296 
1925.000000	99.442660 
1924.000000	99.444733 
1923.000000	99.442180 
1922.000000	99.442910 
1921.000000	99.450786 
1920.000000	99.456967 
1919.000000	99.451241 
1918.000000	99.436111 
1917.000000	99.422766 
1916.000000	99.415610 
1915.000000	99.411790 
1914.000000	99.411657 
1913.000000	99.419274 
1912.000000	99.434075 
1911.000000	99.448507 
1910.000000	99.454940 
1909.000000	99.451429 
1908.000000	99.442047 
1907.000000	99.433396 
1906.000000	99.430606 
1905.000000	99.433561 
1904.000000	99.436738 
1903.000000	99.436596 
1902.000000	99.436088 
1901.000000	99.438847 
1900.000000	99.443091 
1899.000000	99.444965 
1898.000000	99.445084 
1897.000000	99.446558 
1896.000000	99.447617 
1895.000000	99.443458 
1894.000000	99.435562 
1893.000000	99.432137 
1892.000000	99.437715 
1891.000000	99.447424 
1890.000000	99.453433 
1889.000000	99.454655 
1888.000000	99.456084 
1887.000000	99.459840 
1886.000000	99.461903 
1885.000000	99.457635 
1884.000000	99.448210 
1883.000000	99.440465 
1882.000000	99.439796 
1881.000000	99.444205 
1880.000000	99.447216 
1879.000000	99.445416 
1878.000000	99.441320 
1877.000000	99.439584 
1876.000000	99.441363 
1875.000000	99.443053 
1874.000000	99.439811 
1873.000000	99.429669 
1872.000000	99.416719 
1871.000000	99.411086 
1870.000000	99.422210 
1869.000000	99.446433 
1868.000000	99.465311 
1867.000000	99.466238 
1866.000000	99.456552 
1865.000000	99.450345 
1864.000000	99.451200 
1863.000000	99.452633 
1862.000000	99.450846 
1861.000000	99.450354 
1860.000000	99.455326 
1859.000000	99.461288 
1858.000000	99.459673 
1857.000000	99.448175 
1856.000000	99.433825 
1855.000000	99.426440 
1854.000000	99.430443 
1853.000000	99.440779 
1852.000000	99.447459 
1851.000000	99.445122 
1850.000000	99.437492 
1849.000000	99.433319 
1848.000000	99.436409 
1847.000000	99.441973 
1846.000000	99.442899 
1845.000000	99.437691 
1844.000000	99.431245 
1843.000000	99.427331 
1842.000000	99.425098 
1841.000000	99.424646 
1840.000000	99.428543 
1839.000000	99.436230 
1838.000000	99.443207 
1837.000000	99.446490 
1836.000000	99.447275 
1835.000000	99.447220 
1834.000000	99.445384 
1833.000000	99.441397 
1832.000000	99.438405 
1831.000000	99.438160 
1830.000000	99.437195 
1829.000000	99.434135 
1828.000000	99.434104 
1827.000000	99.441275 
1826.000000	99.451628 
1825.000000	99.457058 
1824.000000	99.455871 
1823.000000	99.453112 
1822.000000	99.451189 
1821.000000	99.447183 
1820.000000	99.439530 
1819.000000	99.432050 
1818.000000	99.430263 
1817.000000	99.435005 
1816.000000	99.441154 
1815.000000	99.443682 
1814.000000	99.441658 
1813.000000	99.437670 
1812.000000	99.434964 
1811.000000	99.434378 
1810.000000	99.435072 
1809.000000	99.436093 
1808.000000	99.437453 
1807.000000	99.440359 
1806.000000	99.444718 
1805.000000	99.447385 
1804.000000	99.445182 
1803.000000	99.439958 
1802.000000	99.436808 
1801.000000	99.437848 
1800.000000	99.439618 
1799.000000	99.437761 
1798.000000	99.433136 
1797.000000	99.429580 
1796.000000	99.429516 
1795.000000	99.433181 
1794.000000	99.438349 
1793.000000	99.441347 
1792.000000	99.441485 
1791.000000	99.442719 
1790.000000	99.447749 
1789.000000	99.453212 
1788.000000	99.454016 
1787.000000	99.449389 
1786.000000	99.443890 
1785.000000	99.442070 
1784.000000	99.443295 
1783.000000	99.444504 
1782.000000	99.442958 
1781.000000	99.437554 
1780.000000	99.431286 
1779.000000	99.429212 
1778.000000	99.433645 
1777.000000	99.440988 
1776.000000	99.446728 
1775.000000	99.450701 
1774.000000	99.453576 
1773.000000	99.451460 
1772.000000	99.441240 
1771.000000	99.428312 
1770.000000	99.421275 
1769.000000	99.423068 
1768.000000	99.429452 
1767.000000	99.434911 
1766.000000	99.438126 
1765.000000	99.440335 
1764.000000	99.440841 
1763.000000	99.437134 
1762.000000	99.430478 
1761.000000	99.427508 
1760.000000	99.431381 
1759.000000	99.438266 
1758.000000	99.443304 
1757.000000	99.443613 
1756.000000	99.441328 
1755.000000	99.440192 
1754.000000	99.441102 
1753.000000	99.442024 
1752.000000	99.440075 
1751.000000	99.435245 
1750.000000	99.431753 
1749.000000	99.432516 
1748.000000	99.434916 
1747.000000	99.435484 
1746.000000	99.433440 
1745.000000	99.431417 
1744.000000	99.431692 
1743.000000	99.432982 
1742.000000	99.434251 
1741.000000	99.438183 
1740.000000	99.446460 
1739.000000	99.454989 
1738.000000	99.458676 
1737.000000	99.458326 
1736.000000	99.456985 
1735.000000	99.452278 
1734.000000	99.442636 
1733.000000	99.434538 
1732.000000	99.431995 
1731.000000	99.432766 
1730.000000	99.433889 
1729.000000	99.433121 
1728.000000	99.432451 
1727.000000	99.434434 
1726.000000	99.438283 
1725.000000	99.441722 
1724.000000	99.443393 
1723.000000	99.441811 
1722.000000	99.436266 
1721.000000	99.428078 
1720.000000	99.421415 
1719.000000	99.419925 
1718.000000	99.424837 
1717.000000	99.434489 
1716.000000	99.442007 
1715.000000	99.443324 
1714.000000	99.442335 
1713.000000	99.442158 
1712.000000	99.441804 
1711.000000	99.440727 
1710.000000	99.440358 
1709.000000	99.441511 
1708.000000	99.444280 
1707.000000	99.448270 
1706.000000	99.452014 
1705.000000	99.454209 
1704.000000	99.454519 
1703.000000	99.456156 
1702.000000	99.461962 
1701.000000	99.467607 
1700.000000	99.464994 
1699.000000	99.454107 
1698.000000	99.444189 
1697.000000	99.441249 
1696.000000	99.442562 
1695.000000	99.443653 
1694.000000	99.443498 
1693.000000	99.443530 
1692.000000	99.446590 
1691.000000	99.452780 
1690.000000	99.459347 
1689.000000	99.461745 
1688.000000	99.459169 
1687.000000	99.456373 
1686.000000	99.458576 
1685.000000	99.465386 
1684.000000	99.470106 
1683.000000	99.470757 
1682.000000	99.468947 
1681.000000	99.465280 
1680.000000	99.461875 
1679.000000	99.460476 
1678.000000	99.463717 
1677.000000	99.471603 
1676.000000	99.480865 
1675.000000	99.486428 
1674.000000	99.485614 
1673.000000	99.480961 
1672.000000	99.477968 
1671.000000	99.479183 
1670.000000	99.482738 
1669.000000	99.484895 
1668.000000	99.485400 
1667.000000	99.486431 
1666.000000	99.488426 
1665.000000	99.490087 
1664.000000	99.489092 
1663.000000	99.485513 
1662.000000	99.482579 
1661.000000	99.480874 
1660.000000	99.479762 
1659.000000	99.479662 
1658.000000	99.481548 
1657.000000	99.485544 
1656.000000	99.494527 
1655.000000	99.510555 
1654.000000	99.525639 
1653.000000	99.528056 
1652.000000	99.518640 
1651.000000	99.503386 
1650.000000	99.488707 
1649.000000	99.481265 
1648.000000	99.477522 
1647.000000	99.475969 
1646.000000	99.479136 
1645.000000	99.486461 
1644.000000	99.490412 
1643.000000	99.489661 
1642.000000	99.486587 
1641.000000	99.482054 
1640.000000	99.476003 
1639.000000	99.469799 
1638.000000	99.466797 
1637.000000	99.467177 
1636.000000	99.467037 
1635.000000	99.466632 
1634.000000	99.468411 
1633.000000	99.471838 
1632.000000	99.475566 
1631.000000	99.479592 
1630.000000	99.485203 
1629.000000	99.491653 
1628.000000	99.493920 
1627.000000	99.488045 
1626.000000	99.476316 
1625.000000	99.465270 
1624.000000	99.460138 
1623.000000	99.461599 
1622.000000	99.466048 
1621.000000	99.468987 
1620.000000	99.470465 
1619.000000	99.472570 
1618.000000	99.473879 
1617.000000	99.470031 
1616.000000	99.461736 
1615.000000	99.455276 
1614.000000	99.453488 
1613.000000	99.455034 
1612.000000	99.457038 
1611.000000	99.458241 
1610.000000	99.459135 
1609.000000	99.459680 
1608.000000	99.459272 
1607.000000	99.458036 
1606.000000	99.456237 
1605.000000	99.454187 
1604.000000	99.453854 
1603.000000	99.456015 
1602.000000	99.457977 
1601.000000	99.456766 
1600.000000	99.453802 
1599.000000	99.453522 
1598.000000	99.457326 
1597.000000	99.461758 
1596.000000	99.462271 
1595.000000	99.457448 
1594.000000	99.449579 
1593.000000	99.442519 
1592.000000	99.440023 
1591.000000	99.444130 
1590.000000	99.452893 
1589.000000	99.460974 
1588.000000	99.464692 
1587.000000	99.464675 
1586.000000	99.462899 
1585.000000	99.458931 
1584.000000	99.452843 
1583.000000	99.448228 
1582.000000	99.447863 
1581.000000	99.450538 
1580.000000	99.454117 
1579.000000	99.458986 
1578.000000	99.465165 
1577.000000	99.469250 
1576.000000	99.468364 
1575.000000	99.465056 
1574.000000	99.460993 
1573.000000	99.455587 
1572.000000	99.449638 
1571.000000	99.443995 
1570.000000	99.441586 
1569.000000	99.445627 
1568.000000	99.456699 
1567.000000	99.471036 
1566.000000	99.482933 
1565.000000	99.486593 
1564.000000	99.481511 
1563.000000	99.473069 
1562.000000	99.467097 
1561.000000	99.465443 
1560.000000	99.465856 
1559.000000	99.465018 
1558.000000	99.467280 
1557.000000	99.471869 
1556.000000	99.474115 
1555.000000	99.479187 
1554.000000	99.482649 
1553.000000	99.482277 
1552.000000	99.479188 
1551.000000	99.477177 
1550.000000	99.476804 
1549.000000	99.477488 
1548.000000	99.479107 
1547.000000	99.482819 
1546.000000	99.487987 
1545.000000	99.491060 
1544.000000	99.489222 
1543.000000	99.483394 
1542.000000	99.477023 
1541.000000	99.472023 
1540.000000	99.468084 
1539.000000	99.467982 
1538.000000	99.469791 
1537.000000	99.469730 
1536.000000	99.471073 
1535.000000	99.476446 
1534.000000	99.483051 
1533.000000	99.485032 
1532.000000	99.481625 
1531.000000	99.476523 
1530.000000	99.474802 
1529.000000	99.477524 
1528.000000	99.479441 
1527.000000	99.474963 
1526.000000	99.465375 
1525.000000	99.457613 
1524.000000	99.456333 
1523.000000	99.459890 
1522.000000	99.463394 
1521.000000	99.465029 
1520.000000	99.466061 
1519.000000	99.466783 
1518.000000	99.467202 
1517.000000	99.467240 
1516.000000	99.466639 
1515.000000	99.465689 
1514.000000	99.464321 
1513.000000	99.463732 
1512.000000	99.464879 
1511.000000	99.467170 
1510.000000	99.471066 
1509.000000	99.478862 
1508.000000	99.488963 
1507.000000	99.490423 
1506.000000	99.482149 
1505.000000	99.472909 
1504.000000	99.465980 
1503.000000	99.464187 
1502.000000	99.465166 
1501.000000	99.463328 
1500.000000	99.455835 
1499.000000	99.447109 
1498.000000	99.444143 
1497.000000	99.449632 
1496.000000	99.457222 
1495.000000	99.458819 
1494.000000	99.455274 
1493.000000	99.452395 
1492.000000	99.452627 
1491.000000	99.453551 
1490.000000	99.452896 
1489.000000	99.452345 
1488.000000	99.452172 
1487.000000	99.450000 
1486.000000	99.447682 
1485.000000	99.448026 
1484.000000	99.451780 
1483.000000	99.457140 
1482.000000	99.459853 
1481.000000	99.458027 
1480.000000	99.454059 
1479.000000	99.451600 
1478.000000	99.450773 
1477.000000	99.449109 
1476.000000	99.445349 
1475.000000	99.442367 
1474.000000	99.442814 
1473.000000	99.443883 
1472.000000	99.442577 
1471.000000	99.440593 
1470.000000	99.441500 
1469.000000	99.446721 
1468.000000	99.454909 
1467.000000	99.463239 
1466.000000	99.468829 
1465.000000	99.469354 
1464.000000	99.466782 
1463.000000	99.464533 
1462.000000	99.463008 
1461.000000	99.460380 
1460.000000	99.455795 
1459.000000	99.451492 
1458.000000	99.449649 
1457.000000	99.450663 
1456.000000	99.452454 
1455.000000	99.452350 
1454.000000	99.452349 
1453.000000	99.456692 
1452.000000	99.463856 
1451.000000	99.469562 
1450.000000	99.471267 
1449.000000	99.469564 
1448.000000	99.464830 
1447.000000	99.458732 
1446.000000	99.454635 
1445.000000	99.454189 
1444.000000	99.456396 
1443.000000	99.457361 
1442.000000	99.454469 
1441.000000	99.448748 
1440.000000	99.443230 
1439.000000	99.439279 
1438.000000	99.435894 
1437.000000	99.433246 
1436.000000	99.434018 
1435.000000	99.438141 
1434.000000	99.442187 
1433.000000	99.445150 
1432.000000	99.447563 
1431.000000	99.450204 
1430.000000	99.453256 
1429.000000	99.456177 
1428.000000	99.457451 
1427.000000	99.456865 
1426.000000	99.456129 
1425.000000	99.456459 
1424.000000	99.458780 
1423.000000	99.462315 
1422.000000	99.465193 
1421.000000	99.466392 
1420.000000	99.466184 
1419.000000	99.464833 
1418.000000	99.462029 
1417.000000	99.457874 
1416.000000	99.452745 
1415.000000	99.447700 
1414.000000	99.443499 
1413.000000	99.440390 
1412.000000	99.438158 
1411.000000	99.436376 
1410.000000	99.435043 
1409.000000	99.435430 
1408.000000	99.438107 
1407.000000	99.442075 
1406.000000	99.445596 
1405.000000	99.446925 
1404.000000	99.446299 
1403.000000	99.444721 
1402.000000	99.442982 
1401.000000	99.441816 
1400.000000	99.441645 
1399.000000	99.443016 
1398.000000	99.446202 
1397.000000	99.449941 
1396.000000	99.450959 
1395.000000	99.447075 
1394.000000	99.440195 
1393.000000	99.434959 
1392.000000	99.434570 
1391.000000	99.438614 
1390.000000	99.444869 
1389.000000	99.451261 
1388.000000	99.456470 
1387.000000	99.460088 
1386.000000	99.462393 
1385.000000	99.463160 
1384.000000	99.462063 
1383.000000	99.459413 
1382.000000	99.456510 
1381.000000	99.454873 
1380.000000	99.454639 
1379.000000	99.455361 
1378.000000	99.456819 
1377.000000	99.458294 
1376.000000	99.458165 
1375.000000	99.455851 
1374.000000	99.453233 
1373.000000	99.452530 
1372.000000	99.452988 
1371.000000	99.452552 
1370.000000	99.451256 
1369.000000	99.450602 
1368.000000	99.451961 
1367.000000	99.454740 
1366.000000	99.457151 
1365.000000	99.458143 
1364.000000	99.457565 
1363.000000	99.455516 
1362.000000	99.452695 
1361.000000	99.450402 
1360.000000	99.450147 
1359.000000	99.453364 
1358.000000	99.459408 
1357.000000	99.464038 
1356.000000	99.462550 
1355.000000	99.455289 
1354.000000	99.448525 
1353.000000	99.448490 
1352.000000	99.455038 
1351.000000	99.463243 
1350.000000	99.468928 
1349.000000	99.470334 
1348.000000	99.467897 
1347.000000	99.463478 
1346.000000	99.459897 
1345.000000	99.458736 
1344.000000	99.458744 
1343.000000	99.457484 
1342.000000	99.454728 
1341.000000	99.452801 
1340.000000	99.453420 
1339.000000	99.455172 
1338.000000	99.455168 
1337.000000	99.453069 
1336.000000	99.451927 
1335.000000	99.454445 
1334.000000	99.459276 
1333.000000	99.461823 
1332.000000	99.458931 
1331.000000	99.452373 
1330.000000	99.446878 
1329.000000	99.445224 
1328.000000	99.446653 
1327.000000	99.449678 
1326.000000	99.453935 
1325.000000	99.458553 
1324.000000	99.461334 
1323.000000	99.460589 
1322.000000	99.457486 
1321.000000	99.455293 
1320.000000	99.456007 
1319.000000	99.457971 
1318.000000	99.457492 
1317.000000	99.453125 
1316.000000	99.447764 
1315.000000	99.446004 
1314.000000	99.449640 
1313.000000	99.456304 
1312.000000	99.462315 
1311.000000	99.465744 
1310.000000	99.466223 
1309.000000	99.463720 
1308.000000	99.459184 
1307.000000	99.455534 
1306.000000	99.455520 
1305.000000	99.458226 
1304.000000	99.459825 
1303.000000	99.457668 
1302.000000	99.452626 
1301.000000	99.447351 
1300.000000	99.443965 
1299.000000	99.443526 
1298.000000	99.445955 
1297.000000	99.449584 
1296.000000	99.452075 
1295.000000	99.452632 
1294.000000	99.452223 
1293.000000	99.451449 
1292.000000	99.449778 
1291.000000	99.447568 
1290.000000	99.447014 
1289.000000	99.449512 
1288.000000	99.453293 
1287.000000	99.455309 
1286.000000	99.454671 
1285.000000	99.452677 
1284.000000	99.450242 
1283.000000	99.447199 
1282.000000	99.444037 
1281.000000	99.442436 
1280.000000	99.443444 
1279.000000	99.446043 
1278.000000	99.447814 
1277.000000	99.446660 
1276.000000	99.442137 
1275.000000	99.436191 
1274.000000	99.432425 
1273.000000	99.433372 
1272.000000	99.437839 
1271.000000	99.441631 
1270.000000	99.441601 
1269.000000	99.438600 
1268.000000	99.435986 
1267.000000	99.435742 
1266.000000	99.436865 
1265.000000	99.437483 
1264.000000	99.437203 
1263.000000	99.436433 
1262.000000	99.434420 
1261.000000	99.429719 
1260.000000	99.422872 
1259.000000	99.416923 
1258.000000	99.414073 
1257.000000	99.413220 
1256.000000	99.412037 
1255.000000	99.410390 
1254.000000	99.410006 
1253.000000	99.411392 
1252.000000	99.413080 
1251.000000	99.414051 
1250.000000	99.414947 
1249.000000	99.416128 
1248.000000	99.416055 
1247.000000	99.412697 
1246.000000	99.405849 
1245.000000	99.397455 
1244.000000	99.390204 
1243.000000	99.386203 
1242.000000	99.386219 
1241.000000	99.389424 
1240.000000	99.393992 
1239.000000	99.398141 
1238.000000	99.400533 
1237.000000	99.400142 
1236.000000	99.396645 
1235.000000	99.391054 
1234.000000	99.385060 
1233.000000	99.379493 
1232.000000	99.374153 
1231.000000	99.369204 
1230.000000	99.365746 
1229.000000	99.364539 
1228.000000	99.364647 
1227.000000	99.363712 
1226.000000	99.359434 
1225.000000	99.351132 
1224.000000	99.340451 
1223.000000	99.330246 
1222.000000	99.322029 
1221.000000	99.314875 
1220.000000	99.307623 
1219.000000	99.301171 
1218.000000	99.296802 
1217.000000	99.292769 
1216.000000	99.285023 
1215.000000	99.272162 
1214.000000	99.257902 
1213.000000	99.247355 
1212.000000	99.241644 
1211.000000	99.237055 
1210.000000	99.229135 
1209.000000	99.217116 
1208.000000	99.204428 
1207.000000	99.194907 
1206.000000	99.188506 
1205.000000	99.181572 
1204.000000	99.171775 
1203.000000	99.161201 
1202.000000	99.153006 
1201.000000	99.146543 
1200.000000	99.138426 
1199.000000	99.127656 
1198.000000	99.116564 
1197.000000	99.106604 
1196.000000	99.096290 
1195.000000	99.084242 
1194.000000	99.071647 
1193.000000	99.060259 
1192.000000	99.050006 
1191.000000	99.039948 
1190.000000	99.029962 
1189.000000	99.020101 
1188.000000	99.009504 
1187.000000	98.997069 
1186.000000	98.982367 
1185.000000	98.965431 
1184.000000	98.946877 
1183.000000	98.928632 
1182.000000	98.912913 
1181.000000	98.899714 
1180.000000	98.886703 
1179.000000	98.872200 
1178.000000	98.856778 
1177.000000	98.841469 
1176.000000	98.826294 
1175.000000	98.811445 
1174.000000	98.798107 
1173.000000	98.786601 
1172.000000	98.774799 
1171.000000	98.759650 
1170.000000	98.740098 
1169.000000	98.718389 
1168.000000	98.699163 
1167.000000	98.686816 
1166.000000	98.682262 
1165.000000	98.682447 
1164.000000	98.684212 
1163.000000	98.687754 
1162.000000	98.694376 
1161.000000	98.701907 
1160.000000	98.705614 
1159.000000	98.703775 
1158.000000	98.699198 
1157.000000	98.694541 
1156.000000	98.689178 
1155.000000	98.681592 
1154.000000	98.671660 
1153.000000	98.659291 
1152.000000	98.644075 
1151.000000	98.628023 
1150.000000	98.615352 
1149.000000	98.607180 
1148.000000	98.599249 
1147.000000	98.587421 
1146.000000	98.572706 
1145.000000	98.558062 
1144.000000	98.543223 
1143.000000	98.526907 
1142.000000	98.512177 
1141.000000	98.504370 
1140.000000	98.503246 
1139.000000	98.501192 
1138.000000	98.490891 
1137.000000	98.472526 
1136.000000	98.452088 
1135.000000	98.434485 
1134.000000	98.419907 
1133.000000	98.405761 
1132.000000	98.390108 
1131.000000	98.372738 
1130.000000	98.354299 
1129.000000	98.336090 
1128.000000	98.320794 
1127.000000	98.311315 
1126.000000	98.306992 
1125.000000	98.302038 
1124.000000	98.290082 
1123.000000	98.270141 
1122.000000	98.246378 
1121.000000	98.222941 
1120.000000	98.202103 
1119.000000	98.186919 
1118.000000	98.180688 
1117.000000	98.181569 
1116.000000	98.181447 
1115.000000	98.173452 
1114.000000	98.158715 
1113.000000	98.143021 
1112.000000	98.128948 
1111.000000	98.114728 
1110.000000	98.099341 
1109.000000	98.084686 
1108.000000	98.072560 
1107.000000	98.062293 
1106.000000	98.052176 
1105.000000	98.041215 
1104.000000	98.029113 
1103.000000	98.016458 
1102.000000	98.005287 
1101.000000	97.997885 
1100.000000	97.994166 
1099.000000	97.991082 
1098.000000	97.985813 
1097.000000	97.978242 
1096.000000	97.970327 
1095.000000	97.963755 
1094.000000	97.958675 
1093.000000	97.953869 
1092.000000	97.947502 
1091.000000	97.938119 
1090.000000	97.925655 
1089.000000	97.911667 
1088.000000	97.898385 
1087.000000	97.887280 
1086.000000	97.878208 
1085.000000	97.869917 
1084.000000	97.861617 
1083.000000	97.854074 
1082.000000	97.848954 
1081.000000	97.846997 
1080.000000	97.846776 
1079.000000	97.844986 
1078.000000	97.838188 
1077.000000	97.825318 
1076.000000	97.809056 
1075.000000	97.793888 
1074.000000	97.781945 
1073.000000	97.771236 
1072.000000	97.758339 
1071.000000	97.741334 
1070.000000	97.719145 
1069.000000	97.690370 
1068.000000	97.655802 
1067.000000	97.621144 
1066.000000	97.593379 
1065.000000	97.573304 
1064.000000	97.553931 
1063.000000	97.527171 
1062.000000	97.490816 
1061.000000	97.449387 
1060.000000	97.410378 
1059.000000	97.379592 
1058.000000	97.357369 
1057.000000	97.338755 
1056.000000	97.319180 
1055.000000	97.299489 
1054.000000	97.282508 
1053.000000	97.265080 
1052.000000	97.238534 
1051.000000	97.199900 
1050.000000	97.158516 
1049.000000	97.126650 
1048.000000	97.105761 
1047.000000	97.085936 
1046.000000	97.057140 
1045.000000	97.018213 
1044.000000	96.976703 
1043.000000	96.942651 
1042.000000	96.920996 
1041.000000	96.907430 
1040.000000	96.892248 
1039.000000	96.869747 
1038.000000	96.843206 
1037.000000	96.819791 
1036.000000	96.802638 
1035.000000	96.790124 
1034.000000	96.780948 
1033.000000	96.776079 
1032.000000	96.775386 
1031.000000	96.775573 
1030.000000	96.773278 
1029.000000	96.768688 
1028.000000	96.764525 
1027.000000	96.762334 
1026.000000	96.761210 
1025.000000	96.759927 
1024.000000	96.759042 
1023.000000	96.760360 
1022.000000	96.764642 
1021.000000	96.770152 
1020.000000	96.773633 
1019.000000	96.772900 
1018.000000	96.768443 
1017.000000	96.762350 
1016.000000	96.756067 
1015.000000	96.749821 
1014.000000	96.743957 
1013.000000	96.739780 
1012.000000	96.738550 
1011.000000	96.740165 
1010.000000	96.743192 
1009.000000	96.745561 
1008.000000	96.744918 
1007.000000	96.739573 
1006.000000	96.730846 
1005.000000	96.724216 
1004.000000	96.725994 
1003.000000	96.737515 
1002.000000	96.753486 
1001.000000	96.767383 
1000.000000	96.777869 
999.000000	 96.788526 
998.000000	 96.801859 
997.000000	 96.815771 
996.000000	 96.826712 
995.000000	 96.834385 
994.000000	 96.841473 
993.000000	 96.849602 
992.000000	 96.857930 
991.000000	 96.866219 
990.000000	 96.877179 
989.000000	 96.893814 
988.000000	 96.914918 
987.000000	 96.934932 
986.000000	 96.949127 
985.000000	 96.958500 
984.000000	 96.969107 
983.000000	 96.986634 
982.000000	 97.011428 
981.000000	 97.038351 
980.000000	 97.061505 
979.000000	 97.079779 
978.000000	 97.098137 
977.000000	 97.122993 
976.000000	 97.156053 
975.000000	 97.193077 
974.000000	 97.228533 
973.000000	 97.260288 
972.000000	 97.289238 
971.000000	 97.316064 
970.000000	 97.340486 
969.000000	 97.363269 
968.000000	 97.386792 
967.000000	 97.412825 
966.000000	 97.440877 
965.000000	 97.469403 
964.000000	 97.497662 
963.000000	 97.525632 
962.000000	 97.552918 
961.000000	 97.578817 
960.000000	 97.603283 
959.000000	 97.626988 
958.000000	 97.650359 
957.000000	 97.673022 
956.000000	 97.694294 
955.000000	 97.713856 
954.000000	 97.731827 
953.000000	 97.748358 
952.000000	 97.763205 
951.000000	 97.775630 
950.000000	 97.784995 
949.000000	 97.791991 
948.000000	 97.799106 
947.000000	 97.808639 
946.000000	 97.819561 
945.000000	 97.827664 
944.000000	 97.830698 
943.000000	 97.832888 
942.000000	 97.841850 
941.000000	 97.859915 
940.000000	 97.880259 
939.000000	 97.893216 
938.000000	 97.895805 
937.000000	 97.893865 
936.000000	 97.895528 
935.000000	 97.904053 
934.000000	 97.916550 
933.000000	 97.927994 
932.000000	 97.935778 
931.000000	 97.940892 
930.000000	 97.945320 
929.000000	 97.949059 
928.000000	 97.950679 
927.000000	 97.950666 
926.000000	 97.952515 
925.000000	 97.959591 
924.000000	 97.971984 
923.000000	 97.986879 
922.000000	 98.000421 
921.000000	 98.008642 
920.000000	 98.009116 
919.000000	 98.003954 
918.000000	 97.999352 
917.000000	 97.999387 
916.000000	 98.001408 
915.000000	 98.000367 
914.000000	 97.996880 
913.000000	 97.997630 
912.000000	 98.007575 
911.000000	 98.024831 
910.000000	 98.044065 
909.000000	 98.062216 
908.000000	 98.079394 
907.000000	 98.096385 
906.000000	 98.113544 
905.000000	 98.131187 
904.000000	 98.149071 
903.000000	 98.165535 
902.000000	 98.178611 
901.000000	 98.189032 
900.000000	 98.202070 
899.000000	 98.225003 
898.000000	 98.260365 
897.000000	 98.300794 
896.000000	 98.332853 
895.000000	 98.348652 
894.000000	 98.353582 
893.000000	 98.360629 
892.000000	 98.377115 
891.000000	 98.398394 
890.000000	 98.413976 
889.000000	 98.418335 
888.000000	 98.416127 
887.000000	 98.418194 
886.000000	 98.431871 
885.000000	 98.454154 
884.000000	 98.475441 
883.000000	 98.490354 
882.000000	 98.502118 
881.000000	 98.514698 
880.000000	 98.525014 
879.000000	 98.528123 
878.000000	 98.527873 
877.000000	 98.535955 
876.000000	 98.559184 
875.000000	 98.591353 
874.000000	 98.618311 
873.000000	 98.629484 
872.000000	 98.626094 
871.000000	 98.620970 
870.000000	 98.627898 
869.000000	 98.647430 
868.000000	 98.665832 
867.000000	 98.671667 
866.000000	 98.669604 
865.000000	 98.672128 
864.000000	 98.681666 
863.000000	 98.689807 
862.000000	 98.692798 
861.000000	 98.697598 
860.000000	 98.709991 
859.000000	 98.724830 
858.000000	 98.732416 
857.000000	 98.729626 
856.000000	 98.721913 
855.000000	 98.718813 
854.000000	 98.728832 
853.000000	 98.752753 
852.000000	 98.779684 
851.000000	 98.795334 
850.000000	 98.796906 
849.000000	 98.794648 
848.000000	 98.797025 
847.000000	 98.801424 
846.000000	 98.802417 
845.000000	 98.801282 
844.000000	 98.801860 
843.000000	 98.803353 
842.000000	 98.803554 
841.000000	 98.804439 
840.000000	 98.808237 
839.000000	 98.811634 
838.000000	 98.809915 
837.000000	 98.804058 
836.000000	 98.798172 
835.000000	 98.792444 
834.000000	 98.784112 
833.000000	 98.773810 
832.000000	 98.766081 
831.000000	 98.764573 
830.000000	 98.769970 
829.000000	 98.780300 
828.000000	 98.789708 
827.000000	 98.790798 
826.000000	 98.784016 
825.000000	 98.780788 
824.000000	 98.789402 
823.000000	 98.801657 
822.000000	 98.803706 
821.000000	 98.797264 
820.000000	 98.798038 
819.000000	 98.813025 
818.000000	 98.829882 
817.000000	 98.832272 
816.000000	 98.818812 
815.000000	 98.801494 
814.000000	 98.788582 
813.000000	 98.775224 
812.000000	 98.751700 
811.000000	 98.715681 
810.000000	 98.672287 
809.000000	 98.624396 
808.000000	 98.568765 
807.000000	 98.503265 
806.000000	 98.433127 
805.000000	 98.366158 
804.000000	 98.304906 
803.000000	 98.248124 
802.000000	 98.197615 
801.000000	 98.158098 
800.000000	 98.130852 
799.000000	 98.112695 
798.000000	 98.101768 
797.000000	 98.099740 
796.000000	 98.107258 
795.000000	 98.121686 
794.000000	 98.140568 
793.000000	 98.162536 
792.000000	 98.183152 
791.000000	 98.195411 
790.000000	 98.197578 
789.000000	 98.195435 
788.000000	 98.193129 
787.000000	 98.186862 
786.000000	 98.171924 
785.000000	 98.150744 
784.000000	 98.128280 
783.000000	 98.103827 
782.000000	 98.074436 
781.000000	 98.044087 
780.000000	 98.022359 
779.000000	 98.014226 
778.000000	 98.016463 
777.000000	 98.023846 
776.000000	 98.034033 
775.000000	 98.046802 
774.000000	 98.063500 
773.000000	 98.086973 
772.000000	 98.117010 
771.000000	 98.146085 
770.000000	 98.165113 
769.000000	 98.173656 
768.000000	 98.179005 
767.000000	 98.185525 
766.000000	 98.191402 
765.000000	 98.196373 
764.000000	 98.204743 
763.000000	 98.217177 
762.000000	 98.226061 
761.000000	 98.224165 
760.000000	 98.213792 
759.000000	 98.203380 
758.000000	 98.199451 
757.000000	 98.206253 
756.000000	 98.227717 
755.000000	 98.261216 
754.000000	 98.290991 
753.000000	 98.297119 
752.000000	 98.274681 
751.000000	 98.240473 
750.000000	 98.218977 
749.000000	 98.223461 
748.000000	 98.249725 
747.000000	 98.282619 
746.000000	 98.306519 
745.000000	 98.315454 
744.000000	 98.318422 
743.000000	 98.332313 
742.000000	 98.364695 
741.000000	 98.404242 
740.000000	 98.431742 
739.000000	 98.439581 
738.000000	 98.436663 
737.000000	 98.435602 
736.000000	 98.441197 
735.000000	 98.452046 
734.000000	 98.466006 
733.000000	 98.479171 
732.000000	 98.484314 
731.000000	 98.476905 
730.000000	 98.461579 
729.000000	 98.447970 
728.000000	 98.441521 
727.000000	 98.442545 
726.000000	 98.452424 
725.000000	 98.474604 
724.000000	 98.507973 
723.000000	 98.543386 
722.000000	 98.568949 
721.000000	 98.577500 
720.000000	 98.569656 
719.000000	 98.552808 
718.000000	 98.537316 
717.000000	 98.530028 
716.000000	 98.529414 
715.000000	 98.528370 
714.000000	 98.523157 
713.000000	 98.518935 
712.000000	 98.525598 
711.000000	 98.548042 
710.000000	 98.579781 
709.000000	 98.605614 
708.000000	 98.612523 
707.000000	 98.600309 
706.000000	 98.580808 
705.000000	 98.565980 
704.000000	 98.558627 
703.000000	 98.554625 
702.000000	 98.548972 
701.000000	 98.535934 
700.000000	 98.508071 
699.000000	 98.462327 
698.000000	 98.405628 
697.000000	 98.350006 
696.000000	 98.304481 
695.000000	 98.276079 
694.000000	 98.274334 
693.000000	 98.304358 
692.000000	 98.354324 
691.000000	 98.398307 
690.000000	 98.415562 
689.000000	 98.405437 
688.000000	 98.385214 
687.000000	 98.377199 
686.000000	 98.393711 
685.000000	 98.425543 
684.000000	 98.446348 
683.000000	 98.438093 
682.000000	 98.412503 
681.000000	 98.398525 
680.000000	 98.408379 
679.000000	 98.427591 
678.000000	 98.440583 
677.000000	 98.450128 
676.000000	 98.466172 
675.000000	 98.489631 
674.000000	 98.513601 
673.000000	 98.534661 
672.000000	 98.557228 
671.000000	 98.587684 
670.000000	 98.624370 
669.000000	 98.648091 
668.000000	 98.634961 
667.000000	 98.586910 
666.000000	 98.532260 
665.000000	 98.503494 
664.000000	 98.512646 
663.000000	 98.545979 
662.000000	 98.576457 
661.000000	 98.581357 
660.000000	 98.554388 
659.000000	 98.508917 
658.000000	 98.474572 
657.000000	 98.477367 
656.000000	 98.516898 
655.000000	 98.566229 
654.000000	 98.591747 
653.000000	 98.575843 
652.000000	 98.526080 
651.000000	 98.471566 
650.000000	 98.447899 

