4000.000000	99.619551 
3999.000000	99.617835 
3998.000000	99.616734 
3997.000000	99.618319 
3996.000000	99.622021 
3995.000000	99.625573 
3994.000000	99.627500 
3993.000000	99.628149 
3992.000000	99.628417 
3991.000000	99.628194 
3990.000000	99.626477 
3989.000000	99.622719 
3988.000000	99.617770 
3987.000000	99.613581 
3986.000000	99.612056 
3985.000000	99.613892 
3984.000000	99.618150 
3983.000000	99.623063 
3982.000000	99.627372 
3981.000000	99.630897 
3980.000000	99.633956 
3979.000000	99.636584 
3978.000000	99.638456 
3977.000000	99.639228 
3976.000000	99.638627 
3975.000000	99.636437 
3974.000000	99.632723 
3973.000000	99.628135 
3972.000000	99.623822 
3971.000000	99.621040 
3970.000000	99.620836 
3969.000000	99.623497 
3968.000000	99.627978 
3967.000000	99.632000 
3966.000000	99.633260 
3965.000000	99.631004 
3964.000000	99.626685 
3963.000000	99.623230 
3962.000000	99.623079 
3961.000000	99.626132 
3960.000000	99.629389 
3959.000000	99.629284 
3958.000000	99.625238 
3957.000000	99.620395 
3956.000000	99.618620 
3955.000000	99.620796 
3954.000000	99.624421 
3953.000000	99.626344 
3952.000000	99.625179 
3951.000000	99.621715 
3950.000000	99.617613 
3949.000000	99.614090 
3948.000000	99.611614 
3947.000000	99.610435 
3946.000000	99.610656 
3945.000000	99.611709 
3944.000000	99.612277 
3943.000000	99.611324 
3942.000000	99.609436 
3941.000000	99.608552 
3940.000000	99.609658 
3939.000000	99.611610 
3938.000000	99.612904 
3937.000000	99.613089 
3936.000000	99.612424 
3935.000000	99.610967 
3934.000000	99.609071 
3933.000000	99.608260 
3932.000000	99.610066 
3931.000000	99.614226 
3930.000000	99.618592 
3929.000000	99.620934 
3928.000000	99.620550 
3927.000000	99.617945 
3926.000000	99.614221 
3925.000000	99.611140 
3924.000000	99.610707 
3923.000000	99.613105 
3922.000000	99.615456 
3921.000000	99.614787 
3920.000000	99.611653 
3919.000000	99.608945 
3918.000000	99.607961 
3917.000000	99.607665 
3916.000000	99.607573 
3915.000000	99.608823 
3914.000000	99.611825 
3913.000000	99.614921 
3912.000000	99.616061 
3911.000000	99.614150 
3910.000000	99.610022 
3909.000000	99.605849 
3908.000000	99.604154 
3907.000000	99.605953 
3906.000000	99.609725 
3905.000000	99.612363 
3904.000000	99.612068 
3903.000000	99.610567 
3902.000000	99.610405 
3901.000000	99.610634 
3900.000000	99.608262 
3899.000000	99.603024 
3898.000000	99.597744 
3897.000000	99.594432 
3896.000000	99.592660 
3895.000000	99.592334 
3894.000000	99.595521 
3893.000000	99.602759 
3892.000000	99.610191 
3891.000000	99.613461 
3890.000000	99.615273 
3889.000000	99.620186 
3888.000000	99.626604 
3887.000000	99.629627 
3886.000000	99.626916 
3885.000000	99.621145 
3884.000000	99.618392 
3883.000000	99.619529 
3882.000000	99.619028 
3881.000000	99.613245 
3880.000000	99.604442 
3879.000000	99.598906 
3878.000000	99.600854 
3877.000000	99.607544 
3876.000000	99.613569 
3875.000000	99.615756 
3874.000000	99.614644 
3873.000000	99.613640 
3872.000000	99.613143 
3871.000000	99.608467 
3870.000000	99.597729 
3869.000000	99.588824 
3868.000000	99.591437 
3867.000000	99.602029 
3866.000000	99.609600 
3865.000000	99.611098 
3864.000000	99.611024 
3863.000000	99.612171 
3862.000000	99.613231 
3861.000000	99.611983 
3860.000000	99.608502 
3859.000000	99.602550 
3858.000000	99.593217 
3857.000000	99.581357 
3856.000000	99.572127 
3855.000000	99.571582 
3854.000000	99.575500 
3853.000000	99.572609 
3852.000000	99.571007 
3851.000000	99.583570 
3850.000000	99.601366 
3849.000000	99.613104 
3848.000000	99.618498 
3847.000000	99.621200 
3846.000000	99.622972 
3845.000000	99.623873 
3844.000000	99.623996 
3843.000000	99.623802 
3842.000000	99.623970 
3841.000000	99.623955 
3840.000000	99.622829 
3839.000000	99.620364 
3838.000000	99.617165 
3837.000000	99.613882 
3836.000000	99.611378 
3835.000000	99.609823 
3834.000000	99.608744 
3833.000000	99.608291 
3832.000000	99.609517 
3831.000000	99.613333 
3830.000000	99.619439 
3829.000000	99.625414 
3828.000000	99.627728 
3827.000000	99.624462 
3826.000000	99.618304 
3825.000000	99.614826 
3824.000000	99.616797 
3823.000000	99.621334 
3822.000000	99.622390 
3821.000000	99.615545 
3820.000000	99.607616 
3819.000000	99.608701 
3818.000000	99.614496 
3817.000000	99.615266 
3816.000000	99.609292 
3815.000000	99.603635 
3814.000000	99.605183 
3813.000000	99.610162 
3812.000000	99.610409 
3811.000000	99.605735 
3810.000000	99.602240 
3809.000000	99.604105 
3808.000000	99.609155 
3807.000000	99.611868 
3806.000000	99.611712 
3805.000000	99.612967 
3804.000000	99.615013 
3803.000000	99.613394 
3802.000000	99.606682 
3801.000000	99.597160 
3800.000000	99.592411 
3799.000000	99.595321 
3798.000000	99.598586 
3797.000000	99.597957 
3796.000000	99.596529 
3795.000000	99.598386 
3794.000000	99.603193 
3793.000000	99.607605 
3792.000000	99.610058 
3791.000000	99.611588 
3790.000000	99.612744 
3789.000000	99.613330 
3788.000000	99.614388 
3787.000000	99.617930 
3786.000000	99.623992 
3785.000000	99.630104 
3784.000000	99.634589 
3783.000000	99.638168 
3782.000000	99.641381 
3781.000000	99.642641 
3780.000000	99.639751 
3779.000000	99.632486 
3778.000000	99.624080 
3777.000000	99.617645 
3776.000000	99.612996 
3775.000000	99.609073 
3774.000000	99.607134 
3773.000000	99.608760 
3772.000000	99.612547 
3771.000000	99.614494 
3770.000000	99.612549 
3769.000000	99.609688 
3768.000000	99.610309 
3767.000000	99.613737 
3766.000000	99.615748 
3765.000000	99.615105 
3764.000000	99.615161 
3763.000000	99.618656 
3762.000000	99.623722 
3761.000000	99.627299 
3760.000000	99.629040 
3759.000000	99.629260 
3758.000000	99.627770 
3757.000000	99.624893 
3756.000000	99.621808 
3755.000000	99.618883 
3754.000000	99.615846 
3753.000000	99.613966 
3752.000000	99.614222 
3751.000000	99.612117 
3750.000000	99.602483 
3749.000000	99.590281 
3748.000000	99.584220 
3747.000000	99.584656 
3746.000000	99.586753 
3745.000000	99.586538 
3744.000000	99.582271 
3743.000000	99.581936 
3742.000000	99.589913 
3741.000000	99.594648 
3740.000000	99.589975 
3739.000000	99.582664 
3738.000000	99.580150 
3737.000000	99.582563 
3736.000000	99.586117 
3735.000000	99.589626 
3734.000000	99.593717 
3733.000000	99.596740 
3732.000000	99.597463 
3731.000000	99.599083 
3730.000000	99.604147 
3729.000000	99.609572 
3728.000000	99.611107 
3727.000000	99.609890 
3726.000000	99.610849 
3725.000000	99.616103 
3724.000000	99.621688 
3723.000000	99.622878 
3722.000000	99.620202 
3721.000000	99.618148 
3720.000000	99.619711 
3719.000000	99.622874 
3718.000000	99.623205 
3717.000000	99.618322 
3716.000000	99.609253 
3715.000000	99.598301 
3714.000000	99.587913 
3713.000000	99.581217 
3712.000000	99.580069 
3711.000000	99.583763 
3710.000000	99.591324 
3709.000000	99.600614 
3708.000000	99.607646 
3707.000000	99.609851 
3706.000000	99.608331 
3705.000000	99.605990 
3704.000000	99.604759 
3703.000000	99.604588 
3702.000000	99.604136 
3701.000000	99.603173 
3700.000000	99.603789 
3699.000000	99.606455 
3698.000000	99.607832 
3697.000000	99.605398 
3696.000000	99.601144 
3695.000000	99.599359 
3694.000000	99.601651 
3693.000000	99.606219 
3692.000000	99.610448 
3691.000000	99.611864 
3690.000000	99.607952 
3689.000000	99.598240 
3688.000000	99.588458 
3687.000000	99.586428 
3686.000000	99.592165 
3685.000000	99.598260 
3684.000000	99.599729 
3683.000000	99.597888 
3682.000000	99.595985 
3681.000000	99.594426 
3680.000000	99.591621 
3679.000000	99.588276 
3678.000000	99.585935 
3677.000000	99.583704 
3676.000000	99.577729 
3675.000000	99.568548 
3674.000000	99.567193 
3673.000000	99.576928 
3672.000000	99.586280 
3671.000000	99.589209 
3670.000000	99.588394 
3669.000000	99.587463 
3668.000000	99.589379 
3667.000000	99.592019 
3666.000000	99.591487 
3665.000000	99.588579 
3664.000000	99.586712 
3663.000000	99.587486 
3662.000000	99.589671 
3661.000000	99.591073 
3660.000000	99.590712 
3659.000000	99.589197 
3658.000000	99.586918 
3657.000000	99.583392 
3656.000000	99.578819 
3655.000000	99.577455 
3654.000000	99.582757 
3653.000000	99.591780 
3652.000000	99.599876 
3651.000000	99.604381 
3650.000000	99.600854 
3649.000000	99.585730 
3648.000000	99.566218 
3647.000000	99.554851 
3646.000000	99.555752 
3645.000000	99.563757 
3644.000000	99.572177 
3643.000000	99.577754 
3642.000000	99.580828 
3641.000000	99.582800 
3640.000000	99.584818 
3639.000000	99.588108 
3638.000000	99.594272 
3637.000000	99.603550 
3636.000000	99.611970 
3635.000000	99.613020 
3634.000000	99.604023 
3633.000000	99.589829 
3632.000000	99.578243 
3631.000000	99.574042 
3630.000000	99.576230 
3629.000000	99.576268 
3628.000000	99.569209 
3627.000000	99.563858 
3626.000000	99.564862 
3625.000000	99.567451 
3624.000000	99.568999 
3623.000000	99.569623 
3622.000000	99.568961 
3621.000000	99.566723 
3620.000000	99.564174 
3619.000000	99.563171 
3618.000000	99.565560 
3617.000000	99.571874 
3616.000000	99.578931 
3615.000000	99.582148 
3614.000000	99.579488 
3613.000000	99.572540 
3612.000000	99.565035 
3611.000000	99.559934 
3610.000000	99.557778 
3609.000000	99.557716 
3608.000000	99.558550 
3607.000000	99.559740 
3606.000000	99.561889 
3605.000000	99.565639 
3604.000000	99.571089 
3603.000000	99.577293 
3602.000000	99.581952 
3601.000000	99.583599 
3600.000000	99.583811 
3599.000000	99.585397 
3598.000000	99.588344 
3597.000000	99.590171 
3596.000000	99.588742 
3595.000000	99.584583 
3594.000000	99.580487 
3593.000000	99.580005 
3592.000000	99.584813 
3591.000000	99.593699 
3590.000000	99.603330 
3589.000000	99.609133 
3588.000000	99.606490 
3587.000000	99.595392 
3586.000000	99.583259 
3585.000000	99.577420 
3584.000000	99.578312 
3583.000000	99.582374 
3582.000000	99.586133 
3581.000000	99.587657 
3580.000000	99.586659 
3579.000000	99.584118 
3578.000000	99.580895 
3577.000000	99.577626 
3576.000000	99.575389 
3575.000000	99.575650 
3574.000000	99.578918 
3573.000000	99.583725 
3572.000000	99.587557 
3571.000000	99.588484 
3570.000000	99.586007 
3569.000000	99.580825 
3568.000000	99.574514 
3567.000000	99.569501 
3566.000000	99.568879 
3565.000000	99.573440 
3564.000000	99.579221 
3563.000000	99.581840 
3562.000000	99.581214 
3561.000000	99.580274 
3560.000000	99.580854 
3559.000000	99.581999 
3558.000000	99.581816 
3557.000000	99.580087 
3556.000000	99.578758 
3555.000000	99.579754 
3554.000000	99.582810 
3553.000000	99.585791 
3552.000000	99.587115 
3551.000000	99.586975 
3550.000000	99.585767 
3549.000000	99.582882 
3548.000000	99.578135 
3547.000000	99.573012 
3546.000000	99.569640 
3545.000000	99.569185 
3544.000000	99.571509 
3543.000000	99.575553 
3542.000000	99.579823 
3541.000000	99.582968 
3540.000000	99.584654 
3539.000000	99.585650 
3538.000000	99.586752 
3537.000000	99.587604 
3536.000000	99.587005 
3535.000000	99.584522 
3534.000000	99.581087 
3533.000000	99.578268 
3532.000000	99.577089 
3531.000000	99.577641 
3530.000000	99.579040 
3529.000000	99.580155 
3528.000000	99.580689 
3527.000000	99.581470 
3526.000000	99.583142 
3525.000000	99.584893 
3524.000000	99.585185 
3523.000000	99.583574 
3522.000000	99.581170 
3521.000000	99.579102 
3520.000000	99.577332 
3519.000000	99.575342 
3518.000000	99.573378 
3517.000000	99.572458 
3516.000000	99.573425 
3515.000000	99.576637 
3514.000000	99.582104 
3513.000000	99.589024 
3512.000000	99.595027 
3511.000000	99.597212 
3510.000000	99.594879 
3509.000000	99.590889 
3508.000000	99.589241 
3507.000000	99.590970 
3506.000000	99.592801 
3505.000000	99.590112 
3504.000000	99.581419 
3503.000000	99.570613 
3502.000000	99.564514 
3501.000000	99.567157 
3500.000000	99.575947 
3499.000000	99.583632 
3498.000000	99.584362 
3497.000000	99.578528 
3496.000000	99.571909 
3495.000000	99.569843 
3494.000000	99.572387 
3493.000000	99.575244 
3492.000000	99.574767 
3491.000000	99.571384 
3490.000000	99.568499 
3489.000000	99.568809 
3488.000000	99.572104 
3487.000000	99.576223 
3486.000000	99.579390 
3485.000000	99.581440 
3484.000000	99.583247 
3483.000000	99.585444 
3482.000000	99.587454 
3481.000000	99.587795 
3480.000000	99.585587 
3479.000000	99.581937 
3478.000000	99.579397 
3477.000000	99.579466 
3476.000000	99.580771 
3475.000000	99.580368 
3474.000000	99.577195 
3473.000000	99.573414 
3472.000000	99.571936 
3471.000000	99.573373 
3470.000000	99.576079 
3469.000000	99.578464 
3468.000000	99.580171 
3467.000000	99.581209 
3466.000000	99.581086 
3465.000000	99.579247 
3464.000000	99.575843 
3463.000000	99.571662 
3462.000000	99.567463 
3461.000000	99.563676 
3460.000000	99.560559 
3459.000000	99.558459 
3458.000000	99.557788 
3457.000000	99.558577 
3456.000000	99.560030 
3455.000000	99.560987 
3454.000000	99.561144 
3453.000000	99.561670 
3452.000000	99.564067 
3451.000000	99.568427 
3450.000000	99.573018 
3449.000000	99.575743 
3448.000000	99.575698 
3447.000000	99.573435 
3446.000000	99.570286 
3445.000000	99.567674 
3444.000000	99.566546 
3443.000000	99.566835 
3442.000000	99.567405 
3441.000000	99.567088 
3440.000000	99.565992 
3439.000000	99.565204 
3438.000000	99.565113 
3437.000000	99.564631 
3436.000000	99.562603 
3435.000000	99.559707 
3434.000000	99.558203 
3433.000000	99.559753 
3432.000000	99.563715 
3431.000000	99.567691 
3430.000000	99.569400 
3429.000000	99.568136 
3428.000000	99.564845 
3427.000000	99.561089 
3426.000000	99.558062 
3425.000000	99.556386 
3424.000000	99.556362 
3423.000000	99.557853 
3422.000000	99.559847 
3421.000000	99.560599 
3420.000000	99.558760 
3419.000000	99.554653 
3418.000000	99.550349 
3417.000000	99.548317 
3416.000000	99.549600 
3415.000000	99.553024 
3414.000000	99.556160 
3413.000000	99.557235 
3412.000000	99.556231 
3411.000000	99.554396 
3410.000000	99.553204 
3409.000000	99.553685 
3408.000000	99.555881 
3407.000000	99.558331 
3406.000000	99.558748 
3405.000000	99.556139 
3404.000000	99.552237 
3403.000000	99.550210 
3402.000000	99.551787 
3401.000000	99.555945 
3400.000000	99.560185 
3399.000000	99.562649 
3398.000000	99.563219 
3397.000000	99.563154 
3396.000000	99.563750 
3395.000000	99.565078 
3394.000000	99.566100 
3393.000000	99.566102 
3392.000000	99.565553 
3391.000000	99.565155 
3390.000000	99.564601 
3389.000000	99.563168 
3388.000000	99.561248 
3387.000000	99.560157 
3386.000000	99.560237 
3385.000000	99.560099 
3384.000000	99.558396 
3383.000000	99.555777 
3382.000000	99.554350 
3381.000000	99.555276 
3380.000000	99.557301 
3379.000000	99.557802 
3378.000000	99.555371 
3377.000000	99.551506 
3376.000000	99.549650 
3375.000000	99.552250 
3374.000000	99.558596 
3373.000000	99.565414 
3372.000000	99.569423 
3371.000000	99.569366 
3370.000000	99.566279 
3369.000000	99.562540 
3368.000000	99.560416 
3367.000000	99.560569 
3366.000000	99.561557 
3365.000000	99.561286 
3364.000000	99.559241 
3363.000000	99.556936 
3362.000000	99.556011 
3361.000000	99.556375 
3360.000000	99.556536 
3359.000000	99.555368 
3358.000000	99.553217 
3357.000000	99.551545 
3356.000000	99.551732 
3355.000000	99.553863 
3354.000000	99.556353 
3353.000000	99.557139 
3352.000000	99.555712 
3351.000000	99.553920 
3350.000000	99.554487 
3349.000000	99.558681 
3348.000000	99.565378 
3347.000000	99.571983 
3346.000000	99.576034 
3345.000000	99.576434 
3344.000000	99.573751 
3343.000000	99.569406 
3342.000000	99.564454 
3341.000000	99.559420 
3340.000000	99.555246 
3339.000000	99.553452 
3338.000000	99.554465 
3337.000000	99.556294 
3336.000000	99.556113 
3335.000000	99.553503 
3334.000000	99.551242 
3333.000000	99.552326 
3332.000000	99.556680 
3331.000000	99.561239 
3330.000000	99.563103 
3329.000000	99.562255 
3328.000000	99.561242 
3327.000000	99.562348 
3326.000000	99.565233 
3325.000000	99.567511 
3324.000000	99.567651 
3323.000000	99.566895 
3322.000000	99.567701 
3321.000000	99.570467 
3320.000000	99.572603 
3319.000000	99.571302 
3318.000000	99.566846 
3317.000000	99.562523 
3316.000000	99.561366 
3315.000000	99.563389 
3314.000000	99.566032 
3313.000000	99.566918 
3312.000000	99.565909 
3311.000000	99.564677 
3310.000000	99.564601 
3309.000000	99.565364 
3308.000000	99.565616 
3307.000000	99.564706 
3306.000000	99.563359 
3305.000000	99.562641 
3304.000000	99.562718 
3303.000000	99.563000 
3302.000000	99.563283 
3301.000000	99.564207 
3300.000000	99.566350 
3299.000000	99.569097 
3298.000000	99.570708 
3297.000000	99.569705 
3296.000000	99.566359 
3295.000000	99.562918 
3294.000000	99.562193 
3293.000000	99.565480 
3292.000000	99.571435 
3291.000000	99.576976 
3290.000000	99.579499 
3289.000000	99.578480 
3288.000000	99.575310 
3287.000000	99.571983 
3286.000000	99.569969 
3285.000000	99.569855 
3284.000000	99.571329 
3283.000000	99.573201 
3282.000000	99.573829 
3281.000000	99.572027 
3280.000000	99.567894 
3279.000000	99.562850 
3278.000000	99.558873 
3277.000000	99.557426 
3276.000000	99.558699 
3275.000000	99.561544 
3274.000000	99.564115 
3273.000000	99.564788 
3272.000000	99.562765 
3271.000000	99.558232 
3270.000000	99.552322 
3269.000000	99.546964 
3268.000000	99.544339 
3267.000000	99.545920 
3266.000000	99.551590 
3265.000000	99.559594 
3264.000000	99.567437 
3263.000000	99.573236 
3262.000000	99.576643 
3261.000000	99.578528 
3260.000000	99.579637 
3259.000000	99.579642 
3258.000000	99.577722 
3257.000000	99.573891 
3256.000000	99.569375 
3255.000000	99.565711 
3254.000000	99.563857 
3253.000000	99.564165 
3252.000000	99.566466 
3251.000000	99.569775 
3250.000000	99.572456 
3249.000000	99.573404 
3248.000000	99.573015 
3247.000000	99.572525 
3246.000000	99.572473 
3245.000000	99.572258 
3244.000000	99.571288 
3243.000000	99.570262 
3242.000000	99.571147 
3241.000000	99.575659 
3240.000000	99.583207 
3239.000000	99.590083 
3238.000000	99.591486 
3237.000000	99.585450 
3236.000000	99.574976 
3235.000000	99.565770 
3234.000000	99.561788 
3233.000000	99.563171 
3232.000000	99.567855 
3231.000000	99.573887 
3230.000000	99.579790 
3229.000000	99.583840 
3228.000000	99.584226 
3227.000000	99.580160 
3226.000000	99.572684 
3225.000000	99.564537 
3224.000000	99.559059 
3223.000000	99.558310 
3222.000000	99.561620 
3221.000000	99.566258 
3220.000000	99.569916 
3219.000000	99.572255 
3218.000000	99.573850 
3217.000000	99.574443 
3216.000000	99.573191 
3215.000000	99.570291 
3214.000000	99.567347 
3213.000000	99.565947 
3212.000000	99.566526 
3211.000000	99.568687 
3210.000000	99.571836 
3209.000000	99.575157 
3208.000000	99.577646 
3207.000000	99.578768 
3206.000000	99.579001 
3205.000000	99.579425 
3204.000000	99.580822 
3203.000000	99.583216 
3202.000000	99.586134 
3201.000000	99.589107 
3200.000000	99.591876 
3199.000000	99.594138 
3198.000000	99.595311 
3197.000000	99.594986 
3196.000000	99.593725 
3195.000000	99.592770 
3194.000000	99.592392 
3193.000000	99.591058 
3192.000000	99.587184 
3191.000000	99.581648 
3190.000000	99.577548 
3189.000000	99.577189 
3188.000000	99.580018 
3187.000000	99.583759 
3186.000000	99.586656 
3185.000000	99.588004 
3184.000000	99.587465 
3183.000000	99.585059 
3182.000000	99.581682 
3181.000000	99.578685 
3180.000000	99.576774 
3179.000000	99.575685 
3178.000000	99.574727 
3177.000000	99.573147 
3176.000000	99.570321 
3175.000000	99.566546 
3174.000000	99.563726 
3173.000000	99.564238 
3172.000000	99.568442 
3171.000000	99.573778 
3170.000000	99.577056 
3169.000000	99.577596 
3168.000000	99.577651 
3167.000000	99.579788 
3166.000000	99.584283 
3165.000000	99.589169 
3164.000000	99.592425 
3163.000000	99.593784 
3162.000000	99.594494 
3161.000000	99.595721 
3160.000000	99.597444 
3159.000000	99.598748 
3158.000000	99.598847 
3157.000000	99.597639 
3156.000000	99.595464 
3155.000000	99.592636 
3154.000000	99.589451 
3153.000000	99.586641 
3152.000000	99.585419 
3151.000000	99.586490 
3150.000000	99.588898 
3149.000000	99.590462 
3148.000000	99.589951 
3147.000000	99.588527 
3146.000000	99.588340 
3145.000000	99.589759 
3144.000000	99.590909 
3143.000000	99.590244 
3142.000000	99.588727 
3141.000000	99.588683 
3140.000000	99.590948 
3139.000000	99.594068 
3138.000000	99.596263 
3137.000000	99.597260 
3136.000000	99.597814 
3135.000000	99.598111 
3134.000000	99.597427 
3133.000000	99.595303 
3132.000000	99.592534 
3131.000000	99.590662 
3130.000000	99.590500 
3129.000000	99.591323 
3128.000000	99.591654 
3127.000000	99.590832 
3126.000000	99.589586 
3125.000000	99.588978 
3124.000000	99.589039 
3123.000000	99.588720 
3122.000000	99.587148 
3121.000000	99.584840 
3120.000000	99.583572 
3119.000000	99.584845 
3118.000000	99.588210 
3117.000000	99.591263 
3116.000000	99.591767 
3115.000000	99.589864 
3114.000000	99.587625 
3113.000000	99.586345 
3112.000000	99.585182 
3111.000000	99.583097 
3110.000000	99.581164 
3109.000000	99.581572 
3108.000000	99.584490 
3107.000000	99.587261 
3106.000000	99.587132 
3105.000000	99.583949 
3104.000000	99.579832 
3103.000000	99.577100 
3102.000000	99.577174 
3101.000000	99.580497 
3100.000000	99.586121 
3099.000000	99.591412 
3098.000000	99.593558 
3097.000000	99.592162 
3096.000000	99.589874 
3095.000000	99.589886 
3094.000000	99.592943 
3093.000000	99.597028 
3092.000000	99.599427 
3091.000000	99.598672 
3090.000000	99.595094 
3089.000000	99.590598 
3088.000000	99.587946 
3087.000000	99.589104 
3086.000000	99.593369 
3085.000000	99.597459 
3084.000000	99.598211 
3083.000000	99.595322 
3082.000000	99.591231 
3081.000000	99.588533 
3080.000000	99.587892 
3079.000000	99.588201 
3078.000000	99.587989 
3077.000000	99.586489 
3076.000000	99.584091 
3075.000000	99.582277 
3074.000000	99.582702 
3073.000000	99.585830 
3072.000000	99.590603 
3071.000000	99.595630 
3070.000000	99.600183 
3069.000000	99.603582 
3068.000000	99.604316 
3067.000000	99.601008 
3066.000000	99.594465 
3065.000000	99.587823 
3064.000000	99.584016 
3063.000000	99.583422 
3062.000000	99.584346 
3061.000000	99.585254 
3060.000000	99.585945 
3059.000000	99.586856 
3058.000000	99.588031 
3057.000000	99.589082 
3056.000000	99.589772 
3055.000000	99.590360 
3054.000000	99.591356 
3053.000000	99.592999 
3052.000000	99.594999 
3051.000000	99.596873 
3050.000000	99.598436 
3049.000000	99.599561 
3048.000000	99.599353 
3047.000000	99.596264 
3046.000000	99.589910 
3045.000000	99.582607 
3044.000000	99.578113 
3043.000000	99.578324 
3042.000000	99.581598 
3041.000000	99.584602 
3040.000000	99.585491 
3039.000000	99.585011 
3038.000000	99.585083 
3037.000000	99.586933 
3036.000000	99.590403 
3035.000000	99.594319 
3034.000000	99.597270 
3033.000000	99.598428 
3032.000000	99.597969 
3031.000000	99.596689 
3030.000000	99.595163 
3029.000000	99.593331 
3028.000000	99.591004 
3027.000000	99.588650 
3026.000000	99.587422 
3025.000000	99.588124 
3024.000000	99.590067 
3023.000000	99.591143 
3022.000000	99.589440 
3021.000000	99.585058 
3020.000000	99.580352 
3019.000000	99.578213 
3018.000000	99.579951 
3017.000000	99.584599 
3016.000000	99.589869 
3015.000000	99.593625 
3014.000000	99.594814 
3013.000000	99.593602 
3012.000000	99.590855 
3011.000000	99.587343 
3010.000000	99.583331 
3009.000000	99.579018 
3008.000000	99.575306 
3007.000000	99.573809 
3006.000000	99.575690 
3005.000000	99.580225 
3004.000000	99.584557 
3003.000000	99.585299 
3002.000000	99.581032 
3001.000000	99.573668 
3000.000000	99.567181 
2999.000000	99.564537 
2998.000000	99.565672 
2997.000000	99.568440 
2996.000000	99.571144 
2995.000000	99.573603 
2994.000000	99.575808 
2993.000000	99.576517 
2992.000000	99.574152 
2991.000000	99.568990 
2990.000000	99.563618 
2989.000000	99.560591 
2988.000000	99.559871 
2987.000000	99.559162 
2986.000000	99.556860 
2985.000000	99.554133 
2984.000000	99.553594 
2983.000000	99.556144 
2982.000000	99.559747 
2981.000000	99.561487 
2980.000000	99.560445 
2979.000000	99.558246 
2978.000000	99.557154 
2977.000000	99.558132 
2976.000000	99.560479 
2975.000000	99.562547 
2974.000000	99.562572 
2973.000000	99.559545 
2972.000000	99.553980 
2971.000000	99.547757 
2970.000000	99.542775 
2969.000000	99.539728 
2968.000000	99.538224 
2967.000000	99.537728 
2966.000000	99.537920 
2965.000000	99.538400 
2964.000000	99.538827 
2963.000000	99.539507 
2962.000000	99.541155 
2961.000000	99.543622 
2960.000000	99.545372 
2959.000000	99.544928 
2958.000000	99.542701 
2957.000000	99.540623 
2956.000000	99.539720 
2955.000000	99.538704 
2954.000000	99.535669 
2953.000000	99.531153 
2952.000000	99.528747 
2951.000000	99.531910 
2950.000000	99.540054 
2949.000000	99.548267 
2948.000000	99.551419 
2947.000000	99.548588 
2946.000000	99.543295 
2945.000000	99.539625 
2944.000000	99.538703 
2943.000000	99.538879 
2942.000000	99.538300 
2941.000000	99.536372 
2940.000000	99.533117 
2939.000000	99.528269 
2938.000000	99.521524 
2937.000000	99.513335 
2936.000000	99.505163 
2935.000000	99.498989 
2934.000000	99.496261 
2933.000000	99.496670 
2932.000000	99.497822 
2931.000000	99.496731 
2930.000000	99.492103 
2929.000000	99.485046 
2928.000000	99.477709 
2927.000000	99.471830 
2926.000000	99.468633 
2925.000000	99.468980 
2924.000000	99.472697 
2923.000000	99.478214 
2922.000000	99.483655 
2921.000000	99.488151 
2920.000000	99.491592 
2919.000000	99.493702 
2918.000000	99.494373 
2917.000000	99.494801 
2916.000000	99.497258 
2915.000000	99.503317 
2914.000000	99.512611 
2913.000000	99.523210 
2912.000000	99.532675 
2911.000000	99.538962 
2910.000000	99.541404 
2909.000000	99.541250 
2908.000000	99.540553 
2907.000000	99.540245 
2906.000000	99.539891 
2905.000000	99.539366 
2904.000000	99.539567 
2903.000000	99.540803 
2902.000000	99.541684 
2901.000000	99.540819 
2900.000000	99.538987 
2899.000000	99.538222 
2898.000000	99.538796 
2897.000000	99.539032 
2896.000000	99.538298 
2895.000000	99.538680 
2894.000000	99.542489 
2893.000000	99.548936 
2892.000000	99.554536 
2891.000000	99.556622 
2890.000000	99.555634 
2889.000000	99.554085 
2888.000000	99.554180 
2887.000000	99.556454 
2886.000000	99.559815 
2885.000000	99.562295 
2884.000000	99.562263 
2883.000000	99.559669 
2882.000000	99.556229 
2881.000000	99.554166 
2880.000000	99.554678 
2879.000000	99.557599 
2878.000000	99.562145 
2877.000000	99.567406 
2876.000000	99.572036 
2875.000000	99.574157 
2874.000000	99.572422 
2873.000000	99.567507 
2872.000000	99.562232 
2871.000000	99.559734 
2870.000000	99.561217 
2869.000000	99.565321 
2868.000000	99.569548 
2867.000000	99.572308 
2866.000000	99.573874 
2865.000000	99.575625 
2864.000000	99.578307 
2863.000000	99.580700 
2862.000000	99.580001 
2861.000000	99.574048 
2860.000000	99.563763 
2859.000000	99.553266 
2858.000000	99.546867 
2857.000000	99.545556 
2856.000000	99.546578 
2855.000000	99.546671 
2854.000000	99.545369 
2853.000000	99.544811 
2852.000000	99.546813 
2851.000000	99.550986 
2850.000000	99.555840 
2849.000000	99.560740 
2848.000000	99.566070 
2847.000000	99.571895 
2846.000000	99.577213 
2845.000000	99.580564 
2844.000000	99.581075 
2843.000000	99.579248 
2842.000000	99.577274 
2841.000000	99.578127 
2840.000000	99.583219 
2839.000000	99.590551 
2838.000000	99.595870 
2837.000000	99.596200 
2836.000000	99.592122 
2835.000000	99.586807 
2834.000000	99.583500 
2833.000000	99.583976 
2832.000000	99.588159 
2831.000000	99.594267 
2830.000000	99.599781 
2829.000000	99.603221 
2828.000000	99.605079 
2827.000000	99.606573 
2826.000000	99.607773 
2825.000000	99.607510 
2824.000000	99.605087 
2823.000000	99.601546 
2822.000000	99.599140 
2821.000000	99.599706 
2820.000000	99.603289 
2819.000000	99.607996 
2818.000000	99.611431 
2817.000000	99.612691 
2816.000000	99.612816 
2815.000000	99.613097 
2814.000000	99.613429 
2813.000000	99.612820 
2812.000000	99.610936 
2811.000000	99.608266 
2810.000000	99.605119 
2809.000000	99.601557 
2808.000000	99.598372 
2807.000000	99.597067 
2806.000000	99.598399 
2805.000000	99.601553 
2804.000000	99.605113 
2803.000000	99.608265 
2802.000000	99.610742 
2801.000000	99.612127 
2800.000000	99.611829 
2799.000000	99.609685 
2798.000000	99.606441 
2797.000000	99.603666 
2796.000000	99.602916 
2795.000000	99.604427 
2794.000000	99.606604 
2793.000000	99.607291 
2792.000000	99.605645 
2791.000000	99.602506 
2790.000000	99.599319 
2789.000000	99.597440 
2788.000000	99.598083 
2787.000000	99.601568 
2786.000000	99.606288 
2785.000000	99.609610 
2784.000000	99.610470 
2783.000000	99.610146 
2782.000000	99.609999 
2781.000000	99.609589 
2780.000000	99.607991 
2779.000000	99.605991 
2778.000000	99.605540 
2777.000000	99.607353 
2776.000000	99.610148 
2775.000000	99.612152 
2774.000000	99.612503 
2773.000000	99.611364 
2772.000000	99.609597 
2771.000000	99.608383 
2770.000000	99.608521 
2769.000000	99.610070 
2768.000000	99.612970 
2767.000000	99.617313 
2766.000000	99.622228 
2765.000000	99.625223 
2764.000000	99.624172 
2763.000000	99.619975 
2762.000000	99.616049 
2761.000000	99.614970 
2760.000000	99.616577 
2759.000000	99.619316 
2758.000000	99.622054 
2757.000000	99.624189 
2756.000000	99.625371 
2755.000000	99.625947 
2754.000000	99.626763 
2753.000000	99.627755 
2752.000000	99.627596 
2751.000000	99.625562 
2750.000000	99.622823 
2749.000000	99.620848 
2748.000000	99.619172 
2747.000000	99.616057 
2746.000000	99.611157 
2745.000000	99.606412 
2744.000000	99.604162 
2743.000000	99.605167 
2742.000000	99.608463 
2741.000000	99.612333 
2740.000000	99.615263 
2739.000000	99.616722 
2738.000000	99.617440 
2737.000000	99.618570 
2736.000000	99.620299 
2735.000000	99.621538 
2734.000000	99.621058 
2733.000000	99.618606 
2732.000000	99.614889 
2731.000000	99.610890 
2730.000000	99.607514 
2729.000000	99.605621 
2728.000000	99.605963 
2727.000000	99.608749 
2726.000000	99.613078 
2725.000000	99.616989 
2724.000000	99.618753 
2723.000000	99.618510 
2722.000000	99.618221 
2721.000000	99.619509 
2720.000000	99.621827 
2719.000000	99.623297 
2718.000000	99.622941 
2717.000000	99.621327 
2716.000000	99.619446 
2715.000000	99.618146 
2714.000000	99.618612 
2713.000000	99.621768 
2712.000000	99.626385 
2711.000000	99.629046 
2710.000000	99.627410 
2709.000000	99.623082 
2708.000000	99.619998 
2707.000000	99.620058 
2706.000000	99.621457 
2705.000000	99.621433 
2704.000000	99.619488 
2703.000000	99.617330 
2702.000000	99.616489 
2701.000000	99.616866 
2700.000000	99.617367 
2699.000000	99.617121 
2698.000000	99.615919 
2697.000000	99.613985 
2696.000000	99.611766 
2695.000000	99.609920 
2694.000000	99.609167 
2693.000000	99.609796 
2692.000000	99.611181 
2691.000000	99.612110 
2690.000000	99.612013 
2689.000000	99.611878 
2688.000000	99.613440 
2687.000000	99.617141 
2686.000000	99.621131 
2685.000000	99.622727 
2684.000000	99.620948 
2683.000000	99.617453 
2682.000000	99.614998 
2681.000000	99.615142 
2680.000000	99.617383 
2679.000000	99.620081 
2678.000000	99.621859 
2677.000000	99.622269 
2676.000000	99.621654 
2675.000000	99.620757 
2674.000000	99.620303 
2673.000000	99.620529 
2672.000000	99.620906 
2671.000000	99.620411 
2670.000000	99.618226 
2669.000000	99.614306 
2668.000000	99.609542 
2667.000000	99.605542 
2666.000000	99.603989 
2665.000000	99.605566 
2664.000000	99.609330 
2663.000000	99.613495 
2662.000000	99.617014 
2661.000000	99.619982 
2660.000000	99.622302 
2659.000000	99.622654 
2658.000000	99.619610 
2657.000000	99.613682 
2656.000000	99.607580 
2655.000000	99.604191 
2654.000000	99.604455 
2653.000000	99.606937 
2652.000000	99.609031 
2651.000000	99.608820 
2650.000000	99.606515 
2649.000000	99.604175 
2648.000000	99.603561 
2647.000000	99.604406 
2646.000000	99.605338 
2645.000000	99.606130 
2644.000000	99.607763 
2643.000000	99.610188 
2642.000000	99.611585 
2641.000000	99.610838 
2640.000000	99.609737 
2639.000000	99.611403 
2638.000000	99.616756 
2637.000000	99.623291 
2636.000000	99.627113 
2635.000000	99.625833 
2634.000000	99.620300 
2633.000000	99.614476 
2632.000000	99.612896 
2631.000000	99.616779 
2630.000000	99.622535 
2629.000000	99.625018 
2628.000000	99.622316 
2627.000000	99.616863 
2626.000000	99.612425 
2625.000000	99.611082 
2624.000000	99.612636 
2623.000000	99.615258 
2622.000000	99.616490 
2621.000000	99.615071 
2620.000000	99.612395 
2619.000000	99.611194 
2618.000000	99.612424 
2617.000000	99.614367 
2616.000000	99.615064 
2615.000000	99.614440 
2614.000000	99.613635 
2613.000000	99.613574 
2612.000000	99.614993 
2611.000000	99.618621 
2610.000000	99.624118 
2609.000000	99.629496 
2608.000000	99.632724 
2607.000000	99.633667 
2606.000000	99.633827 
2605.000000	99.634508 
2604.000000	99.635691 
2603.000000	99.636143 
2602.000000	99.634320 
2601.000000	99.629942 
2600.000000	99.625149 
2599.000000	99.623109 
2598.000000	99.624784 
2597.000000	99.627851 
2596.000000	99.629262 
2595.000000	99.627728 
2594.000000	99.623269 
2593.000000	99.616362 
2592.000000	99.609153 
2591.000000	99.605874 
2590.000000	99.609512 
2589.000000	99.618454 
2588.000000	99.628104 
2587.000000	99.635054 
2586.000000	99.637732 
2585.000000	99.634360 
2584.000000	99.624000 
2583.000000	99.610214 
2582.000000	99.600327 
2581.000000	99.598968 
2580.000000	99.603772 
2579.000000	99.608663 
2578.000000	99.609986 
2577.000000	99.608487 
2576.000000	99.607134 
2575.000000	99.608628 
2574.000000	99.613723 
2573.000000	99.620070 
2572.000000	99.623269 
2571.000000	99.620543 
2570.000000	99.613232 
2569.000000	99.605088 
2568.000000	99.599063 
2567.000000	99.596536 
2566.000000	99.598210 
2565.000000	99.603774 
2564.000000	99.611032 
2563.000000	99.616911 
2562.000000	99.619504 
2561.000000	99.618759 
2560.000000	99.616136 
2559.000000	99.614306 
2558.000000	99.615494 
2557.000000	99.618340 
2556.000000	99.617879 
2555.000000	99.611324 
2554.000000	99.603077 
2553.000000	99.600826 
2552.000000	99.606510 
2551.000000	99.614185 
2550.000000	99.617551 
2549.000000	99.616421 
2548.000000	99.614132 
2547.000000	99.611719 
2546.000000	99.607938 
2545.000000	99.603612 
2544.000000	99.602372 
2543.000000	99.606565 
2542.000000	99.614434 
2541.000000	99.621951 
2540.000000	99.626227 
2539.000000	99.626892 
2538.000000	99.625232 
2537.000000	99.622422 
2536.000000	99.618258 
2535.000000	99.611863 
2534.000000	99.604114 
2533.000000	99.598419 
2532.000000	99.597737 
2531.000000	99.601316 
2530.000000	99.605836 
2529.000000	99.609435 
2528.000000	99.612945 
2527.000000	99.617339 
2526.000000	99.622145 
2525.000000	99.627051 
2524.000000	99.632960 
2523.000000	99.639910 
2522.000000	99.645234 
2521.000000	99.645672 
2520.000000	99.641105 
2519.000000	99.634942 
2518.000000	99.630827 
2517.000000	99.629635 
2516.000000	99.629496 
2515.000000	99.628076 
2514.000000	99.624906 
2513.000000	99.621723 
2512.000000	99.620177 
2511.000000	99.619263 
2510.000000	99.616364 
2509.000000	99.611640 
2508.000000	99.609712 
2507.000000	99.614717 
2506.000000	99.624019 
2505.000000	99.629164 
2504.000000	99.624135 
2503.000000	99.611507 
2502.000000	99.599719 
2501.000000	99.595507 
2500.000000	99.599816 
2499.000000	99.609598 
2498.000000	99.621274 
2497.000000	99.632092 
2496.000000	99.639891 
2495.000000	99.643155 
2494.000000	99.641509 
2493.000000	99.635697 
2492.000000	99.626973 
2491.000000	99.616789 
2490.000000	99.607066 
2489.000000	99.600104 
2488.000000	99.597419 
2487.000000	99.598533 
2486.000000	99.601571 
2485.000000	99.605403 
2484.000000	99.610582 
2483.000000	99.617516 
2482.000000	99.624314 
2481.000000	99.627774 
2480.000000	99.626677 
2479.000000	99.622979 
2478.000000	99.619205 
2477.000000	99.615765 
2476.000000	99.611728 
2475.000000	99.607384 
2474.000000	99.604582 
2473.000000	99.604683 
2472.000000	99.607478 
2471.000000	99.612226 
2470.000000	99.618240 
2469.000000	99.623651 
2468.000000	99.625103 
2467.000000	99.620603 
2466.000000	99.612701 
2465.000000	99.607215 
2464.000000	99.607894 
2463.000000	99.612901 
2462.000000	99.617101 
2461.000000	99.617328 
2460.000000	99.614879 
2459.000000	99.613345 
2458.000000	99.614887 
2457.000000	99.618566 
2456.000000	99.621515 
2455.000000	99.621347 
2454.000000	99.617801 
2453.000000	99.612515 
2452.000000	99.607409 
2451.000000	99.603421 
2450.000000	99.600635 
2449.000000	99.598926 
2448.000000	99.598047 
2447.000000	99.597696 
2446.000000	99.598331 
2445.000000	99.601522 
2444.000000	99.608315 
2443.000000	99.617169 
2442.000000	99.624531 
2441.000000	99.627811 
2440.000000	99.627091 
2439.000000	99.623885 
2438.000000	99.619531 
2437.000000	99.615248 
2436.000000	99.612135 
2435.000000	99.609653 
2434.000000	99.605191 
2433.000000	99.597130 
2432.000000	99.588182 
2431.000000	99.583768 
2430.000000	99.586534 
2429.000000	99.593794 
2428.000000	99.601129 
2427.000000	99.607133 
2426.000000	99.613068 
2425.000000	99.618522 
2424.000000	99.619714 
2423.000000	99.613409 
2422.000000	99.601663 
2421.000000	99.591124 
2420.000000	99.587135 
2419.000000	99.589432 
2418.000000	99.594071 
2417.000000	99.598432 
2416.000000	99.602813 
2415.000000	99.607609 
2414.000000	99.611183 
2413.000000	99.611709 
2412.000000	99.609851 
2411.000000	99.608090 
2410.000000	99.607839 
2409.000000	99.608448 
2408.000000	99.608831 
2407.000000	99.608866 
2406.000000	99.609072 
2405.000000	99.609849 
2404.000000	99.611298 
2403.000000	99.613110 
2402.000000	99.614445 
2401.000000	99.614422 
2400.000000	99.612859 
2399.000000	99.610279 
2398.000000	99.607516 
2397.000000	99.605844 
2396.000000	99.606855 
2395.000000	99.610940 
2394.000000	99.615871 
2393.000000	99.618153 
2392.000000	99.616477 
2391.000000	99.613186 
2390.000000	99.611908 
2389.000000	99.614250 
2388.000000	99.618972 
2387.000000	99.623621 
2386.000000	99.626403 
2385.000000	99.626997 
2384.000000	99.626379 
2383.000000	99.626050 
2382.000000	99.627253 
2381.000000	99.630561 
2380.000000	99.635431 
2379.000000	99.639508 
2378.000000	99.639391 
2377.000000	99.633787 
2376.000000	99.626213 
2375.000000	99.622651 
2374.000000	99.625247 
2373.000000	99.630343 
2372.000000	99.634052 
2371.000000	99.637711 
2370.000000	99.644945 
2369.000000	99.654136 
2368.000000	99.657619 
2367.000000	99.650011 
2366.000000	99.635271 
2365.000000	99.623290 
2364.000000	99.620293 
2363.000000	99.625845 
2362.000000	99.635137 
2361.000000	99.641471 
2360.000000	99.642341 
2359.000000	99.639749 
2358.000000	99.637916 
2357.000000	99.640532 
2356.000000	99.646664 
2355.000000	99.654053 
2354.000000	99.658583 
2353.000000	99.655830 
2352.000000	99.643334 
2351.000000	99.623254 
2350.000000	99.606931 
2349.000000	99.604690 
2348.000000	99.619489 
2347.000000	99.643035 
2346.000000	99.659975 
2345.000000	99.662043 
2344.000000	99.651196 
2343.000000	99.638918 
2342.000000	99.632429 
2341.000000	99.631721 
2340.000000	99.634620 
2339.000000	99.637779 
2338.000000	99.639967 
2337.000000	99.640550 
2336.000000	99.639987 
2335.000000	99.639264 
2334.000000	99.639662 
2333.000000	99.641594 
2332.000000	99.643835 
2331.000000	99.642271 
2330.000000	99.636550 
2329.000000	99.628115 
2328.000000	99.621836 
2327.000000	99.621159 
2326.000000	99.624043 
2325.000000	99.627049 
2324.000000	99.625215 
2323.000000	99.620980 
2322.000000	99.619493 
2321.000000	99.624837 
2320.000000	99.634636 
2319.000000	99.641973 
2318.000000	99.643205 
2317.000000	99.639212 
2316.000000	99.634639 
2315.000000	99.631887 
2314.000000	99.631163 
2313.000000	99.630748 
2312.000000	99.629978 
2311.000000	99.630090 
2310.000000	99.633562 
2309.000000	99.641272 
2308.000000	99.649442 
2307.000000	99.652321 
2306.000000	99.647057 
2305.000000	99.637151 
2304.000000	99.627701 
2303.000000	99.620824 
2302.000000	99.615712 
2301.000000	99.612614 
2300.000000	99.613033 
2299.000000	99.616070 
2298.000000	99.618014 
2297.000000	99.616947 
2296.000000	99.615367 
2295.000000	99.616243 
2294.000000	99.617851 
2293.000000	99.616063 
2292.000000	99.609920 
2291.000000	99.603475 
2290.000000	99.600482 
2289.000000	99.600946 
2288.000000	99.602483 
2287.000000	99.604126 
2286.000000	99.606192 
2285.000000	99.608062 
2284.000000	99.607599 
2283.000000	99.603326 
2282.000000	99.595699 
2281.000000	99.586006 
2280.000000	99.575244 
2279.000000	99.565163 
2278.000000	99.559721 
2277.000000	99.563088 
2276.000000	99.575376 
2275.000000	99.591052 
2274.000000	99.602955 
2273.000000	99.606878 
2272.000000	99.601962 
2271.000000	99.588932 
2270.000000	99.571242 
2269.000000	99.557237 
2268.000000	99.556216 
2267.000000	99.569879 
2266.000000	99.589602 
2265.000000	99.604097 
2264.000000	99.608853 
2263.000000	99.607425 
2262.000000	99.606289 
2261.000000	99.610422 
2260.000000	99.620493 
2259.000000	99.631161 
2258.000000	99.633636 
2257.000000	99.624009 
2256.000000	99.608349 
2255.000000	99.596324 
2254.000000	99.590976 
2253.000000	99.588356 
2252.000000	99.586548 
2251.000000	99.589302 
2250.000000	99.599240 
2249.000000	99.611643 
2248.000000	99.618309 
2247.000000	99.615555 
2246.000000	99.606030 
2245.000000	99.594440 
2244.000000	99.583903 
2243.000000	99.575876 
2242.000000	99.570987 
2241.000000	99.568897 
2240.000000	99.567987 
2239.000000	99.566195 
2238.000000	99.562682 
2237.000000	99.558629 
2236.000000	99.555446 
2235.000000	99.551956 
2234.000000	99.545130 
2233.000000	99.535188 
2232.000000	99.528457 
2231.000000	99.532499 
2230.000000	99.548493 
2229.000000	99.570024 
2228.000000	99.588807 
2227.000000	99.599602 
2226.000000	99.600711 
2225.000000	99.593832 
2224.000000	99.584337 
2223.000000	99.578291 
2222.000000	99.577263 
2221.000000	99.577660 
2220.000000	99.576001 
2219.000000	99.573148 
2218.000000	99.572835 
2217.000000	99.578280 
2216.000000	99.590755 
2215.000000	99.608358 
2214.000000	99.624201 
2213.000000	99.628646 
2212.000000	99.617488 
2211.000000	99.598315 
2210.000000	99.586438 
2209.000000	99.592707 
2208.000000	99.614258 
2207.000000	99.636740 
2206.000000	99.645651 
2205.000000	99.636415 
2204.000000	99.614937 
2203.000000	99.590386 
2202.000000	99.569589 
2201.000000	99.556896 
2200.000000	99.553952 
2199.000000	99.556737 
2198.000000	99.556517 
2197.000000	99.548460 
2196.000000	99.538547 
2195.000000	99.538390 
2194.000000	99.553488 
2193.000000	99.578345 
2192.000000	99.601117 
2191.000000	99.610469 
2190.000000	99.601146 
2189.000000	99.578828 
2188.000000	99.558638 
2187.000000	99.553274 
2186.000000	99.562316 
2185.000000	99.576246 
2184.000000	99.588570 
2183.000000	99.598487 
2182.000000	99.604313 
2181.000000	99.603685 
2180.000000	99.600907 
2179.000000	99.604622 
2178.000000	99.615094 
2177.000000	99.621085 
2176.000000	99.613008 
2175.000000	99.593615 
2174.000000	99.572687 
2173.000000	99.557068 
2172.000000	99.549155 
2171.000000	99.549191 
2170.000000	99.554447 
2169.000000	99.560119 
2168.000000	99.564634 
2167.000000	99.570486 
2166.000000	99.577610 
2165.000000	99.581235 
2164.000000	99.579631 
2163.000000	99.578162 
2162.000000	99.581431 
2161.000000	99.587031 
2160.000000	99.591423 
2159.000000	99.595811 
2158.000000	99.600639 
2157.000000	99.601561 
2156.000000	99.597630 
2155.000000	99.595812 
2154.000000	99.600758 
2153.000000	99.606147 
2152.000000	99.602232 
2151.000000	99.588486 
2150.000000	99.574325 
2149.000000	99.570281 
2148.000000	99.580861 
2147.000000	99.601391 
2146.000000	99.618551 
2145.000000	99.619519 
2144.000000	99.605489 
2143.000000	99.591478 
2142.000000	99.588952 
2141.000000	99.594147 
2140.000000	99.597727 
2139.000000	99.598958 
2138.000000	99.602423 
2137.000000	99.605965 
2136.000000	99.602325 
2135.000000	99.591846 
2134.000000	99.584594 
2133.000000	99.588100 
2132.000000	99.598861 
2131.000000	99.607150 
2130.000000	99.605772 
2129.000000	99.594113 
2128.000000	99.578022 
2127.000000	99.566010 
2126.000000	99.562411 
2125.000000	99.564341 
2124.000000	99.567657 
2123.000000	99.573794 
2122.000000	99.586082 
2121.000000	99.600732 
2120.000000	99.607934 
2119.000000	99.603247 
2118.000000	99.592846 
2117.000000	99.585453 
2116.000000	99.583194 
2115.000000	99.582884 
2114.000000	99.582732 
2113.000000	99.584027 
2112.000000	99.587675 
2111.000000	99.592101 
2110.000000	99.594565 
2109.000000	99.593399 
2108.000000	99.589252 
2107.000000	99.584298 
2106.000000	99.579332 
2105.000000	99.572081 
2104.000000	99.560353 
2103.000000	99.546811 
2102.000000	99.538087 
2101.000000	99.538128 
2100.000000	99.544148 
2099.000000	99.550067 
2098.000000	99.552514 
2097.000000	99.552879 
2096.000000	99.554762 
2095.000000	99.559444 
2094.000000	99.562725 
2093.000000	99.557450 
2092.000000	99.541867 
2091.000000	99.524535 
2090.000000	99.517247 
2089.000000	99.522223 
2088.000000	99.529796 
2087.000000	99.530600 
2086.000000	99.526425 
2085.000000	99.526259 
2084.000000	99.534433 
2083.000000	99.546565 
2082.000000	99.556221 
2081.000000	99.561629 
2080.000000	99.565051 
2079.000000	99.568321 
2078.000000	99.571284 
2077.000000	99.574100 
2076.000000	99.578970 
2075.000000	99.587953 
2074.000000	99.599163 
2073.000000	99.606929 
2072.000000	99.606947 
2071.000000	99.600285 
2070.000000	99.591100 
2069.000000	99.581765 
2068.000000	99.572179 
2067.000000	99.562821 
2066.000000	99.555605 
2065.000000	99.551376 
2064.000000	99.549146 
2063.000000	99.548669 
2062.000000	99.551473 
2061.000000	99.558204 
2060.000000	99.566710 
2059.000000	99.573876 
2058.000000	99.577928 
2057.000000	99.578241 
2056.000000	99.574551 
2055.000000	99.567399 
2054.000000	99.558428 
2053.000000	99.549742 
2052.000000	99.543854 
2051.000000	99.544091 
2050.000000	99.552761 
2049.000000	99.567319 
2048.000000	99.580280 
2047.000000	99.585357 
2046.000000	99.582808 
2045.000000	99.577805 
2044.000000	99.575002 
2043.000000	99.575163 
2042.000000	99.575374 
2041.000000	99.571899 
2040.000000	99.564660 
2039.000000	99.559157 
2038.000000	99.561606 
2037.000000	99.571106 
2036.000000	99.578883 
2035.000000	99.577330 
2034.000000	99.568013 
2033.000000	99.558627 
2032.000000	99.553692 
2031.000000	99.551212 
2030.000000	99.547600 
2029.000000	99.542073 
2028.000000	99.535330 
2027.000000	99.527343 
2026.000000	99.519521 
2025.000000	99.517532 
2024.000000	99.526790 
2023.000000	99.542973 
2022.000000	99.550832 
2021.000000	99.538263 
2020.000000	99.512351 
2019.000000	99.495965 
2018.000000	99.505320 
2017.000000	99.532771 
2016.000000	99.555094 
2015.000000	99.557446 
2014.000000	99.544346 
2013.000000	99.530172 
2012.000000	99.525256 
2011.000000	99.530777 
2010.000000	99.542330 
2009.000000	99.555514 
2008.000000	99.568931 
2007.000000	99.582398 
2006.000000	99.592496 
2005.000000	99.593041 
2004.000000	99.582344 
2003.000000	99.567393 
2002.000000	99.557615 
2001.000000	99.555476 
2000.000000	99.555447 
1999.000000	99.551204 
1998.000000	99.541647 
1997.000000	99.531014 
1996.000000	99.525826 
1995.000000	99.531135 
1994.000000	99.546579 
1993.000000	99.564675 
1992.000000	99.575361 
1991.000000	99.574206 
1990.000000	99.564814 
1989.000000	99.553909 
1988.000000	99.546819 
1987.000000	99.546226 
1986.000000	99.551395 
1985.000000	99.558239 
1984.000000	99.562712 
1983.000000	99.564361 
1982.000000	99.564465 
1981.000000	99.561638 
1980.000000	99.553017 
1979.000000	99.540160 
1978.000000	99.530213 
1977.000000	99.528716 
1976.000000	99.533119 
1975.000000	99.536163 
1974.000000	99.534663 
1973.000000	99.533536 
1972.000000	99.541443 
1971.000000	99.561298 
1970.000000	99.583754 
1969.000000	99.592313 
1968.000000	99.579166 
1967.000000	99.555547 
1966.000000	99.540975 
1965.000000	99.542252 
1964.000000	99.549052 
1963.000000	99.549291 
1962.000000	99.541610 
1961.000000	99.532017 
1960.000000	99.524963 
1959.000000	99.522168 
1958.000000	99.525991 
1957.000000	99.537563 
1956.000000	99.552662 
1955.000000	99.564063 
1954.000000	99.567902 
1953.000000	99.565015 
1952.000000	99.556728 
1951.000000	99.543400 
1950.000000	99.527895 
1949.000000	99.516915 
1948.000000	99.516112 
1947.000000	99.524117 
1946.000000	99.532574 
1945.000000	99.532614 
1944.000000	99.522051 
1943.000000	99.507546 
1942.000000	99.499348 
1941.000000	99.502116 
1940.000000	99.511680 
1939.000000	99.521403 
1938.000000	99.529511 
1937.000000	99.539222 
1936.000000	99.552541 
1935.000000	99.565788 
1934.000000	99.573036 
1933.000000	99.573187 
1932.000000	99.571250 
1931.000000	99.572180 
1930.000000	99.575177 
1929.000000	99.575869 
1928.000000	99.573029 
1927.000000	99.570037 
1926.000000	99.569974 
1925.000000	99.571677 
1924.000000	99.572186 
1923.000000	99.571703 
1922.000000	99.573348 
1921.000000	99.577999 
1920.000000	99.581643 
1919.000000	99.578352 
1918.000000	99.565964 
1917.000000	99.549414 
1916.000000	99.536607 
1915.000000	99.531078 
1914.000000	99.531009 
1913.000000	99.533695 
1912.000000	99.538385 
1911.000000	99.544521 
1910.000000	99.548679 
1909.000000	99.547251 
1908.000000	99.542744 
1907.000000	99.542736 
1906.000000	99.551261 
1905.000000	99.563612 
1904.000000	99.571475 
1903.000000	99.571499 
1902.000000	99.566462 
1901.000000	99.560787 
1900.000000	99.557458 
1899.000000	99.557430 
1898.000000	99.559795 
1897.000000	99.562372 
1896.000000	99.563456 
1895.000000	99.562869 
1894.000000	99.560640 
1893.000000	99.556618 
1892.000000	99.552217 
1891.000000	99.550152 
1890.000000	99.550762 
1889.000000	99.550597 
1888.000000	99.547360 
1887.000000	99.543485 
1886.000000	99.542530 
1885.000000	99.545177 
1884.000000	99.550289 
1883.000000	99.557330 
1882.000000	99.564903 
1881.000000	99.569422 
1880.000000	99.569151 
1879.000000	99.567811 
1878.000000	99.571092 
1877.000000	99.580070 
1876.000000	99.590160 
1875.000000	99.596151 
1874.000000	99.595744 
1873.000000	99.589228 
1872.000000	99.579123 
1871.000000	99.569688 
1870.000000	99.563945 
1869.000000	99.560147 
1868.000000	99.554702 
1867.000000	99.548579 
1866.000000	99.545449 
1865.000000	99.545560 
1864.000000	99.545392 
1863.000000	99.542040 
1862.000000	99.536206 
1861.000000	99.531269 
1860.000000	99.531168 
1859.000000	99.538349 
1858.000000	99.550981 
1857.000000	99.562734 
1856.000000	99.568429 
1855.000000	99.569561 
1854.000000	99.570998 
1853.000000	99.573323 
1852.000000	99.572797 
1851.000000	99.568109 
1850.000000	99.563653 
1849.000000	99.564792 
1848.000000	99.571492 
1847.000000	99.578534 
1846.000000	99.580736 
1845.000000	99.577345 
1844.000000	99.573116 
1843.000000	99.574014 
1842.000000	99.579997 
1841.000000	99.585152 
1840.000000	99.584334 
1839.000000	99.577595 
1838.000000	99.569815 
1837.000000	99.565572 
1836.000000	99.565174 
1835.000000	99.566562 
1834.000000	99.568539 
1833.000000	99.570834 
1832.000000	99.572324 
1831.000000	99.570899 
1830.000000	99.566476 
1829.000000	99.562633 
1828.000000	99.562025 
1827.000000	99.562811 
1826.000000	99.562010 
1825.000000	99.559585 
1824.000000	99.557899 
1823.000000	99.557763 
1822.000000	99.556733 
1821.000000	99.552751 
1820.000000	99.548142 
1819.000000	99.548344 
1818.000000	99.555865 
1817.000000	99.566067 
1816.000000	99.572108 
1815.000000	99.573091 
1814.000000	99.573347 
1813.000000	99.575722 
1812.000000	99.578791 
1811.000000	99.581091 
1810.000000	99.583960 
1809.000000	99.587513 
1808.000000	99.588807 
1807.000000	99.585834 
1806.000000	99.579937 
1805.000000	99.573652 
1804.000000	99.568565 
1803.000000	99.565351 
1802.000000	99.563486 
1801.000000	99.561061 
1800.000000	99.556895 
1799.000000	99.553427 
1798.000000	99.554373 
1797.000000	99.559523 
1796.000000	99.565184 
1795.000000	99.568670 
1794.000000	99.570237 
1793.000000	99.571104 
1792.000000	99.571249 
1791.000000	99.570990 
1790.000000	99.571302 
1789.000000	99.571671 
1788.000000	99.571302 
1787.000000	99.571111 
1786.000000	99.572774 
1785.000000	99.575650 
1784.000000	99.577078 
1783.000000	99.575878 
1782.000000	99.572627 
1781.000000	99.568271 
1780.000000	99.563334 
1779.000000	99.558900 
1778.000000	99.556941 
1777.000000	99.558456 
1776.000000	99.562478 
1775.000000	99.566307 
1774.000000	99.567408 
1773.000000	99.565607 
1772.000000	99.562809 
1771.000000	99.561105 
1770.000000	99.561201 
1769.000000	99.561988 
1768.000000	99.561859 
1767.000000	99.560368 
1766.000000	99.558746 
1765.000000	99.558356 
1764.000000	99.558948 
1763.000000	99.559295 
1762.000000	99.558807 
1761.000000	99.558136 
1760.000000	99.557381 
1759.000000	99.556361 
1758.000000	99.556561 
1757.000000	99.560389 
1756.000000	99.567284 
1755.000000	99.572614 
1754.000000	99.573184 
1753.000000	99.570581 
1752.000000	99.568178 
1751.000000	99.565754 
1750.000000	99.560405 
1749.000000	99.552591 
1748.000000	99.546718 
1747.000000	99.545553 
1746.000000	99.547409 
1745.000000	99.549460 
1744.000000	99.550119 
1743.000000	99.549069 
1742.000000	99.547159 
1741.000000	99.545782 
1740.000000	99.545676 
1739.000000	99.546754 
1738.000000	99.548239 
1737.000000	99.549004 
1736.000000	99.548447 
1735.000000	99.548265 
1734.000000	99.549575 
1733.000000	99.551335 
1732.000000	99.552803 
1731.000000	99.553352 
1730.000000	99.552910 
1729.000000	99.551964 
1728.000000	99.551220 
1727.000000	99.551428 
1726.000000	99.552887 
1725.000000	99.555276 
1724.000000	99.556915 
1723.000000	99.556640 
1722.000000	99.555435 
1721.000000	99.554875 
1720.000000	99.555735 
1719.000000	99.558413 
1718.000000	99.561880 
1717.000000	99.561552 
1716.000000	99.555839 
1715.000000	99.550854 
1714.000000	99.551540 
1713.000000	99.555297 
1712.000000	99.556744 
1711.000000	99.554904 
1710.000000	99.553064 
1709.000000	99.553369 
1708.000000	99.554694 
1707.000000	99.555462 
1706.000000	99.555917 
1705.000000	99.555725 
1704.000000	99.554389 
1703.000000	99.553505 
1702.000000	99.555798 
1701.000000	99.561214 
1700.000000	99.562472 
1699.000000	99.558744 
1698.000000	99.558059 
1697.000000	99.561072 
1696.000000	99.562404 
1695.000000	99.559373 
1694.000000	99.555232 
1693.000000	99.553070 
1692.000000	99.552174 
1691.000000	99.551705 
1690.000000	99.551194 
1689.000000	99.550573 
1688.000000	99.550289 
1687.000000	99.550474 
1686.000000	99.551668 
1685.000000	99.554134 
1684.000000	99.554708 
1683.000000	99.552947 
1682.000000	99.551474 
1681.000000	99.550542 
1680.000000	99.550483 
1679.000000	99.550666 
1678.000000	99.549479 
1677.000000	99.547152 
1676.000000	99.545800 
1675.000000	99.545985 
1674.000000	99.546144 
1673.000000	99.546758 
1672.000000	99.549423 
1671.000000	99.554548 
1670.000000	99.559071 
1669.000000	99.559008 
1668.000000	99.555500 
1667.000000	99.551299 
1666.000000	99.547015 
1665.000000	99.542895 
1664.000000	99.540070 
1663.000000	99.539769 
1662.000000	99.540852 
1661.000000	99.541670 
1660.000000	99.543065 
1659.000000	99.546149 
1658.000000	99.550124 
1657.000000	99.553259 
1656.000000	99.555185 
1655.000000	99.555703 
1654.000000	99.555348 
1653.000000	99.552336 
1652.000000	99.548724 
1651.000000	99.548212 
1650.000000	99.548183 
1649.000000	99.547805 
1648.000000	99.548145 
1647.000000	99.548165 
1646.000000	99.547268 
1645.000000	99.546961 
1644.000000	99.548227 
1643.000000	99.550846 
1642.000000	99.553797 
1641.000000	99.555432 
1640.000000	99.554778 
1639.000000	99.552353 
1638.000000	99.549829 
1637.000000	99.549520 
1636.000000	99.552683 
1635.000000	99.557099 
1634.000000	99.559879 
1633.000000	99.559745 
1632.000000	99.556305 
1631.000000	99.550610 
1630.000000	99.544546 
1629.000000	99.540254 
1628.000000	99.539394 
1627.000000	99.541587 
1626.000000	99.544373 
1625.000000	99.545780 
1624.000000	99.546017 
1623.000000	99.546320 
1622.000000	99.547267 
1621.000000	99.548934 
1620.000000	99.551148 
1619.000000	99.552900 
1618.000000	99.553072 
1617.000000	99.551968 
1616.000000	99.552686 
1615.000000	99.556533 
1614.000000	99.560419 
1613.000000	99.562307 
1612.000000	99.563676 
1611.000000	99.565902 
1610.000000	99.567211 
1609.000000	99.565801 
1608.000000	99.563563 
1607.000000	99.563169 
1606.000000	99.563806 
1605.000000	99.563609 
1604.000000	99.563184 
1603.000000	99.563993 
1602.000000	99.566108 
1601.000000	99.568873 
1600.000000	99.572105 
1599.000000	99.575398 
1598.000000	99.577769 
1597.000000	99.578751 
1596.000000	99.578440 
1595.000000	99.576586 
1594.000000	99.573139 
1593.000000	99.570052 
1592.000000	99.570385 
1591.000000	99.574623 
1590.000000	99.579470 
1589.000000	99.581703 
1588.000000	99.581612 
1587.000000	99.581257 
1586.000000	99.581151 
1585.000000	99.580598 
1584.000000	99.580188 
1583.000000	99.580394 
1582.000000	99.579637 
1581.000000	99.576845 
1580.000000	99.573651 
1579.000000	99.571616 
1578.000000	99.569921 
1577.000000	99.567235 
1576.000000	99.564137 
1575.000000	99.562526 
1574.000000	99.562209 
1573.000000	99.562079 
1572.000000	99.562540 
1571.000000	99.564874 
1570.000000	99.568385 
1569.000000	99.570878 
1568.000000	99.572117 
1567.000000	99.571821 
1566.000000	99.569331 
1565.000000	99.565541 
1564.000000	99.562686 
1563.000000	99.560501 
1562.000000	99.557823 
1561.000000	99.553882 
1560.000000	99.553984 
1559.000000	99.556784 
1558.000000	99.557038 
1557.000000	99.558784 
1556.000000	99.562934 
1555.000000	99.566500 
1554.000000	99.566767 
1553.000000	99.563527 
1552.000000	99.559543 
1551.000000	99.556727 
1550.000000	99.555978 
1549.000000	99.557496 
1548.000000	99.560776 
1547.000000	99.563978 
1546.000000	99.563923 
1545.000000	99.558503 
1544.000000	99.549721 
1543.000000	99.543236 
1542.000000	99.543894 
1541.000000	99.551655 
1540.000000	99.559794 
1539.000000	99.563144 
1538.000000	99.563427 
1537.000000	99.563588 
1536.000000	99.565164 
1535.000000	99.568643 
1534.000000	99.571120 
1533.000000	99.569169 
1532.000000	99.564956 
1531.000000	99.563118 
1530.000000	99.564394 
1529.000000	99.566048 
1528.000000	99.565692 
1527.000000	99.564236 
1526.000000	99.564328 
1525.000000	99.566871 
1524.000000	99.571044 
1523.000000	99.576518 
1522.000000	99.582377 
1521.000000	99.584656 
1520.000000	99.581004 
1519.000000	99.573588 
1518.000000	99.565525 
1517.000000	99.559484 
1516.000000	99.556798 
1515.000000	99.556847 
1514.000000	99.558506 
1513.000000	99.561400 
1512.000000	99.564552 
1511.000000	99.565928 
1510.000000	99.565171 
1509.000000	99.563981 
1508.000000	99.565933 
1507.000000	99.572180 
1506.000000	99.578038 
1505.000000	99.578375 
1504.000000	99.574932 
1503.000000	99.572257 
1502.000000	99.572744 
1501.000000	99.575172 
1500.000000	99.575727 
1499.000000	99.572010 
1498.000000	99.565910 
1497.000000	99.560938 
1496.000000	99.558100 
1495.000000	99.558333 
1494.000000	99.563066 
1493.000000	99.571357 
1492.000000	99.579662 
1491.000000	99.583714 
1490.000000	99.581420 
1489.000000	99.574825 
1488.000000	99.567968 
1487.000000	99.564285 
1486.000000	99.563873 
1485.000000	99.563433 
1484.000000	99.561583 
1483.000000	99.560269 
1482.000000	99.561683 
1481.000000	99.564610 
1480.000000	99.565489 
1479.000000	99.563007 
1478.000000	99.558691 
1477.000000	99.553953 
1476.000000	99.549338 
1475.000000	99.546820 
1474.000000	99.548557 
1473.000000	99.552958 
1472.000000	99.555183 
1471.000000	99.553889 
1470.000000	99.551916 
1469.000000	99.550778 
1468.000000	99.550040 
1467.000000	99.549669 
1466.000000	99.550284 
1465.000000	99.551471 
1464.000000	99.552002 
1463.000000	99.551557 
1462.000000	99.550966 
1461.000000	99.550202 
1460.000000	99.548088 
1459.000000	99.543353 
1458.000000	99.537234 
1457.000000	99.533288 
1456.000000	99.532729 
1455.000000	99.533248 
1454.000000	99.533900 
1453.000000	99.536728 
1452.000000	99.543030 
1451.000000	99.551005 
1450.000000	99.557433 
1449.000000	99.559710 
1448.000000	99.556693 
1447.000000	99.550858 
1446.000000	99.546572 
1445.000000	99.546255 
1444.000000	99.548924 
1443.000000	99.551696 
1442.000000	99.553173 
1441.000000	99.554420 
1440.000000	99.556967 
1439.000000	99.560979 
1438.000000	99.566284 
1437.000000	99.571045 
1436.000000	99.571143 
1435.000000	99.565879 
1434.000000	99.559584 
1433.000000	99.555467 
1432.000000	99.553064 
1431.000000	99.549864 
1430.000000	99.545419 
1429.000000	99.542482 
1428.000000	99.542562 
1427.000000	99.544668 
1426.000000	99.547545 
1425.000000	99.551612 
1424.000000	99.556460 
1423.000000	99.558740 
1422.000000	99.556416 
1421.000000	99.551348 
1420.000000	99.547027 
1419.000000	99.544841 
1418.000000	99.544637 
1417.000000	99.545829 
1416.000000	99.546357 
1415.000000	99.544620 
1414.000000	99.541479 
1413.000000	99.539519 
1412.000000	99.539931 
1411.000000	99.540635 
1410.000000	99.539431 
1409.000000	99.536844 
1408.000000	99.534650 
1407.000000	99.534225 
1406.000000	99.535721 
1405.000000	99.538359 
1404.000000	99.541060 
1403.000000	99.543530 
1402.000000	99.547369 
1401.000000	99.554036 
1400.000000	99.561725 
1399.000000	99.565682 
1398.000000	99.563826 
1397.000000	99.558683 
1396.000000	99.552674 
1395.000000	99.546425 
1394.000000	99.541534 
1393.000000	99.541266 
1392.000000	99.546171 
1391.000000	99.552803 
1390.000000	99.557505 
1389.000000	99.558987 
1388.000000	99.557765 
1387.000000	99.555005 
1386.000000	99.552640 
1385.000000	99.552647 
1384.000000	99.554760 
1383.000000	99.555805 
1382.000000	99.552963 
1381.000000	99.547255 
1380.000000	99.542789 
1379.000000	99.542490 
1378.000000	99.545575 
1377.000000	99.549362 
1376.000000	99.552137 
1375.000000	99.553635 
1374.000000	99.554210 
1373.000000	99.554770 
1372.000000	99.556056 
1371.000000	99.557718 
1370.000000	99.558409 
1369.000000	99.557424 
1368.000000	99.555587 
1367.000000	99.554094 
1366.000000	99.553663 
1365.000000	99.554748 
1364.000000	99.557382 
1363.000000	99.560201 
1362.000000	99.560769 
1361.000000	99.558126 
1360.000000	99.554163 
1359.000000	99.551932 
1358.000000	99.553216 
1357.000000	99.557546 
1356.000000	99.562757 
1355.000000	99.566538 
1354.000000	99.568147 
1353.000000	99.568522 
1352.000000	99.568569 
1351.000000	99.568312 
1350.000000	99.567279 
1349.000000	99.565893 
1348.000000	99.565249 
1347.000000	99.565456 
1346.000000	99.565756 
1345.000000	99.566025 
1344.000000	99.566766 
1343.000000	99.567586 
1342.000000	99.567295 
1341.000000	99.565884 
1340.000000	99.564973 
1339.000000	99.565403 
1338.000000	99.566044 
1337.000000	99.566218 
1336.000000	99.567209 
1335.000000	99.570085 
1334.000000	99.573592 
1333.000000	99.575565 
1332.000000	99.575502 
1331.000000	99.574427 
1330.000000	99.572821 
1329.000000	99.570315 
1328.000000	99.567110 
1327.000000	99.564268 
1326.000000	99.562422 
1325.000000	99.561563 
1324.000000	99.561844 
1323.000000	99.563410 
1322.000000	99.565654 
1321.000000	99.567654 
1320.000000	99.569460 
1319.000000	99.571963 
1318.000000	99.575148 
1317.000000	99.577319 
1316.000000	99.576831 
1315.000000	99.574015 
1314.000000	99.570690 
1313.000000	99.568019 
1312.000000	99.565717 
1311.000000	99.563539 
1310.000000	99.562445 
1309.000000	99.563321 
1308.000000	99.565033 
1307.000000	99.565123 
1306.000000	99.562617 
1305.000000	99.559413 
1304.000000	99.558196 
1303.000000	99.559622 
1302.000000	99.562216 
1301.000000	99.564404 
1300.000000	99.565829 
1299.000000	99.567036 
1298.000000	99.568755 
1297.000000	99.571284 
1296.000000	99.573890 
1295.000000	99.574895 
1294.000000	99.573102 
1293.000000	99.569085 
1292.000000	99.564559 
1291.000000	99.560848 
1290.000000	99.558623 
1289.000000	99.558532 
1288.000000	99.560694 
1287.000000	99.563427 
1286.000000	99.563939 
1285.000000	99.561071 
1284.000000	99.556476 
1283.000000	99.552538 
1282.000000	99.549927 
1281.000000	99.547845 
1280.000000	99.545956 
1279.000000	99.544809 
1278.000000	99.544627 
1277.000000	99.544862 
1276.000000	99.545114 
1275.000000	99.545512 
1274.000000	99.545737 
1273.000000	99.544568 
1272.000000	99.541285 
1271.000000	99.537300 
1270.000000	99.535389 
1269.000000	99.536883 
1268.000000	99.540038 
1267.000000	99.541577 
1266.000000	99.539768 
1265.000000	99.535750 
1264.000000	99.531954 
1263.000000	99.529787 
1262.000000	99.528992 
1261.000000	99.528646 
1260.000000	99.528194 
1259.000000	99.527447 
1258.000000	99.526158 
1257.000000	99.524125 
1256.000000	99.521844 
1255.000000	99.520774 
1254.000000	99.522367 
1253.000000	99.526441 
1252.000000	99.530791 
1251.000000	99.532918 
1250.000000	99.532198 
1249.000000	99.530066 
1248.000000	99.528239 
1247.000000	99.527238 
1246.000000	99.526399 
1245.000000	99.524375 
1244.000000	99.519704 
1243.000000	99.512228 
1242.000000	99.504417 
1241.000000	99.499972 
1240.000000	99.500188 
1239.000000	99.502541 
1238.000000	99.503729 
1237.000000	99.503266 
1236.000000	99.502942 
1235.000000	99.503609 
1234.000000	99.504075 
1233.000000	99.502804 
1232.000000	99.499080 
1231.000000	99.492669 
1230.000000	99.484242 
1229.000000	99.476530 
1228.000000	99.473120 
1227.000000	99.474762 
1226.000000	99.477815 
1225.000000	99.477705 
1224.000000	99.473473 
1223.000000	99.467870 
1222.000000	99.463499 
1221.000000	99.460243 
1220.000000	99.456546 
1219.000000	99.451831 
1218.000000	99.446868 
1217.000000	99.442415 
1216.000000	99.438310 
1215.000000	99.433752 
1214.000000	99.427867 
1213.000000	99.419961 
1212.000000	99.409848 
1211.000000	99.398457 
1210.000000	99.387968 
1209.000000	99.380667 
1208.000000	99.377199 
1207.000000	99.375808 
1206.000000	99.373468 
1205.000000	99.368037 
1204.000000	99.359580 
1203.000000	99.349911 
1202.000000	99.341011 
1201.000000	99.333683 
1200.000000	99.327421 
1199.000000	99.321374 
1198.000000	99.315332 
1197.000000	99.309600 
1196.000000	99.303888 
1195.000000	99.296836 
1194.000000	99.287298 
1193.000000	99.275966 
1192.000000	99.264919 
1191.000000	99.255252 
1190.000000	99.245889 
1189.000000	99.235443 
1188.000000	99.224742 
1187.000000	99.216409 
1186.000000	99.211752 
1185.000000	99.208908 
1184.000000	99.204575 
1183.000000	99.197202 
1182.000000	99.188138 
1181.000000	99.179873 
1180.000000	99.173468 
1179.000000	99.167583 
1178.000000	99.159910 
1177.000000	99.149617 
1176.000000	99.138190 
1175.000000	99.127499 
1174.000000	99.117232 
1173.000000	99.105211 
1172.000000	99.090637 
1171.000000	99.076000 
1170.000000	99.064603 
1169.000000	99.056424 
1168.000000	99.047621 
1167.000000	99.034702 
1166.000000	99.018735 
1165.000000	99.005050 
1164.000000	98.998933 
1163.000000	99.001725 
1162.000000	99.010636 
1161.000000	99.021719 
1160.000000	99.032573 
1159.000000	99.042153 
1158.000000	99.048719 
1157.000000	99.049126 
1156.000000	99.041034 
1155.000000	99.025942 
1154.000000	99.009367 
1153.000000	98.997065 
1152.000000	98.990593 
1151.000000	98.986483 
1150.000000	98.979774 
1149.000000	98.968443 
1148.000000	98.954564 
1147.000000	98.941575 
1146.000000	98.930766 
1145.000000	98.920440 
1144.000000	98.908059 
1143.000000	98.892876 
1142.000000	98.876712 
1141.000000	98.862676 
1140.000000	98.853021 
1139.000000	98.847457 
1138.000000	98.843018 
1137.000000	98.836013 
1136.000000	98.824776 
1135.000000	98.810544 
1134.000000	98.795379 
1133.000000	98.779515 
1132.000000	98.761581 
1131.000000	98.741735 
1130.000000	98.723548 
1129.000000	98.711310 
1128.000000	98.704931 
1127.000000	98.698388 
1126.000000	98.684572 
1125.000000	98.662219 
1124.000000	98.637418 
1123.000000	98.617782 
1122.000000	98.605444 
1121.000000	98.596152 
1120.000000	98.584652 
1119.000000	98.569871 
1118.000000	98.554889 
1117.000000	98.543046 
1116.000000	98.534771 
1115.000000	98.527708 
1114.000000	98.519295 
1113.000000	98.509254 
1112.000000	98.499526 
1111.000000	98.491446 
1110.000000	98.483184 
1109.000000	98.471125 
1108.000000	98.454334 
1107.000000	98.436753 
1106.000000	98.423608 
1105.000000	98.415665 
1104.000000	98.408426 
1103.000000	98.397450 
1102.000000	98.383296 
1101.000000	98.370279 
1100.000000	98.361012 
1099.000000	98.354133 
1098.000000	98.347034 
1097.000000	98.339037 
1096.000000	98.330996 
1095.000000	98.323295 
1094.000000	98.316020 
1093.000000	98.310012 
1092.000000	98.305420 
1091.000000	98.299440 
1090.000000	98.288077 
1089.000000	98.271046 
1088.000000	98.253051 
1087.000000	98.239241 
1086.000000	98.230967 
1085.000000	98.226914 
1084.000000	98.226207 
1083.000000	98.228162 
1082.000000	98.230252 
1081.000000	98.228895 
1080.000000	98.222276 
1079.000000	98.211007 
1078.000000	98.196559 
1077.000000	98.180708 
1076.000000	98.166138 
1075.000000	98.155470 
1074.000000	98.148835 
1073.000000	98.143261 
1072.000000	98.134684 
1071.000000	98.120109 
1070.000000	98.098679 
1069.000000	98.072172 
1068.000000	98.044364 
1067.000000	98.018572 
1066.000000	97.995496 
1065.000000	97.974196 
1064.000000	97.954559 
1063.000000	97.937066 
1062.000000	97.920292 
1061.000000	97.901021 
1060.000000	97.877882 
1059.000000	97.853377 
1058.000000	97.831050 
1057.000000	97.811565 
1056.000000	97.792776 
1055.000000	97.772948 
1054.000000	97.752440 
1053.000000	97.732135 
1052.000000	97.711492 
1051.000000	97.689165 
1050.000000	97.664973 
1049.000000	97.639690 
1048.000000	97.612712 
1047.000000	97.581964 
1046.000000	97.547382 
1045.000000	97.512652 
1044.000000	97.481271 
1043.000000	97.451881 
1042.000000	97.420585 
1041.000000	97.388009 
1040.000000	97.360259 
1039.000000	97.340973 
1038.000000	97.325767 
1037.000000	97.307718 
1036.000000	97.285995 
1035.000000	97.265509 
1034.000000	97.249824 
1033.000000	97.238425 
1032.000000	97.230249 
1031.000000	97.225836 
1030.000000	97.225520 
1029.000000	97.228469 
1028.000000	97.233948 
1027.000000	97.241119 
1026.000000	97.247522 
1025.000000	97.250242 
1024.000000	97.248953 
1023.000000	97.246068 
1022.000000	97.244006 
1021.000000	97.243986 
1020.000000	97.246850 
1019.000000	97.252534 
1018.000000	97.258737 
1017.000000	97.262375 
1016.000000	97.262735 
1015.000000	97.261679 
1014.000000	97.260920 
1013.000000	97.260649 
1012.000000	97.260353 
1011.000000	97.259252 
1010.000000	97.256614 
1009.000000	97.253605 
1008.000000	97.254102 
1007.000000	97.261262 
1006.000000	97.273514 
1005.000000	97.286116 
1004.000000	97.296363 
1003.000000	97.305308 
1002.000000	97.315063 
1001.000000	97.326806 
1000.000000	97.340928 
999.000000	 97.356474 
998.000000	 97.370556 
997.000000	 97.380995 
996.000000	 97.389878 
995.000000	 97.402250 
994.000000	 97.420789 
993.000000	 97.443403 
992.000000	 97.466009 
991.000000	 97.485721 
990.000000	 97.501620 
989.000000	 97.514828 
988.000000	 97.528442 
987.000000	 97.545724 
986.000000	 97.567678 
985.000000	 97.593155 
984.000000	 97.620763 
983.000000	 97.649310 
982.000000	 97.677193 
981.000000	 97.703405 
980.000000	 97.728961 
979.000000	 97.755848 
978.000000	 97.784974 
977.000000	 97.816330 
976.000000	 97.849975 
975.000000	 97.884942 
974.000000	 97.918422 
973.000000	 97.948565 
972.000000	 97.977403 
971.000000	 98.008564 
970.000000	 98.042630 
969.000000	 98.077171 
968.000000	 98.110806 
967.000000	 98.144339 
966.000000	 98.177844 
965.000000	 98.209398 
964.000000	 98.237383 
963.000000	 98.262094 
962.000000	 98.284655 
961.000000	 98.306014 
960.000000	 98.327006 
959.000000	 98.347500 
958.000000	 98.365596 
957.000000	 98.379965 
956.000000	 98.393137 
955.000000	 98.409883 
954.000000	 98.431455 
953.000000	 98.453584 
952.000000	 98.471199 
951.000000	 98.483158 
950.000000	 98.491340 
949.000000	 98.497162 
948.000000	 98.500834 
947.000000	 98.502769 
946.000000	 98.503784 
945.000000	 98.504323 
944.000000	 98.504968 
943.000000	 98.507542 
942.000000	 98.514471 
941.000000	 98.526417 
940.000000	 98.540531 
939.000000	 98.551367 
938.000000	 98.554665 
937.000000	 98.551482 
936.000000	 98.548145 
935.000000	 98.550752 
934.000000	 98.559607 
933.000000	 98.570145 
932.000000	 98.578886 
931.000000	 98.586457 
930.000000	 98.594440 
929.000000	 98.601477 
928.000000	 98.604094 
927.000000	 98.600689 
926.000000	 98.593788 
925.000000	 98.588654 
924.000000	 98.589791 
923.000000	 98.597724 
922.000000	 98.608455 
921.000000	 98.616621 
920.000000	 98.619595 
919.000000	 98.618313 
918.000000	 98.614894 
917.000000	 98.610811 
916.000000	 98.607129 
915.000000	 98.604696 
914.000000	 98.603525 
913.000000	 98.603367 
912.000000	 98.605377 
911.000000	 98.611889 
910.000000	 98.624134 
909.000000	 98.641442 
908.000000	 98.662825 
907.000000	 98.687469 
906.000000	 98.713089 
905.000000	 98.735908 
904.000000	 98.753765 
903.000000	 98.768420 
902.000000	 98.784034 
901.000000	 98.803926 
900.000000	 98.828601 
899.000000	 98.855017 
898.000000	 98.877078 
897.000000	 98.889251 
896.000000	 98.891639 
895.000000	 98.890641 
894.000000	 98.893226 
893.000000	 98.901209 
892.000000	 98.912176 
891.000000	 98.924456 
890.000000	 98.938888 
889.000000	 98.956053 
888.000000	 98.974004 
887.000000	 98.989656 
886.000000	 99.001673 
885.000000	 99.011542 
884.000000	 99.021900 
883.000000	 99.033512 
882.000000	 99.043716 
881.000000	 99.048726 
880.000000	 99.048297 
879.000000	 99.047247 
878.000000	 99.051158 
877.000000	 99.061091 
876.000000	 99.073513 
875.000000	 99.084260 
874.000000	 99.091069 
873.000000	 99.093546 
872.000000	 99.093187 
871.000000	 99.093314 
870.000000	 99.096887 
869.000000	 99.104294 
868.000000	 99.114588 
867.000000	 99.127555 
866.000000	 99.142003 
865.000000	 99.153487 
864.000000	 99.158092 
863.000000	 99.158875 
862.000000	 99.163828 
861.000000	 99.175362 
860.000000	 99.186142 
859.000000	 99.188467 
858.000000	 99.184044 
857.000000	 99.180294 
856.000000	 99.180395 
855.000000	 99.182464 
854.000000	 99.186073 
853.000000	 99.192617 
852.000000	 99.199539 
851.000000	 99.201310 
850.000000	 99.198057 
849.000000	 99.197171 
848.000000	 99.203343 
847.000000	 99.212161 
846.000000	 99.216936 
845.000000	 99.217134 
844.000000	 99.215749 
843.000000	 99.212649 
842.000000	 99.206143 
841.000000	 99.198343 
840.000000	 99.193038 
839.000000	 99.189536 
838.000000	 99.184016 
837.000000	 99.176434 
836.000000	 99.170627 
835.000000	 99.167156 
834.000000	 99.161618 
833.000000	 99.152182 
832.000000	 99.144260 
831.000000	 99.144202 
830.000000	 99.150833 
829.000000	 99.156850 
828.000000	 99.157944 
827.000000	 99.157620 
826.000000	 99.162149 
825.000000	 99.171832 
824.000000	 99.178821 
823.000000	 99.175066 
822.000000	 99.162286 
821.000000	 99.151192 
820.000000	 99.149822 
819.000000	 99.155976 
818.000000	 99.162832 
817.000000	 99.168273 
816.000000	 99.174288 
815.000000	 99.179136 
814.000000	 99.176367 
813.000000	 99.162923 
812.000000	 99.143042 
811.000000	 99.121329 
810.000000	 99.095770 
809.000000	 99.061143 
808.000000	 99.016931 
807.000000	 98.968339 
806.000000	 98.920642 
805.000000	 98.875687 
804.000000	 98.833825 
803.000000	 98.796600 
802.000000	 98.766665 
801.000000	 98.745958 
800.000000	 98.734141 
799.000000	 98.728817 
798.000000	 98.728273 
797.000000	 98.733762 
796.000000	 98.746807 
795.000000	 98.764226 
794.000000	 98.779378 
793.000000	 98.789633 
792.000000	 98.798931 
791.000000	 98.810961 
790.000000	 98.823496 
789.000000	 98.832180 
788.000000	 98.836102 
787.000000	 98.835694 
786.000000	 98.828115 
785.000000	 98.809655 
784.000000	 98.781904 
783.000000	 98.751903 
782.000000	 98.726532 
781.000000	 98.709108 
780.000000	 98.699964 
779.000000	 98.697046 
778.000000	 98.696937 
777.000000	 98.698590 
776.000000	 98.705233 
775.000000	 98.719831 
774.000000	 98.740095 
773.000000	 98.761269 
772.000000	 98.782327 
771.000000	 98.805380 
770.000000	 98.829778 
769.000000	 98.850757 
768.000000	 98.863967 
767.000000	 98.868664 
766.000000	 98.867320 
765.000000	 98.865116 
764.000000	 98.868474 
763.000000	 98.879598 
762.000000	 98.892010 
761.000000	 98.895381 
760.000000	 98.886354 
759.000000	 98.872709 
758.000000	 98.866318 
757.000000	 98.872882 
756.000000	 98.887137 
755.000000	 98.895944 
754.000000	 98.888522 
753.000000	 98.867801 
752.000000	 98.850581 
751.000000	 98.852402 
750.000000	 98.872053 
749.000000	 98.894052 
748.000000	 98.905548 
747.000000	 98.906841 
746.000000	 98.906367 
745.000000	 98.910843 
744.000000	 98.921544 
743.000000	 98.935670 
742.000000	 98.948893 
741.000000	 98.959204 
740.000000	 98.969493 
739.000000	 98.984046 
738.000000	 99.001891 
737.000000	 99.016017 
736.000000	 99.019647 
735.000000	 99.011708 
734.000000	 98.997275 
733.000000	 98.985306 
732.000000	 98.984500 
731.000000	 98.996874 
730.000000	 99.015084 
729.000000	 99.029723 
728.000000	 99.038871 
727.000000	 99.046528 
726.000000	 99.053041 
725.000000	 99.053066 
724.000000	 99.043755 
723.000000	 99.029641 
722.000000	 99.017752 
721.000000	 99.012265 
720.000000	 99.015153 
719.000000	 99.026727 
718.000000	 99.042700 
717.000000	 99.054744 
716.000000	 99.056787 
715.000000	 99.048969 
714.000000	 99.035389 
713.000000	 99.021793 
712.000000	 99.015967 
711.000000	 99.024443 
710.000000	 99.044865 
709.000000	 99.064908 
708.000000	 99.071933 
707.000000	 99.062079 
706.000000	 99.039471 
705.000000	 99.010793 
704.000000	 98.983310 
703.000000	 98.964239 
702.000000	 98.956863 
701.000000	 98.957201 
700.000000	 98.956301 
699.000000	 98.945923 
698.000000	 98.924000 
697.000000	 98.897549 
696.000000	 98.878879 
695.000000	 98.874696 
694.000000	 98.879219 
693.000000	 98.882398 
692.000000	 98.883365 
691.000000	 98.889468 
690.000000	 98.903767 
689.000000	 98.922230 
688.000000	 98.943260 
687.000000	 98.969111 
686.000000	 98.994863 
685.000000	 99.008073 
684.000000	 99.004963 
683.000000	 98.996699 
682.000000	 98.994639 
681.000000	 98.998415 
680.000000	 99.002537 
679.000000	 99.004222 
678.000000	 98.999333 
677.000000	 98.983639 
676.000000	 98.964790 
675.000000	 98.962030 
674.000000	 98.981413 
673.000000	 99.001654 
672.000000	 98.997776 
671.000000	 98.971561 
670.000000	 98.947954 
669.000000	 98.949166 
668.000000	 98.969272 
667.000000	 98.982561 
666.000000	 98.982319 
665.000000	 98.977465 
664.000000	 98.978443 
663.000000	 98.996228 
662.000000	 99.029407 
661.000000	 99.055478 
660.000000	 99.049737 
659.000000	 99.011023 
658.000000	 98.960116 
657.000000	 98.915658 
656.000000	 98.883144 
655.000000	 98.868067 
654.000000	 98.878324 
653.000000	 98.907946 
652.000000	 98.935301 
651.000000	 98.944942 
650.000000	 98.942448 

