4000.000000	99.412613 
3999.000000	99.412484 
3998.000000	99.412265 
3997.000000	99.411759 
3996.000000	99.410875 
3995.000000	99.409781 
3994.000000	99.408891 
3993.000000	99.408579 
3992.000000	99.408894 
3991.000000	99.409461 
3990.000000	99.409753 
3989.000000	99.409602 
3988.000000	99.409344 
3987.000000	99.409480 
3986.000000	99.410179 
3985.000000	99.411107 
3984.000000	99.411671 
3983.000000	99.411461 
3982.000000	99.410452 
3981.000000	99.408959 
3980.000000	99.407406 
3979.000000	99.406092 
3978.000000	99.405170 
3977.000000	99.404739 
3976.000000	99.404843 
3975.000000	99.405400 
3974.000000	99.406192 
3973.000000	99.406900 
3972.000000	99.407203 
3971.000000	99.406925 
3970.000000	99.406126 
3969.000000	99.405073 
3968.000000	99.404106 
3967.000000	99.403420 
3966.000000	99.402990 
3965.000000	99.402679 
3964.000000	99.402363 
3963.000000	99.401946 
3962.000000	99.401360 
3961.000000	99.400606 
3960.000000	99.399796 
3959.000000	99.399114 
3958.000000	99.398678 
3957.000000	99.398444 
3956.000000	99.398283 
3955.000000	99.398119 
3954.000000	99.397959 
3953.000000	99.397786 
3952.000000	99.397501 
3951.000000	99.397034 
3950.000000	99.396480 
3949.000000	99.396083 
3948.000000	99.396024 
3947.000000	99.396181 
3946.000000	99.396202 
3945.000000	99.395875 
3944.000000	99.395400 
3943.000000	99.395152 
3942.000000	99.395250 
3941.000000	99.395444 
3940.000000	99.395350 
3939.000000	99.394718 
3938.000000	99.393559 
3937.000000	99.392159 
3936.000000	99.391038 
3935.000000	99.390742 
3934.000000	99.391555 
3933.000000	99.393290 
3932.000000	99.395248 
3931.000000	99.396521 
3930.000000	99.396511 
3929.000000	99.395253 
3928.000000	99.393343 
3927.000000	99.391583 
3926.000000	99.390671 
3925.000000	99.390872 
3924.000000	99.391770 
3923.000000	99.392655 
3922.000000	99.393220 
3921.000000	99.393737 
3920.000000	99.394501 
3919.000000	99.395414 
3918.000000	99.396265 
3917.000000	99.397086 
3916.000000	99.397978 
3915.000000	99.398784 
3914.000000	99.399290 
3913.000000	99.399518 
3912.000000	99.399627 
3911.000000	99.399845 
3910.000000	99.400430 
3909.000000	99.401579 
3908.000000	99.403134 
3907.000000	99.404354 
3906.000000	99.404273 
3905.000000	99.402458 
3904.000000	99.399315 
3903.000000	99.395865 
3902.000000	99.393208 
3901.000000	99.392062 
3900.000000	99.392594 
3899.000000	99.394185 
3898.000000	99.395738 
3897.000000	99.396556 
3896.000000	99.396672 
3895.000000	99.396419 
3894.000000	99.395978 
3893.000000	99.395376 
3892.000000	99.394799 
3891.000000	99.394577 
3890.000000	99.394707 
3889.000000	99.394782 
3888.000000	99.394510 
3887.000000	99.394155 
3886.000000	99.394212 
3885.000000	99.394642 
3884.000000	99.394818 
3883.000000	99.394460 
3882.000000	99.394058 
3881.000000	99.394279 
3880.000000	99.395220 
3879.000000	99.396320 
3878.000000	99.397036 
3877.000000	99.397370 
3876.000000	99.397679 
3875.000000	99.398206 
3874.000000	99.398793 
3873.000000	99.399057 
3872.000000	99.398927 
3871.000000	99.398779 
3870.000000	99.399016 
3869.000000	99.399592 
3868.000000	99.400169 
3867.000000	99.400548 
3866.000000	99.400813 
3865.000000	99.401094 
3864.000000	99.401390 
3863.000000	99.401653 
3862.000000	99.401889 
3861.000000	99.402160 
3860.000000	99.402522 
3859.000000	99.403001 
3858.000000	99.403564 
3857.000000	99.404127 
3856.000000	99.404587 
3855.000000	99.404914 
3854.000000	99.405228 
3853.000000	99.405628 
3852.000000	99.405992 
3851.000000	99.406193 
3850.000000	99.406296 
3849.000000	99.406440 
3848.000000	99.406663 
3847.000000	99.406880 
3846.000000	99.407010 
3845.000000	99.407082 
3844.000000	99.407275 
3843.000000	99.407815 
3842.000000	99.408712 
3841.000000	99.409677 
3840.000000	99.410394 
3839.000000	99.410763 
3838.000000	99.410831 
3837.000000	99.410655 
3836.000000	99.410256 
3835.000000	99.409733 
3834.000000	99.409277 
3833.000000	99.409106 
3832.000000	99.409320 
3831.000000	99.409707 
3830.000000	99.409849 
3829.000000	99.409438 
3828.000000	99.408566 
3827.000000	99.407858 
3826.000000	99.407993 
3825.000000	99.408959 
3824.000000	99.410077 
3823.000000	99.410842 
3822.000000	99.411512 
3821.000000	99.412661 
3820.000000	99.414006 
3819.000000	99.414554 
3818.000000	99.413857 
3817.000000	99.412523 
3816.000000	99.411393 
3815.000000	99.410121 
3814.000000	99.407799 
3813.000000	99.404874 
3812.000000	99.403076 
3811.000000	99.403449 
3810.000000	99.405328 
3809.000000	99.407108 
3808.000000	99.408044 
3807.000000	99.408726 
3806.000000	99.409495 
3805.000000	99.409506 
3804.000000	99.408043 
3803.000000	99.405870 
3802.000000	99.404777 
3801.000000	99.405343 
3800.000000	99.405829 
3799.000000	99.404538 
3798.000000	99.401723 
3797.000000	99.398840 
3796.000000	99.396795 
3795.000000	99.395131 
3794.000000	99.393070 
3793.000000	99.390686 
3792.000000	99.388745 
3791.000000	99.387748 
3790.000000	99.387599 
3789.000000	99.387916 
3788.000000	99.388300 
3787.000000	99.388326 
3786.000000	99.387840 
3785.000000	99.387300 
3784.000000	99.387430 
3783.000000	99.388400 
3782.000000	99.389812 
3781.000000	99.391358 
3780.000000	99.392884 
3779.000000	99.393813 
3778.000000	99.393079 
3777.000000	99.390228 
3776.000000	99.386389 
3775.000000	99.383812 
3774.000000	99.383949 
3773.000000	99.386253 
3772.000000	99.389102 
3771.000000	99.391445 
3770.000000	99.392815 
3769.000000	99.392582 
3768.000000	99.390424 
3767.000000	99.387307 
3766.000000	99.385077 
3765.000000	99.384721 
3764.000000	99.385100 
3763.000000	99.384209 
3762.000000	99.381783 
3761.000000	99.379682 
3760.000000	99.379485 
3759.000000	99.381084 
3758.000000	99.383916 
3757.000000	99.388071 
3756.000000	99.393200 
3755.000000	99.398244 
3754.000000	99.402733 
3753.000000	99.407376 
3752.000000	99.412204 
3751.000000	99.415297 
3750.000000	99.415863 
3749.000000	99.415945 
3748.000000	99.416503 
3747.000000	99.415597 
3746.000000	99.411631 
3745.000000	99.406244 
3744.000000	99.402182 
3743.000000	99.398654 
3742.000000	99.393673 
3741.000000	99.388062 
3740.000000	99.383426 
3739.000000	99.379656 
3738.000000	99.376176 
3737.000000	99.374141 
3736.000000	99.374697 
3735.000000	99.375812 
3734.000000	99.374211 
3733.000000	99.370501 
3732.000000	99.368420 
3731.000000	99.369563 
3730.000000	99.372023 
3729.000000	99.373369 
3728.000000	99.373266 
3727.000000	99.372752 
3726.000000	99.371988 
3725.000000	99.370112 
3724.000000	99.367274 
3723.000000	99.364989 
3722.000000	99.364189 
3721.000000	99.364287 
3720.000000	99.363931 
3719.000000	99.362505 
3718.000000	99.360803 
3717.000000	99.359880 
3716.000000	99.359431 
3715.000000	99.358329 
3714.000000	99.356439 
3713.000000	99.355097 
3712.000000	99.355214 
3711.000000	99.355615 
3710.000000	99.354167 
3709.000000	99.349854 
3708.000000	99.343408 
3707.000000	99.336543 
3706.000000	99.330746 
3705.000000	99.326647 
3704.000000	99.324062 
3703.000000	99.322328 
3702.000000	99.320630 
3701.000000	99.318387 
3700.000000	99.315394 
3699.000000	99.311736 
3698.000000	99.307883 
3697.000000	99.304618 
3696.000000	99.302450 
3695.000000	99.301337 
3694.000000	99.300979 
3693.000000	99.300911 
3692.000000	99.300249 
3691.000000	99.297964 
3690.000000	99.293913 
3689.000000	99.289416 
3688.000000	99.286041 
3687.000000	99.283873 
3686.000000	99.282015 
3685.000000	99.280131 
3684.000000	99.278594 
3683.000000	99.277562 
3682.000000	99.276527 
3681.000000	99.274950 
3680.000000	99.272901 
3679.000000	99.270687 
3678.000000	99.268417 
3677.000000	99.266303 
3676.000000	99.264854 
3675.000000	99.264069 
3674.000000	99.263090 
3673.000000	99.261223 
3672.000000	99.258606 
3671.000000	99.256028 
3670.000000	99.254136 
3669.000000	99.252768 
3668.000000	99.251396 
3667.000000	99.249882 
3666.000000	99.248424 
3665.000000	99.247176 
3664.000000	99.246054 
3663.000000	99.244869 
3662.000000	99.243565 
3661.000000	99.242229 
3660.000000	99.240834 
3659.000000	99.239153 
3658.000000	99.237180 
3657.000000	99.235518 
3656.000000	99.234899 
3655.000000	99.235182 
3654.000000	99.235403 
3653.000000	99.234820 
3652.000000	99.233458 
3651.000000	99.231836 
3650.000000	99.230237 
3649.000000	99.228454 
3648.000000	99.226395 
3647.000000	99.224275 
3646.000000	99.222310 
3645.000000	99.220789 
3644.000000	99.220125 
3643.000000	99.220677 
3642.000000	99.222530 
3641.000000	99.225240 
3640.000000	99.228050 
3639.000000	99.230375 
3638.000000	99.231926 
3637.000000	99.232554 
3636.000000	99.232234 
3635.000000	99.231215 
3634.000000	99.229753 
3633.000000	99.227721 
3632.000000	99.225119 
3631.000000	99.222963 
3630.000000	99.223076 
3629.000000	99.225449 
3628.000000	99.226645 
3627.000000	99.224110 
3626.000000	99.219460 
3625.000000	99.215855 
3624.000000	99.214504 
3623.000000	99.214199 
3622.000000	99.213408 
3621.000000	99.212790 
3620.000000	99.214531 
3619.000000	99.219129 
3618.000000	99.224395 
3617.000000	99.228201 
3616.000000	99.230593 
3615.000000	99.232943 
3614.000000	99.235798 
3613.000000	99.238134 
3612.000000	99.238895 
3611.000000	99.238641 
3610.000000	99.238986 
3609.000000	99.240489 
3608.000000	99.241892 
3607.000000	99.242019 
3606.000000	99.241625 
3605.000000	99.242500 
3604.000000	99.245420 
3603.000000	99.249586 
3602.000000	99.253587 
3601.000000	99.256708 
3600.000000	99.258889 
3599.000000	99.260045 
3598.000000	99.260165 
3597.000000	99.259522 
3596.000000	99.258752 
3595.000000	99.258854 
3594.000000	99.260511 
3593.000000	99.263369 
3592.000000	99.266160 
3591.000000	99.267397 
3590.000000	99.266529 
3589.000000	99.264487 
3588.000000	99.263037 
3587.000000	99.262772 
3586.000000	99.262794 
3585.000000	99.262574 
3584.000000	99.262843 
3583.000000	99.264353 
3582.000000	99.266843 
3581.000000	99.269262 
3580.000000	99.270717 
3579.000000	99.271006 
3578.000000	99.270406 
3577.000000	99.269416 
3576.000000	99.268668 
3575.000000	99.268707 
3574.000000	99.269574 
3573.000000	99.270611 
3572.000000	99.271043 
3571.000000	99.270611 
3570.000000	99.269539 
3569.000000	99.268295 
3568.000000	99.267446 
3567.000000	99.267301 
3566.000000	99.267625 
3565.000000	99.268068 
3564.000000	99.268754 
3563.000000	99.270136 
3562.000000	99.272338 
3561.000000	99.274751 
3560.000000	99.276470 
3559.000000	99.277059 
3558.000000	99.276823 
3557.000000	99.276437 
3556.000000	99.276378 
3555.000000	99.276659 
3554.000000	99.277000 
3553.000000	99.276995 
3552.000000	99.276312 
3551.000000	99.274967 
3550.000000	99.273331 
3549.000000	99.271823 
3548.000000	99.270737 
3547.000000	99.270185 
3546.000000	99.270085 
3545.000000	99.270051 
3544.000000	99.269636 
3543.000000	99.268972 
3542.000000	99.268950 
3541.000000	99.270345 
3540.000000	99.272853 
3539.000000	99.275129 
3538.000000	99.276084 
3537.000000	99.275831 
3536.000000	99.275341 
3535.000000	99.275300 
3534.000000	99.275513 
3533.000000	99.275521 
3532.000000	99.275350 
3531.000000	99.275452 
3530.000000	99.275975 
3529.000000	99.276398 
3528.000000	99.276101 
3527.000000	99.275146 
3526.000000	99.274221 
3525.000000	99.273861 
3524.000000	99.273916 
3523.000000	99.273865 
3522.000000	99.273518 
3521.000000	99.273228 
3520.000000	99.273508 
3519.000000	99.274567 
3518.000000	99.276193 
3517.000000	99.277880 
3516.000000	99.279052 
3515.000000	99.279366 
3514.000000	99.278788 
3513.000000	99.277522 
3512.000000	99.275915 
3511.000000	99.274367 
3510.000000	99.273192 
3509.000000	99.272454 
3508.000000	99.272007 
3507.000000	99.271745 
3506.000000	99.271774 
3505.000000	99.272190 
3504.000000	99.272822 
3503.000000	99.273444 
3502.000000	99.274202 
3501.000000	99.275484 
3500.000000	99.277226 
3499.000000	99.278622 
3498.000000	99.278787 
3497.000000	99.277646 
3496.000000	99.276022 
3495.000000	99.274904 
3494.000000	99.274613 
3493.000000	99.274813 
3492.000000	99.275093 
3491.000000	99.275324 
3490.000000	99.275650 
3489.000000	99.276291 
3488.000000	99.277336 
3487.000000	99.278597 
3486.000000	99.279649 
3485.000000	99.280152 
3484.000000	99.280120 
3483.000000	99.279843 
3482.000000	99.279567 
3481.000000	99.279314 
3480.000000	99.279018 
3479.000000	99.278708 
3478.000000	99.278452 
3477.000000	99.278251 
3476.000000	99.278115 
3475.000000	99.278228 
3474.000000	99.278835 
3473.000000	99.279885 
3472.000000	99.280888 
3471.000000	99.281339 
3470.000000	99.281260 
3469.000000	99.281179 
3468.000000	99.281535 
3467.000000	99.282140 
3466.000000	99.282405 
3465.000000	99.282026 
3464.000000	99.281253 
3463.000000	99.280571 
3462.000000	99.280200 
3461.000000	99.280039 
3460.000000	99.279943 
3459.000000	99.279918 
3458.000000	99.279998 
3457.000000	99.280024 
3456.000000	99.279702 
3455.000000	99.278936 
3454.000000	99.278037 
3453.000000	99.277499 
3452.000000	99.277523 
3451.000000	99.277845 
3450.000000	99.278038 
3449.000000	99.277920 
3448.000000	99.277583 
3447.000000	99.277099 
3446.000000	99.276391 
3445.000000	99.275493 
3444.000000	99.274755 
3443.000000	99.274552 
3442.000000	99.274821 
3441.000000	99.274990 
3440.000000	99.274525 
3439.000000	99.273419 
3438.000000	99.272102 
3437.000000	99.270960 
3436.000000	99.270071 
3435.000000	99.269426 
3434.000000	99.269167 
3433.000000	99.269455 
3432.000000	99.270152 
3431.000000	99.270829 
3430.000000	99.271176 
3429.000000	99.271308 
3428.000000	99.271559 
3427.000000	99.271959 
3426.000000	99.272037 
3425.000000	99.271275 
3424.000000	99.269678 
3423.000000	99.267849 
3422.000000	99.266476 
3421.000000	99.265788 
3420.000000	99.265623 
3419.000000	99.265816 
3418.000000	99.266367 
3417.000000	99.267210 
3416.000000	99.268031 
3415.000000	99.268443 
3414.000000	99.268273 
3413.000000	99.267647 
3412.000000	99.266893 
3411.000000	99.266356 
3410.000000	99.266193 
3409.000000	99.266267 
3408.000000	99.266235 
3407.000000	99.265821 
3406.000000	99.265037 
3405.000000	99.264145 
3404.000000	99.263457 
3403.000000	99.263148 
3402.000000	99.263208 
3401.000000	99.263539 
3400.000000	99.264083 
3399.000000	99.264851 
3398.000000	99.265806 
3397.000000	99.266752 
3396.000000	99.267372 
3395.000000	99.267387 
3394.000000	99.266686 
3393.000000	99.265353 
3392.000000	99.263703 
3391.000000	99.262258 
3390.000000	99.261526 
3389.000000	99.261709 
3388.000000	99.262635 
3387.000000	99.263908 
3386.000000	99.265184 
3385.000000	99.266310 
3384.000000	99.267225 
3383.000000	99.267803 
3382.000000	99.267830 
3381.000000	99.267212 
3380.000000	99.266186 
3379.000000	99.265304 
3378.000000	99.265028 
3377.000000	99.265357 
3376.000000	99.265883 
3375.000000	99.266183 
3374.000000	99.266179 
3373.000000	99.266084 
3372.000000	99.266078 
3371.000000	99.266128 
3370.000000	99.266100 
3369.000000	99.265939 
3368.000000	99.265713 
3367.000000	99.265544 
3366.000000	99.265520 
3365.000000	99.265645 
3364.000000	99.265840 
3363.000000	99.265987 
3362.000000	99.266009 
3361.000000	99.265913 
3360.000000	99.265749 
3359.000000	99.265566 
3358.000000	99.265399 
3357.000000	99.265283 
3356.000000	99.265249 
3355.000000	99.265290 
3354.000000	99.265347 
3353.000000	99.265347 
3352.000000	99.265264 
3351.000000	99.265128 
3350.000000	99.265015 
3349.000000	99.264989 
3348.000000	99.265059 
3347.000000	99.265185 
3346.000000	99.265296 
3345.000000	99.265340 
3344.000000	99.265302 
3343.000000	99.265232 
3342.000000	99.265203 
3341.000000	99.265216 
3340.000000	99.265153 
3339.000000	99.264894 
3338.000000	99.264511 
3337.000000	99.264283 
3336.000000	99.264439 
3335.000000	99.264931 
3334.000000	99.265456 
3333.000000	99.265813 
3332.000000	99.266073 
3331.000000	99.266399 
3330.000000	99.266792 
3329.000000	99.267074 
3328.000000	99.267113 
3327.000000	99.266996 
3326.000000	99.266915 
3325.000000	99.266915 
3324.000000	99.266820 
3323.000000	99.266454 
3322.000000	99.265878 
3321.000000	99.265352 
3320.000000	99.265096 
3319.000000	99.265157 
3318.000000	99.265472 
3317.000000	99.265988 
3316.000000	99.266641 
3315.000000	99.267263 
3314.000000	99.267676 
3313.000000	99.267889 
3312.000000	99.268111 
3311.000000	99.268496 
3310.000000	99.268918 
3309.000000	99.269080 
3308.000000	99.268858 
3307.000000	99.268407 
3306.000000	99.267999 
3305.000000	99.267820 
3304.000000	99.267910 
3303.000000	99.268180 
3302.000000	99.268417 
3301.000000	99.268379 
3300.000000	99.267973 
3299.000000	99.267331 
3298.000000	99.266718 
3297.000000	99.266358 
3296.000000	99.266309 
3295.000000	99.266461 
3294.000000	99.266610 
3293.000000	99.266595 
3292.000000	99.266416 
3291.000000	99.266192 
3290.000000	99.266009 
3289.000000	99.265828 
3288.000000	99.265571 
3287.000000	99.265267 
3286.000000	99.265027 
3285.000000	99.264901 
3284.000000	99.264798 
3283.000000	99.264591 
3282.000000	99.264281 
3281.000000	99.264028 
3280.000000	99.264011 
3279.000000	99.264249 
3278.000000	99.264551 
3277.000000	99.264644 
3276.000000	99.264378 
3275.000000	99.263782 
3274.000000	99.263009 
3273.000000	99.262241 
3272.000000	99.261646 
3271.000000	99.261358 
3270.000000	99.261409 
3269.000000	99.261667 
3268.000000	99.261914 
3267.000000	99.262002 
3266.000000	99.261899 
3265.000000	99.261623 
3264.000000	99.261262 
3263.000000	99.261046 
3262.000000	99.261267 
3261.000000	99.262011 
3260.000000	99.263014 
3259.000000	99.263819 
3258.000000	99.264110 
3257.000000	99.263887 
3256.000000	99.263412 
3255.000000	99.262996 
3254.000000	99.262825 
3253.000000	99.262937 
3252.000000	99.263336 
3251.000000	99.264028 
3250.000000	99.264888 
3249.000000	99.265552 
3248.000000	99.265648 
3247.000000	99.265119 
3246.000000	99.264286 
3245.000000	99.263570 
3244.000000	99.263205 
3243.000000	99.263250 
3242.000000	99.263665 
3241.000000	99.264264 
3240.000000	99.264766 
3239.000000	99.265091 
3238.000000	99.265559 
3237.000000	99.266607 
3236.000000	99.268302 
3235.000000	99.270166 
3234.000000	99.271499 
3233.000000	99.271880 
3232.000000	99.271420 
3231.000000	99.270623 
3230.000000	99.270004 
3229.000000	99.269747 
3228.000000	99.269680 
3227.000000	99.269515 
3226.000000	99.269104 
3225.000000	99.268522 
3224.000000	99.268002 
3223.000000	99.267805 
3222.000000	99.268042 
3221.000000	99.268558 
3220.000000	99.269000 
3219.000000	99.269088 
3218.000000	99.268854 
3217.000000	99.268654 
3216.000000	99.268951 
3215.000000	99.269988 
3214.000000	99.271561 
3213.000000	99.273044 
3212.000000	99.273770 
3211.000000	99.273464 
3210.000000	99.272361 
3209.000000	99.271047 
3208.000000	99.270129 
3207.000000	99.269916 
3206.000000	99.270282 
3205.000000	99.270754 
3204.000000	99.270900 
3203.000000	99.270711 
3202.000000	99.270503 
3201.000000	99.270518 
3200.000000	99.270769 
3199.000000	99.271249 
3198.000000	99.272020 
3197.000000	99.273010 
3196.000000	99.273903 
3195.000000	99.274407 
3194.000000	99.274496 
3193.000000	99.274301 
3192.000000	99.273878 
3191.000000	99.273262 
3190.000000	99.272619 
3189.000000	99.272146 
3188.000000	99.271850 
3187.000000	99.271604 
3186.000000	99.271418 
3185.000000	99.271491 
3184.000000	99.271909 
3183.000000	99.272458 
3182.000000	99.272859 
3181.000000	99.273106 
3180.000000	99.273482 
3179.000000	99.274264 
3178.000000	99.275369 
3177.000000	99.276229 
3176.000000	99.276192 
3175.000000	99.275192 
3174.000000	99.273986 
3173.000000	99.273441 
3172.000000	99.273524 
3171.000000	99.273391 
3170.000000	99.272570 
3169.000000	99.271701 
3168.000000	99.271763 
3167.000000	99.272867 
3166.000000	99.274199 
3165.000000	99.274948 
3164.000000	99.274970 
3163.000000	99.274568 
3162.000000	99.274051 
3161.000000	99.273675 
3160.000000	99.273658 
3159.000000	99.273982 
3158.000000	99.274276 
3157.000000	99.274121 
3156.000000	99.273482 
3155.000000	99.272699 
3154.000000	99.272032 
3153.000000	99.271323 
3152.000000	99.270204 
3151.000000	99.268647 
3150.000000	99.267159 
3149.000000	99.266374 
3148.000000	99.266526 
3147.000000	99.267411 
3146.000000	99.268744 
3145.000000	99.270339 
3144.000000	99.271929 
3143.000000	99.273097 
3142.000000	99.273586 
3141.000000	99.273614 
3140.000000	99.273685 
3139.000000	99.274084 
3138.000000	99.274658 
3137.000000	99.275101 
3136.000000	99.275372 
3135.000000	99.275758 
3134.000000	99.276568 
3133.000000	99.277755 
3132.000000	99.278852 
3131.000000	99.279323 
3130.000000	99.279022 
3129.000000	99.278330 
3128.000000	99.277896 
3127.000000	99.278200 
3126.000000	99.279291 
3125.000000	99.280754 
3124.000000	99.281885 
3123.000000	99.282151 
3122.000000	99.281605 
3121.000000	99.280913 
3120.000000	99.280780 
3119.000000	99.281311 
3118.000000	99.282034 
3117.000000	99.282480 
3116.000000	99.282637 
3115.000000	99.282771 
3114.000000	99.282995 
3113.000000	99.283164 
3112.000000	99.283144 
3111.000000	99.283011 
3110.000000	99.282949 
3109.000000	99.283049 
3108.000000	99.283260 
3107.000000	99.283460 
3106.000000	99.283573 
3105.000000	99.283620 
3104.000000	99.283707 
3103.000000	99.283930 
3102.000000	99.284310 
3101.000000	99.284779 
3100.000000	99.285219 
3099.000000	99.285571 
3098.000000	99.285871 
3097.000000	99.286191 
3096.000000	99.286559 
3095.000000	99.286931 
3094.000000	99.287202 
3093.000000	99.287277 
3092.000000	99.287148 
3091.000000	99.286938 
3090.000000	99.286848 
3089.000000	99.287036 
3088.000000	99.287525 
3087.000000	99.288158 
3086.000000	99.288647 
3085.000000	99.288744 
3084.000000	99.288401 
3083.000000	99.287775 
3082.000000	99.287085 
3081.000000	99.286545 
3080.000000	99.286373 
3079.000000	99.286719 
3078.000000	99.287509 
3077.000000	99.288437 
3076.000000	99.289198 
3075.000000	99.289657 
3074.000000	99.289757 
3073.000000	99.289439 
3072.000000	99.288745 
3071.000000	99.287836 
3070.000000	99.286765 
3069.000000	99.285387 
3068.000000	99.283736 
3067.000000	99.282527 
3066.000000	99.282988 
3065.000000	99.285907 
3064.000000	99.290579 
3063.000000	99.294696 
3062.000000	99.295758 
3061.000000	99.292918 
3060.000000	99.287680 
3059.000000	99.282777 
3058.000000	99.280207 
3057.000000	99.280442 
3056.000000	99.282932 
3055.000000	99.286587 
3054.000000	99.289819 
3053.000000	99.291000 
3052.000000	99.289474 
3051.000000	99.285960 
3050.000000	99.281927 
3049.000000	99.278787 
3048.000000	99.277485 
3047.000000	99.277947 
3046.000000	99.278627 
3045.000000	99.277529 
3044.000000	99.274423 
3043.000000	99.271495 
3042.000000	99.271041 
3041.000000	99.272847 
3040.000000	99.274565 
3039.000000	99.274244 
3038.000000	99.271595 
3037.000000	99.267157 
3036.000000	99.261388 
3035.000000	99.254813 
3034.000000	99.248185 
3033.000000	99.241990 
3032.000000	99.236212 
3031.000000	99.230778 
3030.000000	99.225829 
3029.000000	99.221459 
3028.000000	99.217660 
3027.000000	99.214608 
3026.000000	99.212433 
3025.000000	99.210461 
3024.000000	99.207230 
3023.000000	99.201721 
3022.000000	99.194283 
3021.000000	99.185909 
3020.000000	99.176805 
3019.000000	99.166268 
3018.000000	99.154102 
3017.000000	99.141596 
3016.000000	99.130582 
3015.000000	99.121636 
3014.000000	99.113799 
3013.000000	99.106223 
3012.000000	99.099416 
3011.000000	99.094191 
3010.000000	99.089811 
3009.000000	99.084319 
3008.000000	99.076863 
3007.000000	99.068729 
3006.000000	99.061527 
3005.000000	99.055038 
3004.000000	99.047556 
3003.000000	99.038030 
3002.000000	99.027205 
3001.000000	99.016873 
3000.000000	99.008461 
2999.000000	99.002215 
2998.000000	98.997259 
2997.000000	98.992511 
2996.000000	98.987683 
2995.000000	98.982954 
2994.000000	98.977452 
2993.000000	98.968894 
2992.000000	98.955664 
2991.000000	98.939086 
2990.000000	98.922995 
2989.000000	98.911126 
2988.000000	98.905326 
2987.000000	98.905593 
2986.000000	98.910468 
2985.000000	98.917236 
2984.000000	98.922784 
2983.000000	98.925152 
2982.000000	98.924313 
2981.000000	98.921615 
2980.000000	98.918770 
2979.000000	98.917073 
2978.000000	98.916834 
2977.000000	98.917228 
2976.000000	98.916986 
2975.000000	98.915391 
2974.000000	98.912582 
2973.000000	98.909279 
2972.000000	98.906654 
2971.000000	98.906075 
2970.000000	98.908203 
2969.000000	98.912255 
2968.000000	98.916729 
2967.000000	98.920874 
2966.000000	98.924955 
2965.000000	98.929139 
2964.000000	98.932958 
2963.000000	98.936104 
2962.000000	98.939164 
2961.000000	98.943087 
2960.000000	98.948126 
2959.000000	98.953514 
2958.000000	98.958005 
2957.000000	98.960724 
2956.000000	98.961863 
2955.000000	98.962771 
2954.000000	98.965223 
2953.000000	98.970280 
2952.000000	98.977610 
2951.000000	98.985538 
2950.000000	98.991760 
2949.000000	98.994566 
2948.000000	98.993901 
2947.000000	98.991293 
2946.000000	98.988669 
2945.000000	98.987346 
2944.000000	98.987898 
2943.000000	98.990079 
2942.000000	98.992333 
2941.000000	98.992221 
2940.000000	98.988415 
2939.000000	98.982382 
2938.000000	98.977445 
2937.000000	98.975992 
2936.000000	98.977907 
2935.000000	98.981233 
2934.000000	98.983578 
2933.000000	98.983129 
2932.000000	98.979383 
2931.000000	98.973367 
2930.000000	98.966898 
2929.000000	98.961478 
2928.000000	98.957849 
2927.000000	98.956008 
2926.000000	98.955039 
2925.000000	98.953516 
2924.000000	98.951063 
2923.000000	98.949264 
2922.000000	98.950036 
2921.000000	98.953146 
2920.000000	98.956326 
2919.000000	98.957852 
2918.000000	98.958070 
2917.000000	98.958123 
2916.000000	98.958267 
2915.000000	98.958022 
2914.000000	98.957301 
2913.000000	98.956733 
2912.000000	98.957195 
2911.000000	98.959274 
2910.000000	98.962808 
2909.000000	98.966710 
2908.000000	98.969601 
2907.000000	98.970872 
2906.000000	98.970715 
2905.000000	98.969130 
2904.000000	98.965618 
2903.000000	98.960408 
2902.000000	98.955554 
2901.000000	98.954267 
2900.000000	98.958421 
2899.000000	98.967355 
2898.000000	98.978079 
2897.000000	98.986990 
2896.000000	98.992176 
2895.000000	98.994355 
2894.000000	98.995752 
2893.000000	98.998050 
2892.000000	99.001543 
2891.000000	99.005799 
2890.000000	99.010273 
2889.000000	99.014152 
2888.000000	99.016536 
2887.000000	99.017529 
2886.000000	99.018675 
2885.000000	99.021645 
2884.000000	99.026644 
2883.000000	99.032560 
2882.000000	99.038382 
2881.000000	99.043955 
2880.000000	99.049451 
2879.000000	99.054755 
2878.000000	99.059603 
2877.000000	99.064032 
2876.000000	99.068481 
2875.000000	99.073502 
2874.000000	99.079292 
2873.000000	99.085359 
2872.000000	99.090705 
2871.000000	99.094576 
2870.000000	99.097091 
2869.000000	99.099166 
2868.000000	99.101906 
2867.000000	99.106058 
2866.000000	99.111689 
2865.000000	99.118058 
2864.000000	99.123913 
2863.000000	99.128276 
2862.000000	99.131013 
2861.000000	99.132606 
2860.000000	99.133608 
2859.000000	99.134567 
2858.000000	99.136165 
2857.000000	99.138876 
2856.000000	99.142408 
2855.000000	99.146040 
2854.000000	99.149644 
2853.000000	99.154035 
2852.000000	99.160109 
2851.000000	99.167823 
2850.000000	99.176226 
2849.000000	99.184388 
2848.000000	99.192163 
2847.000000	99.199965 
2846.000000	99.207894 
2845.000000	99.215181 
2844.000000	99.220575 
2843.000000	99.223392 
2842.000000	99.224396 
2841.000000	99.225735 
2840.000000	99.229631 
2839.000000	99.236615 
2838.000000	99.244906 
2837.000000	99.251816 
2836.000000	99.255988 
2835.000000	99.258222 
2834.000000	99.260193 
2833.000000	99.262619 
2832.000000	99.264802 
2831.000000	99.265669 
2830.000000	99.264883 
2829.000000	99.263109 
2828.000000	99.261636 
2827.000000	99.261589 
2826.000000	99.263210 
2825.000000	99.265843 
2824.000000	99.268735 
2823.000000	99.271676 
2822.000000	99.274649 
2821.000000	99.277155 
2820.000000	99.278418 
2819.000000	99.278273 
2818.000000	99.277491 
2817.000000	99.277126 
2816.000000	99.277727 
2815.000000	99.279136 
2814.000000	99.280735 
2813.000000	99.281850 
2812.000000	99.282230 
2811.000000	99.282319 
2810.000000	99.282939 
2809.000000	99.284567 
2808.000000	99.286861 
2807.000000	99.288833 
2806.000000	99.289521 
2805.000000	99.288742 
2804.000000	99.287384 
2803.000000	99.286815 
2802.000000	99.287762 
2801.000000	99.289808 
2800.000000	99.291991 
2799.000000	99.293687 
2798.000000	99.294745 
2797.000000	99.295059 
2796.000000	99.294456 
2795.000000	99.293072 
2794.000000	99.291589 
2793.000000	99.290936 
2792.000000	99.291623 
2791.000000	99.293366 
2790.000000	99.295326 
2789.000000	99.296814 
2788.000000	99.297840 
2787.000000	99.298844 
2786.000000	99.299979 
2785.000000	99.300862 
2784.000000	99.301086 
2783.000000	99.300734 
2782.000000	99.300237 
2781.000000	99.299922 
2780.000000	99.299931 
2779.000000	99.300379 
2778.000000	99.301293 
2777.000000	99.302489 
2776.000000	99.303750 
2775.000000	99.305054 
2774.000000	99.306371 
2773.000000	99.307412 
2772.000000	99.307943 
2771.000000	99.308266 
2770.000000	99.308929 
2769.000000	99.309920 
2768.000000	99.310632 
2767.000000	99.310721 
2766.000000	99.310542 
2765.000000	99.310521 
2764.000000	99.310479 
2763.000000	99.309920 
2762.000000	99.308760 
2761.000000	99.307487 
2760.000000	99.306721 
2759.000000	99.306768 
2758.000000	99.307547 
2757.000000	99.308747 
2756.000000	99.310019 
2755.000000	99.311087 
2754.000000	99.311727 
2753.000000	99.311805 
2752.000000	99.311476 
2751.000000	99.311220 
2750.000000	99.311436 
2749.000000	99.312006 
2748.000000	99.312459 
2747.000000	99.312577 
2746.000000	99.312609 
2745.000000	99.312850 
2744.000000	99.313262 
2743.000000	99.313620 
2742.000000	99.313844 
2741.000000	99.314044 
2740.000000	99.314297 
2739.000000	99.314553 
2738.000000	99.314739 
2737.000000	99.314895 
2736.000000	99.315158 
2735.000000	99.315596 
2734.000000	99.316094 
2733.000000	99.316425 
2732.000000	99.316483 
2731.000000	99.316368 
2730.000000	99.316262 
2729.000000	99.316257 
2728.000000	99.316360 
2727.000000	99.316576 
2726.000000	99.316912 
2725.000000	99.317313 
2724.000000	99.317686 
2723.000000	99.318006 
2722.000000	99.318349 
2721.000000	99.318785 
2720.000000	99.319279 
2719.000000	99.319708 
2718.000000	99.319994 
2717.000000	99.320151 
2716.000000	99.320271 
2715.000000	99.320456 
2714.000000	99.320746 
2713.000000	99.321105 
2712.000000	99.321467 
2711.000000	99.321803 
2710.000000	99.322150 
2709.000000	99.322551 
2708.000000	99.322993 
2707.000000	99.323402 
2706.000000	99.323707 
2705.000000	99.323902 
2704.000000	99.324072 
2703.000000	99.324337 
2702.000000	99.324742 
2701.000000	99.325220 
2700.000000	99.325665 
2699.000000	99.326055 
2698.000000	99.326460 
2697.000000	99.326945 
2696.000000	99.327473 
2695.000000	99.327920 
2694.000000	99.328198 
2693.000000	99.328344 
2692.000000	99.328501 
2691.000000	99.328759 
2690.000000	99.329070 
2689.000000	99.329317 
2688.000000	99.329472 
2687.000000	99.329627 
2686.000000	99.329888 
2685.000000	99.330261 
2684.000000	99.330674 
2683.000000	99.331059 
2682.000000	99.331374 
2681.000000	99.331575 
2680.000000	99.331636 
2679.000000	99.331609 
2678.000000	99.331632 
2677.000000	99.331830 
2676.000000	99.332220 
2675.000000	99.332728 
2674.000000	99.333231 
2673.000000	99.333631 
2672.000000	99.333887 
2671.000000	99.334042 
2670.000000	99.334199 
2669.000000	99.334428 
2668.000000	99.334708 
2667.000000	99.334986 
2666.000000	99.335259 
2665.000000	99.335559 
2664.000000	99.335891 
2663.000000	99.336222 
2662.000000	99.336528 
2661.000000	99.336804 
2660.000000	99.337036 
2659.000000	99.337191 
2658.000000	99.337255 
2657.000000	99.337274 
2656.000000	99.337355 
2655.000000	99.337584 
2654.000000	99.337945 
2653.000000	99.338335 
2652.000000	99.338704 
2651.000000	99.339124 
2650.000000	99.339678 
2649.000000	99.340306 
2648.000000	99.340810 
2647.000000	99.341077 
2646.000000	99.341210 
2645.000000	99.341448 
2644.000000	99.341917 
2643.000000	99.342514 
2642.000000	99.343014 
2641.000000	99.343278 
2640.000000	99.343369 
2639.000000	99.343499 
2638.000000	99.343830 
2637.000000	99.344298 
2636.000000	99.344661 
2635.000000	99.344746 
2634.000000	99.344610 
2633.000000	99.344463 
2632.000000	99.344480 
2631.000000	99.344745 
2630.000000	99.345254 
2629.000000	99.345845 
2628.000000	99.346234 
2627.000000	99.346243 
2626.000000	99.346024 
2625.000000	99.345982 
2624.000000	99.346397 
2623.000000	99.347156 
2622.000000	99.347840 
2621.000000	99.348073 
2620.000000	99.347790 
2619.000000	99.347209 
2618.000000	99.346617 
2617.000000	99.346230 
2616.000000	99.346244 
2615.000000	99.346821 
2614.000000	99.347882 
2613.000000	99.349002 
2612.000000	99.349762 
2611.000000	99.350163 
2610.000000	99.350504 
2609.000000	99.350867 
2608.000000	99.350980 
2607.000000	99.350676 
2606.000000	99.350243 
2605.000000	99.350160 
2604.000000	99.350603 
2603.000000	99.351298 
2602.000000	99.351783 
2601.000000	99.351807 
2600.000000	99.351550 
2599.000000	99.351350 
2598.000000	99.351165 
2597.000000	99.350492 
2596.000000	99.348986 
2595.000000	99.346938 
2594.000000	99.345056 
2593.000000	99.343874 
2592.000000	99.343543 
2591.000000	99.344032 
2590.000000	99.345163 
2589.000000	99.346490 
2588.000000	99.347410 
2587.000000	99.347498 
2586.000000	99.346665 
2585.000000	99.345176 
2584.000000	99.343628 
2583.000000	99.342632 
2582.000000	99.342305 
2581.000000	99.342208 
2580.000000	99.341901 
2579.000000	99.341416 
2578.000000	99.340968 
2577.000000	99.340471 
2576.000000	99.339679 
2575.000000	99.338642 
2574.000000	99.337681 
2573.000000	99.336986 
2572.000000	99.336533 
2571.000000	99.336328 
2570.000000	99.336371 
2569.000000	99.336443 
2568.000000	99.336294 
2567.000000	99.336007 
2566.000000	99.335856 
2565.000000	99.335832 
2564.000000	99.335621 
2563.000000	99.335085 
2562.000000	99.334447 
2561.000000	99.333944 
2560.000000	99.333500 
2559.000000	99.332883 
2558.000000	99.332006 
2557.000000	99.331009 
2556.000000	99.330170 
2555.000000	99.329753 
2554.000000	99.329859 
2553.000000	99.330270 
2552.000000	99.330499 
2551.000000	99.330214 
2550.000000	99.329446 
2549.000000	99.328435 
2548.000000	99.327404 
2547.000000	99.326545 
2546.000000	99.326005 
2545.000000	99.325753 
2544.000000	99.325575 
2543.000000	99.325316 
2542.000000	99.324957 
2541.000000	99.324418 
2540.000000	99.323568 
2539.000000	99.322516 
2538.000000	99.321578 
2537.000000	99.320819 
2536.000000	99.319940 
2535.000000	99.318861 
2534.000000	99.318060 
2533.000000	99.317974 
2532.000000	99.318353 
2531.000000	99.318515 
2530.000000	99.318194 
2529.000000	99.317721 
2528.000000	99.317466 
2527.000000	99.317449 
2526.000000	99.317429 
2525.000000	99.317205 
2524.000000	99.316825 
2523.000000	99.316597 
2522.000000	99.316803 
2521.000000	99.317349 
2520.000000	99.317753 
2519.000000	99.317576 
2518.000000	99.316782 
2517.000000	99.315678 
2516.000000	99.314644 
2515.000000	99.313940 
2514.000000	99.313670 
2513.000000	99.313817 
2512.000000	99.314354 
2511.000000	99.315264 
2510.000000	99.316370 
2509.000000	99.317241 
2508.000000	99.317532 
2507.000000	99.317388 
2506.000000	99.317283 
2505.000000	99.317431 
2504.000000	99.317587 
2503.000000	99.317502 
2502.000000	99.317294 
2501.000000	99.317234 
2500.000000	99.317414 
2499.000000	99.317784 
2498.000000	99.318330 
2497.000000	99.319001 
2496.000000	99.319593 
2495.000000	99.319907 
2494.000000	99.319933 
2493.000000	99.319778 
2492.000000	99.319505 
2491.000000	99.319191 
2490.000000	99.319075 
2489.000000	99.319441 
2488.000000	99.320392 
2487.000000	99.321685 
2486.000000	99.322752 
2485.000000	99.323034 
2484.000000	99.322363 
2483.000000	99.321099 
2482.000000	99.319915 
2481.000000	99.319232 
2480.000000	99.319000 
2479.000000	99.318952 
2478.000000	99.318888 
2477.000000	99.318723 
2476.000000	99.318421 
2475.000000	99.318017 
2474.000000	99.317657 
2473.000000	99.317446 
2472.000000	99.317314 
2471.000000	99.317100 
2470.000000	99.316756 
2469.000000	99.316370 
2468.000000	99.316026 
2467.000000	99.315719 
2466.000000	99.315396 
2465.000000	99.315024 
2464.000000	99.314592 
2463.000000	99.314132 
2462.000000	99.313721 
2461.000000	99.313413 
2460.000000	99.313142 
2459.000000	99.312775 
2458.000000	99.312257 
2457.000000	99.311676 
2456.000000	99.311164 
2455.000000	99.310768 
2454.000000	99.310442 
2453.000000	99.310111 
2452.000000	99.309711 
2451.000000	99.309192 
2450.000000	99.308539 
2449.000000	99.307802 
2448.000000	99.307116 
2447.000000	99.306659 
2446.000000	99.306534 
2445.000000	99.306652 
2444.000000	99.306788 
2443.000000	99.306753 
2442.000000	99.306477 
2441.000000	99.306001 
2440.000000	99.305478 
2439.000000	99.305137 
2438.000000	99.305129 
2437.000000	99.305357 
2436.000000	99.305534 
2435.000000	99.305457 
2434.000000	99.305163 
2433.000000	99.304846 
2432.000000	99.304672 
2431.000000	99.304689 
2430.000000	99.304824 
2429.000000	99.304856 
2428.000000	99.304528 
2427.000000	99.303824 
2426.000000	99.303071 
2425.000000	99.302581 
2424.000000	99.302349 
2423.000000	99.302294 
2422.000000	99.302656 
2421.000000	99.303784 
2420.000000	99.305453 
2419.000000	99.306707 
2418.000000	99.306723 
2417.000000	99.305540 
2416.000000	99.303934 
2415.000000	99.302652 
2414.000000	99.301828 
2413.000000	99.301198 
2412.000000	99.300650 
2411.000000	99.300364 
2410.000000	99.300465 
2409.000000	99.300744 
2408.000000	99.300848 
2407.000000	99.300661 
2406.000000	99.300355 
2405.000000	99.300205 
2404.000000	99.300478 
2403.000000	99.301302 
2402.000000	99.302383 
2401.000000	99.303002 
2400.000000	99.302651 
2399.000000	99.301582 
2398.000000	99.300461 
2397.000000	99.299690 
2396.000000	99.299462 
2395.000000	99.300086 
2394.000000	99.301594 
2393.000000	99.303233 
2392.000000	99.304010 
2391.000000	99.303837 
2390.000000	99.303522 
2389.000000	99.303726 
2388.000000	99.304558 
2387.000000	99.306098 
2386.000000	99.308401 
2385.000000	99.310938 
2384.000000	99.312842 
2383.000000	99.313944 
2382.000000	99.314914 
2381.000000	99.316172 
2380.000000	99.317283 
2379.000000	99.317816 
2378.000000	99.318246 
2377.000000	99.319477 
2376.000000	99.321737 
2375.000000	99.324375 
2374.000000	99.326499 
2373.000000	99.327640 
2372.000000	99.327837 
2371.000000	99.327567 
2370.000000	99.327491 
2369.000000	99.328034 
2368.000000	99.329317 
2367.000000	99.331391 
2366.000000	99.334168 
2365.000000	99.337262 
2364.000000	99.340143 
2363.000000	99.342564 
2362.000000	99.344500 
2361.000000	99.345782 
2360.000000	99.346415 
2359.000000	99.346870 
2358.000000	99.347615 
2357.000000	99.348711 
2356.000000	99.350113 
2355.000000	99.351965 
2354.000000	99.353660 
2353.000000	99.354485 
2352.000000	99.354564 
2351.000000	99.354834 
2350.000000	99.356106 
2349.000000	99.358247 
2348.000000	99.360565 
2347.000000	99.362142 
2346.000000	99.362762 
2345.000000	99.363250 
2344.000000	99.364244 
2343.000000	99.365819 
2342.000000	99.367332 
2341.000000	99.368576 
2340.000000	99.369719 
2339.000000	99.371210 
2338.000000	99.373009 
2337.000000	99.374175 
2336.000000	99.373999 
2335.000000	99.372392 
2334.000000	99.370204 
2333.000000	99.368512 
2332.000000	99.368542 
2331.000000	99.369626 
2330.000000	99.370620 
2329.000000	99.370711 
2328.000000	99.371790 
2327.000000	99.374868 
2326.000000	99.379110 
2325.000000	99.381972 
2324.000000	99.382228 
2323.000000	99.381033 
2322.000000	99.380519 
2321.000000	99.381404 
2320.000000	99.382079 
2319.000000	99.380446 
2318.000000	99.376771 
2317.000000	99.372964 
2316.000000	99.370992 
2315.000000	99.370285 
2314.000000	99.369879 
2313.000000	99.369007 
2312.000000	99.368374 
2311.000000	99.367782 
2310.000000	99.366778 
2309.000000	99.364530 
2308.000000	99.361441 
2307.000000	99.358166 
2306.000000	99.355777 
2305.000000	99.354745 
2304.000000	99.355172 
2303.000000	99.356190 
2302.000000	99.356951 
2301.000000	99.356855 
2300.000000	99.356300 
2299.000000	99.355841 
2298.000000	99.356014 
2297.000000	99.356321 
2296.000000	99.355948 
2295.000000	99.354351 
2294.000000	99.352230 
2293.000000	99.350775 
2292.000000	99.350790 
2291.000000	99.352024 
2290.000000	99.353567 
2289.000000	99.354419 
2288.000000	99.354075 
2287.000000	99.352780 
2286.000000	99.351180 
2285.000000	99.349619 
2284.000000	99.347781 
2283.000000	99.345466 
2282.000000	99.343210 
2281.000000	99.341833 
2280.000000	99.341366 
2279.000000	99.341155 
2278.000000	99.340721 
2277.000000	99.340182 
2276.000000	99.339857 
2275.000000	99.339796 
2274.000000	99.339785 
2273.000000	99.339533 
2272.000000	99.338896 
2271.000000	99.338143 
2270.000000	99.337943 
2269.000000	99.338747 
2268.000000	99.340263 
2267.000000	99.341603 
2266.000000	99.342045 
2265.000000	99.341474 
2264.000000	99.340195 
2263.000000	99.338579 
2262.000000	99.336933 
2261.000000	99.335529 
2260.000000	99.334548 
2259.000000	99.334075 
2258.000000	99.334083 
2257.000000	99.334515 
2256.000000	99.335206 
2255.000000	99.335869 
2254.000000	99.336280 
2253.000000	99.336407 
2252.000000	99.336401 
2251.000000	99.336432 
2250.000000	99.336533 
2249.000000	99.336560 
2248.000000	99.336366 
2247.000000	99.336035 
2246.000000	99.335762 
2245.000000	99.335614 
2244.000000	99.335493 
2243.000000	99.335311 
2242.000000	99.335099 
2241.000000	99.334945 
2240.000000	99.334954 
2239.000000	99.335244 
2238.000000	99.335814 
2237.000000	99.336370 
2236.000000	99.336489 
2235.000000	99.336055 
2234.000000	99.335411 
2233.000000	99.335049 
2232.000000	99.335125 
2231.000000	99.335398 
2230.000000	99.335518 
2229.000000	99.335308 
2228.000000	99.334853 
2227.000000	99.334444 
2226.000000	99.334373 
2225.000000	99.334696 
2224.000000	99.335229 
2223.000000	99.335817 
2222.000000	99.336467 
2221.000000	99.337138 
2220.000000	99.337649 
2219.000000	99.337894 
2218.000000	99.338057 
2217.000000	99.338444 
2216.000000	99.339131 
2215.000000	99.339888 
2214.000000	99.340413 
2213.000000	99.340613 
2212.000000	99.340616 
2211.000000	99.340617 
2210.000000	99.340768 
2209.000000	99.341183 
2208.000000	99.341886 
2207.000000	99.342679 
2206.000000	99.343165 
2205.000000	99.343074 
2204.000000	99.342526 
2203.000000	99.342058 
2202.000000	99.342313 
2201.000000	99.343429 
2200.000000	99.344749 
2199.000000	99.345380 
2198.000000	99.345138 
2197.000000	99.344754 
2196.000000	99.345092 
2195.000000	99.346303 
2194.000000	99.347874 
2193.000000	99.349296 
2192.000000	99.350320 
2191.000000	99.350849 
2190.000000	99.351201 
2189.000000	99.352356 
2188.000000	99.354937 
2187.000000	99.357628 
2186.000000	99.357565 
2185.000000	99.353125 
2184.000000	99.346024 
2183.000000	99.340121 
2182.000000	99.337842 
2181.000000	99.338632 
2180.000000	99.340574 
2179.000000	99.342574 
2178.000000	99.344527 
2177.000000	99.346305 
2176.000000	99.347677 
2175.000000	99.348720 
2174.000000	99.349399 
2173.000000	99.349238 
2172.000000	99.348528 
2171.000000	99.349426 
2170.000000	99.354315 
2169.000000	99.362621 
2168.000000	99.370293 
2167.000000	99.373313 
2166.000000	99.371137 
2165.000000	99.366738 
2164.000000	99.364217 
2163.000000	99.366081 
2162.000000	99.371159 
2161.000000	99.374076 
2160.000000	99.368642 
2159.000000	99.353456 
2158.000000	99.334173 
2157.000000	99.318724 
2156.000000	99.310278 
2155.000000	99.307241 
2154.000000	99.307593 
2153.000000	99.310823 
2152.000000	99.316383 
2151.000000	99.322412 
2150.000000	99.326799 
2149.000000	99.328998 
2148.000000	99.330360 
2147.000000	99.332605 
2146.000000	99.335704 
2145.000000	99.337415 
2144.000000	99.335548 
2143.000000	99.330731 
2142.000000	99.326158 
2141.000000	99.324166 
2140.000000	99.323971 
2139.000000	99.323441 
2138.000000	99.322146 
2137.000000	99.321502 
2136.000000	99.322288 
2135.000000	99.323288 
2134.000000	99.322770 
2133.000000	99.320547 
2132.000000	99.317960 
2131.000000	99.316019 
2130.000000	99.314178 
2129.000000	99.311333 
2128.000000	99.307852 
2127.000000	99.305824 
2126.000000	99.306760 
2125.000000	99.309735 
2124.000000	99.312669 
2123.000000	99.315066 
2122.000000	99.318226 
2121.000000	99.322731 
2120.000000	99.327100 
2119.000000	99.329600 
2118.000000	99.330311 
2117.000000	99.330702 
2116.000000	99.331966 
2115.000000	99.334261 
2114.000000	99.337127 
2113.000000	99.339818 
2112.000000	99.341653 
2111.000000	99.342552 
2110.000000	99.343075 
2109.000000	99.343635 
2108.000000	99.343780 
2107.000000	99.342633 
2106.000000	99.340040 
2105.000000	99.337077 
2104.000000	99.335467 
2103.000000	99.336388 
2102.000000	99.339526 
2101.000000	99.343045 
2100.000000	99.344876 
2099.000000	99.344478 
2098.000000	99.343082 
2097.000000	99.342336 
2096.000000	99.342878 
2095.000000	99.344378 
2094.000000	99.346358 
2093.000000	99.348486 
2092.000000	99.350399 
2091.000000	99.351808 
2090.000000	99.352806 
2089.000000	99.353691 
2088.000000	99.354419 
2087.000000	99.354499 
2086.000000	99.353580 
2085.000000	99.352136 
2084.000000	99.351451 
2083.000000	99.352730 
2082.000000	99.356075 
2081.000000	99.360197 
2080.000000	99.363421 
2079.000000	99.365297 
2078.000000	99.366868 
2077.000000	99.369271 
2076.000000	99.372253 
2075.000000	99.374310 
2074.000000	99.374049 
2073.000000	99.371254 
2072.000000	99.367185 
2071.000000	99.363865 
2070.000000	99.362677 
2069.000000	99.363316 
2068.000000	99.364216 
2067.000000	99.364185 
2066.000000	99.363400 
2065.000000	99.362940 
2064.000000	99.363801 
2063.000000	99.366266 
2062.000000	99.369438 
2061.000000	99.371364 
2060.000000	99.370781 
2059.000000	99.369063 
2058.000000	99.369348 
2057.000000	99.373077 
2056.000000	99.378288 
2055.000000	99.381830 
2054.000000	99.382958 
2053.000000	99.383591 
2052.000000	99.385590 
2051.000000	99.388672 
2050.000000	99.390991 
2049.000000	99.391045 
2048.000000	99.388935 
2047.000000	99.386347 
2046.000000	99.385376 
2045.000000	99.386802 
2044.000000	99.389385 
2043.000000	99.391154 
2042.000000	99.391518 
2041.000000	99.391559 
2040.000000	99.392152 
2039.000000	99.392493 
2038.000000	99.391098 
2037.000000	99.387804 
2036.000000	99.384163 
2035.000000	99.381704 
2034.000000	99.380276 
2033.000000	99.378723 
2032.000000	99.377003 
2031.000000	99.376711 
2030.000000	99.378940 
2029.000000	99.382279 
2028.000000	99.383801 
2027.000000	99.382122 
2026.000000	99.378293 
2025.000000	99.374262 
2024.000000	99.371245 
2023.000000	99.369781 
2022.000000	99.370179 
2021.000000	99.371884 
2020.000000	99.373169 
2019.000000	99.372634 
2018.000000	99.370686 
2017.000000	99.368788 
2016.000000	99.367585 
2015.000000	99.366797 
2014.000000	99.366468 
2013.000000	99.367026 
2012.000000	99.368304 
2011.000000	99.369498 
2010.000000	99.370171 
2009.000000	99.370657 
2008.000000	99.371616 
2007.000000	99.373646 
2006.000000	99.376753 
2005.000000	99.379580 
2004.000000	99.379958 
2003.000000	99.377014 
2002.000000	99.372219 
2001.000000	99.367663 
2000.000000	99.363751 
1999.000000	99.359488 
1998.000000	99.354390 
1997.000000	99.349341 
1996.000000	99.346036 
1995.000000	99.346140 
1994.000000	99.350385 
1993.000000	99.357396 
1992.000000	99.363636 
1991.000000	99.366002 
1990.000000	99.364326 
1989.000000	99.360941 
1988.000000	99.358801 
1987.000000	99.360135 
1986.000000	99.365656 
1985.000000	99.373835 
1984.000000	99.381365 
1983.000000	99.385605 
1982.000000	99.386220 
1981.000000	99.384367 
1980.000000	99.381360 
1979.000000	99.378489 
1978.000000	99.376790 
1977.000000	99.375789 
1976.000000	99.373488 
1975.000000	99.368824 
1974.000000	99.363291 
1973.000000	99.359228 
1972.000000	99.357206 
1971.000000	99.356188 
1970.000000	99.355734 
1969.000000	99.356890 
1968.000000	99.360684 
1967.000000	99.366271 
1966.000000	99.370906 
1965.000000	99.371953 
1964.000000	99.368941 
1963.000000	99.363761 
1962.000000	99.359065 
1961.000000	99.356265 
1960.000000	99.355089 
1959.000000	99.354659 
1958.000000	99.354363 
1957.000000	99.353760 
1956.000000	99.352334 
1955.000000	99.349612 
1954.000000	99.345381 
1953.000000	99.339993 
1952.000000	99.334831 
1951.000000	99.331925 
1950.000000	99.332353 
1949.000000	99.335000 
1948.000000	99.337196 
1947.000000	99.337240 
1946.000000	99.335464 
1945.000000	99.332808 
1944.000000	99.329635 
1943.000000	99.326279 
1942.000000	99.323668 
1941.000000	99.322303 
1940.000000	99.321469 
1939.000000	99.320352 
1938.000000	99.319215 
1937.000000	99.318890 
1936.000000	99.319552 
1935.000000	99.320476 
1934.000000	99.320844 
1933.000000	99.320411 
1932.000000	99.319469 
1931.000000	99.318584 
1930.000000	99.318312 
1929.000000	99.318734 
1928.000000	99.319281 
1927.000000	99.319237 
1926.000000	99.318378 
1925.000000	99.317016 
1924.000000	99.315658 
1923.000000	99.314702 
1922.000000	99.314300 
1921.000000	99.314321 
1920.000000	99.314453 
1919.000000	99.314392 
1918.000000	99.314036 
1917.000000	99.313504 
1916.000000	99.312967 
1915.000000	99.312513 
1914.000000	99.312158 
1913.000000	99.311886 
1912.000000	99.311643 
1911.000000	99.311358 
1910.000000	99.310993 
1909.000000	99.310560 
1908.000000	99.310083 
1907.000000	99.309583 
1906.000000	99.309064 
1905.000000	99.308526 
1904.000000	99.307958 
1903.000000	99.307355 
1902.000000	99.306728 
1901.000000	99.306101 
1900.000000	99.305494 
1899.000000	99.304915 
1898.000000	99.304362 
1897.000000	99.303823 
1896.000000	99.303286 
1895.000000	99.302739 
1894.000000	99.302184 
1893.000000	99.301646 
1892.000000	99.301161 
1891.000000	99.300723 
1890.000000	99.300263 
1889.000000	99.299722 
1888.000000	99.299113 
1887.000000	99.298527 
1886.000000	99.298084 
1885.000000	99.297810 
1884.000000	99.297532 
1883.000000	99.296979 
1882.000000	99.296057 
1881.000000	99.294953 
1880.000000	99.293976 
1879.000000	99.293345 
1878.000000	99.293029 
1877.000000	99.292703 
1876.000000	99.292050 
1875.000000	99.291281 
1874.000000	99.291133 
1873.000000	99.292034 
1872.000000	99.293376 
1871.000000	99.293954 
1870.000000	99.293113 
1869.000000	99.291188 
1868.000000	99.288780 
1867.000000	99.286132 
1866.000000	99.283622 
1865.000000	99.281940 
1864.000000	99.281638 
1863.000000	99.282945 
1862.000000	99.285831 
1861.000000	99.289738 
1860.000000	99.293311 
1859.000000	99.295299 
1858.000000	99.295844 
1857.000000	99.296061 
1856.000000	99.296634 
1855.000000	99.297510 
1854.000000	99.298526 
1853.000000	99.299494 
1852.000000	99.299886 
1851.000000	99.299231 
1850.000000	99.297817 
1849.000000	99.296589 
1848.000000	99.296159 
1847.000000	99.296406 
1846.000000	99.297011 
1845.000000	99.297524 
1844.000000	99.297132 
1843.000000	99.295572 
1842.000000	99.293919 
1841.000000	99.293484 
1840.000000	99.294751 
1839.000000	99.297196 
1838.000000	99.299661 
1837.000000	99.301147 
1836.000000	99.301509 
1835.000000	99.301524 
1834.000000	99.302063 
1833.000000	99.303250 
1832.000000	99.304636 
1831.000000	99.305700 
1830.000000	99.306152 
1829.000000	99.306180 
1828.000000	99.306237 
1827.000000	99.306345 
1826.000000	99.306162 
1825.000000	99.305764 
1824.000000	99.305682 
1823.000000	99.306167 
1822.000000	99.306848 
1821.000000	99.306959 
1820.000000	99.305921 
1819.000000	99.303895 
1818.000000	99.301884 
1817.000000	99.300978 
1816.000000	99.301253 
1815.000000	99.301946 
1814.000000	99.302654 
1813.000000	99.303777 
1812.000000	99.305943 
1811.000000	99.309084 
1810.000000	99.312637 
1809.000000	99.316127 
1808.000000	99.318747 
1807.000000	99.319384 
1806.000000	99.317762 
1805.000000	99.315011 
1804.000000	99.312726 
1803.000000	99.311571 
1802.000000	99.311350 
1801.000000	99.311870 
1800.000000	99.312767 
1799.000000	99.313307 
1798.000000	99.313232 
1797.000000	99.312964 
1796.000000	99.312997 
1795.000000	99.313606 
1794.000000	99.314804 
1793.000000	99.316122 
1792.000000	99.316922 
1791.000000	99.317094 
1790.000000	99.317202 
1789.000000	99.317877 
1788.000000	99.319277 
1787.000000	99.321036 
1786.000000	99.322555 
1785.000000	99.323364 
1784.000000	99.323300 
1783.000000	99.322727 
1782.000000	99.322315 
1781.000000	99.322291 
1780.000000	99.322195 
1779.000000	99.321600 
1778.000000	99.320899 
1777.000000	99.320774 
1776.000000	99.321365 
1775.000000	99.322444 
1774.000000	99.323776 
1773.000000	99.325026 
1772.000000	99.325678 
1771.000000	99.325633 
1770.000000	99.325357 
1769.000000	99.325193 
1768.000000	99.325162 
1767.000000	99.325137 
1766.000000	99.325089 
1765.000000	99.325155 
1764.000000	99.325417 
1763.000000	99.325771 
1762.000000	99.326008 
1761.000000	99.326046 
1760.000000	99.326030 
1759.000000	99.326125 
1758.000000	99.326363 
1757.000000	99.326599 
1756.000000	99.326629 
1755.000000	99.326436 
1754.000000	99.326144 
1753.000000	99.325833 
1752.000000	99.325624 
1751.000000	99.325812 
1750.000000	99.326487 
1749.000000	99.327275 
1748.000000	99.327760 
1747.000000	99.327877 
1746.000000	99.327783 
1745.000000	99.327652 
1744.000000	99.327644 
1743.000000	99.327850 
1742.000000	99.328195 
1741.000000	99.328511 
1740.000000	99.328674 
1739.000000	99.328703 
1738.000000	99.328760 
1737.000000	99.328911 
1736.000000	99.329016 
1735.000000	99.328838 
1734.000000	99.328409 
1733.000000	99.328234 
1732.000000	99.328611 
1731.000000	99.329353 
1730.000000	99.330174 
1729.000000	99.330861 
1728.000000	99.331353 
1727.000000	99.331699 
1726.000000	99.331940 
1725.000000	99.332084 
1724.000000	99.332173 
1723.000000	99.332299 
1722.000000	99.332538 
1721.000000	99.332904 
1720.000000	99.333368 
1719.000000	99.333843 
1718.000000	99.334145 
1717.000000	99.334161 
1716.000000	99.333979 
1715.000000	99.333758 
1714.000000	99.333623 
1713.000000	99.333610 
1712.000000	99.333668 
1711.000000	99.333740 
1710.000000	99.333799 
1709.000000	99.333836 
1708.000000	99.333848 
1707.000000	99.333841 
1706.000000	99.333827 
1705.000000	99.333802 
1704.000000	99.333750 
1703.000000	99.333673 
1702.000000	99.333584 
1701.000000	99.333503 
1700.000000	99.333446 
1699.000000	99.333416 
1698.000000	99.333402 
1697.000000	99.333387 
1696.000000	99.333355 
1695.000000	99.333298 
1694.000000	99.333215 
1693.000000	99.333109 
1692.000000	99.332977 
1691.000000	99.332815 
1690.000000	99.332616 
1689.000000	99.332383 
1688.000000	99.332117 
1687.000000	99.331825 
1686.000000	99.331514 
1685.000000	99.331194 
1684.000000	99.330871 
1683.000000	99.330546 
1682.000000	99.330220 
1681.000000	99.329891 
1680.000000	99.329556 
1679.000000	99.329213 
1678.000000	99.328866 
1677.000000	99.328519 
1676.000000	99.328172 
1675.000000	99.327826 
1674.000000	99.327492 
1673.000000	99.327188 
1672.000000	99.326915 
1671.000000	99.326665 
1670.000000	99.326425 
1669.000000	99.326148 
1668.000000	99.325866 
1667.000000	99.325654 
1666.000000	99.325365 
1665.000000	99.324761 
1664.000000	99.323914 
1663.000000	99.323352 
1662.000000	99.323594 
1661.000000	99.324527 
1660.000000	99.325456 
1659.000000	99.326028 
1658.000000	99.326500 
1657.000000	99.326795 
1656.000000	99.326058 
1655.000000	99.323981 
1654.000000	99.322310 
1653.000000	99.322066 
1652.000000	99.321931 
1651.000000	99.322341 
1650.000000	99.321655 
1649.000000	99.319674 
1648.000000	99.317391 
1647.000000	99.315666 
1646.000000	99.314558 
1645.000000	99.314667 
1644.000000	99.316068 
1643.000000	99.317974 
1642.000000	99.319698 
1641.000000	99.320839 
1640.000000	99.321203 
1639.000000	99.320864 
1638.000000	99.320247 
1637.000000	99.319985 
1636.000000	99.319836 
1635.000000	99.319239 
1634.000000	99.319784 
1633.000000	99.321818 
1632.000000	99.323838 
1631.000000	99.325005 
1630.000000	99.325482 
1629.000000	99.325715 
1628.000000	99.325743 
1627.000000	99.325508 
1626.000000	99.325404 
1625.000000	99.326185 
1624.000000	99.328463 
1623.000000	99.331953 
1622.000000	99.335613 
1621.000000	99.338515 
1620.000000	99.340037 
1619.000000	99.340436 
1618.000000	99.341042 
1617.000000	99.342563 
1616.000000	99.343640 
1615.000000	99.343310 
1614.000000	99.341712 
1613.000000	99.339358 
1612.000000	99.337364 
1611.000000	99.336614 
1610.000000	99.336933 
1609.000000	99.337437 
1608.000000	99.337659 
1607.000000	99.337864 
1606.000000	99.338343 
1605.000000	99.339197 
1604.000000	99.340655 
1603.000000	99.342832 
1602.000000	99.345137 
1601.000000	99.346641 
1600.000000	99.347349 
1599.000000	99.348297 
1598.000000	99.350075 
1597.000000	99.352186 
1596.000000	99.354040 
1595.000000	99.355828 
1594.000000	99.357919 
1593.000000	99.359915 
1592.000000	99.361213 
1591.000000	99.362079 
1590.000000	99.363371 
1589.000000	99.365328 
1588.000000	99.367458 
1587.000000	99.369345 
1586.000000	99.370719 
1585.000000	99.371120 
1584.000000	99.370320 
1583.000000	99.368971 
1582.000000	99.368272 
1581.000000	99.368741 
1580.000000	99.369907 
1579.000000	99.371226 
1578.000000	99.372645 
1577.000000	99.374044 
1576.000000	99.374796 
1575.000000	99.375043 
1574.000000	99.375548 
1573.000000	99.376006 
1572.000000	99.375939 
1571.000000	99.375615 
1570.000000	99.375716 
1569.000000	99.376311 
1568.000000	99.376903 
1567.000000	99.377182 
1566.000000	99.377239 
1565.000000	99.377362 
1564.000000	99.377685 
1563.000000	99.378093 
1562.000000	99.378411 
1561.000000	99.378561 
1560.000000	99.378680 
1559.000000	99.378808 
1558.000000	99.378818 
1557.000000	99.378957 
1556.000000	99.379157 
1555.000000	99.379283 
1554.000000	99.379308 
1553.000000	99.379264 
1552.000000	99.379196 
1551.000000	99.379126 
1550.000000	99.379050 
1549.000000	99.378954 
1548.000000	99.378826 
1547.000000	99.378672 
1546.000000	99.378508 
1545.000000	99.378341 
1544.000000	99.378175 
1543.000000	99.378019 
1542.000000	99.377877 
1541.000000	99.377754 
1540.000000	99.377644 
1539.000000	99.377542 
1538.000000	99.377452 
1537.000000	99.377376 
1536.000000	99.377313 
1535.000000	99.377247 
1534.000000	99.377167 
1533.000000	99.377141 
1532.000000	99.377188 
1531.000000	99.377133 
1530.000000	99.376853 
1529.000000	99.376512 
1528.000000	99.376319 
1527.000000	99.376241 
1526.000000	99.376133 
1525.000000	99.376052 
1524.000000	99.376137 
1523.000000	99.376474 
1522.000000	99.377181 
1521.000000	99.378016 
1520.000000	99.378107 
1519.000000	99.377012 
1518.000000	99.375308 
1517.000000	99.374111 
1516.000000	99.373807 
1515.000000	99.373854 
1514.000000	99.373783 
1513.000000	99.373507 
1512.000000	99.373040 
1511.000000	99.372283 
1510.000000	99.371054 
1509.000000	99.369627 
1508.000000	99.369643 
1507.000000	99.372232 
1506.000000	99.373915 
1505.000000	99.373631 
1504.000000	99.373103 
1503.000000	99.372565 
1502.000000	99.372283 
1501.000000	99.372621 
1500.000000	99.373580 
1499.000000	99.374897 
1498.000000	99.376259 
1497.000000	99.378020 
1496.000000	99.380162 
1495.000000	99.380935 
1494.000000	99.378873 
1493.000000	99.374332 
1492.000000	99.368559 
1491.000000	99.363036 
1490.000000	99.358993 
1489.000000	99.356763 
1488.000000	99.355393 
1487.000000	99.354045 
1486.000000	99.353486 
1485.000000	99.354158 
1484.000000	99.355037 
1483.000000	99.354999 
1482.000000	99.353638 
1481.000000	99.351539 
1480.000000	99.349462 
1479.000000	99.347527 
1478.000000	99.345441 
1477.000000	99.343159 
1476.000000	99.340883 
1475.000000	99.338122 
1474.000000	99.334965 
1473.000000	99.333213 
1472.000000	99.333957 
1471.000000	99.335383 
1470.000000	99.335745 
1469.000000	99.335334 
1468.000000	99.335121 
1467.000000	99.335266 
1466.000000	99.335405 
1465.000000	99.335244 
1464.000000	99.334782 
1463.000000	99.334388 
1462.000000	99.334290 
1461.000000	99.334652 
1460.000000	99.335428 
1459.000000	99.336157 
1458.000000	99.335385 
1457.000000	99.331846 
1456.000000	99.326876 
1455.000000	99.322582 
1454.000000	99.319495 
1453.000000	99.317953 
1452.000000	99.317709 
1451.000000	99.317940 
1450.000000	99.318451 
1449.000000	99.319847 
1448.000000	99.321747 
1447.000000	99.322392 
1446.000000	99.321611 
1445.000000	99.321211 
1444.000000	99.322033 
1443.000000	99.322580 
1442.000000	99.321271 
1441.000000	99.318679 
1440.000000	99.316895 
1439.000000	99.317231 
1438.000000	99.318513 
1437.000000	99.318523 
1436.000000	99.316367 
1435.000000	99.312689 
1434.000000	99.309096 
1433.000000	99.307582 
1432.000000	99.308852 
1431.000000	99.312045 
1430.000000	99.315019 
1429.000000	99.316186 
1428.000000	99.315677 
1427.000000	99.314199 
1426.000000	99.312083 
1425.000000	99.309070 
1424.000000	99.305814 
1423.000000	99.303518 
1422.000000	99.301673 
1421.000000	99.298820 
1420.000000	99.294515 
1419.000000	99.289841 
1418.000000	99.284525 
1417.000000	99.277758 
1416.000000	99.270735 
1415.000000	99.264466 
1414.000000	99.258227 
1413.000000	99.250979 
1412.000000	99.243675 
1411.000000	99.238435 
1410.000000	99.235355 
1409.000000	99.233207 
1408.000000	99.232085 
1407.000000	99.232609 
1406.000000	99.234221 
1405.000000	99.236235 
1404.000000	99.239633 
1403.000000	99.244737 
1402.000000	99.249179 
1401.000000	99.251002 
1400.000000	99.251411 
1399.000000	99.253297 
1398.000000	99.255962 
1397.000000	99.254890 
1396.000000	99.247723 
1395.000000	99.238404 
1394.000000	99.234178 
1393.000000	99.238178 
1392.000000	99.248655 
1391.000000	99.261907 
1390.000000	99.274176 
1389.000000	99.282508 
1388.000000	99.285497 
1387.000000	99.283991 
1386.000000	99.280441 
1385.000000	99.277416 
1384.000000	99.276349 
1383.000000	99.277194 
1382.000000	99.278966 
1381.000000	99.281186 
1380.000000	99.283993 
1379.000000	99.287265 
1378.000000	99.290198 
1377.000000	99.292029 
1376.000000	99.293221 
1375.000000	99.295580 
1374.000000	99.300555 
1373.000000	99.307185 
1372.000000	99.313324 
1371.000000	99.318647 
1370.000000	99.324868 
1369.000000	99.332611 
1368.000000	99.340628 
1367.000000	99.347408 
1366.000000	99.352519 
1365.000000	99.356286 
1364.000000	99.358755 
1363.000000	99.360164 
1362.000000	99.361761 
1361.000000	99.364562 
1360.000000	99.368164 
1359.000000	99.371922 
1358.000000	99.376160 
1357.000000	99.381286 
1356.000000	99.386548 
1355.000000	99.390550 
1354.000000	99.392850 
1353.000000	99.394119 
1352.000000	99.394317 
1351.000000	99.392499 
1350.000000	99.389725 
1349.000000	99.388169 
1348.000000	99.389001 
1347.000000	99.391814 
1346.000000	99.395868 
1345.000000	99.400229 
1344.000000	99.403627 
1343.000000	99.405363 
1342.000000	99.406125 
1341.000000	99.406761 
1340.000000	99.406886 
1339.000000	99.405885 
1338.000000	99.404492 
1337.000000	99.404183 
1336.000000	99.405351 
1335.000000	99.407090 
1334.000000	99.408795 
1333.000000	99.410790 
1332.000000	99.413114 
1331.000000	99.414941 
1330.000000	99.415576 
1329.000000	99.415014 
1328.000000	99.413693 
1327.000000	99.412254 
1326.000000	99.411471 
1325.000000	99.411275 
1324.000000	99.411310 
1323.000000	99.411711 
1322.000000	99.412674 
1321.000000	99.413439 
1320.000000	99.412841 
1319.000000	99.411016 
1318.000000	99.409576 
1317.000000	99.409678 
1316.000000	99.410573 
1315.000000	99.410693 
1314.000000	99.409568 
1313.000000	99.408260 
1312.000000	99.408043 
1311.000000	99.409197 
1310.000000	99.411096 
1309.000000	99.412856 
1308.000000	99.413720 
1307.000000	99.413153 
1306.000000	99.411266 
1305.000000	99.408823 
1304.000000	99.407265 
1303.000000	99.407846 
1302.000000	99.410629 
1301.000000	99.414181 
1300.000000	99.416599 
1299.000000	99.416910 
1298.000000	99.415455 
1297.000000	99.413277 
1296.000000	99.411325 
1295.000000	99.410447 
1294.000000	99.411344 
1293.000000	99.413950 
1292.000000	99.416846 
1291.000000	99.417911 
1290.000000	99.416178 
1289.000000	99.412999 
1288.000000	99.410911 
1287.000000	99.411043 
1286.000000	99.412062 
1285.000000	99.412117 
1284.000000	99.411235 
1283.000000	99.411031 
1282.000000	99.412298 
1281.000000	99.413953 
1280.000000	99.414565 
1279.000000	99.413942 
1278.000000	99.412653 
1277.000000	99.410916 
1276.000000	99.408602 
1275.000000	99.406114 
1274.000000	99.404389 
1273.000000	99.404038 
1272.000000	99.404873 
1271.000000	99.406069 
1270.000000	99.406433 
1269.000000	99.405013 
1268.000000	99.402118 
1267.000000	99.399287 
1266.000000	99.397364 
1265.000000	99.395308 
1264.000000	99.391782 
1263.000000	99.387214 
1262.000000	99.383154 
1261.000000	99.380071 
1260.000000	99.377169 
1259.000000	99.374237 
1258.000000	99.372006 
1257.000000	99.370832 
1256.000000	99.370317 
1255.000000	99.370356 
1254.000000	99.371184 
1253.000000	99.372212 
1252.000000	99.372082 
1251.000000	99.370609 
1250.000000	99.369536 
1249.000000	99.370725 
1248.000000	99.374424 
1247.000000	99.379440 
1246.000000	99.383589 
1245.000000	99.383812 
1244.000000	99.377824 
1243.000000	99.367312 
1242.000000	99.358536 
1241.000000	99.357645 
1240.000000	99.364987 
1239.000000	99.374732 
1238.000000	99.380202 
1237.000000	99.379050 
1236.000000	99.373372 
1235.000000	99.366138 
1234.000000	99.358473 
1233.000000	99.350182 
1232.000000	99.341754 
1231.000000	99.334517 
1230.000000	99.328718 
1229.000000	99.322743 
1228.000000	99.315300 
1227.000000	99.307699 
1226.000000	99.302643 
1225.000000	99.300535 
1224.000000	99.298172 
1223.000000	99.291623 
1222.000000	99.279753 
1221.000000	99.264668 
1220.000000	99.249581 
1219.000000	99.236713 
1218.000000	99.226239 
1217.000000	99.216313 
1216.000000	99.204279 
1215.000000	99.188583 
1214.000000	99.169919 
1213.000000	99.150466 
1212.000000	99.131832 
1211.000000	99.113425 
1210.000000	99.093034 
1209.000000	99.069412 
1208.000000	99.044181 
1207.000000	99.020510 
1206.000000	98.999798 
1205.000000	98.980560 
1204.000000	98.960790 
1203.000000	98.940069 
1202.000000	98.918603 
1201.000000	98.895668 
1200.000000	98.870612 
1199.000000	98.844677 
1198.000000	98.820091 
1197.000000	98.797636 
1196.000000	98.776300 
1195.000000	98.754864 
1194.000000	98.732582 
1193.000000	98.708600 
1192.000000	98.682330 
1191.000000	98.654687 
1190.000000	98.627855 
1189.000000	98.603551 
1188.000000	98.582013 
1187.000000	98.562250 
1186.000000	98.542315 
1185.000000	98.519710 
1184.000000	98.492717 
1183.000000	98.461658 
1182.000000	98.428514 
1181.000000	98.395454 
1180.000000	98.363983 
1179.000000	98.334632 
1178.000000	98.306251 
1177.000000	98.276172 
1176.000000	98.242441 
1175.000000	98.205880 
1174.000000	98.169059 
1173.000000	98.133483 
1172.000000	98.099029 
1171.000000	98.065749 
1170.000000	98.034575 
1169.000000	98.005945 
1168.000000	97.978989 
1167.000000	97.952698 
1166.000000	97.927497 
1165.000000	97.905749 
1164.000000	97.891146 
1163.000000	97.887132 
1162.000000	97.894749 
1161.000000	97.911358 
1160.000000	97.931301 
1159.000000	97.947978 
1158.000000	97.955999 
1157.000000	97.952633 
1156.000000	97.938102 
1155.000000	97.914573 
1154.000000	97.884548 
1153.000000	97.850107 
1152.000000	97.813516 
1151.000000	97.777610 
1150.000000	97.744712 
1149.000000	97.715301 
1148.000000	97.688042 
1147.000000	97.660687 
1146.000000	97.630959 
1145.000000	97.597698 
1144.000000	97.561959 
1143.000000	97.526568 
1142.000000	97.493911 
1141.000000	97.464305 
1140.000000	97.436407 
1139.000000	97.408288 
1138.000000	97.378092 
1137.000000	97.345018 
1136.000000	97.310335 
1135.000000	97.276515 
1134.000000	97.244732 
1133.000000	97.213840 
1132.000000	97.181938 
1131.000000	97.147975 
1130.000000	97.111822 
1129.000000	97.074045 
1128.000000	97.035830 
1127.000000	96.997920 
1126.000000	96.959597 
1125.000000	96.920047 
1124.000000	96.880364 
1123.000000	96.842213 
1122.000000	96.804634 
1121.000000	96.764778 
1120.000000	96.722282 
1119.000000	96.680177 
1118.000000	96.640494 
1117.000000	96.601688 
1116.000000	96.561717 
1115.000000	96.521037 
1114.000000	96.480926 
1113.000000	96.441209 
1112.000000	96.401713 
1111.000000	96.364074 
1110.000000	96.330134 
1109.000000	96.299615 
1108.000000	96.270611 
1107.000000	96.241235 
1106.000000	96.210181 
1105.000000	96.176939 
1104.000000	96.142252 
1103.000000	96.107343 
1102.000000	96.072674 
1101.000000	96.038659 
1100.000000	96.007447 
1099.000000	95.980315 
1098.000000	95.955395 
1097.000000	95.929615 
1096.000000	95.902954 
1095.000000	95.877510 
1094.000000	95.852751 
1093.000000	95.825570 
1092.000000	95.795284 
1091.000000	95.764428 
1090.000000	95.733653 
1089.000000	95.700012 
1088.000000	95.662114 
1087.000000	95.623481 
1086.000000	95.588758 
1085.000000	95.559363 
1084.000000	95.534232 
1083.000000	95.511621 
1082.000000	95.488596 
1081.000000	95.462029 
1080.000000	95.432146 
1079.000000	95.402648 
1078.000000	95.375945 
1077.000000	95.350876 
1076.000000	95.326114 
1075.000000	95.302372 
1074.000000	95.279640 
1073.000000	95.255167 
1072.000000	95.225168 
1071.000000	95.185359 
1070.000000	95.129776 
1069.000000	95.054648 
1068.000000	94.966262 
1067.000000	94.880878 
1066.000000	94.812258 
1065.000000	94.760805 
1064.000000	94.716987 
1063.000000	94.671278 
1062.000000	94.618043 
1061.000000	94.554548 
1060.000000	94.482046 
1059.000000	94.407171 
1058.000000	94.338353 
1057.000000	94.279905 
1056.000000	94.229926 
1055.000000	94.181993 
1054.000000	94.128297 
1053.000000	94.064541 
1052.000000	93.993829 
1051.000000	93.923339 
1050.000000	93.855873 
1049.000000	93.788143 
1048.000000	93.718157 
1047.000000	93.648976 
1046.000000	93.583304 
1045.000000	93.519377 
1044.000000	93.454667 
1043.000000	93.389920 
1042.000000	93.327346 
1041.000000	93.267673 
1040.000000	93.210766 
1039.000000	93.156756 
1038.000000	93.105705 
1037.000000	93.058872 
1036.000000	93.020503 
1035.000000	92.994729 
1034.000000	92.979889 
1033.000000	92.968898 
1032.000000	92.955278 
1031.000000	92.936103 
1030.000000	92.911087 
1029.000000	92.884242 
1028.000000	92.865482 
1027.000000	92.863889 
1026.000000	92.877756 
1025.000000	92.895725 
1024.000000	92.908229 
1023.000000	92.913182 
1022.000000	92.911439 
1021.000000	92.903903 
1020.000000	92.894305 
1019.000000	92.888177 
1018.000000	92.886435 
1017.000000	92.884592 
1016.000000	92.879961 
1015.000000	92.874988 
1014.000000	92.872241 
1013.000000	92.871023 
1012.000000	92.870315 
1011.000000	92.870402 
1010.000000	92.870429 
1009.000000	92.869134 
1008.000000	92.869107 
1007.000000	92.875535 
1006.000000	92.889546 
1005.000000	92.907247 
1004.000000	92.926039 
1003.000000	92.947114 
1002.000000	92.971146 
1001.000000	92.996693 
1000.000000	93.023646 
999.000000	 93.053002 
998.000000	 93.082399 
997.000000	 93.107493 
996.000000	 93.129359 
995.000000	 93.155313 
994.000000	 93.190309 
993.000000	 93.231588 
992.000000	 93.273018 
991.000000	 93.310695 
990.000000	 93.343653 
989.000000	 93.373761 
988.000000	 93.406124 
987.000000	 93.445478 
986.000000	 93.491242 
985.000000	 93.539885 
984.000000	 93.591865 
983.000000	 93.651176 
982.000000	 93.718056 
981.000000	 93.787752 
980.000000	 93.857329 
979.000000	 93.928504 
978.000000	 94.002836 
977.000000	 94.079678 
976.000000	 94.160080 
975.000000	 94.247035 
974.000000	 94.339863 
973.000000	 94.433261 
972.000000	 94.523887 
971.000000	 94.613340 
970.000000	 94.702917 
969.000000	 94.790276 
968.000000	 94.873742 
967.000000	 94.955676 
966.000000	 95.038639 
965.000000	 95.121323 
964.000000	 95.200866 
963.000000	 95.276705 
962.000000	 95.350127 
961.000000	 95.422240 
960.000000	 95.493844 
959.000000	 95.564821 
958.000000	 95.632415 
957.000000	 95.693067 
956.000000	 95.747701 
955.000000	 95.802569 
954.000000	 95.862489 
953.000000	 95.924976 
952.000000	 95.983116 
951.000000	 96.032632 
950.000000	 96.074382 
949.000000	 96.111630 
948.000000	 96.147287 
947.000000	 96.183352 
946.000000	 96.220880 
945.000000	 96.259521 
944.000000	 96.297175 
943.000000	 96.330383 
942.000000	 96.356137 
941.000000	 96.374723 
940.000000	 96.390653 
939.000000	 96.409542 
938.000000	 96.433729 
937.000000	 96.461440 
936.000000	 96.489402 
935.000000	 96.514939 
934.000000	 96.536538 
933.000000	 96.554521 
932.000000	 96.571270 
931.000000	 96.589593 
930.000000	 96.611132 
929.000000	 96.636959 
928.000000	 96.667865 
927.000000	 96.701987 
926.000000	 96.733833 
925.000000	 96.758591 
924.000000	 96.776548 
923.000000	 96.790945 
922.000000	 96.802959 
921.000000	 96.812050 
920.000000	 96.820117 
919.000000	 96.831023 
918.000000	 96.845479 
917.000000	 96.859841 
916.000000	 96.870896 
915.000000	 96.879396 
914.000000	 96.888653 
913.000000	 96.902260 
912.000000	 96.923321 
911.000000	 96.952596 
910.000000	 96.986651 
909.000000	 97.020890 
908.000000	 97.055175 
907.000000	 97.093618 
906.000000	 97.138567 
905.000000	 97.188113 
904.000000	 97.240282 
903.000000	 97.296355 
902.000000	 97.358315 
901.000000	 97.425254 
900.000000	 97.493786 
899.000000	 97.560566 
898.000000	 97.623453 
897.000000	 97.681591 
896.000000	 97.735151 
895.000000	 97.784869 
894.000000	 97.832228 
893.000000	 97.880243 
892.000000	 97.932111 
891.000000	 97.987237 
890.000000	 98.040314 
889.000000	 98.087163 
888.000000	 98.130316 
887.000000	 98.175496 
886.000000	 98.222797 
885.000000	 98.265180 
884.000000	 98.296887 
883.000000	 98.320389 
882.000000	 98.343539 
881.000000	 98.371900 
880.000000	 98.405876 
879.000000	 98.443823 
878.000000	 98.484908 
877.000000	 98.528099 
876.000000	 98.569710 
875.000000	 98.604015 
874.000000	 98.628195 
873.000000	 98.646863 
872.000000	 98.669770 
871.000000	 98.703202 
870.000000	 98.744141 
869.000000	 98.784069 
868.000000	 98.817617 
867.000000	 98.846302 
866.000000	 98.875248 
865.000000	 98.908274 
864.000000	 98.945894 
863.000000	 98.986079 
862.000000	 99.025957 
861.000000	 99.063117 
860.000000	 99.095839 
859.000000	 99.123377 
858.000000	 99.147823 
857.000000	 99.174984 
856.000000	 99.209863 
855.000000	 99.249644 
854.000000	 99.284207 
853.000000	 99.306356 
852.000000	 99.319415 
851.000000	 99.332065 
850.000000	 99.347549 
849.000000	 99.361850 
848.000000	 99.371629 
847.000000	 99.379121 
846.000000	 99.388129 
845.000000	 99.398885 
844.000000	 99.409138 
843.000000	 99.417863 
842.000000	 99.425131 
841.000000	 99.429402 
840.000000	 99.427806 
839.000000	 99.419807 
838.000000	 99.408912 
837.000000	 99.399096 
836.000000	 99.390062 
835.000000	 99.378361 
834.000000	 99.363975 
833.000000	 99.352842 
832.000000	 99.349224 
831.000000	 99.347164 
830.000000	 99.335907 
829.000000	 99.316029 
828.000000	 99.303735 
827.000000	 99.313010 
826.000000	 99.337501 
825.000000	 99.358413 
824.000000	 99.368235 
823.000000	 99.376531 
822.000000	 99.392265 
821.000000	 99.411140 
820.000000	 99.423451 
819.000000	 99.425725 
818.000000	 99.420760 
817.000000	 99.411641 
816.000000	 99.399025 
815.000000	 99.381168 
814.000000	 99.354070 
813.000000	 99.313749 
812.000000	 99.259987 
811.000000	 99.195590 
810.000000	 99.120474 
809.000000	 99.029057 
808.000000	 98.915589 
807.000000	 98.779935 
806.000000	 98.626457 
805.000000	 98.460114 
804.000000	 98.287261 
803.000000	 98.118767 
802.000000	 97.968191 
801.000000	 97.846190 
800.000000	 97.757336 
799.000000	 97.700523 
798.000000	 97.671660 
797.000000	 97.668171 
796.000000	 97.690489 
795.000000	 97.736309 
794.000000	 97.795302 
793.000000	 97.854498 
792.000000	 97.907539 
791.000000	 97.953058 
790.000000	 97.985942 
789.000000	 97.998211 
788.000000	 97.989396 
787.000000	 97.968484 
786.000000	 97.942668 
785.000000	 97.909818 
784.000000	 97.865393 
783.000000	 97.811709 
782.000000	 97.756740 
781.000000	 97.708048 
780.000000	 97.671109 
779.000000	 97.649360 
778.000000	 97.642687 
777.000000	 97.649988 
776.000000	 97.675145 
775.000000	 97.724517 
774.000000	 97.795304 
773.000000	 97.872352 
772.000000	 97.941133 
771.000000	 97.999092 
770.000000	 98.049986 
769.000000	 98.092776 
768.000000	 98.123167 
767.000000	 98.143282 
766.000000	 98.162081 
765.000000	 98.185433 
764.000000	 98.210894 
763.000000	 98.233231 
762.000000	 98.251239 
761.000000	 98.267928 
760.000000	 98.286860 
759.000000	 98.309883 
758.000000	 98.336712 
757.000000	 98.365245 
756.000000	 98.392586 
755.000000	 98.416635 
754.000000	 98.437536 
753.000000	 98.458236 
752.000000	 98.483006 
751.000000	 98.513575 
750.000000	 98.546488 
749.000000	 98.575548 
748.000000	 98.597471 
747.000000	 98.614869 
746.000000	 98.634147 
745.000000	 98.660807 
744.000000	 98.694943 
743.000000	 98.729798 
742.000000	 98.757159 
741.000000	 98.776968 
740.000000	 98.799361 
739.000000	 98.834164 
738.000000	 98.880097 
737.000000	 98.927295 
736.000000	 98.967907 
735.000000	 99.000149 
734.000000	 99.025154 
733.000000	 99.046339 
732.000000	 99.070203 
731.000000	 99.100114 
730.000000	 99.129331 
729.000000	 99.147773 
728.000000	 99.154426 
727.000000	 99.156836 
726.000000	 99.160621 
725.000000	 99.166310 
724.000000	 99.176585 
723.000000	 99.197459 
722.000000	 99.228626 
721.000000	 99.259728 
720.000000	 99.280682 
719.000000	 99.291382 
718.000000	 99.298140 
717.000000	 99.305151 
716.000000	 99.313834 
715.000000	 99.325378 
714.000000	 99.338793 
713.000000	 99.350219 
712.000000	 99.357755 
711.000000	 99.364167 
710.000000	 99.372299 
709.000000	 99.381097 
708.000000	 99.387457 
707.000000	 99.388834 
706.000000	 99.384149 
705.000000	 99.374185 
704.000000	 99.361131 
703.000000	 99.345630 
702.000000	 99.322063 
701.000000	 99.281323 
700.000000	 99.221177 
699.000000	 99.147919 
698.000000	 99.068788 
697.000000	 98.987786 
696.000000	 98.910764 
695.000000	 98.850421 
694.000000	 98.819198 
693.000000	 98.821879 
692.000000	 98.856723 
691.000000	 98.914286 
690.000000	 98.976897 
689.000000	 99.027464 
688.000000	 99.063304 
687.000000	 99.095575 
686.000000	 99.129554 
685.000000	 99.157456 
684.000000	 99.174648 
683.000000	 99.188121 
682.000000	 99.204775 
681.000000	 99.223456 
680.000000	 99.244008 
679.000000	 99.270319 
678.000000	 99.297086 
677.000000	 99.311006 
676.000000	 99.309984 
675.000000	 99.305694 
674.000000	 99.307365 
673.000000	 99.310181 
672.000000	 99.301382 
671.000000	 99.273481 
670.000000	 99.228339 
669.000000	 99.183919 
668.000000	 99.179956 
667.000000	 99.225975 
666.000000	 99.286405 
665.000000	 99.344255 
664.000000	 99.388941 
663.000000	 99.411377 
662.000000	 99.415157 
661.000000	 99.417751 
660.000000	 99.431624 
659.000000	 99.449239 
658.000000	 99.452935 
657.000000	 99.437593 
656.000000	 99.414291 
655.000000	 99.396016 
654.000000	 99.390749 
653.000000	 99.397597 
652.000000	 99.404062 
651.000000	 99.399787 
650.000000	 99.393993 

