4000.000000	99.390967 
3999.000000	99.390013 
3998.000000	99.389364 
3997.000000	99.389536 
3996.000000	99.390447 
3995.000000	99.391394 
3994.000000	99.391840 
3993.000000	99.391902 
3992.000000	99.391981 
3991.000000	99.392121 
3990.000000	99.391938 
3989.000000	99.391102 
3988.000000	99.389718 
3987.000000	99.388251 
3986.000000	99.387164 
3985.000000	99.386719 
3984.000000	99.386910 
3983.000000	99.387564 
3982.000000	99.388503 
3981.000000	99.389583 
3980.000000	99.390646 
3979.000000	99.391502 
3978.000000	99.392035 
3977.000000	99.392266 
3976.000000	99.392226 
3975.000000	99.391822 
3974.000000	99.390948 
3973.000000	99.389738 
3972.000000	99.388639 
3971.000000	99.388117 
3970.000000	99.388357 
3969.000000	99.389193 
3968.000000	99.390219 
3967.000000	99.390985 
3966.000000	99.391213 
3965.000000	99.390910 
3964.000000	99.390333 
3963.000000	99.389821 
3962.000000	99.389574 
3961.000000	99.389526 
3960.000000	99.389408 
3959.000000	99.388961 
3958.000000	99.388192 
3957.000000	99.387422 
3956.000000	99.386983 
3955.000000	99.386878 
3954.000000	99.386812 
3953.000000	99.386549 
3952.000000	99.386111 
3951.000000	99.385647 
3950.000000	99.385207 
3949.000000	99.384702 
3948.000000	99.384078 
3947.000000	99.383491 
3946.000000	99.383196 
3945.000000	99.383258 
3944.000000	99.383426 
3943.000000	99.383319 
3942.000000	99.382815 
3941.000000	99.382131 
3940.000000	99.381596 
3939.000000	99.381296 
3938.000000	99.381087 
3937.000000	99.380819 
3936.000000	99.380486 
3935.000000	99.380169 
3934.000000	99.379911 
3933.000000	99.379705 
3932.000000	99.379526 
3931.000000	99.379332 
3930.000000	99.379076 
3929.000000	99.378729 
3928.000000	99.378309 
3927.000000	99.377876 
3926.000000	99.377449 
3925.000000	99.377025 
3924.000000	99.376621 
3923.000000	99.376254 
3922.000000	99.375915 
3921.000000	99.375593 
3920.000000	99.375289 
3919.000000	99.375007 
3918.000000	99.374743 
3917.000000	99.374497 
3916.000000	99.374264 
3915.000000	99.374036 
3914.000000	99.373807 
3913.000000	99.373574 
3912.000000	99.373334 
3911.000000	99.373082 
3910.000000	99.372820 
3909.000000	99.372556 
3908.000000	99.372301 
3907.000000	99.372063 
3906.000000	99.371840 
3905.000000	99.371628 
3904.000000	99.371424 
3903.000000	99.371226 
3902.000000	99.371036 
3901.000000	99.370854 
3900.000000	99.370666 
3899.000000	99.370459 
3898.000000	99.370221 
3897.000000	99.369954 
3896.000000	99.369672 
3895.000000	99.369388 
3894.000000	99.369106 
3893.000000	99.368827 
3892.000000	99.368549 
3891.000000	99.368267 
3890.000000	99.367981 
3889.000000	99.367696 
3888.000000	99.367416 
3887.000000	99.367135 
3886.000000	99.366845 
3885.000000	99.366544 
3884.000000	99.366240 
3883.000000	99.365941 
3882.000000	99.365653 
3881.000000	99.365373 
3880.000000	99.365080 
3879.000000	99.364754 
3878.000000	99.364412 
3877.000000	99.364083 
3876.000000	99.363756 
3875.000000	99.363388 
3874.000000	99.362946 
3873.000000	99.362478 
3872.000000	99.362093 
3871.000000	99.361817 
3870.000000	99.361523 
3869.000000	99.361125 
3868.000000	99.360815 
3867.000000	99.360792 
3866.000000	99.360902 
3865.000000	99.360882 
3864.000000	99.360736 
3863.000000	99.360607 
3862.000000	99.360514 
3861.000000	99.360306 
3860.000000	99.359876 
3859.000000	99.359231 
3858.000000	99.358400 
3857.000000	99.357535 
3856.000000	99.357021 
3855.000000	99.357241 
3854.000000	99.357987 
3853.000000	99.358373 
3852.000000	99.358393 
3851.000000	99.358810 
3850.000000	99.359536 
3849.000000	99.360041 
3848.000000	99.360230 
3847.000000	99.360260 
3846.000000	99.360265 
3845.000000	99.360295 
3844.000000	99.360357 
3843.000000	99.360441 
3842.000000	99.360544 
3841.000000	99.360676 
3840.000000	99.360834 
3839.000000	99.361001 
3838.000000	99.361163 
3837.000000	99.361325 
3836.000000	99.361499 
3835.000000	99.361690 
3834.000000	99.361899 
3833.000000	99.362128 
3832.000000	99.362373 
3831.000000	99.362625 
3830.000000	99.362873 
3829.000000	99.363110 
3828.000000	99.363333 
3827.000000	99.363542 
3826.000000	99.363741 
3825.000000	99.363939 
3824.000000	99.364149 
3823.000000	99.364384 
3822.000000	99.364639 
3821.000000	99.364902 
3820.000000	99.365168 
3819.000000	99.365450 
3818.000000	99.365753 
3817.000000	99.366064 
3816.000000	99.366364 
3815.000000	99.366641 
3814.000000	99.366896 
3813.000000	99.367126 
3812.000000	99.367322 
3811.000000	99.367484 
3810.000000	99.367622 
3809.000000	99.367748 
3808.000000	99.367866 
3807.000000	99.367978 
3806.000000	99.368095 
3805.000000	99.368236 
3804.000000	99.368414 
3803.000000	99.368627 
3802.000000	99.368867 
3801.000000	99.369127 
3800.000000	99.369390 
3799.000000	99.369655 
3798.000000	99.369972 
3797.000000	99.370327 
3796.000000	99.370645 
3795.000000	99.370932 
3794.000000	99.371306 
3793.000000	99.371831 
3792.000000	99.372420 
3791.000000	99.372966 
3790.000000	99.373425 
3789.000000	99.373774 
3788.000000	99.374085 
3787.000000	99.374563 
3786.000000	99.375329 
3785.000000	99.376117 
3784.000000	99.376558 
3783.000000	99.376738 
3782.000000	99.377053 
3781.000000	99.377496 
3780.000000	99.377535 
3779.000000	99.376710 
3778.000000	99.375285 
3777.000000	99.374091 
3776.000000	99.373307 
3775.000000	99.372416 
3774.000000	99.371351 
3773.000000	99.370830 
3772.000000	99.371289 
3771.000000	99.372020 
3770.000000	99.371814 
3769.000000	99.370640 
3768.000000	99.369913 
3767.000000	99.370537 
3766.000000	99.371656 
3765.000000	99.371966 
3764.000000	99.371429 
3763.000000	99.371120 
3762.000000	99.371545 
3761.000000	99.372162 
3760.000000	99.372534 
3759.000000	99.372589 
3758.000000	99.372081 
3757.000000	99.370805 
3756.000000	99.369016 
3755.000000	99.367301 
3754.000000	99.365825 
3753.000000	99.364595 
3752.000000	99.363864 
3751.000000	99.363164 
3750.000000	99.361025 
3749.000000	99.357406 
3748.000000	99.354643 
3747.000000	99.354570 
3746.000000	99.356876 
3745.000000	99.359383 
3744.000000	99.358860 
3743.000000	99.356186 
3742.000000	99.356133 
3741.000000	99.358102 
3740.000000	99.358001 
3739.000000	99.355592 
3738.000000	99.353210 
3737.000000	99.352259 
3736.000000	99.352470 
3735.000000	99.353817 
3734.000000	99.356865 
3733.000000	99.360765 
3732.000000	99.363207 
3731.000000	99.363486 
3730.000000	99.363309 
3729.000000	99.363877 
3728.000000	99.364530 
3727.000000	99.364507 
3726.000000	99.364265 
3725.000000	99.364893 
3724.000000	99.366500 
3723.000000	99.367739 
3722.000000	99.367710 
3721.000000	99.367039 
3720.000000	99.366914 
3719.000000	99.367432 
3718.000000	99.367211 
3717.000000	99.364944 
3716.000000	99.360778 
3715.000000	99.356025 
3714.000000	99.351885 
3713.000000	99.349195 
3712.000000	99.348167 
3711.000000	99.348206 
3710.000000	99.349067 
3709.000000	99.350798 
3708.000000	99.352370 
3707.000000	99.352255 
3706.000000	99.350019 
3705.000000	99.346668 
3704.000000	99.343731 
3703.000000	99.342263 
3702.000000	99.342052 
3701.000000	99.341962 
3700.000000	99.341512 
3699.000000	99.340991 
3698.000000	99.339983 
3697.000000	99.337538 
3696.000000	99.333698 
3695.000000	99.329693 
3694.000000	99.326496 
3693.000000	99.324103 
3692.000000	99.322415 
3691.000000	99.321590 
3690.000000	99.321134 
3689.000000	99.319677 
3688.000000	99.316910 
3687.000000	99.314785 
3686.000000	99.314794 
3685.000000	99.315708 
3684.000000	99.315436 
3683.000000	99.313569 
3682.000000	99.311029 
3681.000000	99.308379 
3680.000000	99.305157 
3679.000000	99.301306 
3678.000000	99.298092 
3677.000000	99.296767 
3676.000000	99.296633 
3675.000000	99.295316 
3674.000000	99.293635 
3673.000000	99.294510 
3672.000000	99.297045 
3671.000000	99.298856 
3670.000000	99.299173 
3669.000000	99.298121 
3668.000000	99.297014 
3667.000000	99.296710 
3666.000000	99.296588 
3665.000000	99.296322 
3664.000000	99.296234 
3663.000000	99.296410 
3662.000000	99.296428 
3661.000000	99.295907 
3660.000000	99.295057 
3659.000000	99.294586 
3658.000000	99.294921 
3657.000000	99.295593 
3656.000000	99.295600 
3655.000000	99.294832 
3654.000000	99.294259 
3653.000000	99.294284 
3652.000000	99.294549 
3651.000000	99.294845 
3650.000000	99.294960 
3649.000000	99.294464 
3648.000000	99.293628 
3647.000000	99.293345 
3646.000000	99.293980 
3645.000000	99.295166 
3644.000000	99.296286 
3643.000000	99.296958 
3642.000000	99.297196 
3641.000000	99.297294 
3640.000000	99.297535 
3639.000000	99.297960 
3638.000000	99.298406 
3637.000000	99.298754 
3636.000000	99.298912 
3635.000000	99.298669 
3634.000000	99.297910 
3633.000000	99.296877 
3632.000000	99.296031 
3631.000000	99.295643 
3630.000000	99.295710 
3629.000000	99.295862 
3628.000000	99.295618 
3627.000000	99.295199 
3626.000000	99.295031 
3625.000000	99.294945 
3624.000000	99.294682 
3623.000000	99.294249 
3622.000000	99.293767 
3621.000000	99.293318 
3620.000000	99.292918 
3619.000000	99.292520 
3618.000000	99.292110 
3617.000000	99.291785 
3616.000000	99.291576 
3615.000000	99.291305 
3614.000000	99.290748 
3613.000000	99.289814 
3612.000000	99.288643 
3611.000000	99.287545 
3610.000000	99.286745 
3609.000000	99.286257 
3608.000000	99.285900 
3607.000000	99.285465 
3606.000000	99.284899 
3605.000000	99.284244 
3604.000000	99.283543 
3603.000000	99.282848 
3602.000000	99.282175 
3601.000000	99.281489 
3600.000000	99.280808 
3599.000000	99.280237 
3598.000000	99.279811 
3597.000000	99.279416 
3596.000000	99.278906 
3595.000000	99.278179 
3594.000000	99.277212 
3593.000000	99.276129 
3592.000000	99.275213 
3591.000000	99.274729 
3590.000000	99.274743 
3589.000000	99.274899 
3588.000000	99.274394 
3587.000000	99.272714 
3586.000000	99.270447 
3585.000000	99.268712 
3584.000000	99.267774 
3583.000000	99.267089 
3582.000000	99.266148 
3581.000000	99.264816 
3580.000000	99.263199 
3579.000000	99.261465 
3578.000000	99.259751 
3577.000000	99.258195 
3576.000000	99.257013 
3575.000000	99.256312 
3574.000000	99.255837 
3573.000000	99.255034 
3572.000000	99.253531 
3571.000000	99.251510 
3570.000000	99.249590 
3569.000000	99.248254 
3568.000000	99.247416 
3567.000000	99.246638 
3566.000000	99.245948 
3565.000000	99.245938 
3564.000000	99.246580 
3563.000000	99.246986 
3562.000000	99.246538 
3561.000000	99.245377 
3560.000000	99.243942 
3559.000000	99.242440 
3558.000000	99.240806 
3557.000000	99.238987 
3556.000000	99.237179 
3555.000000	99.235722 
3554.000000	99.234662 
3553.000000	99.233558 
3552.000000	99.231856 
3551.000000	99.229519 
3550.000000	99.227051 
3549.000000	99.224994 
3548.000000	99.223640 
3547.000000	99.223085 
3546.000000	99.223162 
3545.000000	99.223426 
3544.000000	99.223399 
3543.000000	99.222845 
3542.000000	99.221756 
3541.000000	99.220254 
3540.000000	99.218590 
3539.000000	99.217086 
3538.000000	99.215922 
3537.000000	99.214940 
3536.000000	99.213732 
3535.000000	99.212037 
3534.000000	99.210010 
3533.000000	99.208097 
3532.000000	99.206678 
3531.000000	99.205829 
3530.000000	99.205312 
3529.000000	99.204756 
3528.000000	99.203979 
3527.000000	99.203079 
3526.000000	99.202193 
3525.000000	99.201258 
3524.000000	99.200091 
3523.000000	99.198655 
3522.000000	99.197133 
3521.000000	99.195706 
3520.000000	99.194369 
3519.000000	99.193015 
3518.000000	99.191611 
3517.000000	99.190217 
3516.000000	99.188894 
3515.000000	99.187650 
3514.000000	99.186475 
3513.000000	99.185351 
3512.000000	99.184233 
3511.000000	99.183041 
3510.000000	99.181734 
3509.000000	99.180354 
3508.000000	99.178985 
3507.000000	99.177671 
3506.000000	99.176381 
3505.000000	99.175070 
3504.000000	99.173720 
3503.000000	99.172348 
3502.000000	99.170982 
3501.000000	99.169640 
3500.000000	99.168318 
3499.000000	99.166999 
3498.000000	99.165664 
3497.000000	99.164309 
3496.000000	99.162945 
3495.000000	99.161596 
3494.000000	99.160271 
3493.000000	99.158954 
3492.000000	99.157615 
3491.000000	99.156238 
3490.000000	99.154839 
3489.000000	99.153460 
3488.000000	99.152137 
3487.000000	99.150874 
3486.000000	99.149650 
3485.000000	99.148452 
3484.000000	99.147284 
3483.000000	99.146145 
3482.000000	99.145004 
3481.000000	99.143811 
3480.000000	99.142542 
3479.000000	99.141235 
3478.000000	99.139969 
3477.000000	99.138788 
3476.000000	99.137657 
3475.000000	99.136490 
3474.000000	99.135247 
3473.000000	99.133988 
3472.000000	99.132803 
3471.000000	99.131703 
3470.000000	99.130630 
3469.000000	99.129550 
3468.000000	99.128489 
3467.000000	99.127468 
3466.000000	99.126447 
3465.000000	99.125354 
3464.000000	99.124158 
3463.000000	99.122901 
3462.000000	99.121640 
3461.000000	99.120398 
3460.000000	99.119173 
3459.000000	99.118000 
3458.000000	99.116958 
3457.000000	99.116072 
3456.000000	99.115242 
3455.000000	99.114350 
3454.000000	99.113421 
3453.000000	99.112608 
3452.000000	99.111990 
3451.000000	99.111467 
3450.000000	99.110889 
3449.000000	99.110185 
3448.000000	99.109325 
3447.000000	99.108289 
3446.000000	99.107166 
3445.000000	99.106195 
3444.000000	99.105548 
3443.000000	99.105102 
3442.000000	99.104513 
3441.000000	99.103572 
3440.000000	99.102434 
3439.000000	99.101423 
3438.000000	99.100642 
3437.000000	99.099887 
3436.000000	99.098929 
3435.000000	99.097848 
3434.000000	99.097024 
3433.000000	99.096740 
3432.000000	99.096831 
3431.000000	99.096732 
3430.000000	99.095968 
3429.000000	99.094545 
3428.000000	99.092926 
3427.000000	99.091591 
3426.000000	99.090660 
3425.000000	99.089992 
3424.000000	99.089531 
3423.000000	99.089358 
3422.000000	99.089423 
3421.000000	99.089411 
3420.000000	99.089015 
3419.000000	99.088248 
3418.000000	99.087445 
3417.000000	99.086971 
3416.000000	99.086969 
3415.000000	99.087286 
3414.000000	99.087582 
3413.000000	99.087552 
3412.000000	99.087123 
3411.000000	99.086470 
3410.000000	99.085897 
3409.000000	99.085680 
3408.000000	99.085920 
3407.000000	99.086388 
3406.000000	99.086572 
3405.000000	99.086089 
3404.000000	99.085087 
3403.000000	99.084200 
3402.000000	99.084018 
3401.000000	99.084650 
3400.000000	99.085754 
3399.000000	99.086870 
3398.000000	99.087769 
3397.000000	99.088521 
3396.000000	99.089244 
3395.000000	99.089770 
3394.000000	99.089738 
3393.000000	99.089068 
3392.000000	99.088213 
3391.000000	99.087727 
3390.000000	99.087639 
3389.000000	99.087538 
3388.000000	99.087218 
3387.000000	99.086950 
3386.000000	99.087052 
3385.000000	99.087440 
3384.000000	99.087773 
3383.000000	99.087885 
3382.000000	99.087882 
3381.000000	99.087879 
3380.000000	99.087836 
3379.000000	99.087712 
3378.000000	99.087678 
3377.000000	99.088042 
3376.000000	99.088953 
3375.000000	99.090242 
3374.000000	99.091576 
3373.000000	99.092692 
3372.000000	99.093433 
3371.000000	99.093690 
3370.000000	99.093499 
3369.000000	99.093215 
3368.000000	99.093306 
3367.000000	99.093839 
3366.000000	99.094306 
3365.000000	99.094150 
3364.000000	99.093389 
3363.000000	99.092638 
3362.000000	99.092503 
3361.000000	99.093052 
3360.000000	99.093875 
3359.000000	99.094536 
3358.000000	99.094948 
3357.000000	99.095381 
3356.000000	99.096147 
3355.000000	99.097242 
3354.000000	99.098298 
3353.000000	99.098956 
3352.000000	99.099236 
3351.000000	99.099502 
3350.000000	99.100082 
3349.000000	99.100990 
3348.000000	99.101998 
3347.000000	99.102871 
3346.000000	99.103518 
3345.000000	99.103984 
3344.000000	99.104387 
3343.000000	99.104820 
3342.000000	99.105290 
3341.000000	99.105740 
3340.000000	99.106160 
3339.000000	99.106619 
3338.000000	99.107169 
3337.000000	99.107767 
3336.000000	99.108317 
3335.000000	99.108803 
3334.000000	99.109313 
3333.000000	99.109937 
3332.000000	99.110670 
3331.000000	99.111429 
3330.000000	99.112131 
3329.000000	99.112758 
3328.000000	99.113351 
3327.000000	99.113958 
3326.000000	99.114588 
3325.000000	99.115216 
3324.000000	99.115824 
3323.000000	99.116432 
3322.000000	99.117070 
3321.000000	99.117736 
3320.000000	99.118390 
3319.000000	99.118999 
3318.000000	99.119561 
3317.000000	99.120098 
3316.000000	99.120644 
3315.000000	99.121228 
3314.000000	99.121851 
3313.000000	99.122474 
3312.000000	99.123049 
3311.000000	99.123561 
3310.000000	99.124056 
3309.000000	99.124584 
3308.000000	99.125131 
3307.000000	99.125651 
3306.000000	99.126165 
3305.000000	99.126665 
3304.000000	99.126970 
3303.000000	99.126855 
3302.000000	99.126407 
3301.000000	99.126120 
3300.000000	99.126448 
3299.000000	99.127357 
3298.000000	99.128413 
3297.000000	99.129264 
3296.000000	99.129938 
3295.000000	99.130688 
3294.000000	99.131722 
3293.000000	99.133043 
3292.000000	99.134392 
3291.000000	99.135407 
3290.000000	99.135936 
3289.000000	99.136190 
3288.000000	99.136500 
3287.000000	99.136997 
3286.000000	99.137626 
3285.000000	99.138321 
3284.000000	99.139007 
3283.000000	99.139518 
3282.000000	99.139744 
3281.000000	99.139773 
3280.000000	99.139700 
3279.000000	99.139399 
3278.000000	99.138803 
3277.000000	99.138355 
3276.000000	99.138703 
3275.000000	99.139894 
3274.000000	99.141183 
3273.000000	99.141768 
3272.000000	99.141465 
3271.000000	99.140628 
3270.000000	99.139786 
3269.000000	99.139513 
3268.000000	99.140328 
3267.000000	99.142394 
3266.000000	99.145335 
3265.000000	99.148511 
3264.000000	99.151466 
3263.000000	99.154018 
3262.000000	99.156117 
3261.000000	99.157784 
3260.000000	99.159026 
3259.000000	99.159706 
3258.000000	99.159627 
3257.000000	99.158883 
3256.000000	99.157990 
3255.000000	99.157560 
3254.000000	99.157898 
3253.000000	99.158987 
3252.000000	99.160636 
3251.000000	99.162510 
3250.000000	99.164185 
3249.000000	99.165442 
3248.000000	99.166451 
3247.000000	99.167505 
3246.000000	99.168610 
3245.000000	99.169518 
3244.000000	99.170166 
3243.000000	99.170930 
3242.000000	99.172355 
3241.000000	99.174652 
3240.000000	99.177400 
3239.000000	99.179681 
3238.000000	99.180787 
3237.000000	99.180772 
3236.000000	99.180416 
3235.000000	99.180526 
3234.000000	99.181242 
3233.000000	99.182240 
3232.000000	99.183345 
3231.000000	99.184699 
3230.000000	99.186356 
3229.000000	99.187988 
3228.000000	99.189159 
3227.000000	99.189721 
3226.000000	99.189856 
3225.000000	99.189915 
3224.000000	99.190271 
3223.000000	99.191192 
3222.000000	99.192685 
3221.000000	99.194484 
3220.000000	99.196292 
3219.000000	99.197983 
3218.000000	99.199490 
3217.000000	99.200681 
3216.000000	99.201494 
3215.000000	99.202136 
3214.000000	99.202953 
3213.000000	99.204068 
3212.000000	99.205302 
3211.000000	99.206465 
3210.000000	99.207622 
3209.000000	99.209022 
3208.000000	99.210844 
3207.000000	99.213037 
3206.000000	99.215331 
3205.000000	99.217396 
3204.000000	99.219053 
3203.000000	99.220320 
3202.000000	99.221281 
3201.000000	99.222054 
3200.000000	99.222855 
3199.000000	99.223884 
3198.000000	99.225018 
3197.000000	99.225886 
3196.000000	99.226451 
3195.000000	99.227258 
3194.000000	99.228725 
3193.000000	99.230334 
3192.000000	99.231064 
3191.000000	99.230611 
3190.000000	99.229802 
3189.000000	99.229746 
3188.000000	99.230864 
3187.000000	99.232850 
3186.000000	99.235157 
3185.000000	99.237272 
3184.000000	99.238743 
3183.000000	99.239351 
3182.000000	99.239278 
3181.000000	99.238953 
3180.000000	99.238732 
3179.000000	99.238762 
3178.000000	99.239043 
3177.000000	99.239422 
3176.000000	99.239582 
3175.000000	99.239350 
3174.000000	99.239143 
3173.000000	99.239837 
3172.000000	99.241916 
3171.000000	99.244795 
3170.000000	99.247178 
3169.000000	99.248321 
3168.000000	99.248765 
3167.000000	99.249658 
3166.000000	99.251515 
3165.000000	99.253817 
3164.000000	99.255756 
3163.000000	99.257078 
3162.000000	99.258055 
3161.000000	99.258942 
3160.000000	99.259783 
3159.000000	99.260620 
3158.000000	99.261517 
3157.000000	99.262312 
3156.000000	99.262620 
3155.000000	99.262249 
3154.000000	99.261508 
3153.000000	99.261018 
3152.000000	99.261201 
3151.000000	99.261964 
3150.000000	99.262830 
3149.000000	99.263429 
3148.000000	99.263946 
3147.000000	99.264970 
3146.000000	99.266754 
3145.000000	99.268695 
3144.000000	99.269873 
3143.000000	99.270148 
3142.000000	99.270389 
3141.000000	99.271477 
3140.000000	99.273211 
3139.000000	99.274510 
3138.000000	99.274652 
3137.000000	99.273995 
3136.000000	99.273526 
3135.000000	99.273821 
3134.000000	99.274606 
3133.000000	99.275248 
3132.000000	99.275460 
3131.000000	99.275453 
3130.000000	99.275497 
3129.000000	99.275518 
3128.000000	99.275258 
3127.000000	99.274734 
3126.000000	99.274360 
3125.000000	99.274499 
3124.000000	99.275073 
3123.000000	99.275692 
3122.000000	99.276048 
3121.000000	99.276155 
3120.000000	99.276268 
3119.000000	99.276655 
3118.000000	99.277351 
3117.000000	99.278080 
3116.000000	99.278497 
3115.000000	99.278559 
3114.000000	99.278548 
3113.000000	99.278624 
3112.000000	99.278556 
3111.000000	99.278115 
3110.000000	99.277591 
3109.000000	99.277563 
3108.000000	99.278153 
3107.000000	99.278861 
3106.000000	99.279173 
3105.000000	99.279117 
3104.000000	99.279098 
3103.000000	99.279440 
3102.000000	99.280251 
3101.000000	99.281478 
3100.000000	99.282846 
3099.000000	99.283876 
3098.000000	99.284252 
3097.000000	99.284167 
3096.000000	99.284177 
3095.000000	99.284640 
3094.000000	99.285395 
3093.000000	99.286019 
3092.000000	99.286256 
3091.000000	99.286127 
3090.000000	99.285774 
3089.000000	99.285436 
3088.000000	99.285482 
3087.000000	99.286202 
3086.000000	99.287440 
3085.000000	99.288600 
3084.000000	99.289213 
3083.000000	99.289339 
3082.000000	99.289301 
3081.000000	99.289216 
3080.000000	99.288968 
3079.000000	99.288530 
3078.000000	99.288013 
3077.000000	99.287429 
3076.000000	99.286690 
3075.000000	99.285958 
3074.000000	99.285733 
3073.000000	99.286373 
3072.000000	99.287712 
3071.000000	99.289340 
3070.000000	99.291022 
3069.000000	99.292460 
3068.000000	99.292875 
3067.000000	99.291475 
3066.000000	99.288538 
3065.000000	99.285604 
3064.000000	99.284116 
3063.000000	99.284073 
3062.000000	99.284329 
3061.000000	99.284057 
3060.000000	99.283634 
3059.000000	99.284070 
3058.000000	99.285826 
3057.000000	99.288291 
3056.000000	99.290261 
3055.000000	99.290898 
3054.000000	99.290243 
3053.000000	99.288942 
3052.000000	99.287684 
3051.000000	99.286996 
3050.000000	99.287253 
3049.000000	99.288337 
3048.000000	99.289120 
3047.000000	99.287835 
3046.000000	99.283618 
3045.000000	99.277701 
3044.000000	99.272690 
3043.000000	99.270367 
3042.000000	99.270485 
3041.000000	99.271598 
3040.000000	99.272518 
3039.000000	99.272878 
3038.000000	99.272779 
3037.000000	99.272438 
3036.000000	99.272008 
3035.000000	99.271321 
3034.000000	99.269852 
3033.000000	99.267244 
3032.000000	99.263769 
3031.000000	99.260118 
3030.000000	99.256725 
3029.000000	99.253438 
3028.000000	99.249867 
3027.000000	99.245903 
3026.000000	99.241859 
3025.000000	99.238167 
3024.000000	99.234858 
3023.000000	99.231224 
3022.000000	99.226171 
3021.000000	99.219219 
3020.000000	99.211264 
3019.000000	99.204155 
3018.000000	99.199312 
3017.000000	99.196666 
3016.000000	99.194793 
3015.000000	99.191923 
3014.000000	99.186975 
3013.000000	99.179995 
3012.000000	99.171779 
3011.000000	99.163018 
3010.000000	99.153858 
3009.000000	99.144430 
3008.000000	99.135613 
3007.000000	99.128807 
3006.000000	99.124755 
3005.000000	99.122671 
3004.000000	99.120548 
3003.000000	99.116341 
3002.000000	99.109136 
3001.000000	99.099737 
3000.000000	99.090297 
2999.000000	99.082830 
2998.000000	99.077717 
2997.000000	99.073872 
2996.000000	99.070353 
2995.000000	99.067203 
2994.000000	99.064271 
2993.000000	99.059899 
2992.000000	99.051953 
2991.000000	99.040331 
2990.000000	99.027816 
2989.000000	99.017832 
2988.000000	99.011622 
2987.000000	99.008018 
2986.000000	99.005413 
2985.000000	99.003461 
2984.000000	99.002731 
2983.000000	99.003267 
2982.000000	99.003942 
2981.000000	99.003187 
2980.000000	99.000268 
2979.000000	98.995859 
2978.000000	98.991349 
2977.000000	98.987541 
2976.000000	98.984048 
2975.000000	98.979912 
2974.000000	98.974574 
2973.000000	98.968177 
2972.000000	98.961216 
2971.000000	98.954223 
2970.000000	98.947592 
2969.000000	98.941390 
2968.000000	98.935381 
2967.000000	98.929532 
2966.000000	98.924474 
2965.000000	98.921161 
2964.000000	98.920051 
2963.000000	98.920768 
2962.000000	98.922434 
2961.000000	98.923910 
2960.000000	98.923907 
2959.000000	98.921730 
2958.000000	98.918417 
2957.000000	98.916517 
2956.000000	98.917855 
2955.000000	98.921409 
2954.000000	98.924140 
2953.000000	98.924443 
2952.000000	98.924381 
2951.000000	98.927688 
2950.000000	98.935275 
2949.000000	98.943282 
2948.000000	98.946265 
2947.000000	98.942031 
2946.000000	98.932899 
2945.000000	98.922617 
2944.000000	98.913052 
2943.000000	98.904104 
2942.000000	98.895378 
2941.000000	98.886381 
2940.000000	98.875460 
2939.000000	98.860300 
2938.000000	98.840185 
2937.000000	98.817126 
2936.000000	98.794341 
2935.000000	98.774094 
2934.000000	98.757004 
2933.000000	98.742300 
2932.000000	98.727965 
2931.000000	98.711430 
2930.000000	98.691333 
2929.000000	98.668801 
2928.000000	98.646602 
2927.000000	98.627135 
2926.000000	98.611452 
2925.000000	98.599685 
2924.000000	98.591795 
2923.000000	98.588059 
2922.000000	98.589257 
2921.000000	98.596160 
2920.000000	98.608424 
2919.000000	98.624343 
2918.000000	98.642188 
2917.000000	98.661538 
2916.000000	98.682826 
2915.000000	98.706064 
2914.000000	98.730723 
2913.000000	98.756388 
2912.000000	98.782311 
2911.000000	98.806296 
2910.000000	98.825356 
2909.000000	98.838321 
2908.000000	98.847164 
2907.000000	98.855059 
2906.000000	98.863414 
2905.000000	98.871187 
2904.000000	98.876643 
2903.000000	98.879318 
2902.000000	98.880732 
2901.000000	98.883858 
2900.000000	98.891338 
2899.000000	98.903288 
2898.000000	98.916786 
2897.000000	98.928316 
2896.000000	98.937067 
2895.000000	98.945321 
2894.000000	98.955514 
2893.000000	98.967377 
2892.000000	98.978269 
2891.000000	98.985840 
2890.000000	98.989952 
2889.000000	98.992413 
2888.000000	98.995360 
2887.000000	98.999812 
2886.000000	99.005288 
2885.000000	99.010547 
2884.000000	99.014774 
2883.000000	99.018193 
2882.000000	99.021640 
2881.000000	99.025693 
2880.000000	99.030369 
2879.000000	99.035573 
2878.000000	99.041480 
2877.000000	99.048143 
2876.000000	99.054668 
2875.000000	99.059142 
2874.000000	99.059854 
2873.000000	99.056913 
2872.000000	99.052551 
2871.000000	99.049568 
2870.000000	99.049278 
2869.000000	99.050860 
2868.000000	99.052545 
2867.000000	99.053326 
2866.000000	99.053628 
2865.000000	99.054434 
2864.000000	99.055666 
2863.000000	99.055320 
2862.000000	99.050454 
2861.000000	99.039503 
2860.000000	99.023982 
2859.000000	99.007747 
2858.000000	98.994200 
2857.000000	98.984074 
2856.000000	98.975867 
2855.000000	98.968420 
2854.000000	98.962894 
2853.000000	98.962075 
2852.000000	98.967993 
2851.000000	98.980571 
2850.000000	98.998518 
2849.000000	99.020820 
2848.000000	99.046674 
2847.000000	99.074260 
2846.000000	99.100588 
2845.000000	99.123153 
2844.000000	99.141495 
2843.000000	99.156878 
2842.000000	99.170819 
2841.000000	99.184167 
2840.000000	99.197018 
2839.000000	99.208743 
2838.000000	99.218114 
2837.000000	99.224065 
2836.000000	99.226766 
2835.000000	99.227975 
2834.000000	99.230253 
2833.000000	99.235568 
2832.000000	99.244042 
2831.000000	99.253688 
2830.000000	99.261768 
2829.000000	99.267056 
2828.000000	99.270746 
2827.000000	99.274721 
2826.000000	99.279101 
2825.000000	99.282246 
2824.000000	99.283276 
2823.000000	99.283775 
2822.000000	99.286302 
2821.000000	99.291504 
2820.000000	99.297358 
2819.000000	99.301367 
2818.000000	99.303086 
2817.000000	99.304216 
2816.000000	99.306495 
2815.000000	99.309957 
2814.000000	99.313362 
2813.000000	99.315804 
2812.000000	99.317306 
2811.000000	99.318007 
2810.000000	99.317618 
2809.000000	99.316107 
2808.000000	99.314363 
2807.000000	99.313533 
2806.000000	99.313894 
2805.000000	99.314890 
2804.000000	99.316131 
2803.000000	99.317830 
2802.000000	99.320254 
2801.000000	99.323085 
2800.000000	99.325384 
2799.000000	99.326056 
2798.000000	99.324706 
2797.000000	99.322388 
2796.000000	99.321073 
2795.000000	99.321736 
2794.000000	99.323219 
2793.000000	99.323665 
2792.000000	99.322846 
2791.000000	99.322328 
2790.000000	99.323434 
2789.000000	99.325947 
2788.000000	99.328831 
2787.000000	99.331330 
2786.000000	99.333128 
2785.000000	99.334283 
2784.000000	99.335347 
2783.000000	99.336833 
2782.000000	99.338257 
2781.000000	99.338395 
2780.000000	99.336870 
2779.000000	99.334874 
2778.000000	99.333892 
2777.000000	99.334193 
2776.000000	99.335030 
2775.000000	99.335754 
2774.000000	99.336138 
2773.000000	99.336047 
2772.000000	99.335515 
2771.000000	99.335078 
2770.000000	99.335499 
2769.000000	99.337076 
2768.000000	99.339479 
2767.000000	99.342140 
2766.000000	99.344538 
2765.000000	99.346218 
2764.000000	99.346977 
2763.000000	99.347125 
2762.000000	99.347251 
2761.000000	99.347667 
2760.000000	99.348358 
2759.000000	99.349360 
2758.000000	99.350731 
2757.000000	99.352189 
2756.000000	99.353312 
2755.000000	99.354117 
2754.000000	99.354869 
2753.000000	99.355300 
2752.000000	99.354723 
2751.000000	99.353036 
2750.000000	99.351081 
2749.000000	99.349763 
2748.000000	99.349153 
2747.000000	99.348766 
2746.000000	99.348289 
2745.000000	99.347771 
2744.000000	99.347431 
2743.000000	99.347571 
2742.000000	99.348396 
2741.000000	99.349683 
2740.000000	99.350863 
2739.000000	99.351659 
2738.000000	99.352357 
2737.000000	99.353243 
2736.000000	99.354079 
2735.000000	99.354401 
2734.000000	99.354097 
2733.000000	99.353460 
2732.000000	99.352835 
2731.000000	99.352460 
2730.000000	99.352499 
2729.000000	99.352960 
2728.000000	99.353676 
2727.000000	99.354453 
2726.000000	99.355190 
2725.000000	99.355796 
2724.000000	99.356157 
2723.000000	99.356286 
2722.000000	99.356372 
2721.000000	99.356562 
2720.000000	99.356794 
2719.000000	99.356937 
2718.000000	99.356982 
2717.000000	99.357030 
2716.000000	99.357158 
2715.000000	99.357378 
2714.000000	99.357659 
2713.000000	99.357959 
2712.000000	99.358234 
2711.000000	99.358467 
2710.000000	99.358669 
2709.000000	99.358860 
2708.000000	99.359050 
2707.000000	99.359233 
2706.000000	99.359406 
2705.000000	99.359571 
2704.000000	99.359732 
2703.000000	99.359896 
2702.000000	99.360065 
2701.000000	99.360238 
2700.000000	99.360409 
2699.000000	99.360571 
2698.000000	99.360722 
2697.000000	99.360865 
2696.000000	99.361003 
2695.000000	99.361140 
2694.000000	99.361278 
2693.000000	99.361416 
2692.000000	99.361550 
2691.000000	99.361675 
2690.000000	99.361788 
2689.000000	99.361891 
2688.000000	99.361986 
2687.000000	99.362073 
2686.000000	99.362151 
2685.000000	99.362223 
2684.000000	99.362279 
2683.000000	99.362309 
2682.000000	99.362318 
2681.000000	99.362328 
2680.000000	99.362356 
2679.000000	99.362392 
2678.000000	99.362413 
2677.000000	99.362415 
2676.000000	99.362429 
2675.000000	99.362505 
2674.000000	99.362668 
2673.000000	99.362884 
2672.000000	99.363049 
2671.000000	99.363049 
2670.000000	99.362844 
2669.000000	99.362480 
2668.000000	99.362030 
2667.000000	99.361582 
2666.000000	99.361290 
2665.000000	99.361347 
2664.000000	99.361822 
2663.000000	99.362542 
2662.000000	99.363205 
2661.000000	99.363638 
2660.000000	99.363832 
2659.000000	99.363777 
2658.000000	99.363458 
2657.000000	99.362999 
2656.000000	99.362670 
2655.000000	99.362643 
2654.000000	99.362828 
2653.000000	99.362974 
2652.000000	99.362871 
2651.000000	99.362445 
2650.000000	99.361816 
2649.000000	99.361274 
2648.000000	99.361037 
2647.000000	99.361033 
2646.000000	99.361105 
2645.000000	99.361380 
2644.000000	99.362089 
2643.000000	99.363033 
2642.000000	99.363629 
2641.000000	99.363621 
2640.000000	99.363434 
2639.000000	99.363639 
2638.000000	99.364346 
2637.000000	99.365265 
2636.000000	99.366063 
2635.000000	99.366482 
2634.000000	99.366393 
2633.000000	99.366064 
2632.000000	99.366127 
2631.000000	99.366893 
2630.000000	99.367956 
2629.000000	99.368657 
2628.000000	99.368863 
2627.000000	99.368979 
2626.000000	99.369337 
2625.000000	99.369915 
2624.000000	99.370611 
2623.000000	99.371382 
2622.000000	99.372072 
2621.000000	99.372453 
2620.000000	99.372548 
2619.000000	99.372611 
2618.000000	99.372721 
2617.000000	99.372651 
2616.000000	99.372253 
2615.000000	99.371747 
2614.000000	99.371495 
2613.000000	99.371643 
2612.000000	99.372118 
2611.000000	99.372835 
2610.000000	99.373734 
2609.000000	99.374680 
2608.000000	99.375470 
2607.000000	99.375957 
2606.000000	99.376145 
2605.000000	99.376162 
2604.000000	99.376155 
2603.000000	99.376170 
2602.000000	99.376161 
2601.000000	99.376129 
2600.000000	99.376190 
2599.000000	99.376448 
2598.000000	99.376850 
2597.000000	99.377213 
2596.000000	99.377390 
2595.000000	99.377331 
2594.000000	99.377055 
2593.000000	99.376647 
2592.000000	99.376290 
2591.000000	99.376161 
2590.000000	99.376280 
2589.000000	99.376527 
2588.000000	99.376753 
2587.000000	99.376883 
2586.000000	99.376898 
2585.000000	99.376775 
2584.000000	99.376536 
2583.000000	99.376270 
2582.000000	99.376088 
2581.000000	99.376015 
2580.000000	99.376005 
2579.000000	99.375995 
2578.000000	99.375965 
2577.000000	99.375934 
2576.000000	99.375922 
2575.000000	99.375927 
2574.000000	99.375935 
2573.000000	99.375926 
2572.000000	99.375891 
2571.000000	99.375835 
2570.000000	99.375773 
2569.000000	99.375716 
2568.000000	99.375670 
2567.000000	99.375638 
2566.000000	99.375621 
2565.000000	99.375617 
2564.000000	99.375623 
2563.000000	99.375640 
2562.000000	99.375666 
2561.000000	99.375702 
2560.000000	99.375752 
2559.000000	99.375827 
2558.000000	99.375941 
2557.000000	99.376093 
2556.000000	99.376256 
2555.000000	99.376398 
2554.000000	99.376522 
2553.000000	99.376679 
2552.000000	99.376929 
2551.000000	99.377261 
2550.000000	99.377579 
2549.000000	99.377801 
2548.000000	99.377931 
2547.000000	99.377994 
2546.000000	99.377982 
2545.000000	99.377910 
2544.000000	99.377884 
2543.000000	99.378025 
2542.000000	99.378341 
2541.000000	99.378731 
2540.000000	99.379108 
2539.000000	99.379466 
2538.000000	99.379781 
2537.000000	99.379935 
2536.000000	99.379799 
2535.000000	99.379435 
2534.000000	99.379159 
2533.000000	99.379297 
2532.000000	99.379897 
2531.000000	99.380686 
2530.000000	99.381316 
2529.000000	99.381641 
2528.000000	99.381774 
2527.000000	99.381936 
2526.000000	99.382247 
2525.000000	99.382684 
2524.000000	99.383255 
2523.000000	99.384077 
2522.000000	99.385201 
2521.000000	99.386397 
2520.000000	99.387242 
2519.000000	99.387511 
2518.000000	99.387404 
2517.000000	99.387312 
2516.000000	99.387374 
2515.000000	99.387384 
2514.000000	99.387220 
2513.000000	99.387152 
2512.000000	99.387478 
2511.000000	99.387866 
2510.000000	99.387515 
2509.000000	99.386242 
2508.000000	99.385048 
2507.000000	99.385107 
2506.000000	99.386273 
2505.000000	99.387073 
2504.000000	99.386369 
2503.000000	99.384602 
2502.000000	99.383255 
2501.000000	99.383339 
2500.000000	99.384793 
2499.000000	99.387017 
2498.000000	99.389511 
2497.000000	99.391922 
2496.000000	99.393796 
2495.000000	99.394605 
2494.000000	99.394028 
2493.000000	99.392158 
2492.000000	99.389447 
2491.000000	99.386462 
2490.000000	99.383726 
2489.000000	99.381690 
2488.000000	99.380637 
2487.000000	99.380517 
2486.000000	99.380999 
2485.000000	99.381865 
2484.000000	99.383196 
2483.000000	99.384951 
2482.000000	99.386553 
2481.000000	99.387301 
2480.000000	99.387137 
2479.000000	99.386659 
2478.000000	99.386332 
2477.000000	99.386030 
2476.000000	99.385508 
2475.000000	99.384956 
2474.000000	99.384794 
2473.000000	99.385123 
2472.000000	99.385671 
2471.000000	99.386172 
2470.000000	99.386538 
2469.000000	99.386662 
2468.000000	99.386319 
2467.000000	99.385396 
2466.000000	99.384174 
2465.000000	99.383259 
2464.000000	99.383102 
2463.000000	99.383617 
2462.000000	99.384237 
2461.000000	99.384409 
2460.000000	99.384070 
2459.000000	99.383581 
2458.000000	99.383318 
2457.000000	99.383354 
2456.000000	99.383507 
2455.000000	99.383553 
2454.000000	99.383376 
2453.000000	99.382998 
2452.000000	99.382538 
2451.000000	99.382161 
2450.000000	99.381983 
2449.000000	99.382013 
2448.000000	99.382177 
2447.000000	99.382390 
2446.000000	99.382591 
2445.000000	99.382748 
2444.000000	99.382869 
2443.000000	99.383003 
2442.000000	99.383179 
2441.000000	99.383332 
2440.000000	99.383316 
2439.000000	99.383047 
2438.000000	99.382613 
2437.000000	99.382247 
2436.000000	99.382134 
2435.000000	99.382237 
2434.000000	99.382305 
2433.000000	99.382093 
2432.000000	99.381594 
2431.000000	99.381056 
2430.000000	99.380746 
2429.000000	99.380758 
2428.000000	99.381057 
2427.000000	99.381607 
2426.000000	99.382329 
2425.000000	99.382967 
2424.000000	99.383172 
2423.000000	99.382779 
2422.000000	99.381954 
2421.000000	99.381127 
2420.000000	99.380672 
2419.000000	99.380667 
2418.000000	99.380923 
2417.000000	99.381192 
2416.000000	99.381380 
2415.000000	99.381509 
2414.000000	99.381550 
2413.000000	99.381453 
2412.000000	99.381352 
2411.000000	99.381515 
2410.000000	99.382044 
2409.000000	99.382701 
2408.000000	99.383220 
2407.000000	99.383668 
2406.000000	99.384254 
2405.000000	99.384954 
2404.000000	99.385562 
2403.000000	99.385987 
2402.000000	99.386340 
2401.000000	99.386748 
2400.000000	99.387208 
2399.000000	99.387641 
2398.000000	99.388023 
2397.000000	99.388444 
2396.000000	99.389051 
2395.000000	99.389909 
2394.000000	99.390919 
2393.000000	99.391868 
2392.000000	99.392633 
2391.000000	99.393309 
2390.000000	99.394102 
2389.000000	99.395103 
2388.000000	99.396206 
2387.000000	99.397217 
2386.000000	99.398012 
2385.000000	99.398615 
2384.000000	99.399163 
2383.000000	99.399803 
2382.000000	99.400588 
2381.000000	99.401481 
2380.000000	99.402413 
2379.000000	99.403309 
2378.000000	99.404085 
2377.000000	99.404712 
2376.000000	99.405297 
2375.000000	99.406027 
2374.000000	99.406955 
2373.000000	99.407913 
2372.000000	99.408752 
2371.000000	99.409601 
2370.000000	99.410718 
2369.000000	99.412065 
2368.000000	99.413142 
2367.000000	99.413487 
2366.000000	99.413109 
2365.000000	99.412515 
2364.000000	99.412302 
2363.000000	99.412625 
2362.000000	99.413291 
2361.000000	99.413932 
2360.000000	99.414281 
2359.000000	99.414437 
2358.000000	99.414650 
2357.000000	99.415122 
2356.000000	99.415840 
2355.000000	99.416548 
2354.000000	99.416988 
2353.000000	99.417007 
2352.000000	99.416914 
2351.000000	99.417031 
2350.000000	99.417151 
2349.000000	99.416862 
2348.000000	99.415941 
2347.000000	99.414893 
2346.000000	99.414194 
2345.000000	99.413820 
2344.000000	99.413414 
2343.000000	99.412821 
2342.000000	99.412704 
2341.000000	99.413309 
2340.000000	99.414204 
2339.000000	99.414577 
2338.000000	99.414256 
2337.000000	99.413698 
2336.000000	99.413417 
2335.000000	99.413351 
2334.000000	99.413155 
2333.000000	99.412366 
2332.000000	99.410916 
2331.000000	99.408969 
2330.000000	99.406746 
2329.000000	99.404913 
2328.000000	99.403747 
2327.000000	99.403804 
2326.000000	99.404633 
2325.000000	99.405293 
2324.000000	99.404806 
2323.000000	99.403205 
2322.000000	99.401984 
2321.000000	99.402155 
2320.000000	99.403678 
2319.000000	99.405364 
2318.000000	99.406461 
2317.000000	99.406675 
2316.000000	99.406024 
2315.000000	99.404823 
2314.000000	99.403520 
2313.000000	99.402568 
2312.000000	99.401915 
2311.000000	99.401664 
2310.000000	99.401940 
2309.000000	99.402757 
2308.000000	99.403239 
2307.000000	99.402413 
2306.000000	99.399988 
2305.000000	99.396717 
2304.000000	99.393649 
2303.000000	99.391524 
2302.000000	99.390438 
2301.000000	99.389981 
2300.000000	99.389407 
2299.000000	99.388215 
2298.000000	99.386525 
2297.000000	99.385115 
2296.000000	99.384592 
2295.000000	99.384936 
2294.000000	99.385476 
2293.000000	99.385588 
2292.000000	99.385102 
2291.000000	99.384329 
2290.000000	99.383643 
2289.000000	99.383210 
2288.000000	99.382983 
2287.000000	99.382849 
2286.000000	99.382710 
2285.000000	99.382494 
2284.000000	99.382187 
2283.000000	99.381821 
2282.000000	99.381376 
2281.000000	99.380719 
2280.000000	99.379837 
2279.000000	99.379099 
2278.000000	99.379078 
2277.000000	99.379944 
2276.000000	99.381243 
2275.000000	99.382268 
2274.000000	99.382646 
2273.000000	99.382439 
2272.000000	99.381759 
2271.000000	99.380547 
2270.000000	99.378911 
2269.000000	99.377533 
2268.000000	99.377270 
2267.000000	99.378351 
2266.000000	99.380056 
2265.000000	99.381261 
2264.000000	99.381377 
2263.000000	99.380707 
2262.000000	99.380166 
2261.000000	99.380648 
2260.000000	99.382312 
2259.000000	99.384178 
2258.000000	99.384720 
2257.000000	99.383225 
2256.000000	99.380494 
2255.000000	99.378025 
2254.000000	99.376507 
2253.000000	99.375628 
2252.000000	99.375254 
2251.000000	99.376005 
2250.000000	99.378324 
2249.000000	99.381552 
2248.000000	99.384409 
2247.000000	99.386257 
2246.000000	99.387309 
2245.000000	99.387683 
2244.000000	99.386860 
2243.000000	99.384427 
2242.000000	99.381021 
2241.000000	99.378104 
2240.000000	99.376648 
2239.000000	99.376252 
2238.000000	99.375640 
2237.000000	99.373884 
2236.000000	99.370953 
2235.000000	99.367290 
2234.000000	99.363487 
2233.000000	99.360579 
2232.000000	99.360003 
2231.000000	99.362538 
2230.000000	99.367333 
2229.000000	99.372294 
2228.000000	99.375724 
2227.000000	99.377337 
2226.000000	99.377680 
2225.000000	99.377185 
2224.000000	99.375956 
2223.000000	99.374166 
2222.000000	99.372293 
2221.000000	99.370868 
2220.000000	99.370002 
2219.000000	99.369355 
2218.000000	99.368707 
2217.000000	99.368469 
2216.000000	99.369343 
2215.000000	99.371372 
2214.000000	99.373581 
2213.000000	99.374733 
2212.000000	99.374350 
2211.000000	99.372947 
2210.000000	99.371606 
2209.000000	99.371288 
2208.000000	99.372243 
2207.000000	99.373763 
2206.000000	99.374628 
2205.000000	99.374120 
2204.000000	99.372448 
2203.000000	99.370292 
2202.000000	99.368248 
2201.000000	99.366858 
2200.000000	99.366664 
2199.000000	99.367576 
2198.000000	99.368474 
2197.000000	99.368305 
2196.000000	99.367529 
2195.000000	99.367715 
2194.000000	99.369640 
2193.000000	99.372486 
2192.000000	99.374799 
2191.000000	99.375830 
2190.000000	99.375625 
2189.000000	99.374607 
2188.000000	99.373493 
2187.000000	99.373039 
2186.000000	99.373459 
2185.000000	99.374430 
2184.000000	99.375786 
2183.000000	99.377621 
2182.000000	99.379509 
2181.000000	99.380622 
2180.000000	99.381131 
2179.000000	99.382288 
2178.000000	99.384257 
2177.000000	99.385038 
2176.000000	99.382796 
2175.000000	99.378241 
2174.000000	99.373936 
2173.000000	99.371477 
2172.000000	99.370501 
2171.000000	99.370055 
2170.000000	99.369860 
2169.000000	99.370294 
2168.000000	99.371854 
2167.000000	99.374540 
2166.000000	99.377234 
2165.000000	99.378238 
2164.000000	99.377099 
2163.000000	99.375331 
2162.000000	99.374836 
2161.000000	99.376266 
2160.000000	99.379381 
2159.000000	99.383719 
2158.000000	99.387954 
2157.000000	99.390079 
2156.000000	99.389531 
2155.000000	99.387960 
2154.000000	99.387141 
2153.000000	99.386949 
2152.000000	99.386460 
2151.000000	99.386005 
2150.000000	99.386822 
2149.000000	99.389214 
2148.000000	99.392167 
2147.000000	99.394413 
2146.000000	99.395033 
2145.000000	99.393538 
2144.000000	99.390513 
2143.000000	99.387780 
2142.000000	99.386627 
2141.000000	99.386412 
2140.000000	99.385782 
2139.000000	99.384694 
2138.000000	99.384188 
2137.000000	99.384519 
2136.000000	99.384806 
2135.000000	99.384547 
2134.000000	99.384396 
2133.000000	99.385045 
2132.000000	99.386117 
2131.000000	99.386593 
2130.000000	99.385869 
2129.000000	99.384195 
2128.000000	99.382398 
2127.000000	99.381253 
2126.000000	99.380927 
2125.000000	99.380986 
2124.000000	99.381076 
2123.000000	99.381465 
2122.000000	99.382517 
2121.000000	99.383777 
2120.000000	99.384224 
2119.000000	99.383409 
2118.000000	99.381843 
2117.000000	99.380285 
2116.000000	99.379012 
2115.000000	99.378001 
2114.000000	99.377321 
2113.000000	99.377010 
2112.000000	99.376911 
2111.000000	99.376861 
2110.000000	99.376804 
2109.000000	99.376598 
2108.000000	99.376017 
2107.000000	99.375049 
2106.000000	99.373838 
2105.000000	99.372238 
2104.000000	99.369923 
2103.000000	99.367209 
2102.000000	99.365290 
2101.000000	99.365126 
2100.000000	99.366466 
2099.000000	99.368043 
2098.000000	99.368861 
2097.000000	99.369001 
2096.000000	99.369089 
2095.000000	99.369366 
2094.000000	99.369313 
2093.000000	99.368208 
2092.000000	99.366103 
2091.000000	99.364209 
2090.000000	99.363903 
2089.000000	99.365257 
2088.000000	99.366770 
2087.000000	99.366904 
2086.000000	99.365700 
2085.000000	99.364528 
2084.000000	99.364496 
2083.000000	99.365483 
2082.000000	99.366642 
2081.000000	99.367409 
2080.000000	99.367885 
2079.000000	99.368396 
2078.000000	99.369035 
2077.000000	99.369752 
2076.000000	99.370741 
2075.000000	99.372399 
2074.000000	99.374642 
2073.000000	99.376531 
2072.000000	99.377074 
2071.000000	99.376252 
2070.000000	99.374925 
2069.000000	99.373868 
2068.000000	99.373240 
2067.000000	99.373011 
2066.000000	99.373213 
2065.000000	99.373574 
2064.000000	99.373531 
2063.000000	99.373026 
2062.000000	99.372802 
2061.000000	99.373483 
2060.000000	99.374745 
2059.000000	99.375745 
2058.000000	99.376126 
2057.000000	99.376176 
2056.000000	99.376155 
2055.000000	99.375889 
2054.000000	99.375090 
2053.000000	99.373753 
2052.000000	99.372248 
2051.000000	99.371169 
2050.000000	99.370954 
2049.000000	99.371394 
2048.000000	99.371565 
2047.000000	99.370621 
2046.000000	99.368616 
2045.000000	99.366474 
2044.000000	99.365226 
2043.000000	99.365194 
2042.000000	99.365969 
2041.000000	99.366807 
2040.000000	99.367148 
2039.000000	99.366959 
2038.000000	99.366626 
2037.000000	99.366489 
2036.000000	99.366437 
2035.000000	99.366004 
2034.000000	99.364813 
2033.000000	99.362891 
2032.000000	99.360694 
2031.000000	99.358901 
2030.000000	99.357988 
2029.000000	99.357795 
2028.000000	99.357516 
2027.000000	99.356445 
2026.000000	99.354840 
2025.000000	99.353889 
2024.000000	99.354559 
2023.000000	99.356594 
2022.000000	99.358544 
2021.000000	99.358993 
2020.000000	99.357809 
2019.000000	99.356200 
2018.000000	99.355560 
2017.000000	99.356130 
2016.000000	99.356963 
2015.000000	99.357110 
2014.000000	99.356517 
2013.000000	99.355728 
2012.000000	99.355220 
2011.000000	99.355275 
2010.000000	99.356193 
2009.000000	99.358321 
2008.000000	99.361720 
2007.000000	99.365744 
2006.000000	99.369018 
2005.000000	99.370188 
2004.000000	99.369059 
2003.000000	99.366947 
2002.000000	99.365563 
2001.000000	99.365451 
2000.000000	99.365858 
1999.000000	99.365759 
1998.000000	99.364668 
1997.000000	99.362856 
1996.000000	99.361264 
1995.000000	99.361074 
1994.000000	99.362822 
1993.000000	99.365682 
1992.000000	99.367928 
1991.000000	99.368620 
1990.000000	99.368385 
1989.000000	99.368409 
1988.000000	99.369164 
1987.000000	99.370313 
1986.000000	99.371270 
1985.000000	99.371543 
1984.000000	99.370915 
1983.000000	99.369588 
1982.000000	99.367920 
1981.000000	99.365865 
1980.000000	99.363074 
1979.000000	99.359751 
1978.000000	99.357049 
1977.000000	99.355988 
1976.000000	99.356179 
1975.000000	99.356380 
1974.000000	99.356238 
1973.000000	99.356954 
1972.000000	99.359954 
1971.000000	99.365135 
1970.000000	99.370274 
1969.000000	99.372524 
1968.000000	99.370812 
1967.000000	99.366785 
1966.000000	99.363520 
1965.000000	99.362431 
1964.000000	99.362368 
1963.000000	99.361662 
1962.000000	99.360076 
1961.000000	99.358558 
1960.000000	99.357756 
1959.000000	99.357512 
1958.000000	99.357548 
1957.000000	99.357796 
1956.000000	99.358061 
1955.000000	99.358088 
1954.000000	99.358054 
1953.000000	99.358382 
1952.000000	99.358688 
1951.000000	99.357721 
1950.000000	99.354964 
1949.000000	99.351748 
1948.000000	99.350114 
1947.000000	99.350415 
1946.000000	99.350631 
1945.000000	99.348462 
1944.000000	99.344002 
1943.000000	99.340001 
1942.000000	99.339144 
1941.000000	99.341458 
1940.000000	99.344805 
1939.000000	99.347453 
1938.000000	99.349645 
1937.000000	99.352574 
1936.000000	99.356329 
1935.000000	99.359326 
1934.000000	99.360074 
1933.000000	99.359304 
1932.000000	99.359501 
1931.000000	99.362211 
1930.000000	99.366270 
1929.000000	99.368957 
1928.000000	99.369227 
1927.000000	99.368392 
1926.000000	99.368009 
1925.000000	99.368057 
1924.000000	99.367620 
1923.000000	99.366956 
1922.000000	99.367327 
1921.000000	99.368932 
1920.000000	99.370011 
1919.000000	99.368420 
1918.000000	99.363677 
1917.000000	99.357616 
1916.000000	99.352836 
1915.000000	99.350474 
1914.000000	99.350180 
1913.000000	99.351487 
1912.000000	99.354174 
1911.000000	99.357706 
1910.000000	99.360822 
1909.000000	99.362457 
1908.000000	99.363295 
1907.000000	99.364922 
1906.000000	99.367619 
1905.000000	99.369724 
1904.000000	99.369561 
1903.000000	99.367656 
1902.000000	99.366025 
1901.000000	99.365960 
1900.000000	99.367140 
1899.000000	99.368366 
1898.000000	99.368714 
1897.000000	99.368162 
1896.000000	99.367357 
1895.000000	99.366963 
1894.000000	99.366932 
1893.000000	99.366822 
1892.000000	99.366751 
1891.000000	99.367353 
1890.000000	99.368551 
1889.000000	99.369223 
1888.000000	99.368828 
1887.000000	99.368269 
1886.000000	99.368442 
1885.000000	99.369155 
1884.000000	99.369793 
1883.000000	99.370397 
1882.000000	99.371321 
1881.000000	99.372383 
1880.000000	99.373323 
1879.000000	99.374509 
1878.000000	99.376524 
1877.000000	99.379176 
1876.000000	99.381298 
1875.000000	99.381847 
1874.000000	99.380700 
1873.000000	99.378405 
1872.000000	99.375809 
1871.000000	99.373817 
1870.000000	99.373005 
1869.000000	99.373190 
1868.000000	99.373736 
1867.000000	99.374507 
1866.000000	99.375637 
1865.000000	99.376756 
1864.000000	99.377268 
1863.000000	99.377031 
1862.000000	99.376435 
1861.000000	99.376010 
1860.000000	99.376192 
1859.000000	99.377283 
1858.000000	99.379127 
1857.000000	99.380950 
1856.000000	99.382028 
1855.000000	99.382376 
1854.000000	99.382457 
1853.000000	99.382444 
1852.000000	99.382279 
1851.000000	99.382083 
1850.000000	99.382164 
1849.000000	99.382746 
1848.000000	99.383674 
1847.000000	99.384517 
1846.000000	99.384890 
1845.000000	99.384757 
1844.000000	99.384508 
1843.000000	99.384683 
1842.000000	99.385390 
1841.000000	99.386165 
1840.000000	99.386564 
1839.000000	99.386546 
1838.000000	99.386352 
1837.000000	99.386178 
1836.000000	99.386072 
1835.000000	99.386117 
1834.000000	99.386357 
1833.000000	99.386648 
1832.000000	99.386789 
1831.000000	99.386712 
1830.000000	99.386561 
1829.000000	99.386604 
1828.000000	99.386944 
1827.000000	99.387339 
1826.000000	99.387468 
1825.000000	99.387277 
1824.000000	99.386903 
1823.000000	99.386432 
1822.000000	99.385695 
1821.000000	99.384587 
1820.000000	99.383629 
1819.000000	99.383702 
1818.000000	99.385183 
1817.000000	99.387191 
1816.000000	99.388222 
1815.000000	99.388039 
1814.000000	99.387717 
1813.000000	99.388216 
1812.000000	99.389305 
1811.000000	99.390327 
1810.000000	99.391499 
1809.000000	99.392978 
1808.000000	99.393856 
1807.000000	99.393281 
1806.000000	99.391602 
1805.000000	99.389753 
1804.000000	99.388088 
1803.000000	99.386490 
1802.000000	99.384689 
1801.000000	99.382531 
1800.000000	99.380265 
1799.000000	99.378801 
1798.000000	99.379252 
1797.000000	99.381434 
1796.000000	99.383934 
1795.000000	99.385573 
1794.000000	99.386075 
1793.000000	99.385572 
1792.000000	99.383987 
1791.000000	99.381960 
1790.000000	99.380975 
1789.000000	99.381011 
1788.000000	99.380962 
1787.000000	99.380627 
1786.000000	99.380914 
1785.000000	99.382001 
1784.000000	99.382799 
1783.000000	99.382796 
1782.000000	99.381893 
1781.000000	99.380148 
1780.000000	99.377708 
1779.000000	99.374831 
1778.000000	99.372626 
1777.000000	99.371575 
1776.000000	99.371458 
1775.000000	99.371168 
1774.000000	99.369664 
1773.000000	99.367864 
1772.000000	99.367478 
1771.000000	99.368457 
1770.000000	99.369509 
1769.000000	99.368856 
1768.000000	99.365729 
1767.000000	99.361667 
1766.000000	99.358953 
1765.000000	99.357998 
1764.000000	99.357145 
1763.000000	99.354975 
1762.000000	99.351290 
1761.000000	99.347352 
1760.000000	99.344426 
1759.000000	99.342445 
1758.000000	99.341510 
1757.000000	99.341944 
1756.000000	99.343056 
1755.000000	99.341907 
1754.000000	99.336067 
1753.000000	99.326767 
1752.000000	99.318778 
1751.000000	99.314423 
1750.000000	99.310640 
1749.000000	99.303914 
1748.000000	99.294976 
1747.000000	99.287469 
1746.000000	99.282584 
1745.000000	99.279351 
1744.000000	99.276192 
1743.000000	99.271984 
1742.000000	99.267500 
1741.000000	99.264907 
1740.000000	99.265838 
1739.000000	99.270151 
1738.000000	99.276059 
1737.000000	99.280338 
1736.000000	99.281346 
1735.000000	99.282265 
1734.000000	99.285636 
1733.000000	99.289575 
1732.000000	99.293739 
1731.000000	99.296454 
1730.000000	99.296749 
1729.000000	99.296109 
1728.000000	99.296567 
1727.000000	99.298766 
1726.000000	99.301752 
1725.000000	99.304832 
1724.000000	99.306631 
1723.000000	99.305934 
1722.000000	99.303812 
1721.000000	99.301713 
1720.000000	99.300312 
1719.000000	99.300227 
1718.000000	99.301474 
1717.000000	99.301353 
1716.000000	99.298686 
1715.000000	99.296324 
1714.000000	99.295982 
1713.000000	99.295960 
1712.000000	99.293955 
1711.000000	99.290778 
1710.000000	99.289243 
1709.000000	99.290657 
1708.000000	99.293889 
1707.000000	99.297016 
1706.000000	99.299145 
1705.000000	99.299803 
1704.000000	99.299160 
1703.000000	99.298052 
1702.000000	99.297523 
1701.000000	99.298799 
1700.000000	99.299293 
1699.000000	99.298230 
1698.000000	99.299101 
1697.000000	99.300277 
1696.000000	99.299223 
1695.000000	99.296220 
1694.000000	99.294659 
1693.000000	99.295131 
1692.000000	99.294983 
1691.000000	99.293785 
1690.000000	99.292679 
1689.000000	99.291853 
1688.000000	99.291006 
1687.000000	99.289393 
1686.000000	99.287735 
1685.000000	99.288450 
1684.000000	99.289208 
1683.000000	99.287038 
1682.000000	99.284617 
1681.000000	99.281696 
1680.000000	99.278138 
1679.000000	99.274841 
1678.000000	99.271012 
1677.000000	99.265630 
1676.000000	99.260023 
1675.000000	99.256327 
1674.000000	99.254738 
1673.000000	99.254977 
1672.000000	99.256131 
1671.000000	99.257569 
1670.000000	99.257913 
1669.000000	99.254449 
1668.000000	99.248816 
1667.000000	99.244297 
1666.000000	99.240762 
1665.000000	99.237109 
1664.000000	99.233822 
1663.000000	99.232073 
1662.000000	99.230477 
1661.000000	99.227247 
1660.000000	99.223807 
1659.000000	99.221762 
1658.000000	99.220618 
1657.000000	99.218245 
1656.000000	99.212924 
1655.000000	99.205353 
1654.000000	99.201708 
1653.000000	99.201702 
1652.000000	99.199230 
1651.000000	99.200672 
1650.000000	99.202974 
1649.000000	99.201845 
1648.000000	99.200117 
1647.000000	99.200079 
1646.000000	99.200486 
1645.000000	99.201724 
1644.000000	99.204597 
1643.000000	99.207973 
1642.000000	99.210320 
1641.000000	99.210710 
1640.000000	99.209528 
1639.000000	99.207599 
1638.000000	99.206579 
1637.000000	99.209278 
1636.000000	99.216995 
1635.000000	99.225085 
1634.000000	99.230194 
1633.000000	99.232932 
1632.000000	99.232379 
1631.000000	99.229657 
1630.000000	99.227544 
1629.000000	99.227865 
1628.000000	99.230172 
1627.000000	99.233065 
1626.000000	99.235517 
1625.000000	99.237786 
1624.000000	99.241187 
1623.000000	99.245905 
1622.000000	99.250414 
1621.000000	99.253957 
1620.000000	99.257036 
1619.000000	99.260125 
1618.000000	99.264607 
1617.000000	99.270961 
1616.000000	99.277754 
1615.000000	99.284352 
1614.000000	99.290095 
1613.000000	99.294148 
1612.000000	99.297984 
1611.000000	99.303454 
1610.000000	99.309064 
1609.000000	99.312071 
1608.000000	99.312755 
1607.000000	99.313444 
1606.000000	99.314470 
1605.000000	99.315018 
1604.000000	99.315940 
1603.000000	99.318137 
1602.000000	99.321361 
1601.000000	99.325064 
1600.000000	99.329251 
1599.000000	99.333485 
1598.000000	99.336525 
1597.000000	99.337936 
1596.000000	99.338502 
1595.000000	99.338890 
1594.000000	99.339050 
1593.000000	99.339501 
1592.000000	99.341679 
1591.000000	99.345796 
1590.000000	99.349686 
1589.000000	99.351319 
1588.000000	99.351407 
1587.000000	99.351852 
1586.000000	99.352701 
1585.000000	99.352417 
1584.000000	99.351409 
1583.000000	99.351178 
1582.000000	99.351114 
1581.000000	99.349736 
1580.000000	99.346877 
1579.000000	99.343152 
1578.000000	99.339344 
1577.000000	99.337247 
1576.000000	99.337395 
1575.000000	99.338459 
1574.000000	99.339198 
1573.000000	99.338578 
1572.000000	99.336901 
1571.000000	99.336278 
1570.000000	99.337714 
1569.000000	99.339256 
1568.000000	99.339995 
1567.000000	99.339993 
1566.000000	99.338657 
1565.000000	99.336173 
1564.000000	99.333701 
1563.000000	99.331250 
1562.000000	99.327533 
1561.000000	99.322462 
1560.000000	99.320855 
1559.000000	99.323668 
1558.000000	99.323593 
1557.000000	99.322867 
1556.000000	99.323463 
1555.000000	99.323379 
1554.000000	99.321915 
1553.000000	99.319725 
1552.000000	99.317641 
1551.000000	99.315692 
1550.000000	99.314617 
1549.000000	99.314995 
1548.000000	99.316153 
1547.000000	99.316417 
1546.000000	99.314373 
1545.000000	99.310637 
1544.000000	99.307450 
1543.000000	99.306822 
1542.000000	99.309690 
1541.000000	99.315754 
1540.000000	99.321320 
1539.000000	99.322997 
1538.000000	99.323344 
1537.000000	99.324688 
1536.000000	99.326276 
1535.000000	99.328087 
1534.000000	99.330009 
1533.000000	99.330987 
1532.000000	99.331173 
1531.000000	99.331910 
1530.000000	99.333470 
1529.000000	99.334882 
1528.000000	99.335425 
1527.000000	99.335766 
1526.000000	99.337046 
1525.000000	99.339369 
1524.000000	99.341870 
1523.000000	99.344285 
1522.000000	99.347492 
1521.000000	99.350677 
1520.000000	99.352253 
1519.000000	99.352334 
1518.000000	99.351365 
1517.000000	99.350435 
1516.000000	99.350245 
1515.000000	99.350666 
1514.000000	99.351350 
1513.000000	99.352442 
1512.000000	99.354251 
1511.000000	99.355997 
1510.000000	99.356707 
1509.000000	99.356752 
1508.000000	99.359817 
1507.000000	99.367792 
1506.000000	99.374159 
1505.000000	99.375730 
1504.000000	99.376050 
1503.000000	99.376112 
1502.000000	99.376305 
1501.000000	99.376791 
1500.000000	99.376183 
1499.000000	99.373071 
1498.000000	99.368598 
1497.000000	99.365628 
1496.000000	99.364850 
1495.000000	99.366653 
1494.000000	99.371638 
1493.000000	99.378041 
1492.000000	99.383253 
1491.000000	99.386321 
1490.000000	99.387857 
1489.000000	99.388119 
1488.000000	99.386505 
1487.000000	99.383694 
1486.000000	99.381223 
1485.000000	99.378360 
1484.000000	99.374583 
1483.000000	99.370683 
1482.000000	99.367974 
1481.000000	99.366832 
1480.000000	99.365623 
1479.000000	99.362921 
1478.000000	99.358552 
1477.000000	99.353179 
1476.000000	99.347185 
1475.000000	99.341906 
1474.000000	99.338694 
1473.000000	99.336485 
1472.000000	99.331815 
1471.000000	99.323866 
1470.000000	99.315277 
1469.000000	99.306868 
1468.000000	99.298478 
1467.000000	99.291465 
1466.000000	99.287960 
1465.000000	99.288508 
1464.000000	99.291493 
1463.000000	99.294507 
1462.000000	99.296271 
1461.000000	99.295836 
1460.000000	99.292764 
1459.000000	99.287672 
1458.000000	99.282484 
1457.000000	99.277754 
1456.000000	99.273248 
1455.000000	99.271676 
1454.000000	99.273311 
1453.000000	99.277781 
1452.000000	99.285288 
1451.000000	99.293167 
1450.000000	99.297766 
1449.000000	99.297979 
1448.000000	99.295494 
1447.000000	99.293151 
1446.000000	99.292106 
1445.000000	99.292108 
1444.000000	99.292726 
1443.000000	99.292914 
1442.000000	99.292716 
1441.000000	99.292886 
1440.000000	99.293493 
1439.000000	99.293288 
1438.000000	99.292560 
1437.000000	99.292794 
1436.000000	99.293052 
1435.000000	99.291859 
1434.000000	99.289334 
1433.000000	99.286048 
1432.000000	99.282982 
1431.000000	99.280799 
1430.000000	99.279155 
1429.000000	99.277497 
1428.000000	99.275131 
1427.000000	99.272101 
1426.000000	99.268662 
1425.000000	99.265811 
1424.000000	99.264151 
1423.000000	99.261509 
1422.000000	99.255513 
1421.000000	99.246119 
1420.000000	99.236093 
1419.000000	99.228477 
1418.000000	99.224484 
1417.000000	99.223362 
1416.000000	99.222284 
1415.000000	99.218812 
1414.000000	99.212865 
1413.000000	99.206357 
1412.000000	99.201190 
1411.000000	99.197468 
1410.000000	99.194299 
1409.000000	99.191240 
1408.000000	99.188295 
1407.000000	99.185969 
1406.000000	99.184691 
1405.000000	99.184651 
1404.000000	99.185996 
1403.000000	99.188395 
1402.000000	99.191363 
1401.000000	99.194375 
1400.000000	99.196752 
1399.000000	99.197319 
1398.000000	99.195072 
1397.000000	99.189722 
1396.000000	99.181682 
1395.000000	99.173419 
1394.000000	99.169059 
1393.000000	99.171013 
1392.000000	99.177613 
1391.000000	99.184600 
1390.000000	99.188786 
1389.000000	99.189489 
1388.000000	99.187520 
1387.000000	99.184110 
1386.000000	99.180692 
1385.000000	99.178350 
1384.000000	99.176981 
1383.000000	99.175424 
1382.000000	99.172930 
1381.000000	99.170070 
1380.000000	99.168274 
1379.000000	99.168572 
1378.000000	99.170625 
1377.000000	99.173115 
1376.000000	99.174986 
1375.000000	99.176238 
1374.000000	99.177634 
1373.000000	99.180101 
1372.000000	99.183822 
1371.000000	99.187860 
1370.000000	99.190869 
1369.000000	99.192391 
1368.000000	99.193128 
1367.000000	99.193647 
1366.000000	99.193994 
1365.000000	99.194354 
1364.000000	99.195401 
1363.000000	99.197234 
1362.000000	99.198677 
1361.000000	99.198794 
1360.000000	99.198440 
1359.000000	99.199497 
1358.000000	99.203097 
1357.000000	99.208706 
1356.000000	99.214615 
1355.000000	99.219303 
1354.000000	99.222665 
1353.000000	99.225554 
1352.000000	99.228224 
1351.000000	99.230553 
1350.000000	99.232873 
1349.000000	99.236348 
1348.000000	99.242115 
1347.000000	99.249646 
1346.000000	99.257481 
1345.000000	99.264834 
1344.000000	99.271768 
1343.000000	99.278055 
1342.000000	99.283478 
1341.000000	99.288926 
1340.000000	99.295690 
1339.000000	99.303327 
1338.000000	99.310159 
1337.000000	99.315941 
1336.000000	99.321944 
1335.000000	99.328531 
1334.000000	99.334462 
1333.000000	99.338809 
1332.000000	99.342163 
1331.000000	99.345293 
1330.000000	99.347881 
1329.000000	99.349622 
1328.000000	99.351428 
1327.000000	99.354321 
1326.000000	99.357679 
1325.000000	99.360076 
1324.000000	99.361344 
1323.000000	99.362536 
1322.000000	99.364520 
1321.000000	99.367380 
1320.000000	99.371003 
1319.000000	99.375221 
1318.000000	99.379298 
1317.000000	99.381915 
1316.000000	99.382131 
1315.000000	99.380379 
1314.000000	99.378432 
1313.000000	99.378006 
1312.000000	99.379200 
1311.000000	99.380670 
1310.000000	99.381414 
1309.000000	99.381834 
1308.000000	99.382677 
1307.000000	99.383676 
1306.000000	99.383935 
1305.000000	99.383533 
1304.000000	99.383735 
1303.000000	99.385323 
1302.000000	99.387583 
1301.000000	99.389138 
1300.000000	99.389394 
1299.000000	99.388956 
1298.000000	99.389086 
1297.000000	99.390679 
1296.000000	99.393337 
1295.000000	99.395316 
1294.000000	99.394878 
1293.000000	99.391899 
1292.000000	99.387954 
1291.000000	99.384987 
1290.000000	99.384059 
1289.000000	99.385144 
1288.000000	99.387356 
1287.000000	99.389186 
1286.000000	99.389236 
1285.000000	99.387214 
1284.000000	99.383991 
1283.000000	99.380705 
1282.000000	99.377920 
1281.000000	99.375627 
1280.000000	99.373798 
1279.000000	99.372458 
1278.000000	99.371420 
1277.000000	99.370387 
1276.000000	99.369296 
1275.000000	99.368234 
1274.000000	99.366969 
1273.000000	99.364940 
1272.000000	99.361959 
1271.000000	99.358781 
1270.000000	99.356567 
1269.000000	99.355594 
1268.000000	99.354789 
1267.000000	99.352762 
1266.000000	99.349183 
1265.000000	99.344976 
1264.000000	99.341246 
1263.000000	99.338299 
1262.000000	99.335652 
1261.000000	99.332679 
1260.000000	99.329237 
1259.000000	99.325821 
1258.000000	99.323162 
1257.000000	99.321577 
1256.000000	99.320738 
1255.000000	99.320130 
1254.000000	99.319546 
1253.000000	99.318988 
1252.000000	99.318280 
1251.000000	99.317206 
1250.000000	99.315960 
1249.000000	99.315082 
1248.000000	99.314840 
1247.000000	99.314907 
1246.000000	99.314611 
1245.000000	99.313239 
1244.000000	99.310238 
1243.000000	99.305816 
1242.000000	99.301569 
1241.000000	99.299627 
1240.000000	99.300659 
1239.000000	99.302976 
1238.000000	99.304055 
1237.000000	99.303073 
1236.000000	99.301100 
1235.000000	99.299261 
1234.000000	99.297538 
1233.000000	99.295372 
1232.000000	99.292387 
1231.000000	99.288295 
1230.000000	99.283150 
1229.000000	99.278148 
1228.000000	99.275282 
1227.000000	99.275519 
1226.000000	99.277669 
1225.000000	99.279476 
1224.000000	99.279587 
1223.000000	99.278091 
1222.000000	99.275754 
1221.000000	99.273447 
1220.000000	99.272081 
1219.000000	99.272295 
1218.000000	99.273817 
1217.000000	99.275267 
1216.000000	99.274937 
1215.000000	99.272044 
1214.000000	99.267378 
1213.000000	99.262526 
1212.000000	99.258309 
1211.000000	99.254349 
1210.000000	99.250320 
1209.000000	99.246868 
1208.000000	99.244615 
1207.000000	99.242868 
1206.000000	99.240305 
1205.000000	99.236690 
1204.000000	99.232859 
1203.000000	99.229177 
1202.000000	99.225127 
1201.000000	99.220512 
1200.000000	99.215961 
1199.000000	99.211905 
1198.000000	99.208011 
1197.000000	99.203887 
1196.000000	99.199271 
1195.000000	99.193345 
1194.000000	99.185200 
1193.000000	99.175404 
1192.000000	99.166205 
1191.000000	99.159351 
1190.000000	99.154093 
1189.000000	99.148120 
1188.000000	99.140138 
1187.000000	99.131051 
1186.000000	99.122957 
1185.000000	99.117413 
1184.000000	99.114342 
1183.000000	99.112083 
1182.000000	99.108645 
1181.000000	99.103310 
1180.000000	99.096905 
1179.000000	99.090485 
1178.000000	99.084256 
1177.000000	99.077981 
1176.000000	99.071674 
1175.000000	99.065170 
1174.000000	99.057469 
1173.000000	99.047510 
1172.000000	99.035679 
1171.000000	99.023867 
1170.000000	99.013724 
1169.000000	99.005234 
1168.000000	98.997163 
1167.000000	98.988644 
1166.000000	98.980269 
1165.000000	98.973776 
1164.000000	98.970736 
1163.000000	98.971325 
1162.000000	98.974224 
1161.000000	98.977764 
1160.000000	98.981066 
1159.000000	98.983829 
1158.000000	98.985194 
1157.000000	98.983321 
1156.000000	98.976531 
1155.000000	98.965187 
1154.000000	98.952541 
1153.000000	98.943127 
1152.000000	98.939355 
1151.000000	98.939264 
1150.000000	98.937990 
1149.000000	98.932060 
1148.000000	98.922230 
1147.000000	98.912055 
1146.000000	98.903817 
1145.000000	98.896282 
1144.000000	98.886553 
1143.000000	98.873589 
1142.000000	98.859611 
1141.000000	98.848242 
1140.000000	98.841491 
1139.000000	98.838275 
1138.000000	98.835274 
1137.000000	98.829175 
1136.000000	98.818699 
1135.000000	98.805168 
1134.000000	98.791098 
1133.000000	98.777701 
1132.000000	98.763937 
1131.000000	98.748550 
1130.000000	98.732695 
1129.000000	98.719333 
1128.000000	98.709503 
1127.000000	98.700297 
1126.000000	98.687738 
1125.000000	98.671277 
1124.000000	98.654290 
1123.000000	98.640152 
1122.000000	98.628874 
1121.000000	98.617923 
1120.000000	98.605257 
1119.000000	98.590774 
1118.000000	98.575594 
1117.000000	98.560956 
1116.000000	98.547695 
1115.000000	98.535956 
1114.000000	98.525148 
1113.000000	98.514503 
1112.000000	98.503679 
1111.000000	98.492561 
1110.000000	98.480684 
1109.000000	98.467458 
1108.000000	98.453134 
1107.000000	98.439075 
1106.000000	98.426531 
1105.000000	98.415145 
1104.000000	98.403140 
1103.000000	98.389345 
1102.000000	98.374808 
1101.000000	98.361813 
1100.000000	98.351308 
1099.000000	98.341988 
1098.000000	98.332160 
1097.000000	98.321788 
1096.000000	98.311944 
1095.000000	98.302654 
1094.000000	98.292371 
1093.000000	98.279658 
1092.000000	98.264452 
1091.000000	98.247581 
1090.000000	98.229896 
1089.000000	98.212232 
1088.000000	98.195527 
1087.000000	98.180315 
1086.000000	98.166431 
1085.000000	98.153657 
1084.000000	98.142240 
1083.000000	98.132052 
1082.000000	98.121545 
1081.000000	98.108485 
1080.000000	98.091879 
1079.000000	98.072776 
1078.000000	98.053466 
1077.000000	98.036489 
1076.000000	98.023881 
1075.000000	98.016049 
1074.000000	98.011170 
1073.000000	98.006584 
1072.000000	98.000404 
1071.000000	97.990718 
1070.000000	97.974346 
1069.000000	97.949014 
1068.000000	97.917399 
1067.000000	97.887246 
1066.000000	97.865646 
1065.000000	97.853715 
1064.000000	97.847332 
1063.000000	97.841396 
1062.000000	97.832279 
1061.000000	97.817672 
1060.000000	97.796711 
1059.000000	97.771305 
1058.000000	97.746106 
1057.000000	97.725591 
1056.000000	97.710763 
1055.000000	97.698932 
1054.000000	97.686701 
1053.000000	97.672917 
1052.000000	97.658631 
1051.000000	97.644735 
1050.000000	97.630509 
1049.000000	97.614466 
1048.000000	97.595834 
1047.000000	97.575303 
1046.000000	97.555060 
1045.000000	97.537599 
1044.000000	97.523281 
1043.000000	97.509354 
1042.000000	97.492992 
1041.000000	97.475339 
1040.000000	97.460704 
1039.000000	97.451594 
1038.000000	97.446673 
1037.000000	97.444041 
1036.000000	97.443988 
1035.000000	97.447172 
1034.000000	97.452300 
1033.000000	97.457212 
1032.000000	97.460442 
1031.000000	97.460622 
1030.000000	97.457093 
1029.000000	97.453135 
1028.000000	97.455883 
1027.000000	97.469683 
1026.000000	97.490498 
1025.000000	97.509216 
1024.000000	97.519853 
1023.000000	97.522752 
1022.000000	97.521858 
1021.000000	97.521895 
1020.000000	97.526861 
1019.000000	97.537648 
1018.000000	97.550642 
1017.000000	97.560867 
1016.000000	97.566806 
1015.000000	97.570794 
1014.000000	97.575406 
1013.000000	97.581324 
1012.000000	97.588153 
1011.000000	97.595285 
1010.000000	97.602082 
1009.000000	97.608843 
1008.000000	97.617358 
1007.000000	97.629115 
1006.000000	97.643387 
1005.000000	97.658345 
1004.000000	97.673422 
1003.000000	97.689297 
1002.000000	97.706363 
1001.000000	97.724478 
1000.000000	97.743234 
999.000000	 97.761103 
998.000000	 97.775681 
997.000000	 97.786738 
996.000000	 97.797977 
995.000000	 97.813582 
994.000000	 97.833545 
993.000000	 97.854137 
992.000000	 97.872383 
991.000000	 97.888242 
990.000000	 97.902910 
989.000000	 97.917290 
988.000000	 97.932399 
987.000000	 97.949630 
986.000000	 97.970057 
985.000000	 97.994027 
984.000000	 98.020994 
983.000000	 98.049107 
982.000000	 98.075896 
981.000000	 98.100272 
980.000000	 98.123173 
979.000000	 98.145772 
978.000000	 98.168456 
977.000000	 98.192225 
976.000000	 98.218999 
975.000000	 98.248913 
974.000000	 98.279117 
973.000000	 98.307313 
972.000000	 98.334921 
971.000000	 98.364506 
970.000000	 98.395391 
969.000000	 98.424321 
968.000000	 98.449712 
967.000000	 98.472976 
966.000000	 98.496236 
965.000000	 98.520631 
964.000000	 98.546267 
963.000000	 98.571880 
962.000000	 98.595035 
961.000000	 98.614472 
960.000000	 98.631796 
959.000000	 98.649210 
958.000000	 98.666271 
957.000000	 98.680857 
956.000000	 98.692764 
955.000000	 98.704105 
954.000000	 98.716328 
953.000000	 98.729097 
952.000000	 98.742335 
951.000000	 98.756857 
950.000000	 98.771889 
949.000000	 98.783873 
948.000000	 98.789350 
947.000000	 98.788425 
946.000000	 98.784581 
945.000000	 98.781440 
944.000000	 98.780457 
943.000000	 98.781672 
942.000000	 98.785580 
941.000000	 98.793098 
940.000000	 98.803330 
939.000000	 98.812483 
938.000000	 98.816811 
937.000000	 98.816998 
936.000000	 98.818148 
935.000000	 98.824634 
934.000000	 98.836050 
933.000000	 98.848922 
932.000000	 98.860817 
931.000000	 98.871270 
930.000000	 98.879803 
929.000000	 98.885033 
928.000000	 98.885770 
927.000000	 98.882195 
926.000000	 98.876383 
925.000000	 98.872220 
924.000000	 98.873731 
923.000000	 98.881956 
922.000000	 98.893558 
921.000000	 98.903388 
920.000000	 98.908331 
919.000000	 98.908457 
918.000000	 98.905809 
917.000000	 98.903148 
916.000000	 98.902692 
915.000000	 98.904396 
914.000000	 98.905895 
913.000000	 98.905552 
912.000000	 98.905257 
911.000000	 98.908910 
910.000000	 98.918499 
909.000000	 98.932868 
908.000000	 98.949713 
907.000000	 98.967138 
906.000000	 98.983476 
905.000000	 98.997341 
904.000000	 99.008383 
903.000000	 99.017416 
902.000000	 99.025821 
901.000000	 99.035117 
900.000000	 99.046421 
899.000000	 99.059294 
898.000000	 99.071480 
897.000000	 99.080811 
896.000000	 99.087062 
895.000000	 99.091319 
894.000000	 99.094325 
893.000000	 99.096645 
892.000000	 99.099943 
891.000000	 99.106551 
890.000000	 99.117571 
889.000000	 99.132091 
888.000000	 99.147911 
887.000000	 99.162355 
886.000000	 99.173395 
885.000000	 99.181467 
884.000000	 99.189548 
883.000000	 99.199588 
882.000000	 99.209201 
881.000000	 99.214171 
880.000000	 99.214276 
879.000000	 99.214355 
878.000000	 99.218838 
877.000000	 99.227259 
876.000000	 99.236328 
875.000000	 99.244251 
874.000000	 99.251306 
873.000000	 99.257749 
872.000000	 99.263226 
871.000000	 99.267791 
870.000000	 99.272275 
869.000000	 99.278093 
868.000000	 99.287137 
867.000000	 99.300373 
866.000000	 99.315310 
865.000000	 99.326541 
864.000000	 99.331040 
863.000000	 99.332129 
862.000000	 99.336052 
861.000000	 99.344174 
860.000000	 99.351372 
859.000000	 99.353030 
858.000000	 99.350843 
857.000000	 99.350188 
856.000000	 99.353650 
855.000000	 99.359720 
854.000000	 99.366500 
853.000000	 99.373427 
852.000000	 99.379426 
851.000000	 99.382590 
850.000000	 99.382888 
849.000000	 99.382947 
848.000000	 99.384961 
847.000000	 99.388582 
846.000000	 99.392614 
845.000000	 99.396519 
844.000000	 99.399050 
843.000000	 99.397957 
842.000000	 99.393181 
841.000000	 99.388175 
840.000000	 99.385468 
839.000000	 99.382725 
838.000000	 99.376391 
837.000000	 99.367855 
836.000000	 99.362157 
835.000000	 99.361055 
834.000000	 99.361528 
833.000000	 99.361637 
832.000000	 99.363307 
831.000000	 99.367073 
830.000000	 99.368148 
829.000000	 99.361916 
828.000000	 99.351533 
827.000000	 99.345895 
826.000000	 99.349753 
825.000000	 99.358880 
824.000000	 99.365666 
823.000000	 99.367085 
822.000000	 99.366206 
821.000000	 99.367498 
820.000000	 99.371775 
819.000000	 99.375714 
818.000000	 99.376283 
817.000000	 99.375073 
816.000000	 99.376605 
815.000000	 99.381743 
814.000000	 99.384985 
813.000000	 99.380125 
812.000000	 99.366782 
811.000000	 99.348987 
810.000000	 99.328419 
809.000000	 99.302055 
808.000000	 99.266990 
807.000000	 99.225126 
806.000000	 99.181831 
805.000000	 99.141216 
804.000000	 99.104285 
803.000000	 99.071121 
802.000000	 99.043095 
801.000000	 99.022370 
800.000000	 99.009817 
799.000000	 99.004280 
798.000000	 99.004499 
797.000000	 99.011016 
796.000000	 99.024521 
795.000000	 99.042387 
794.000000	 99.059077 
793.000000	 99.070829 
792.000000	 99.078281 
791.000000	 99.083836 
790.000000	 99.088570 
789.000000	 99.092610 
788.000000	 99.095768 
787.000000	 99.095661 
786.000000	 99.087466 
785.000000	 99.068669 
784.000000	 99.043417 
783.000000	 99.020118 
782.000000	 99.005036 
781.000000	 98.999441 
780.000000	 99.001130 
779.000000	 99.005985 
778.000000	 99.009379 
777.000000	 99.009602 
776.000000	 99.010276 
775.000000	 99.017035 
774.000000	 99.031367 
773.000000	 99.049266 
772.000000	 99.065897 
771.000000	 99.080020 
770.000000	 99.093708 
769.000000	 99.108873 
768.000000	 99.124161 
767.000000	 99.135082 
766.000000	 99.138485 
765.000000	 99.137541 
764.000000	 99.140184 
763.000000	 99.150565 
762.000000	 99.163619 
761.000000	 99.170595 
760.000000	 99.168820 
759.000000	 99.163512 
758.000000	 99.161311 
757.000000	 99.164534 
756.000000	 99.171195 
755.000000	 99.177389 
754.000000	 99.179375 
753.000000	 99.176370 
752.000000	 99.172574 
751.000000	 99.174595 
750.000000	 99.185291 
749.000000	 99.200872 
748.000000	 99.214431 
747.000000	 99.222117 
746.000000	 99.225271 
745.000000	 99.227712 
744.000000	 99.232041 
743.000000	 99.238165 
742.000000	 99.244505 
741.000000	 99.250097 
740.000000	 99.255445 
739.000000	 99.261444 
738.000000	 99.267954 
737.000000	 99.273759 
736.000000	 99.277601 
735.000000	 99.278927 
734.000000	 99.278094 
733.000000	 99.276481 
732.000000	 99.276242 
731.000000	 99.279097 
730.000000	 99.284817 
729.000000	 99.291252 
728.000000	 99.296366 
727.000000	 99.299778 
726.000000	 99.301915 
725.000000	 99.302621 
724.000000	 99.301487 
723.000000	 99.299047 
722.000000	 99.296880 
721.000000	 99.296757 
720.000000	 99.300001 
719.000000	 99.306961 
718.000000	 99.316222 
717.000000	 99.324640 
716.000000	 99.328944 
715.000000	 99.327641 
714.000000	 99.322220 
713.000000	 99.316655 
712.000000	 99.315411 
711.000000	 99.320522 
710.000000	 99.329629 
709.000000	 99.337346 
708.000000	 99.339493 
707.000000	 99.335629 
706.000000	 99.327720 
705.000000	 99.317978 
704.000000	 99.308511 
703.000000	 99.301860 
702.000000	 99.300092 
701.000000	 99.302692 
700.000000	 99.306099 
699.000000	 99.306189 
698.000000	 99.301677 
697.000000	 99.295207 
696.000000	 99.291029 
695.000000	 99.291339 
694.000000	 99.295124 
693.000000	 99.300007 
692.000000	 99.304513 
691.000000	 99.308464 
690.000000	 99.312147 
689.000000	 99.315997 
688.000000	 99.320447 
687.000000	 99.325160 
686.000000	 99.328870 
685.000000	 99.330698 
684.000000	 99.331280 
683.000000	 99.332114 
682.000000	 99.333999 
681.000000	 99.336555 
680.000000	 99.338905 
679.000000	 99.340506 
678.000000	 99.341453 
677.000000	 99.342413 
676.000000	 99.344169 
675.000000	 99.346724 
674.000000	 99.349307 
673.000000	 99.351259 
672.000000	 99.352733 
671.000000	 99.354221 
670.000000	 99.356034 
669.000000	 99.358104 
668.000000	 99.360162 
667.000000	 99.362031 
666.000000	 99.363819 
665.000000	 99.365628 
664.000000	 99.367515 
663.000000	 99.369475 
662.000000	 99.371477 
661.000000	 99.373461 
660.000000	 99.375348 
659.000000	 99.377109 
658.000000	 99.378776 
657.000000	 99.380398 
656.000000	 99.382001 
655.000000	 99.383594 
654.000000	 99.385182 
653.000000	 99.386765 
652.000000	 99.388340 
651.000000	 99.389911 
650.000000	 99.391481 

