4000.000000	99.386384 
3999.000000	99.382854 
3998.000000	99.380664 
3997.000000	99.382378 
3996.000000	99.387237 
3995.000000	99.392037 
3994.000000	99.394519 
3993.000000	99.395259 
3992.000000	99.396035 
3991.000000	99.397055 
3990.000000	99.396622 
3989.000000	99.393268 
3988.000000	99.387477 
3987.000000	99.381269 
3986.000000	99.376690 
3985.000000	99.374825 
3984.000000	99.375657 
3983.000000	99.378542 
3982.000000	99.382817 
3981.000000	99.387949 
3980.000000	99.393245 
3979.000000	99.397787 
3978.000000	99.400952 
3977.000000	99.402756 
3976.000000	99.403273 
3975.000000	99.401854 
3974.000000	99.397626 
3973.000000	99.391046 
3972.000000	99.384590 
3971.000000	99.381330 
3970.000000	99.382885 
3969.000000	99.388488 
3968.000000	99.395554 
3967.000000	99.401106 
3966.000000	99.403207 
3965.000000	99.401869 
3964.000000	99.398787 
3963.000000	99.396246 
3962.000000	99.395719 
3961.000000	99.396880 
3960.000000	99.397742 
3959.000000	99.396083 
3958.000000	99.391691 
3957.000000	99.387118 
3956.000000	99.385336 
3955.000000	99.386660 
3954.000000	99.388558 
3953.000000	99.388715 
3952.000000	99.387143 
3951.000000	99.385246 
3950.000000	99.383554 
3949.000000	99.380993 
3948.000000	99.376730 
3947.000000	99.372415 
3946.000000	99.371642 
3945.000000	99.376212 
3944.000000	99.383150 
3943.000000	99.386533 
3942.000000	99.383316 
3941.000000	99.376814 
3940.000000	99.372874 
3939.000000	99.373424 
3938.000000	99.375801 
3937.000000	99.377152 
3936.000000	99.377297 
3935.000000	99.377719 
3934.000000	99.379220 
3933.000000	99.381734 
3932.000000	99.384925 
3931.000000	99.388087 
3930.000000	99.390150 
3929.000000	99.390136 
3928.000000	99.388354 
3927.000000	99.386181 
3926.000000	99.384327 
3925.000000	99.382299 
3924.000000	99.380009 
3923.000000	99.378388 
3922.000000	99.377003 
3921.000000	99.373894 
3920.000000	99.369383 
3919.000000	99.366882 
3918.000000	99.368077 
3917.000000	99.370350 
3916.000000	99.370896 
3915.000000	99.370925 
3914.000000	99.372948 
3913.000000	99.376207 
3912.000000	99.377640 
3911.000000	99.375440 
3910.000000	99.370347 
3909.000000	99.364933 
3908.000000	99.361719 
3907.000000	99.362269 
3906.000000	99.365580 
3905.000000	99.368214 
3904.000000	99.366836 
3903.000000	99.362882 
3902.000000	99.362048 
3901.000000	99.366725 
3900.000000	99.372176 
3899.000000	99.372557 
3898.000000	99.367711 
3897.000000	99.361303 
3896.000000	99.355609 
3895.000000	99.351982 
3894.000000	99.354257 
3893.000000	99.365201 
3892.000000	99.379027 
3891.000000	99.384423 
3890.000000	99.379677 
3889.000000	99.375782 
3888.000000	99.379326 
3887.000000	99.385509 
3886.000000	99.385288 
3885.000000	99.375196 
3884.000000	99.364207 
3883.000000	99.363813 
3882.000000	99.372908 
3881.000000	99.381929 
3880.000000	99.383107 
3879.000000	99.376988 
3878.000000	99.372126 
3877.000000	99.373266 
3876.000000	99.376074 
3875.000000	99.373664 
3874.000000	99.363421 
3873.000000	99.352048 
3872.000000	99.349074 
3871.000000	99.353213 
3870.000000	99.353188 
3869.000000	99.345260 
3868.000000	99.341917 
3867.000000	99.351703 
3866.000000	99.364708 
3865.000000	99.370445 
3864.000000	99.370836 
3863.000000	99.371908 
3862.000000	99.374267 
3861.000000	99.373421 
3860.000000	99.366342 
3859.000000	99.353413 
3858.000000	99.335482 
3857.000000	99.316083 
3856.000000	99.303720 
3855.000000	99.309114 
3854.000000	99.327776 
3853.000000	99.335575 
3852.000000	99.330581 
3851.000000	99.339189 
3850.000000	99.361983 
3849.000000	99.378438 
3848.000000	99.381788 
3847.000000	99.377727 
3846.000000	99.372192 
3845.000000	99.367456 
3844.000000	99.363581 
3843.000000	99.359388 
3842.000000	99.354901 
3841.000000	99.352544 
3840.000000	99.354179 
3839.000000	99.358804 
3838.000000	99.362101 
3837.000000	99.360851 
3836.000000	99.357010 
3835.000000	99.355500 
3834.000000	99.358310 
3833.000000	99.364100 
3832.000000	99.370083 
3831.000000	99.374481 
3830.000000	99.378245 
3829.000000	99.382599 
3828.000000	99.385472 
3827.000000	99.382176 
3826.000000	99.371071 
3825.000000	99.358794 
3824.000000	99.355290 
3823.000000	99.363625 
3822.000000	99.375524 
3821.000000	99.375883 
3820.000000	99.362766 
3819.000000	99.355631 
3818.000000	99.363881 
3817.000000	99.375345 
3816.000000	99.377004 
3815.000000	99.368937 
3814.000000	99.364672 
3813.000000	99.370214 
3812.000000	99.374518 
3811.000000	99.369876 
3810.000000	99.362733 
3809.000000	99.362417 
3808.000000	99.368205 
3807.000000	99.368631 
3806.000000	99.357956 
3805.000000	99.347223 
3804.000000	99.347483 
3803.000000	99.355416 
3802.000000	99.360393 
3801.000000	99.353326 
3800.000000	99.340900 
3799.000000	99.340072 
3798.000000	99.349756 
3797.000000	99.357199 
3796.000000	99.358066 
3795.000000	99.357308 
3794.000000	99.360954 
3793.000000	99.368552 
3792.000000	99.375743 
3791.000000	99.380272 
3790.000000	99.382432 
3789.000000	99.382796 
3788.000000	99.382916 
3787.000000	99.385233 
3786.000000	99.390239 
3785.000000	99.394740 
3784.000000	99.395898 
3783.000000	99.395282 
3782.000000	99.396218 
3781.000000	99.398491 
3780.000000	99.398402 
3779.000000	99.393076 
3778.000000	99.384652 
3777.000000	99.378291 
3776.000000	99.374818 
3775.000000	99.370927 
3774.000000	99.366078 
3773.000000	99.364422 
3772.000000	99.368494 
3771.000000	99.374127 
3770.000000	99.374256 
3769.000000	99.368764 
3768.000000	99.365881 
3767.000000	99.370745 
3766.000000	99.378293 
3765.000000	99.381133 
3764.000000	99.379226 
3763.000000	99.378622 
3762.000000	99.381951 
3761.000000	99.386238 
3760.000000	99.389191 
3759.000000	99.390554 
3758.000000	99.389235 
3757.000000	99.384242 
3756.000000	99.376937 
3755.000000	99.370190 
3754.000000	99.364747 
3753.000000	99.360606 
3752.000000	99.359012 
3751.000000	99.357585 
3750.000000	99.348928 
3749.000000	99.332830 
3748.000000	99.320803 
3747.000000	99.322142 
3746.000000	99.335143 
3745.000000	99.348890 
3744.000000	99.347614 
3743.000000	99.335853 
3742.000000	99.336926 
3741.000000	99.347358 
3740.000000	99.347794 
3739.000000	99.337836 
3738.000000	99.328369 
3737.000000	99.325287 
3736.000000	99.326991 
3735.000000	99.333131 
3734.000000	99.345818 
3733.000000	99.361404 
3732.000000	99.370822 
3731.000000	99.371734 
3730.000000	99.371028 
3729.000000	99.373172 
3728.000000	99.375650 
3727.000000	99.375781 
3726.000000	99.375256 
3725.000000	99.377821 
3724.000000	99.383776 
3723.000000	99.388541 
3722.000000	99.389191 
3721.000000	99.387904 
3720.000000	99.388673 
3719.000000	99.391809 
3718.000000	99.392725 
3717.000000	99.386955 
3716.000000	99.374952 
3715.000000	99.361058 
3714.000000	99.349228 
3713.000000	99.342288 
3712.000000	99.340973 
3711.000000	99.343310 
3710.000000	99.348500 
3709.000000	99.356734 
3708.000000	99.364554 
3707.000000	99.366751 
3706.000000	99.361791 
3705.000000	99.353128 
3704.000000	99.345996 
3703.000000	99.343993 
3702.000000	99.346427 
3701.000000	99.349451 
3700.000000	99.351414 
3699.000000	99.353364 
3698.000000	99.353807 
3697.000000	99.349087 
3696.000000	99.338976 
3695.000000	99.327868 
3694.000000	99.319627 
3693.000000	99.314448 
3692.000000	99.312110 
3691.000000	99.313453 
3690.000000	99.316552 
3689.000000	99.315334 
3688.000000	99.308024 
3687.000000	99.303385 
3686.000000	99.308940 
3685.000000	99.319171 
3684.000000	99.323746 
3683.000000	99.320185 
3682.000000	99.312978 
3681.000000	99.304931 
3680.000000	99.293609 
3679.000000	99.278770 
3678.000000	99.267008 
3677.000000	99.264756 
3676.000000	99.268064 
3675.000000	99.264787 
3674.000000	99.258872 
3673.000000	99.265783 
3672.000000	99.281567 
3671.000000	99.293776 
3670.000000	99.297986 
3669.000000	99.294337 
3668.000000	99.290086 
3667.000000	99.290366 
3666.000000	99.291600 
3665.000000	99.291770 
3664.000000	99.292901 
3663.000000	99.295680 
3662.000000	99.297342 
3661.000000	99.295090 
3660.000000	99.290122 
3659.000000	99.287530 
3658.000000	99.290889 
3657.000000	99.296912 
3656.000000	99.297502 
3655.000000	99.291250 
3654.000000	99.286133 
3653.000000	99.285953 
3652.000000	99.287863 
3651.000000	99.290108 
3650.000000	99.290655 
3649.000000	99.285046 
3648.000000	99.275557 
3647.000000	99.271179 
3646.000000	99.276331 
3645.000000	99.287615 
3644.000000	99.298663 
3643.000000	99.305151 
3642.000000	99.306903 
3641.000000	99.307153 
3640.000000	99.309375 
3639.000000	99.314420 
3638.000000	99.320555 
3637.000000	99.326623 
3636.000000	99.331645 
3635.000000	99.331855 
3634.000000	99.322663 
3633.000000	99.305284 
3632.000000	99.288567 
3631.000000	99.282200 
3630.000000	99.289673 
3629.000000	99.300409 
3628.000000	99.299645 
3627.000000	99.294183 
3626.000000	99.296579 
3625.000000	99.301842 
3624.000000	99.302453 
3623.000000	99.298804 
3622.000000	99.294418 
3621.000000	99.291647 
3620.000000	99.290808 
3619.000000	99.290569 
3618.000000	99.290527 
3617.000000	99.293331 
3616.000000	99.299712 
3615.000000	99.305194 
3614.000000	99.304011 
3613.000000	99.294067 
3612.000000	99.279511 
3611.000000	99.267926 
3610.000000	99.264212 
3609.000000	99.267647 
3608.000000	99.273571 
3607.000000	99.277664 
3606.000000	99.279070 
3605.000000	99.278872 
3604.000000	99.278052 
3603.000000	99.277620 
3602.000000	99.277791 
3601.000000	99.277827 
3600.000000	99.277952 
3599.000000	99.279900 
3598.000000	99.284085 
3597.000000	99.288542 
3596.000000	99.291115 
3595.000000	99.290510 
3594.000000	99.286711 
3593.000000	99.281715 
3592.000000	99.279167 
3591.000000	99.281492 
3590.000000	99.288304 
3589.000000	99.295666 
3588.000000	99.297149 
3587.000000	99.289231 
3586.000000	99.277418 
3585.000000	99.270514 
3584.000000	99.270070 
3583.000000	99.271545 
3582.000000	99.271109 
3581.000000	99.267953 
3580.000000	99.263029 
3579.000000	99.257586 
3578.000000	99.252532 
3577.000000	99.248678 
3576.000000	99.247266 
3575.000000	99.248744 
3574.000000	99.251421 
3573.000000	99.252096 
3572.000000	99.248864 
3571.000000	99.242960 
3570.000000	99.237702 
3569.000000	99.235526 
3568.000000	99.235837 
3567.000000	99.236339 
3566.000000	99.237233 
3565.000000	99.241519 
3564.000000	99.248949 
3563.000000	99.255100 
3562.000000	99.257019 
3561.000000	99.255555 
3560.000000	99.252927 
3559.000000	99.250128 
3558.000000	99.246828 
3557.000000	99.242755 
3556.000000	99.238806 
3555.000000	99.236509 
3554.000000	99.236061 
3553.000000	99.235386 
3552.000000	99.231914 
3551.000000	99.225517 
3550.000000	99.218568 
3549.000000	99.213476 
3548.000000	99.211482 
3547.000000	99.213024 
3546.000000	99.217382 
3545.000000	99.222525 
3544.000000	99.226363 
3543.000000	99.227845 
3542.000000	99.226934 
3541.000000	99.224152 
3540.000000	99.220549 
3539.000000	99.217633 
3538.000000	99.216387 
3537.000000	99.216141 
3536.000000	99.214724 
3535.000000	99.210512 
3534.000000	99.204108 
3533.000000	99.197991 
3532.000000	99.194680 
3531.000000	99.195072 
3530.000000	99.197950 
3529.000000	99.200972 
3528.000000	99.202791 
3527.000000	99.204012 
3526.000000	99.205776 
3525.000000	99.207550 
3524.000000	99.207471 
3523.000000	99.204814 
3522.000000	99.201121 
3521.000000	99.198343 
3520.000000	99.196582 
3519.000000	99.194451 
3518.000000	99.191149 
3517.000000	99.187432 
3516.000000	99.184555 
3515.000000	99.183161 
3514.000000	99.183511 
3513.000000	99.185788 
3512.000000	99.189201 
3511.000000	99.191354 
3510.000000	99.189945 
3509.000000	99.185255 
3508.000000	99.180330 
3507.000000	99.178097 
3506.000000	99.178488 
3505.000000	99.178610 
3504.000000	99.175666 
3503.000000	99.169820 
3502.000000	99.164476 
3501.000000	99.163215 
3500.000000	99.166143 
3499.000000	99.169540 
3498.000000	99.169337 
3497.000000	99.164995 
3496.000000	99.159882 
3495.000000	99.157640 
3494.000000	99.158420 
3493.000000	99.159065 
3492.000000	99.156546 
3491.000000	99.150736 
3490.000000	99.144167 
3489.000000	99.139644 
3488.000000	99.138187 
3487.000000	99.138905 
3486.000000	99.140404 
3485.000000	99.142182 
3484.000000	99.144687 
3483.000000	99.148063 
3482.000000	99.150876 
3481.000000	99.150723 
3480.000000	99.146702 
3479.000000	99.140949 
3478.000000	99.137014 
3477.000000	99.136420 
3476.000000	99.137225 
3475.000000	99.136292 
3474.000000	99.132841 
3473.000000	99.129043 
3472.000000	99.127170 
3471.000000	99.127138 
3470.000000	99.127355 
3469.000000	99.127086 
3468.000000	99.126898 
3467.000000	99.127115 
3466.000000	99.126962 
3465.000000	99.125497 
3464.000000	99.122729 
3463.000000	99.119491 
3462.000000	99.116497 
3461.000000	99.113874 
3460.000000	99.111530 
3459.000000	99.109676 
3458.000000	99.108766 
3457.000000	99.108828 
3456.000000	99.109056 
3455.000000	99.108601 
3454.000000	99.107714 
3453.000000	99.107511 
3452.000000	99.108529 
3451.000000	99.110095 
3450.000000	99.111228 
3449.000000	99.111458 
3448.000000	99.110605 
3447.000000	99.108497 
3446.000000	99.105727 
3445.000000	99.103990 
3444.000000	99.104503 
3443.000000	99.106320 
3442.000000	99.107037 
3441.000000	99.105347 
3440.000000	99.102393 
3439.000000	99.100217 
3438.000000	99.099376 
3437.000000	99.098568 
3436.000000	99.096480 
3435.000000	99.093651 
3434.000000	99.092218 
3433.000000	99.093665 
3432.000000	99.096932 
3431.000000	99.098995 
3430.000000	99.097483 
3429.000000	99.092715 
3428.000000	99.087215 
3427.000000	99.083247 
3426.000000	99.081178 
3425.000000	99.080210 
3424.000000	99.080010 
3423.000000	99.080907 
3422.000000	99.082675 
3421.000000	99.084011 
3420.000000	99.083654 
3419.000000	99.081706 
3418.000000	99.079564 
3417.000000	99.078721 
3416.000000	99.079729 
3415.000000	99.081942 
3414.000000	99.083974 
3413.000000	99.084608 
3412.000000	99.083579 
3411.000000	99.081620 
3410.000000	99.079934 
3409.000000	99.079587 
3408.000000	99.080927 
3407.000000	99.083053 
3406.000000	99.084024 
3405.000000	99.082372 
3404.000000	99.078697 
3403.000000	99.075437 
3402.000000	99.074853 
3401.000000	99.077326 
3400.000000	99.081483 
3399.000000	99.085581 
3398.000000	99.088780 
3397.000000	99.091376 
3396.000000	99.093834 
3395.000000	99.095590 
3394.000000	99.095314 
3393.000000	99.092687 
3392.000000	99.089352 
3391.000000	99.087329 
3390.000000	99.086746 
3389.000000	99.086053 
3388.000000	99.084420 
3387.000000	99.082872 
3386.000000	99.082703 
3385.000000	99.083653 
3384.000000	99.084359 
3383.000000	99.084100 
3382.000000	99.083297 
3381.000000	99.082438 
3380.000000	99.081344 
3379.000000	99.079806 
3378.000000	99.078563 
3377.000000	99.079071 
3376.000000	99.082156 
3375.000000	99.087144 
3374.000000	99.092491 
3373.000000	99.096899 
3372.000000	99.099540 
3371.000000	99.099749 
3370.000000	99.097602 
3369.000000	99.094859 
3368.000000	99.094028 
3367.000000	99.095589 
3366.000000	99.096810 
3365.000000	99.094437 
3364.000000	99.088461 
3363.000000	99.082368 
3362.000000	99.079672 
3361.000000	99.080832 
3360.000000	99.083516 
3359.000000	99.085145 
3358.000000	99.085088 
3357.000000	99.084979 
3356.000000	99.087079 
3355.000000	99.091757 
3354.000000	99.096529 
3353.000000	99.098269 
3352.000000	99.096574 
3351.000000	99.094369 
3350.000000	99.094925 
3349.000000	99.098812 
3348.000000	99.103953 
3347.000000	99.107882 
3346.000000	99.109436 
3345.000000	99.108928 
3344.000000	99.107581 
3343.000000	99.106557 
3342.000000	99.105953 
3341.000000	99.104927 
3340.000000	99.103170 
3339.000000	99.101759 
3338.000000	99.101855 
3337.000000	99.102835 
3336.000000	99.102736 
3335.000000	99.100822 
3334.000000	99.098928 
3333.000000	99.099758 
3332.000000	99.104086 
3331.000000	99.109911 
3330.000000	99.114238 
3329.000000	99.115637 
3328.000000	99.115199 
3327.000000	99.115065 
3326.000000	99.115976 
3325.000000	99.116649 
3324.000000	99.115832 
3323.000000	99.114513 
3322.000000	99.115164 
3321.000000	99.118638 
3320.000000	99.122536 
3319.000000	99.123344 
3318.000000	99.120124 
3317.000000	99.115684 
3316.000000	99.114040 
3315.000000	99.116815 
3314.000000	99.121987 
3313.000000	99.126015 
3312.000000	99.127081 
3311.000000	99.126282 
3310.000000	99.125788 
3309.000000	99.126377 
3308.000000	99.127254 
3307.000000	99.127803 
3306.000000	99.128330 
3305.000000	99.128738 
3304.000000	99.127640 
3303.000000	99.123938 
3302.000000	99.118941 
3301.000000	99.115738 
3300.000000	99.116196 
3299.000000	99.119300 
3298.000000	99.122610 
3297.000000	99.124711 
3296.000000	99.125938 
3295.000000	99.127372 
3294.000000	99.129727 
3293.000000	99.132884 
3292.000000	99.135931 
3291.000000	99.137766 
3290.000000	99.138076 
3289.000000	99.137624 
3288.000000	99.137398 
3287.000000	99.137734 
3286.000000	99.138438 
3285.000000	99.139324 
3284.000000	99.140192 
3283.000000	99.140608 
3282.000000	99.140279 
3281.000000	99.139446 
3280.000000	99.138341 
3279.000000	99.136606 
3278.000000	99.134062 
3277.000000	99.131830 
3276.000000	99.131610 
3275.000000	99.133577 
3274.000000	99.135800 
3273.000000	99.136122 
3272.000000	99.133976 
3271.000000	99.130244 
3270.000000	99.126284 
3269.000000	99.123655 
3268.000000	99.123952 
3267.000000	99.127884 
3266.000000	99.134576 
3265.000000	99.142272 
3264.000000	99.149601 
3263.000000	99.155914 
3262.000000	99.160952 
3261.000000	99.164695 
3260.000000	99.167099 
3259.000000	99.167546 
3258.000000	99.165092 
3257.000000	99.159816 
3256.000000	99.153539 
3255.000000	99.148722 
3254.000000	99.146847 
3253.000000	99.148105 
3252.000000	99.151910 
3251.000000	99.156907 
3250.000000	99.161148 
3249.000000	99.163438 
3248.000000	99.164454 
3247.000000	99.165640 
3246.000000	99.167048 
3245.000000	99.167254 
3244.000000	99.165765 
3243.000000	99.164750 
3242.000000	99.167724 
3241.000000	99.176300 
3240.000000	99.187914 
3239.000000	99.196755 
3238.000000	99.197937 
3237.000000	99.191698 
3236.000000	99.183210 
3235.000000	99.177704 
3234.000000	99.176195 
3233.000000	99.176549 
3232.000000	99.177592 
3231.000000	99.180291 
3230.000000	99.185016 
3229.000000	99.189605 
3228.000000	99.191119 
3227.000000	99.188586 
3226.000000	99.183416 
3225.000000	99.178060 
3224.000000	99.174875 
3223.000000	99.175288 
3222.000000	99.179000 
3221.000000	99.184240 
3220.000000	99.189309 
3219.000000	99.193549 
3218.000000	99.196665 
3217.000000	99.198038 
3216.000000	99.197509 
3215.000000	99.196284 
3214.000000	99.196053 
3213.000000	99.197271 
3212.000000	99.198992 
3211.000000	99.200380 
3210.000000	99.201744 
3209.000000	99.204066 
3208.000000	99.207945 
3207.000000	99.213046 
3206.000000	99.218286 
3205.000000	99.222506 
3204.000000	99.225194 
3203.000000	99.226535 
3202.000000	99.226919 
3201.000000	99.226778 
3200.000000	99.226817 
3199.000000	99.227637 
3198.000000	99.228833 
3197.000000	99.229274 
3196.000000	99.228872 
3195.000000	99.229241 
3194.000000	99.231559 
3193.000000	99.234321 
3192.000000	99.234559 
3191.000000	99.231358 
3190.000000	99.227120 
3189.000000	99.225094 
3188.000000	99.226539 
3187.000000	99.230538 
3186.000000	99.235472 
3185.000000	99.239853 
3184.000000	99.242389 
3183.000000	99.242415 
3182.000000	99.240437 
3181.000000	99.237723 
3180.000000	99.235323 
3179.000000	99.233672 
3178.000000	99.232776 
3177.000000	99.232172 
3176.000000	99.230900 
3175.000000	99.228413 
3174.000000	99.225906 
3173.000000	99.226034 
3172.000000	99.230394 
3171.000000	99.237264 
3170.000000	99.242690 
3169.000000	99.244319 
3168.000000	99.243767 
3167.000000	99.244652 
3166.000000	99.248633 
3165.000000	99.254066 
3164.000000	99.258388 
3163.000000	99.260783 
3162.000000	99.262118 
3161.000000	99.263211 
3160.000000	99.264201 
3159.000000	99.265219 
3158.000000	99.266479 
3157.000000	99.267463 
3156.000000	99.266885 
3155.000000	99.264052 
3154.000000	99.259955 
3153.000000	99.256664 
3152.000000	99.255637 
3151.000000	99.256597 
3150.000000	99.257926 
3149.000000	99.258355 
3148.000000	99.258508 
3147.000000	99.260442 
3146.000000	99.265061 
3145.000000	99.270308 
3144.000000	99.272975 
3143.000000	99.272517 
3142.000000	99.271984 
3141.000000	99.274458 
3140.000000	99.279267 
3139.000000	99.282640 
3138.000000	99.281947 
3137.000000	99.278439 
3136.000000	99.275623 
3135.000000	99.275586 
3134.000000	99.277391 
3133.000000	99.278737 
3132.000000	99.278540 
3131.000000	99.277577 
3130.000000	99.276869 
3129.000000	99.276135 
3128.000000	99.274340 
3127.000000	99.271510 
3126.000000	99.269213 
3125.000000	99.268913 
3124.000000	99.270364 
3123.000000	99.272015 
3122.000000	99.272622 
3121.000000	99.272206 
3120.000000	99.271804 
3119.000000	99.272537 
3118.000000	99.274582 
3117.000000	99.276792 
3116.000000	99.277696 
3115.000000	99.277116 
3114.000000	99.276240 
3113.000000	99.275733 
3112.000000	99.274630 
3111.000000	99.272008 
3110.000000	99.269051 
3109.000000	99.268087 
3108.000000	99.269618 
3107.000000	99.271594 
3106.000000	99.271950 
3105.000000	99.270789 
3104.000000	99.269728 
3103.000000	99.270129 
3102.000000	99.272528 
3101.000000	99.276815 
3100.000000	99.281892 
3099.000000	99.285630 
3098.000000	99.286427 
3097.000000	99.285039 
3096.000000	99.284051 
3095.000000	99.285175 
3094.000000	99.287648 
3093.000000	99.289480 
3092.000000	99.289509 
3091.000000	99.287865 
3090.000000	99.285280 
3089.000000	99.282878 
3088.000000	99.282238 
3087.000000	99.284411 
3086.000000	99.288536 
3085.000000	99.292221 
3084.000000	99.293774 
3083.000000	99.293555 
3082.000000	99.292834 
3081.000000	99.292029 
3080.000000	99.290729 
3079.000000	99.288867 
3078.000000	99.286870 
3077.000000	99.284814 
3076.000000	99.282469 
3075.000000	99.280370 
3074.000000	99.279895 
3073.000000	99.281789 
3072.000000	99.285306 
3071.000000	99.289240 
3070.000000	99.293002 
3069.000000	99.295968 
3068.000000	99.296560 
3067.000000	99.293390 
3066.000000	99.287430 
3065.000000	99.281906 
3064.000000	99.279436 
3063.000000	99.279730 
3062.000000	99.280535 
3061.000000	99.280403 
3060.000000	99.280034 
3059.000000	99.281098 
3058.000000	99.284264 
3057.000000	99.288457 
3056.000000	99.291772 
3055.000000	99.292966 
3054.000000	99.292190 
3053.000000	99.290491 
3052.000000	99.288927 
3051.000000	99.288264 
3050.000000	99.289027 
3049.000000	99.291028 
3048.000000	99.292618 
3047.000000	99.291251 
3046.000000	99.285725 
3045.000000	99.277879 
3044.000000	99.271413 
3043.000000	99.268814 
3042.000000	99.269694 
3041.000000	99.271988 
3040.000000	99.274030 
3039.000000	99.275311 
3038.000000	99.275981 
3037.000000	99.276351 
3036.000000	99.276644 
3035.000000	99.276657 
3034.000000	99.275682 
3033.000000	99.273199 
3032.000000	99.269581 
3031.000000	99.265807 
3030.000000	99.262472 
3029.000000	99.259348 
3028.000000	99.255879 
3027.000000	99.251906 
3026.000000	99.247873 
3025.000000	99.244408 
3024.000000	99.241573 
3023.000000	99.238349 
3022.000000	99.233104 
3021.000000	99.225067 
3020.000000	99.215514 
3019.000000	99.207201 
3018.000000	99.202326 
3017.000000	99.200880 
3016.000000	99.200748 
3015.000000	99.199187 
3014.000000	99.194435 
3013.000000	99.186473 
3012.000000	99.176500 
3011.000000	99.165579 
3010.000000	99.153915 
3009.000000	99.141701 
3008.000000	99.130404 
3007.000000	99.122444 
3006.000000	99.119197 
3005.000000	99.119409 
3004.000000	99.119650 
3003.000000	99.116319 
3002.000000	99.107718 
3001.000000	99.095185 
3000.000000	99.082497 
2999.000000	99.073262 
2998.000000	99.068233 
2997.000000	99.065494 
2996.000000	99.063352 
2995.000000	99.061885 
2994.000000	99.060805 
2993.000000	99.057056 
2992.000000	99.046761 
2991.000000	99.029960 
2990.000000	99.011910 
2989.000000	98.998726 
2988.000000	98.992335 
2987.000000	98.990315 
2986.000000	98.989724 
2985.000000	98.989920 
2984.000000	98.991740 
2983.000000	98.995164 
2982.000000	98.998445 
2981.000000	98.999338 
2980.000000	98.996938 
2979.000000	98.992368 
2978.000000	98.987661 
2977.000000	98.983932 
2976.000000	98.980625 
2975.000000	98.976440 
2974.000000	98.970665 
2973.000000	98.963532 
2972.000000	98.955735 
2971.000000	98.947983 
2970.000000	98.940788 
2969.000000	98.934224 
2968.000000	98.927977 
2967.000000	98.921997 
2966.000000	98.917039 
2965.000000	98.914219 
2964.000000	98.914006 
2963.000000	98.915880 
2962.000000	98.918763 
2961.000000	98.921310 
2960.000000	98.922047 
2959.000000	98.920220 
2958.000000	98.917068 
2957.000000	98.915525 
2956.000000	98.917641 
2955.000000	98.922223 
2954.000000	98.925821 
2953.000000	98.926651 
2952.000000	98.927059 
2951.000000	98.931229 
2950.000000	98.940154 
2949.000000	98.949523 
2948.000000	98.953257 
2947.000000	98.948919 
2946.000000	98.939148 
2945.000000	98.928141 
2944.000000	98.917959 
2943.000000	98.908481 
2942.000000	98.899267 
2941.000000	98.889762 
2940.000000	98.878133 
2939.000000	98.861824 
2938.000000	98.840055 
2937.000000	98.815054 
2936.000000	98.790371 
2935.000000	98.768491 
2934.000000	98.750087 
2933.000000	98.734298 
2932.000000	98.718903 
2931.000000	98.701080 
2930.000000	98.679345 
2929.000000	98.654929 
2928.000000	98.630859 
2927.000000	98.609751 
2926.000000	98.592752 
2925.000000	98.579996 
2924.000000	98.571428 
2923.000000	98.567345 
2922.000000	98.568603 
2921.000000	98.576050 
2920.000000	98.589309 
2919.000000	98.606507 
2918.000000	98.625752 
2917.000000	98.646588 
2916.000000	98.669503 
2915.000000	98.694529 
2914.000000	98.721099 
2913.000000	98.748767 
2912.000000	98.776727 
2911.000000	98.802574 
2910.000000	98.823024 
2909.000000	98.836772 
2908.000000	98.845976 
2907.000000	98.854126 
2906.000000	98.862769 
2905.000000	98.870765 
2904.000000	98.876202 
2903.000000	98.878558 
2902.000000	98.879499 
2901.000000	98.882314 
2900.000000	98.889937 
2899.000000	98.902519 
2898.000000	98.916830 
2897.000000	98.928970 
2896.000000	98.938034 
2895.000000	98.946567 
2894.000000	98.957292 
2893.000000	98.969922 
2892.000000	98.981513 
2891.000000	98.989413 
2890.000000	98.993440 
2889.000000	98.995613 
2888.000000	98.998345 
2887.000000	99.002799 
2886.000000	99.008439 
2885.000000	99.013854 
2884.000000	99.018105 
2883.000000	99.021440 
2882.000000	99.024811 
2881.000000	99.028886 
2880.000000	99.033693 
2879.000000	99.039125 
2878.000000	99.045391 
2877.000000	99.052551 
2876.000000	99.059565 
2875.000000	99.064190 
2874.000000	99.064414 
2873.000000	99.060365 
2872.000000	99.054667 
2871.000000	99.050596 
2870.000000	99.049683 
2869.000000	99.050965 
2868.000000	99.052373 
2867.000000	99.052732 
2866.000000	99.052536 
2865.000000	99.052929 
2864.000000	99.053816 
2863.000000	99.052859 
2862.000000	99.046629 
2861.000000	99.033316 
2860.000000	99.014706 
2859.000000	98.995290 
2858.000000	98.979009 
2857.000000	98.966694 
2856.000000	98.956573 
2855.000000	98.947283 
2854.000000	98.940152 
2853.000000	98.938426 
2852.000000	98.944500 
2851.000000	98.958290 
2850.000000	98.978289 
2849.000000	99.003317 
2848.000000	99.032451 
2847.000000	99.063589 
2846.000000	99.093270 
2845.000000	99.118587 
2844.000000	99.138992 
2843.000000	99.155949 
2842.000000	99.171227 
2841.000000	99.185813 
2840.000000	99.199823 
2839.000000	99.212528 
2838.000000	99.222497 
2837.000000	99.228486 
2836.000000	99.230693 
2835.000000	99.231175 
2834.000000	99.232911 
2833.000000	99.238187 
2832.000000	99.247144 
2831.000000	99.257473 
2830.000000	99.265995 
2829.000000	99.271280 
2828.000000	99.274725 
2827.000000	99.278522 
2826.000000	99.282811 
2825.000000	99.285682 
2824.000000	99.286114 
2823.000000	99.285950 
2822.000000	99.288157 
2821.000000	99.293490 
2820.000000	99.299608 
2819.000000	99.303618 
2818.000000	99.304999 
2817.000000	99.305723 
2816.000000	99.307814 
2815.000000	99.311323 
2814.000000	99.314804 
2813.000000	99.317187 
2812.000000	99.318486 
2811.000000	99.318860 
2810.000000	99.317962 
2809.000000	99.315749 
2808.000000	99.313267 
2807.000000	99.311884 
2806.000000	99.311946 
2805.000000	99.312793 
2804.000000	99.313958 
2803.000000	99.315705 
2802.000000	99.318366 
2801.000000	99.321568 
2800.000000	99.324160 
2799.000000	99.324764 
2798.000000	99.322843 
2797.000000	99.319670 
2796.000000	99.317720 
2795.000000	99.318270 
2794.000000	99.319885 
2793.000000	99.320157 
2792.000000	99.318738 
2791.000000	99.317667 
2790.000000	99.318767 
2789.000000	99.321846 
2788.000000	99.325550 
2787.000000	99.328829 
2786.000000	99.331195 
2785.000000	99.332679 
2784.000000	99.334081 
2783.000000	99.336232 
2782.000000	99.338389 
2781.000000	99.338431 
2780.000000	99.335478 
2779.000000	99.331443 
2778.000000	99.329037 
2777.000000	99.328963 
2776.000000	99.329951 
2775.000000	99.330742 
2774.000000	99.330834 
2773.000000	99.329879 
2772.000000	99.327893 
2771.000000	99.326068 
2770.000000	99.326219 
2769.000000	99.329111 
2768.000000	99.333951 
2767.000000	99.339353 
2766.000000	99.344083 
2765.000000	99.347114 
2764.000000	99.348047 
2763.000000	99.347653 
2762.000000	99.347256 
2761.000000	99.347517 
2760.000000	99.348384 
2759.000000	99.349913 
2758.000000	99.352206 
2757.000000	99.354691 
2756.000000	99.356535 
2755.000000	99.357782 
2754.000000	99.358984 
2753.000000	99.359626 
2752.000000	99.358223 
2751.000000	99.354440 
2750.000000	99.349995 
2749.000000	99.346821 
2748.000000	99.345128 
2747.000000	99.343885 
2746.000000	99.342390 
2745.000000	99.340723 
2744.000000	99.339384 
2743.000000	99.339129 
2742.000000	99.340569 
2741.000000	99.343261 
2740.000000	99.345805 
2739.000000	99.347432 
2738.000000	99.348873 
2737.000000	99.350979 
2736.000000	99.353104 
2735.000000	99.353727 
2734.000000	99.352255 
2733.000000	99.349425 
2732.000000	99.346320 
2731.000000	99.343835 
2730.000000	99.342754 
2729.000000	99.343442 
2728.000000	99.345488 
2727.000000	99.348205 
2726.000000	99.351212 
2725.000000	99.354008 
2724.000000	99.355610 
2723.000000	99.355600 
2722.000000	99.355109 
2721.000000	99.355608 
2720.000000	99.356824 
2719.000000	99.356943 
2718.000000	99.354926 
2717.000000	99.351630 
2716.000000	99.348757 
2715.000000	99.347837 
2714.000000	99.350160 
2713.000000	99.355967 
2712.000000	99.362990 
2711.000000	99.367253 
2710.000000	99.366711 
2709.000000	99.363464 
2708.000000	99.361241 
2707.000000	99.361129 
2706.000000	99.360845 
2705.000000	99.358097 
2704.000000	99.353619 
2703.000000	99.350515 
2702.000000	99.351135 
2701.000000	99.354869 
2700.000000	99.358792 
2699.000000	99.360291 
2698.000000	99.359033 
2697.000000	99.356549 
2696.000000	99.354462 
2695.000000	99.353650 
2694.000000	99.354618 
2693.000000	99.357280 
2692.000000	99.359993 
2691.000000	99.360147 
2690.000000	99.356973 
2689.000000	99.353238 
2688.000000	99.352860 
2687.000000	99.356801 
2686.000000	99.362109 
2685.000000	99.365008 
2684.000000	99.364251 
2683.000000	99.361456 
2682.000000	99.359064 
2681.000000	99.358385 
2680.000000	99.359079 
2679.000000	99.359907 
2678.000000	99.359971 
2677.000000	99.359463 
2676.000000	99.359389 
2675.000000	99.360670 
2674.000000	99.363413 
2673.000000	99.366684 
2672.000000	99.368854 
2671.000000	99.368563 
2670.000000	99.365627 
2669.000000	99.360927 
2668.000000	99.355504 
2667.000000	99.350400 
2666.000000	99.347324 
2665.000000	99.348248 
2664.000000	99.353412 
2663.000000	99.360387 
2662.000000	99.366027 
2661.000000	99.368996 
2660.000000	99.369675 
2659.000000	99.368396 
2658.000000	99.365208 
2657.000000	99.361193 
2656.000000	99.358412 
2655.000000	99.358008 
2654.000000	99.359117 
2653.000000	99.359906 
2652.000000	99.359024 
2651.000000	99.356171 
2650.000000	99.352235 
2649.000000	99.348939 
2648.000000	99.347397 
2647.000000	99.347047 
2646.000000	99.346949 
2645.000000	99.347778 
2644.000000	99.350842 
2643.000000	99.355137 
2642.000000	99.357460 
2641.000000	99.356320 
2640.000000	99.354043 
2639.000000	99.353911 
2638.000000	99.356628 
2637.000000	99.360534 
2636.000000	99.363707 
2635.000000	99.364617 
2634.000000	99.362481 
2633.000000	99.358837 
2632.000000	99.357445 
2631.000000	99.360442 
2630.000000	99.365375 
2629.000000	99.368001 
2628.000000	99.367347 
2627.000000	99.366023 
2626.000000	99.366241 
2625.000000	99.367942 
2624.000000	99.370540 
2623.000000	99.373842 
2622.000000	99.376815 
2621.000000	99.377815 
2620.000000	99.376853 
2619.000000	99.375698 
2618.000000	99.374913 
2617.000000	99.372643 
2616.000000	99.367497 
2615.000000	99.361099 
2614.000000	99.356474 
2613.000000	99.355046 
2612.000000	99.356450 
2611.000000	99.360248 
2610.000000	99.366239 
2609.000000	99.373346 
2608.000000	99.379447 
2607.000000	99.382694 
2606.000000	99.382771 
2605.000000	99.380933 
2604.000000	99.378837 
2603.000000	99.377076 
2602.000000	99.375057 
2601.000000	99.372762 
2600.000000	99.372002 
2599.000000	99.374769 
2598.000000	99.380565 
2597.000000	99.386535 
2596.000000	99.390010 
2595.000000	99.389617 
2594.000000	99.384524 
2593.000000	99.375162 
2592.000000	99.365247 
2591.000000	99.360491 
2590.000000	99.363576 
2589.000000	99.371697 
2588.000000	99.380106 
2587.000000	99.386275 
2586.000000	99.389258 
2585.000000	99.387392 
2584.000000	99.379822 
2583.000000	99.369666 
2582.000000	99.362634 
2581.000000	99.361665 
2580.000000	99.364438 
2579.000000	99.366616 
2578.000000	99.366274 
2577.000000	99.364876 
2576.000000	99.365116 
2575.000000	99.368322 
2574.000000	99.373146 
2573.000000	99.376365 
2572.000000	99.375555 
2571.000000	99.371259 
2570.000000	99.366247 
2569.000000	99.362920 
2568.000000	99.362003 
2567.000000	99.363260 
2566.000000	99.366226 
2565.000000	99.369981 
2564.000000	99.373099 
2563.000000	99.374261 
2562.000000	99.372706 
2561.000000	99.368584 
2560.000000	99.363783 
2559.000000	99.361874 
2558.000000	99.365353 
2557.000000	99.372258 
2556.000000	99.377076 
2555.000000	99.376367 
2554.000000	99.372744 
2553.000000	99.371914 
2552.000000	99.376161 
2551.000000	99.382230 
2550.000000	99.385606 
2549.000000	99.385170 
2548.000000	99.382736 
2547.000000	99.379491 
2546.000000	99.374983 
2545.000000	99.369534 
2544.000000	99.365599 
2543.000000	99.365491 
2542.000000	99.368706 
2541.000000	99.372728 
2540.000000	99.375958 
2539.000000	99.378440 
2538.000000	99.379828 
2537.000000	99.378383 
2536.000000	99.373072 
2535.000000	99.365878 
2534.000000	99.360872 
2533.000000	99.360836 
2532.000000	99.365090 
2531.000000	99.370444 
2530.000000	99.373900 
2529.000000	99.374648 
2528.000000	99.374004 
2527.000000	99.373734 
2526.000000	99.374520 
2525.000000	99.376047 
2524.000000	99.378222 
2523.000000	99.381602 
2522.000000	99.386330 
2521.000000	99.391111 
2520.000000	99.393936 
2519.000000	99.393973 
2518.000000	99.392393 
2517.000000	99.391074 
2516.000000	99.390605 
2515.000000	99.390041 
2514.000000	99.388807 
2513.000000	99.388058 
2512.000000	99.389027 
2511.000000	99.390277 
2510.000000	99.388436 
2509.000000	99.382763 
2508.000000	99.377478 
2507.000000	99.377468 
2506.000000	99.382043 
2505.000000	99.385080 
2504.000000	99.381928 
2503.000000	99.374536 
2502.000000	99.368937 
2501.000000	99.369152 
2500.000000	99.374771 
2499.000000	99.383262 
2498.000000	99.392627 
2497.000000	99.401547 
2496.000000	99.408434 
2495.000000	99.411432 
2494.000000	99.409381 
2493.000000	99.402573 
2492.000000	99.392579 
2491.000000	99.381460 
2490.000000	99.371203 
2489.000000	99.363569 
2488.000000	99.359690 
2487.000000	99.359365 
2486.000000	99.361316 
2485.000000	99.364790 
2484.000000	99.370303 
2483.000000	99.377869 
2482.000000	99.385117 
2481.000000	99.388831 
2480.000000	99.388482 
2479.000000	99.386655 
2478.000000	99.385509 
2477.000000	99.384431 
2476.000000	99.382111 
2475.000000	99.379442 
2474.000000	99.378766 
2473.000000	99.380928 
2472.000000	99.384624 
2471.000000	99.388381 
2470.000000	99.391655 
2469.000000	99.393667 
2468.000000	99.392526 
2467.000000	99.386772 
2466.000000	99.377865 
2465.000000	99.370439 
2464.000000	99.369087 
2463.000000	99.374208 
2462.000000	99.381127 
2461.000000	99.384058 
2460.000000	99.381314 
2459.000000	99.376365 
2458.000000	99.373939 
2457.000000	99.375741 
2456.000000	99.379809 
2455.000000	99.382727 
2454.000000	99.381914 
2453.000000	99.376883 
2452.000000	99.369599 
2451.000000	99.363418 
2450.000000	99.360819 
2449.000000	99.361956 
2448.000000	99.365395 
2447.000000	99.369689 
2446.000000	99.373888 
2445.000000	99.377408 
2444.000000	99.380408 
2443.000000	99.383922 
2442.000000	99.388555 
2441.000000	99.392865 
2440.000000	99.393891 
2439.000000	99.389943 
2438.000000	99.382927 
2437.000000	99.377501 
2436.000000	99.377252 
2435.000000	99.381152 
2434.000000	99.384086 
2433.000000	99.381604 
2432.000000	99.374250 
2431.000000	99.366733 
2430.000000	99.363241 
2429.000000	99.364596 
2428.000000	99.369676 
2427.000000	99.377522 
2426.000000	99.386726 
2425.000000	99.393997 
2424.000000	99.395415 
2423.000000	99.389722 
2422.000000	99.379783 
2421.000000	99.370597 
2420.000000	99.365807 
2419.000000	99.365661 
2418.000000	99.367750 
2417.000000	99.369592 
2416.000000	99.370430 
2415.000000	99.370567 
2414.000000	99.369781 
2413.000000	99.367666 
2412.000000	99.365294 
2411.000000	99.364856 
2410.000000	99.366970 
2409.000000	99.369676 
2408.000000	99.371046 
2407.000000	99.371665 
2406.000000	99.373281 
2405.000000	99.375901 
2404.000000	99.377773 
2403.000000	99.377891 
2402.000000	99.377108 
2401.000000	99.376614 
2400.000000	99.376390 
2399.000000	99.375527 
2398.000000	99.373605 
2397.000000	99.371558 
2396.000000	99.371274 
2395.000000	99.373951 
2394.000000	99.378505 
2393.000000	99.382078 
2392.000000	99.382801 
2391.000000	99.381885 
2390.000000	99.382369 
2389.000000	99.385929 
2388.000000	99.391268 
2387.000000	99.395430 
2386.000000	99.396309 
2385.000000	99.394141 
2384.000000	99.391121 
2383.000000	99.389605 
2382.000000	99.390474 
2381.000000	99.393071 
2380.000000	99.396245 
2379.000000	99.398760 
2378.000000	99.399126 
2377.000000	99.396758 
2376.000000	99.393663 
2375.000000	99.393465 
2374.000000	99.397271 
2373.000000	99.401941 
2372.000000	99.404712 
2371.000000	99.408207 
2370.000000	99.417424 
2369.000000	99.431565 
2368.000000	99.441928 
2367.000000	99.439696 
2366.000000	99.424777 
2365.000000	99.406645 
2364.000000	99.396266 
2363.000000	99.396811 
2362.000000	99.403712 
2361.000000	99.409941 
2360.000000	99.411200 
2359.000000	99.409662 
2358.000000	99.409368 
2357.000000	99.412922 
2356.000000	99.419611 
2355.000000	99.425862 
2354.000000	99.428838 
2353.000000	99.427347 
2352.000000	99.425278 
2351.000000	99.425869 
2350.000000	99.426739 
2349.000000	99.423853 
2348.000000	99.415458 
2347.000000	99.406737 
2346.000000	99.401820 
2345.000000	99.400102 
2344.000000	99.398336 
2343.000000	99.395296 
2342.000000	99.396081 
2341.000000	99.402187 
2340.000000	99.410080 
2339.000000	99.414069 
2338.000000	99.413418 
2337.000000	99.411500 
2336.000000	99.411520 
2335.000000	99.412898 
2334.000000	99.413571 
2333.000000	99.411090 
2332.000000	99.405414 
2331.000000	99.397678 
2330.000000	99.389146 
2329.000000	99.383001 
2328.000000	99.380223 
2327.000000	99.382961 
2326.000000	99.388792 
2325.000000	99.393508 
2324.000000	99.393229 
2323.000000	99.388487 
2322.000000	99.385432 
2321.000000	99.387784 
2320.000000	99.395075 
2319.000000	99.402825 
2318.000000	99.408305 
2317.000000	99.410555 
2316.000000	99.409732 
2315.000000	99.406993 
2314.000000	99.403943 
2313.000000	99.402204 
2312.000000	99.401586 
2311.000000	99.402546 
2310.000000	99.405658 
2309.000000	99.411072 
2308.000000	99.415528 
2307.000000	99.415116 
2306.000000	99.408156 
2305.000000	99.397210 
2304.000000	99.386498 
2303.000000	99.379387 
2302.000000	99.376742 
2301.000000	99.377024 
2300.000000	99.376662 
2299.000000	99.372909 
2298.000000	99.366017 
2297.000000	99.360081 
2296.000000	99.358959 
2295.000000	99.363274 
2294.000000	99.369329 
2293.000000	99.372949 
2292.000000	99.372405 
2291.000000	99.369408 
2290.000000	99.366626 
2289.000000	99.365589 
2288.000000	99.366152 
2287.000000	99.367439 
2286.000000	99.368561 
2285.000000	99.368804 
2284.000000	99.368032 
2283.000000	99.366524 
2282.000000	99.364014 
2281.000000	99.359031 
2280.000000	99.351209 
2279.000000	99.344216 
2278.000000	99.344587 
2277.000000	99.355321 
2276.000000	99.371670 
2275.000000	99.385101 
2274.000000	99.390861 
2273.000000	99.389924 
2272.000000	99.384104 
2271.000000	99.373207 
2270.000000	99.358655 
2269.000000	99.347133 
2268.000000	99.346493 
2267.000000	99.357726 
2266.000000	99.373065 
2265.000000	99.382811 
2264.000000	99.383052 
2263.000000	99.377399 
2262.000000	99.373170 
2261.000000	99.376217 
2260.000000	99.386638 
2259.000000	99.397601 
2258.000000	99.400103 
2257.000000	99.390921 
2256.000000	99.375759 
2255.000000	99.363032 
2254.000000	99.355927 
2253.000000	99.352369 
2252.000000	99.351369 
2251.000000	99.355636 
2250.000000	99.366878 
2249.000000	99.381675 
2248.000000	99.394250 
2247.000000	99.402120 
2246.000000	99.406571 
2245.000000	99.408342 
2244.000000	99.405347 
2243.000000	99.395861 
2242.000000	99.382513 
2241.000000	99.371359 
2240.000000	99.366453 
2239.000000	99.366073 
2238.000000	99.364860 
2237.000000	99.358955 
2236.000000	99.348245 
2235.000000	99.334500 
2234.000000	99.319896 
2233.000000	99.308380 
2232.000000	99.305993 
2231.000000	99.316686 
2230.000000	99.337548 
2229.000000	99.359957 
2228.000000	99.376315 
2227.000000	99.384803 
2226.000000	99.387585 
2225.000000	99.386472 
2224.000000	99.381616 
2223.000000	99.373448 
2222.000000	99.364215 
2221.000000	99.356793 
2220.000000	99.352009 
2219.000000	99.347999 
2218.000000	99.343376 
2217.000000	99.340854 
2216.000000	99.345742 
2215.000000	99.359473 
2214.000000	99.375819 
2213.000000	99.385158 
2212.000000	99.382570 
2211.000000	99.371456 
2210.000000	99.360587 
2209.000000	99.358376 
2208.000000	99.367357 
2207.000000	99.381597 
2206.000000	99.390471 
2205.000000	99.387182 
2204.000000	99.373393 
2203.000000	99.355237 
2202.000000	99.337996 
2201.000000	99.326399 
2200.000000	99.324963 
2199.000000	99.332533 
2198.000000	99.339339 
2197.000000	99.336403 
2196.000000	99.327742 
2195.000000	99.327055 
2194.000000	99.341450 
2193.000000	99.363672 
2192.000000	99.381145 
2191.000000	99.387308 
2190.000000	99.382765 
2189.000000	99.371740 
2188.000000	99.360600 
2187.000000	99.355236 
2186.000000	99.356676 
2185.000000	99.361855 
2184.000000	99.369277 
2183.000000	99.379427 
2182.000000	99.389347 
2181.000000	99.393907 
2180.000000	99.394705 
2179.000000	99.399652 
2178.000000	99.409589 
2177.000000	99.412662 
2176.000000	99.398199 
2175.000000	99.371205 
2174.000000	99.346665 
2173.000000	99.333121 
2172.000000	99.327832 
2171.000000	99.325167 
2170.000000	99.323437 
2169.000000	99.324546 
2168.000000	99.331260 
2167.000000	99.343814 
2166.000000	99.356469 
2165.000000	99.360157 
2164.000000	99.352181 
2163.000000	99.340472 
2162.000000	99.335292 
2161.000000	99.340503 
2160.000000	99.355171 
2159.000000	99.376969 
2158.000000	99.398595 
2157.000000	99.408520 
2156.000000	99.403264 
2155.000000	99.392457 
2154.000000	99.386183 
2153.000000	99.383662 
2152.000000	99.379592 
2151.000000	99.375845 
2150.000000	99.379448 
2149.000000	99.392061 
2148.000000	99.407928 
2147.000000	99.420126 
2146.000000	99.423495 
2145.000000	99.414959 
2144.000000	99.397629 
2143.000000	99.381811 
2142.000000	99.375354 
2141.000000	99.374740 
2140.000000	99.371488 
2139.000000	99.365079 
2138.000000	99.362292 
2137.000000	99.365125 
2136.000000	99.367685 
2135.000000	99.366357 
2134.000000	99.365713 
2133.000000	99.371073 
2132.000000	99.380152 
2131.000000	99.385274 
2130.000000	99.381166 
2129.000000	99.369152 
2128.000000	99.355863 
2127.000000	99.348256 
2126.000000	99.348144 
2125.000000	99.351689 
2124.000000	99.355660 
2123.000000	99.362273 
2122.000000	99.374565 
2121.000000	99.388762 
2120.000000	99.396265 
2119.000000	99.393375 
2118.000000	99.384692 
2117.000000	99.376441 
2116.000000	99.370644 
2115.000000	99.366923 
2114.000000	99.365754 
2113.000000	99.367459 
2112.000000	99.370769 
2111.000000	99.374406 
2110.000000	99.378009 
2109.000000	99.380473 
2108.000000	99.379954 
2107.000000	99.376340 
2106.000000	99.370655 
2105.000000	99.361306 
2104.000000	99.345217 
2103.000000	99.325034 
2102.000000	99.311236 
2101.000000	99.312777 
2100.000000	99.327138 
2099.000000	99.342963 
2098.000000	99.351732 
2097.000000	99.354207 
2096.000000	99.356001 
2095.000000	99.359270 
2094.000000	99.359620 
2093.000000	99.351109 
2092.000000	99.334570 
2091.000000	99.320004 
2090.000000	99.318222 
2089.000000	99.329114 
2088.000000	99.340569 
2087.000000	99.341067 
2086.000000	99.331343 
2085.000000	99.321892 
2084.000000	99.320886 
2083.000000	99.327215 
2082.000000	99.334523 
2081.000000	99.338758 
2080.000000	99.340685 
2079.000000	99.342711 
2078.000000	99.345497 
2077.000000	99.348629 
2076.000000	99.353608 
2075.000000	99.363492 
2074.000000	99.377764 
2073.000000	99.389682 
2072.000000	99.391895 
2071.000000	99.384178 
2070.000000	99.372928 
2069.000000	99.363772 
2068.000000	99.357949 
2067.000000	99.355353 
2066.000000	99.356260 
2065.000000	99.358484 
2064.000000	99.357585 
2063.000000	99.353049 
2062.000000	99.350696 
2061.000000	99.355707 
2060.000000	99.365725 
2059.000000	99.374116 
2058.000000	99.378047 
2057.000000	99.379852 
2056.000000	99.381625 
2055.000000	99.381941 
2054.000000	99.378096 
2053.000000	99.369597 
2052.000000	99.359401 
2051.000000	99.352914 
2050.000000	99.354710 
2049.000000	99.363319 
2048.000000	99.369659 
2047.000000	99.364437 
2046.000000	99.347808 
2045.000000	99.329753 
2044.000000	99.321032 
2043.000000	99.325005 
2042.000000	99.337105 
2041.000000	99.349531 
2040.000000	99.356745 
2039.000000	99.358689 
2038.000000	99.359438 
2037.000000	99.362345 
2036.000000	99.366318 
2035.000000	99.366940 
2034.000000	99.360632 
2033.000000	99.347568 
2032.000000	99.331918 
2031.000000	99.319874 
2030.000000	99.315709 
2029.000000	99.317671 
2028.000000	99.318276 
2027.000000	99.311340 
2026.000000	99.299297 
2025.000000	99.292398 
2024.000000	99.299237 
2023.000000	99.317513 
2022.000000	99.334736 
2021.000000	99.338726 
2020.000000	99.328735 
2019.000000	99.315715 
2018.000000	99.311158 
2017.000000	99.316277 
2016.000000	99.322945 
2015.000000	99.324052 
2014.000000	99.319670 
2013.000000	99.313919 
2012.000000	99.309944 
2011.000000	99.309284 
2010.000000	99.313755 
2009.000000	99.325437 
2008.000000	99.344349 
2007.000000	99.366344 
2006.000000	99.383293 
2005.000000	99.387531 
2004.000000	99.378593 
2003.000000	99.364509 
2002.000000	99.354955 
2001.000000	99.352946 
2000.000000	99.354113 
1999.000000	99.352500 
1998.000000	99.345233 
1997.000000	99.333817 
1996.000000	99.323613 
1995.000000	99.321436 
1994.000000	99.330308 
1993.000000	99.345266 
1992.000000	99.356505 
1991.000000	99.358929 
1990.000000	99.356350 
1989.000000	99.355380 
1988.000000	99.358559 
1987.000000	99.364035 
1986.000000	99.368682 
1985.000000	99.369962 
1984.000000	99.366838 
1983.000000	99.360431 
1982.000000	99.352686 
1981.000000	99.343424 
1980.000000	99.330903 
1979.000000	99.316147 
1978.000000	99.304518 
1977.000000	99.300675 
1976.000000	99.302639 
1975.000000	99.304398 
1974.000000	99.304268 
1973.000000	99.308241 
1972.000000	99.323841 
1971.000000	99.350765 
1970.000000	99.377791 
1969.000000	99.390112 
1968.000000	99.381997 
1967.000000	99.362766 
1966.000000	99.347868 
1965.000000	99.343857 
1964.000000	99.344801 
1963.000000	99.342596 
1962.000000	99.336288 
1961.000000	99.330362 
1960.000000	99.327708 
1959.000000	99.327511 
1958.000000	99.328487 
1957.000000	99.330311 
1956.000000	99.332140 
1955.000000	99.332947 
1954.000000	99.333499 
1953.000000	99.335449 
1952.000000	99.337280 
1951.000000	99.334310 
1950.000000	99.324868 
1949.000000	99.314033 
1948.000000	99.309063 
1947.000000	99.310876 
1946.000000	99.312201 
1945.000000	99.305360 
1944.000000	99.291056 
1943.000000	99.278467 
1942.000000	99.276156 
1941.000000	99.283762 
1940.000000	99.294155 
1939.000000	99.302003 
1938.000000	99.308202 
1937.000000	99.316530 
1936.000000	99.327276 
1935.000000	99.335588 
1934.000000	99.337004 
1933.000000	99.333895 
1932.000000	99.333741 
1931.000000	99.340899 
1930.000000	99.351717 
1929.000000	99.358469 
1928.000000	99.358416 
1927.000000	99.355406 
1926.000000	99.353824 
1925.000000	99.353558 
1924.000000	99.351993 
1923.000000	99.349829 
1922.000000	99.350569 
1921.000000	99.354815 
1920.000000	99.357699 
1919.000000	99.352984 
1918.000000	99.339087 
1917.000000	99.321207 
1916.000000	99.306788 
1915.000000	99.299213 
1914.000000	99.297511 
1913.000000	99.300341 
1912.000000	99.307180 
1911.000000	99.316634 
1910.000000	99.325023 
1909.000000	99.329023 
1908.000000	99.330599 
1907.000000	99.334744 
1906.000000	99.342549 
1905.000000	99.348744 
1904.000000	99.347481 
1903.000000	99.340151 
1902.000000	99.333552 
1901.000000	99.332405 
1900.000000	99.335902 
1899.000000	99.339770 
1898.000000	99.340453 
1897.000000	99.337679 
1896.000000	99.333887 
1895.000000	99.331681 
1894.000000	99.330892 
1893.000000	99.329763 
1892.000000	99.328733 
1891.000000	99.330362 
1890.000000	99.334448 
1889.000000	99.336389 
1888.000000	99.333791 
1887.000000	99.330316 
1886.000000	99.329868 
1885.000000	99.331734 
1884.000000	99.333235 
1883.000000	99.334541 
1882.000000	99.337297 
1881.000000	99.340698 
1880.000000	99.343506 
1879.000000	99.347517 
1878.000000	99.355591 
1877.000000	99.366873 
1876.000000	99.375951 
1875.000000	99.377661 
1874.000000	99.370919 
1873.000000	99.357990 
1872.000000	99.342861 
1871.000000	99.330365 
1870.000000	99.324179 
1869.000000	99.323638 
1868.000000	99.325136 
1867.000000	99.327909 
1866.000000	99.332872 
1865.000000	99.337942 
1864.000000	99.339375 
1863.000000	99.336006 
1862.000000	99.330093 
1861.000000	99.324896 
1860.000000	99.323488 
1859.000000	99.328466 
1858.000000	99.339408 
1857.000000	99.351095 
1856.000000	99.357674 
1855.000000	99.358514 
1854.000000	99.357063 
1853.000000	99.354598 
1852.000000	99.350293 
1851.000000	99.345124 
1850.000000	99.342485 
1849.000000	99.345430 
1848.000000	99.352661 
1847.000000	99.359272 
1846.000000	99.360400 
1845.000000	99.355298 
1844.000000	99.348756 
1843.000000	99.347747 
1842.000000	99.353858 
1841.000000	99.361083 
1840.000000	99.363763 
1839.000000	99.361501 
1838.000000	99.357386 
1837.000000	99.353745 
1836.000000	99.351061 
1835.000000	99.350293 
1834.000000	99.351914 
1833.000000	99.354033 
1832.000000	99.354187 
1831.000000	99.351822 
1830.000000	99.348835 
1829.000000	99.348135 
1828.000000	99.350484 
1827.000000	99.353293 
1826.000000	99.353633 
1825.000000	99.351352 
1824.000000	99.347948 
1823.000000	99.344261 
1822.000000	99.339120 
1821.000000	99.331943 
1820.000000	99.326226 
1819.000000	99.327438 
1818.000000	99.337157 
1817.000000	99.349095 
1816.000000	99.354734 
1815.000000	99.353601 
1814.000000	99.351969 
1813.000000	99.354326 
1812.000000	99.359042 
1811.000000	99.363002 
1810.000000	99.367183 
1809.000000	99.372214 
1808.000000	99.374728 
1807.000000	99.371973 
1806.000000	99.365666 
1805.000000	99.359189 
1804.000000	99.353655 
1803.000000	99.348617 
1802.000000	99.343179 
1801.000000	99.336884 
1800.000000	99.330500 
1799.000000	99.326695 
1798.000000	99.328649 
1797.000000	99.335470 
1796.000000	99.342931 
1795.000000	99.347784 
1794.000000	99.349424 
1793.000000	99.348371 
1792.000000	99.344567 
1791.000000	99.339804 
1790.000000	99.337899 
1789.000000	99.338648 
1788.000000	99.339192 
1787.000000	99.339061 
1786.000000	99.340374 
1785.000000	99.343371 
1784.000000	99.345533 
1783.000000	99.345875 
1782.000000	99.344384 
1781.000000	99.341353 
1780.000000	99.337200 
1779.000000	99.332483 
1778.000000	99.329181 
1777.000000	99.328003 
1776.000000	99.328440 
1775.000000	99.328573 
1774.000000	99.326708 
1773.000000	99.324416 
1772.000000	99.324429 
1771.000000	99.326587 
1770.000000	99.328828 
1769.000000	99.328382 
1768.000000	99.324111 
1767.000000	99.318461 
1766.000000	99.314924 
1765.000000	99.314074 
1764.000000	99.313381 
1763.000000	99.310708 
1762.000000	99.305787 
1761.000000	99.300525 
1760.000000	99.296790 
1759.000000	99.294465 
1758.000000	99.293681 
1757.000000	99.294899 
1756.000000	99.297104 
1755.000000	99.296008 
1754.000000	99.288076 
1753.000000	99.275176 
1752.000000	99.264243 
1751.000000	99.258581 
1750.000000	99.253747 
1749.000000	99.244714 
1748.000000	99.232559 
1747.000000	99.222453 
1746.000000	99.216062 
1745.000000	99.211972 
1744.000000	99.207921 
1743.000000	99.202321 
1742.000000	99.196241 
1741.000000	99.192731 
1740.000000	99.194139 
1739.000000	99.200289 
1738.000000	99.208667 
1737.000000	99.214726 
1736.000000	99.216111 
1735.000000	99.217339 
1734.000000	99.222106 
1733.000000	99.227723 
1732.000000	99.233708 
1731.000000	99.237608 
1730.000000	99.237951 
1729.000000	99.236890 
1728.000000	99.237449 
1727.000000	99.240619 
1726.000000	99.245007 
1725.000000	99.249582 
1724.000000	99.252242 
1723.000000	99.251067 
1722.000000	99.247658 
1721.000000	99.244239 
1720.000000	99.241873 
1719.000000	99.241561 
1718.000000	99.243378 
1717.000000	99.243031 
1716.000000	99.238545 
1715.000000	99.234485 
1714.000000	99.233703 
1713.000000	99.233442 
1712.000000	99.229810 
1711.000000	99.224049 
1710.000000	99.220981 
1709.000000	99.223072 
1708.000000	99.228536 
1707.000000	99.234030 
1706.000000	99.237909 
1705.000000	99.239184 
1704.000000	99.238029 
1703.000000	99.235965 
1702.000000	99.235076 
1701.000000	99.238017 
1700.000000	99.239472 
1699.000000	99.237673 
1698.000000	99.240110 
1697.000000	99.243307 
1696.000000	99.241626 
1695.000000	99.235725 
1694.000000	99.233059 
1693.000000	99.234776 
1692.000000	99.235180 
1691.000000	99.233449 
1690.000000	99.231978 
1689.000000	99.231127 
1688.000000	99.230280 
1687.000000	99.228006 
1686.000000	99.225725 
1685.000000	99.227935 
1684.000000	99.230195 
1683.000000	99.227070 
1682.000000	99.223579 
1681.000000	99.219276 
1680.000000	99.213947 
1679.000000	99.209181 
1678.000000	99.203548 
1677.000000	99.195272 
1676.000000	99.186676 
1675.000000	99.181419 
1674.000000	99.179796 
1673.000000	99.181282 
1672.000000	99.184291 
1671.000000	99.187739 
1670.000000	99.189298 
1669.000000	99.184410 
1668.000000	99.175933 
1667.000000	99.169375 
1666.000000	99.164481 
1665.000000	99.159404 
1664.000000	99.154929 
1663.000000	99.152946 
1662.000000	99.151175 
1661.000000	99.146736 
1660.000000	99.141938 
1659.000000	99.139343 
1658.000000	99.138138 
1657.000000	99.134926 
1656.000000	99.127017 
1655.000000	99.115542 
1654.000000	99.110239 
1653.000000	99.110577 
1652.000000	99.106943 
1651.000000	99.109327 
1650.000000	99.112934 
1649.000000	99.111132 
1648.000000	99.108313 
1647.000000	99.108028 
1646.000000	99.108341 
1645.000000	99.109852 
1644.000000	99.113825 
1643.000000	99.118511 
1642.000000	99.121525 
1641.000000	99.121418 
1640.000000	99.118770 
1639.000000	99.114854 
1638.000000	99.112267 
1637.000000	99.115494 
1636.000000	99.126613 
1635.000000	99.138239 
1634.000000	99.145107 
1633.000000	99.148190 
1632.000000	99.146070 
1631.000000	99.140546 
1630.000000	99.135969 
1629.000000	99.135169 
1628.000000	99.137407 
1627.000000	99.140479 
1626.000000	99.142806 
1625.000000	99.144800 
1624.000000	99.148470 
1623.000000	99.154087 
1622.000000	99.159334 
1621.000000	99.163086 
1620.000000	99.166110 
1619.000000	99.169124 
1618.000000	99.174201 
1617.000000	99.182044 
1616.000000	99.190505 
1615.000000	99.198642 
1614.000000	99.205494 
1613.000000	99.209851 
1612.000000	99.213898 
1611.000000	99.220358 
1610.000000	99.227036 
1609.000000	99.229903 
1608.000000	99.229396 
1607.000000	99.228936 
1606.000000	99.229009 
1605.000000	99.228427 
1604.000000	99.228428 
1603.000000	99.230318 
1602.000000	99.233747 
1601.000000	99.237920 
1600.000000	99.242841 
1599.000000	99.247885 
1598.000000	99.251255 
1597.000000	99.252307 
1596.000000	99.252170 
1595.000000	99.251816 
1594.000000	99.251183 
1593.000000	99.251031 
1592.000000	99.253490 
1591.000000	99.258934 
1590.000000	99.264175 
1589.000000	99.266137 
1588.000000	99.265832 
1587.000000	99.266139 
1586.000000	99.267181 
1585.000000	99.266565 
1584.000000	99.264868 
1583.000000	99.264477 
1582.000000	99.264469 
1581.000000	99.262285 
1580.000000	99.257450 
1579.000000	99.250900 
1578.000000	99.243977 
1577.000000	99.240051 
1576.000000	99.240354 
1575.000000	99.242535 
1574.000000	99.244225 
1573.000000	99.243270 
1572.000000	99.240140 
1571.000000	99.239187 
1570.000000	99.242710 
1569.000000	99.246660 
1568.000000	99.249022 
1567.000000	99.249839 
1566.000000	99.247627 
1565.000000	99.242649 
1564.000000	99.237552 
1563.000000	99.232343 
1562.000000	99.223778 
1561.000000	99.211453 
1560.000000	99.207765 
1559.000000	99.215615 
1558.000000	99.215970 
1557.000000	99.214577 
1556.000000	99.216677 
1555.000000	99.216939 
1554.000000	99.213421 
1553.000000	99.207836 
1552.000000	99.202421 
1551.000000	99.197228 
1550.000000	99.194259 
1549.000000	99.195177 
1548.000000	99.198166 
1547.000000	99.198532 
1546.000000	99.192161 
1545.000000	99.180668 
1544.000000	99.170354 
1543.000000	99.167149 
1542.000000	99.174160 
1541.000000	99.190740 
1540.000000	99.205923 
1539.000000	99.209395 
1538.000000	99.208711 
1537.000000	99.210982 
1536.000000	99.213912 
1535.000000	99.217449 
1534.000000	99.221253 
1533.000000	99.222052 
1532.000000	99.220326 
1531.000000	99.220225 
1530.000000	99.222543 
1529.000000	99.224303 
1528.000000	99.223444 
1527.000000	99.222018 
1526.000000	99.223255 
1525.000000	99.227266 
1524.000000	99.231555 
1523.000000	99.235421 
1522.000000	99.241103 
1521.000000	99.246478 
1520.000000	99.247801 
1519.000000	99.245662 
1518.000000	99.241343 
1517.000000	99.237402 
1516.000000	99.235299 
1515.000000	99.234632 
1514.000000	99.234598 
1513.000000	99.235461 
1512.000000	99.237814 
1511.000000	99.240036 
1510.000000	99.240240 
1509.000000	99.239239 
1508.000000	99.244088 
1507.000000	99.257948 
1506.000000	99.268409 
1505.000000	99.269950 
1504.000000	99.269360 
1503.000000	99.268476 
1502.000000	99.267943 
1501.000000	99.267993 
1500.000000	99.266369 
1499.000000	99.260890 
1498.000000	99.253488 
1497.000000	99.248659 
1496.000000	99.247356 
1495.000000	99.250044 
1494.000000	99.257501 
1493.000000	99.266963 
1492.000000	99.274550 
1491.000000	99.278926 
1490.000000	99.281071 
1489.000000	99.281406 
1488.000000	99.279091 
1487.000000	99.275133 
1486.000000	99.271751 
1485.000000	99.267876 
1484.000000	99.262753 
1483.000000	99.257513 
1482.000000	99.254019 
1481.000000	99.252794 
1480.000000	99.251502 
1479.000000	99.248105 
1478.000000	99.242356 
1477.000000	99.235203 
1476.000000	99.227188 
1475.000000	99.220206 
1474.000000	99.216175 
1473.000000	99.213579 
1472.000000	99.207504 
1471.000000	99.196814 
1470.000000	99.185266 
1469.000000	99.174014 
1468.000000	99.162822 
1467.000000	99.153581 
1466.000000	99.149264 
1465.000000	99.150566 
1464.000000	99.155189 
1463.000000	99.159803 
1462.000000	99.162646 
1461.000000	99.162414 
1460.000000	99.158489 
1459.000000	99.151721 
1458.000000	99.144781 
1457.000000	99.138424 
1456.000000	99.132321 
1455.000000	99.130332 
1454.000000	99.132899 
1453.000000	99.139540 
1452.000000	99.150588 
1451.000000	99.162258 
1450.000000	99.169295 
1449.000000	99.170037 
1448.000000	99.166893 
1447.000000	99.163962 
1446.000000	99.162903 
1445.000000	99.163347 
1444.000000	99.164667 
1443.000000	99.165360 
1442.000000	99.165492 
1441.000000	99.166157 
1440.000000	99.167470 
1439.000000	99.167659 
1438.000000	99.167125 
1437.000000	99.168025 
1436.000000	99.169117 
1435.000000	99.168268 
1434.000000	99.165525 
1433.000000	99.161674 
1432.000000	99.158173 
1431.000000	99.156038 
1430.000000	99.154770 
1429.000000	99.153537 
1428.000000	99.151238 
1427.000000	99.147889 
1426.000000	99.143865 
1425.000000	99.140813 
1424.000000	99.139825 
1423.000000	99.137222 
1422.000000	99.128667 
1421.000000	99.113773 
1420.000000	99.097346 
1419.000000	99.085010 
1418.000000	99.079265 
1417.000000	99.078941 
1416.000000	99.078759 
1415.000000	99.073957 
1414.000000	99.064223 
1413.000000	99.053225 
1412.000000	99.044736 
1411.000000	99.039023 
1410.000000	99.034304 
1409.000000	99.029667 
1408.000000	99.025089 
1407.000000	99.021607 
1406.000000	99.020184 
1405.000000	99.021361 
1404.000000	99.025645 
1403.000000	99.032490 
1402.000000	99.040957 
1401.000000	99.049898 
1400.000000	99.057677 
1399.000000	99.061239 
1398.000000	99.057712 
1397.000000	99.045929 
1396.000000	99.026621 
1395.000000	99.006050 
1394.000000	98.995421 
1393.000000	99.001921 
1392.000000	99.021009 
1391.000000	99.040937 
1390.000000	99.053034 
1389.000000	99.055442 
1388.000000	99.050532 
1387.000000	99.041799 
1386.000000	99.033089 
1385.000000	99.027172 
1384.000000	99.023682 
1383.000000	99.019657 
1382.000000	99.013323 
1381.000000	99.006154 
1380.000000	99.001515 
1379.000000	99.001638 
1378.000000	99.005520 
1377.000000	99.010077 
1376.000000	99.012991 
1375.000000	99.014354 
1374.000000	99.015867 
1373.000000	99.019476 
1372.000000	99.025470 
1371.000000	99.031854 
1370.000000	99.035943 
1369.000000	99.036957 
1368.000000	99.036419 
1367.000000	99.035497 
1366.000000	99.034319 
1365.000000	99.033255 
1364.000000	99.033501 
1363.000000	99.035148 
1362.000000	99.036133 
1361.000000	99.034982 
1360.000000	99.033212 
1359.000000	99.033802 
1358.000000	99.038319 
1357.000000	99.045686 
1356.000000	99.053218 
1355.000000	99.058768 
1354.000000	99.062334 
1353.000000	99.065224 
1352.000000	99.067830 
1351.000000	99.069939 
1350.000000	99.071918 
1349.000000	99.075308 
1348.000000	99.081554 
1347.000000	99.089898 
1346.000000	99.098505 
1345.000000	99.106453 
1344.000000	99.113854 
1343.000000	99.120437 
1342.000000	99.125945 
1341.000000	99.131476 
1340.000000	99.138604 
1339.000000	99.146786 
1338.000000	99.153973 
1337.000000	99.159889 
1336.000000	99.166095 
1335.000000	99.173029 
1334.000000	99.179182 
1333.000000	99.183438 
1332.000000	99.186519 
1331.000000	99.189356 
1330.000000	99.191560 
1329.000000	99.192759 
1328.000000	99.194059 
1327.000000	99.196707 
1326.000000	99.199953 
1325.000000	99.202043 
1324.000000	99.202761 
1323.000000	99.203399 
1322.000000	99.205032 
1321.000000	99.207775 
1320.000000	99.211504 
1319.000000	99.216020 
1318.000000	99.220412 
1317.000000	99.223006 
1316.000000	99.222580 
1315.000000	99.219666 
1314.000000	99.216502 
1313.000000	99.215285 
1312.000000	99.216171 
1311.000000	99.217447 
1310.000000	99.217812 
1309.000000	99.217783 
1308.000000	99.218339 
1307.000000	99.219134 
1306.000000	99.218983 
1305.000000	99.217979 
1304.000000	99.217811 
1303.000000	99.219556 
1302.000000	99.222277 
1301.000000	99.224102 
1300.000000	99.224190 
1299.000000	99.223350 
1298.000000	99.223323 
1297.000000	99.225380 
1296.000000	99.228993 
1295.000000	99.231699 
1294.000000	99.230959 
1293.000000	99.226523 
1292.000000	99.220656 
1291.000000	99.216182 
1290.000000	99.214688 
1289.000000	99.216181 
1288.000000	99.219395 
1287.000000	99.222136 
1286.000000	99.222306 
1285.000000	99.219396 
1284.000000	99.214723 
1283.000000	99.210005 
1282.000000	99.206047 
1281.000000	99.202841 
1280.000000	99.200378 
1279.000000	99.198734 
1278.000000	99.197632 
1277.000000	99.196596 
1276.000000	99.195515 
1275.000000	99.194545 
1274.000000	99.193275 
1273.000000	99.190637 
1272.000000	99.186182 
1271.000000	99.181282 
1270.000000	99.178236 
1269.000000	99.177738 
1268.000000	99.177722 
1267.000000	99.175208 
1266.000000	99.169260 
1265.000000	99.161707 
1264.000000	99.155009 
1263.000000	99.149975 
1262.000000	99.145540 
1261.000000	99.140170 
1260.000000	99.133417 
1259.000000	99.126479 
1258.000000	99.121324 
1257.000000	99.118982 
1256.000000	99.118736 
1255.000000	99.119219 
1254.000000	99.119871 
1253.000000	99.120718 
1252.000000	99.121222 
1251.000000	99.120636 
1250.000000	99.119526 
1249.000000	99.119689 
1248.000000	99.122108 
1247.000000	99.125711 
1246.000000	99.128153 
1245.000000	99.126842 
1244.000000	99.119766 
1243.000000	99.107796 
1242.000000	99.096639 
1241.000000	99.093613 
1240.000000	99.100448 
1239.000000	99.110776 
1238.000000	99.116539 
1237.000000	99.115727 
1236.000000	99.112090 
1235.000000	99.108992 
1234.000000	99.106339 
1233.000000	99.102659 
1232.000000	99.097089 
1231.000000	99.089076 
1230.000000	99.078926 
1229.000000	99.069526 
1228.000000	99.065306 
1227.000000	99.068031 
1226.000000	99.074632 
1225.000000	99.080138 
1224.000000	99.081878 
1223.000000	99.080288 
1222.000000	99.077084 
1221.000000	99.074030 
1220.000000	99.072816 
1219.000000	99.074510 
1218.000000	99.078462 
1217.000000	99.082137 
1216.000000	99.082588 
1215.000000	99.078632 
1214.000000	99.071809 
1213.000000	99.064878 
1212.000000	99.059170 
1211.000000	99.054010 
1210.000000	99.048850 
1209.000000	99.044693 
1208.000000	99.042457 
1207.000000	99.041009 
1206.000000	99.038341 
1205.000000	99.034144 
1204.000000	99.029693 
1203.000000	99.025521 
1202.000000	99.020877 
1201.000000	99.015498 
1200.000000	99.010280 
1199.000000	99.005842 
1198.000000	99.001746 
1197.000000	98.997425 
1196.000000	98.992475 
1195.000000	98.985780 
1194.000000	98.976011 
1193.000000	98.963890 
1192.000000	98.952590 
1191.000000	98.944611 
1190.000000	98.938919 
1189.000000	98.932211 
1188.000000	98.922619 
1187.000000	98.911440 
1186.000000	98.901702 
1185.000000	98.895667 
1184.000000	98.893232 
1183.000000	98.892004 
1182.000000	98.889103 
1181.000000	98.883476 
1180.000000	98.876309 
1179.000000	98.869134 
1178.000000	98.862251 
1177.000000	98.855316 
1176.000000	98.848350 
1175.000000	98.841114 
1174.000000	98.832151 
1173.000000	98.819923 
1172.000000	98.805003 
1171.000000	98.790133 
1170.000000	98.777708 
1169.000000	98.767690 
1168.000000	98.758267 
1167.000000	98.748185 
1166.000000	98.738294 
1165.000000	98.731124 
1164.000000	98.728995 
1163.000000	98.732192 
1162.000000	98.738796 
1161.000000	98.746381 
1160.000000	98.753671 
1159.000000	98.760233 
1158.000000	98.764817 
1157.000000	98.764721 
1156.000000	98.757466 
1155.000000	98.743601 
1154.000000	98.727916 
1153.000000	98.717006 
1152.000000	98.714332 
1151.000000	98.717024 
1150.000000	98.718035 
1149.000000	98.712348 
1148.000000	98.701115 
1147.000000	98.689497 
1146.000000	98.680765 
1145.000000	98.673143 
1144.000000	98.662462 
1143.000000	98.647227 
1142.000000	98.630624 
1141.000000	98.617837 
1140.000000	98.611743 
1139.000000	98.610805 
1138.000000	98.610270 
1137.000000	98.605353 
1136.000000	98.594191 
1135.000000	98.578704 
1134.000000	98.562521 
1133.000000	98.547378 
1132.000000	98.531755 
1131.000000	98.513797 
1130.000000	98.495174 
1129.000000	98.480243 
1128.000000	98.470611 
1127.000000	98.462016 
1126.000000	98.448466 
1125.000000	98.429034 
1124.000000	98.408784 
1123.000000	98.392874 
1122.000000	98.381398 
1121.000000	98.370506 
1120.000000	98.357013 
1119.000000	98.340699 
1118.000000	98.323255 
1117.000000	98.306619 
1116.000000	98.292172 
1115.000000	98.280220 
1114.000000	98.269857 
1113.000000	98.259835 
1112.000000	98.249590 
1111.000000	98.238941 
1110.000000	98.227049 
1109.000000	98.212755 
1108.000000	98.196342 
1107.000000	98.180275 
1106.000000	98.167130 
1105.000000	98.156451 
1104.000000	98.144632 
1103.000000	98.128948 
1102.000000	98.111431 
1101.000000	98.097373 
1100.000000	98.089446 
1099.000000	98.084882 
1098.000000	98.079566 
1097.000000	98.073311 
1096.000000	98.068870 
1095.000000	98.066352 
1094.000000	98.061505 
1093.000000	98.050080 
1092.000000	98.031626 
1091.000000	98.008366 
1090.000000	97.982711 
1089.000000	97.957150 
1088.000000	97.934514 
1087.000000	97.916370 
1086.000000	97.902102 
1085.000000	97.890834 
1084.000000	97.882827 
1083.000000	97.877317 
1082.000000	97.870356 
1081.000000	97.857190 
1080.000000	97.836561 
1079.000000	97.811552 
1078.000000	97.787053 
1077.000000	97.767607 
1076.000000	97.756247 
1075.000000	97.752864 
1074.000000	97.753757 
1073.000000	97.754363 
1072.000000	97.751801 
1071.000000	97.743364 
1070.000000	97.724547 
1069.000000	97.692461 
1068.000000	97.651724 
1067.000000	97.613905 
1066.000000	97.588944 
1065.000000	97.577863 
1064.000000	97.574338 
1063.000000	97.571085 
1062.000000	97.563199 
1061.000000	97.547743 
1060.000000	97.523817 
1059.000000	97.494187 
1058.000000	97.465059 
1057.000000	97.442184 
1056.000000	97.426676 
1055.000000	97.414928 
1054.000000	97.402563 
1053.000000	97.388161 
1052.000000	97.373073 
1051.000000	97.358413 
1050.000000	97.343288 
1049.000000	97.325891 
1048.000000	97.305328 
1047.000000	97.282481 
1046.000000	97.260001 
1045.000000	97.240856 
1044.000000	97.225423 
1043.000000	97.210386 
1042.000000	97.192399 
1041.000000	97.172830 
1040.000000	97.156746 
1039.000000	97.147056 
1038.000000	97.142131 
1037.000000	97.139716 
1036.000000	97.140153 
1035.000000	97.144205 
1034.000000	97.150353 
1033.000000	97.156095 
1032.000000	97.159759 
1031.000000	97.159795 
1030.000000	97.155454 
1029.000000	97.150515 
1028.000000	97.153209 
1027.000000	97.168553 
1026.000000	97.191832 
1025.000000	97.212573 
1024.000000	97.223942 
1023.000000	97.226344 
1022.000000	97.224309 
1021.000000	97.223261 
1020.000000	97.227789 
1019.000000	97.238899 
1018.000000	97.252436 
1017.000000	97.262717 
1016.000000	97.268026 
1015.000000	97.271032 
1014.000000	97.274673 
1013.000000	97.279725 
1012.000000	97.285740 
1011.000000	97.292022 
1010.000000	97.297842 
1009.000000	97.303545 
1008.000000	97.311175 
1007.000000	97.322433 
1006.000000	97.336489 
1005.000000	97.351256 
1004.000000	97.366088 
1003.000000	97.381766 
1002.000000	97.398744 
1001.000000	97.416864 
1000.000000	97.435664 
999.000000	 97.453404 
998.000000	 97.467358 
997.000000	 97.477281 
996.000000	 97.487386 
995.000000	 97.502442 
994.000000	 97.522423 
993.000000	 97.543073 
992.000000	 97.561043 
991.000000	 97.576299 
990.000000	 97.590198 
989.000000	 97.603762 
988.000000	 97.618132 
987.000000	 97.634860 
986.000000	 97.655119 
985.000000	 97.679246 
984.000000	 97.706603 
983.000000	 97.735168 
982.000000	 97.762227 
981.000000	 97.786586 
980.000000	 97.809294 
979.000000	 97.831657 
978.000000	 97.854103 
977.000000	 97.877732 
976.000000	 97.904666 
975.000000	 97.935059 
974.000000	 97.965781 
973.000000	 97.994307 
972.000000	 98.022203 
971.000000	 98.052297 
970.000000	 98.083854 
969.000000	 98.113293 
968.000000	 98.138857 
967.000000	 98.162118 
966.000000	 98.185433 
965.000000	 98.210060 
964.000000	 98.236117 
963.000000	 98.262224 
962.000000	 98.285686 
961.000000	 98.305081 
960.000000	 98.322183 
959.000000	 98.339448 
958.000000	 98.356387 
957.000000	 98.370618 
956.000000	 98.381901 
955.000000	 98.392605 
954.000000	 98.404367 
953.000000	 98.416833 
952.000000	 98.429932 
951.000000	 98.444585 
950.000000	 98.459923 
949.000000	 98.471867 
948.000000	 98.476367 
947.000000	 98.473469 
946.000000	 98.467161 
945.000000	 98.461617 
944.000000	 98.458540 
943.000000	 98.458006 
942.000000	 98.460627 
941.000000	 98.467530 
940.000000	 98.477713 
939.000000	 98.486681 
938.000000	 98.489905 
937.000000	 98.488127 
936.000000	 98.487478 
935.000000	 98.493318 
934.000000	 98.505256 
933.000000	 98.519108 
932.000000	 98.531895 
931.000000	 98.543020 
930.000000	 98.551852 
929.000000	 98.556582 
928.000000	 98.555585 
927.000000	 98.548951 
926.000000	 98.539228 
925.000000	 98.531423 
924.000000	 98.530912 
923.000000	 98.539287 
922.000000	 98.552279 
921.000000	 98.563003 
920.000000	 98.567101 
919.000000	 98.564474 
918.000000	 98.557790 
917.000000	 98.550844 
916.000000	 98.546799 
915.000000	 98.545668 
914.000000	 98.544076 
913.000000	 98.539596 
912.000000	 98.534916 
911.000000	 98.535853 
910.000000	 98.545599 
909.000000	 98.562649 
908.000000	 98.583647 
907.000000	 98.605758 
906.000000	 98.626428 
905.000000	 98.643407 
904.000000	 98.655996 
903.000000	 98.665382 
902.000000	 98.673736 
901.000000	 98.683537 
900.000000	 98.696675 
899.000000	 98.712491 
898.000000	 98.727262 
897.000000	 98.737290 
896.000000	 98.742093 
895.000000	 98.743440 
894.000000	 98.742559 
893.000000	 98.740398 
892.000000	 98.739826 
891.000000	 98.744954 
890.000000	 98.757798 
889.000000	 98.776803 
888.000000	 98.798108 
887.000000	 98.817008 
886.000000	 98.829928 
885.000000	 98.837660 
884.000000	 98.845454 
883.000000	 98.856723 
882.000000	 98.867327 
881.000000	 98.869906 
880.000000	 98.864082 
879.000000	 98.858313 
878.000000	 98.860299 
877.000000	 98.869217 
876.000000	 98.879338 
875.000000	 98.887554 
874.000000	 98.894356 
873.000000	 98.900198 
872.000000	 98.904478 
871.000000	 98.907301 
870.000000	 98.910115 
869.000000	 98.915361 
868.000000	 98.926250 
867.000000	 98.944328 
866.000000	 98.965239 
865.000000	 98.979805 
864.000000	 98.983048 
863.000000	 98.980827 
862.000000	 98.983444 
861.000000	 98.992903 
860.000000	 99.000851 
859.000000	 99.000049 
858.000000	 98.993484 
857.000000	 98.989585 
856.000000	 98.992092 
855.000000	 98.998502 
854.000000	 99.005895 
853.000000	 99.013435 
852.000000	 99.019635 
851.000000	 99.021946 
850.000000	 99.020478 
849.000000	 99.018894 
848.000000	 99.020114 
847.000000	 99.023576 
846.000000	 99.027613 
845.000000	 99.031472 
844.000000	 99.033504 
843.000000	 99.030808 
842.000000	 99.023386 
841.000000	 99.015765 
840.000000	 99.011184 
839.000000	 99.006653 
838.000000	 98.997698 
837.000000	 98.986123 
836.000000	 98.978247 
835.000000	 98.976196 
834.000000	 98.976153 
833.000000	 98.975701 
832.000000	 98.977209 
831.000000	 98.981317 
830.000000	 98.982145 
829.000000	 98.974081 
828.000000	 98.961040 
827.000000	 98.953854 
826.000000	 98.958244 
825.000000	 98.969036 
824.000000	 98.977015 
823.000000	 98.978537 
822.000000	 98.977335 
821.000000	 98.978806 
820.000000	 98.983914 
819.000000	 98.988659 
818.000000	 98.989404 
817.000000	 98.988090 
816.000000	 98.990150 
815.000000	 98.996618 
814.000000	 99.000892 
813.000000	 98.995474 
812.000000	 98.979880 
811.000000	 98.958973 
810.000000	 98.934763 
809.000000	 98.903572 
808.000000	 98.861842 
807.000000	 98.811856 
806.000000	 98.760084 
805.000000	 98.711473 
804.000000	 98.667220 
803.000000	 98.627391 
802.000000	 98.593639 
801.000000	 98.568614 
800.000000	 98.553383 
799.000000	 98.546556 
798.000000	 98.546636 
797.000000	 98.554326 
796.000000	 98.570531 
795.000000	 98.592114 
794.000000	 98.612305 
793.000000	 98.626452 
792.000000	 98.635323 
791.000000	 98.641880 
790.000000	 98.647444 
789.000000	 98.652163 
788.000000	 98.655796 
787.000000	 98.655273 
786.000000	 98.644309 
785.000000	 98.619464 
784.000000	 98.585892 
783.000000	 98.554399 
782.000000	 98.533264 
781.000000	 98.524354 
780.000000	 98.524909 
779.000000	 98.529533 
778.000000	 98.532028 
777.000000	 98.530000 
776.000000	 98.528318 
775.000000	 98.534854 
774.000000	 98.551975 
773.000000	 98.574340 
772.000000	 98.595215 
771.000000	 98.612767 
770.000000	 98.629964 
769.000000	 98.649723 
768.000000	 98.670115 
767.000000	 98.684143 
766.000000	 98.686420 
765.000000	 98.681469 
764.000000	 98.682085 
763.000000	 98.695762 
762.000000	 98.714681 
761.000000	 98.723520 
760.000000	 98.716312 
759.000000	 98.701560 
758.000000	 98.691705 
757.000000	 98.692100 
756.000000	 98.699669 
755.000000	 98.706499 
754.000000	 98.703811 
753.000000	 98.688674 
752.000000	 98.670240 
751.000000	 98.665250 
750.000000	 98.682745 
749.000000	 98.714292 
748.000000	 98.741768 
747.000000	 98.753679 
746.000000	 98.752665 
745.000000	 98.749330 
744.000000	 98.751642 
743.000000	 98.759902 
742.000000	 98.769495 
741.000000	 98.777257 
740.000000	 98.784869 
739.000000	 98.795808 
738.000000	 98.809842 
737.000000	 98.821951 
736.000000	 98.826270 
735.000000	 98.819956 
734.000000	 98.804607 
733.000000	 98.786574 
732.000000	 98.775340 
731.000000	 98.777722 
730.000000	 98.791711 
729.000000	 98.808017 
728.000000	 98.818959 
727.000000	 98.823669 
726.000000	 98.824120 
725.000000	 98.820041 
724.000000	 98.810245 
723.000000	 98.796692 
722.000000	 98.784638 
721.000000	 98.779675 
720.000000	 98.785715 
719.000000	 98.803417 
718.000000	 98.828041 
717.000000	 98.849919 
716.000000	 98.859190 
715.000000	 98.851696 
714.000000	 98.832040 
713.000000	 98.812206 
712.000000	 98.805790 
711.000000	 98.819157 
710.000000	 98.845355 
709.000000	 98.868136 
708.000000	 98.874163 
707.000000	 98.861204 
706.000000	 98.834863 
705.000000	 98.801517 
704.000000	 98.767537 
703.000000	 98.741805 
702.000000	 98.732616 
701.000000	 98.739373 
700.000000	 98.749478 
699.000000	 98.746863 
698.000000	 98.725424 
697.000000	 98.694706 
696.000000	 98.671724 
695.000000	 98.666416 
694.000000	 98.675548 
693.000000	 98.689533 
692.000000	 98.702029 
691.000000	 98.712189 
690.000000	 98.721389 
689.000000	 98.732174 
688.000000	 98.747867 
687.000000	 98.767541 
686.000000	 98.782851 
685.000000	 98.785282 
684.000000	 98.776641 
683.000000	 98.768379 
682.000000	 98.769784 
681.000000	 98.779953 
680.000000	 98.789908 
679.000000	 98.790040 
678.000000	 98.776671 
677.000000	 98.757791 
676.000000	 98.752803 
675.000000	 98.774409 
674.000000	 98.809556 
673.000000	 98.827566 
672.000000	 98.812436 
671.000000	 98.781667 
670.000000	 98.769106 
669.000000	 98.797598 
668.000000	 98.844765 
667.000000	 98.864797 
666.000000	 98.849104 
665.000000	 98.817404 
664.000000	 98.793192 
663.000000	 98.797008 
662.000000	 98.829031 
661.000000	 98.863701 
660.000000	 98.874175 
659.000000	 98.858424 
658.000000	 98.833330 
657.000000	 98.811594 
656.000000	 98.795517 
655.000000	 98.785305 
654.000000	 98.781104 
653.000000	 98.780267 
652.000000	 98.781866 
651.000000	 98.789419 
650.000000	 98.800770 

