4000.000000	99.437898 
3999.000000	99.440333 
3998.000000	99.442972 
3997.000000	99.445145 
3996.000000	99.446947 
3995.000000	99.448004 
3994.000000	99.447603 
3993.000000	99.445845 
3992.000000	99.443964 
3991.000000	99.443061 
3990.000000	99.442882 
3989.000000	99.442327 
3988.000000	99.440897 
3987.000000	99.439202 
3986.000000	99.438071 
3985.000000	99.437644 
3984.000000	99.437538 
3983.000000	99.437662 
3982.000000	99.438524 
3981.000000	99.440616 
3980.000000	99.443653 
3979.000000	99.446621 
3978.000000	99.448569 
3977.000000	99.449140 
3976.000000	99.448332 
3975.000000	99.445996 
3974.000000	99.441962 
3973.000000	99.436784 
3972.000000	99.432094 
3971.000000	99.429674 
3970.000000	99.430135 
3969.000000	99.432590 
3968.000000	99.435406 
3967.000000	99.437353 
3966.000000	99.438118 
3965.000000	99.438074 
3964.000000	99.437728 
3963.000000	99.437430 
3962.000000	99.437417 
3961.000000	99.437921 
3960.000000	99.439015 
3959.000000	99.440301 
3958.000000	99.441019 
3957.000000	99.440767 
3956.000000	99.439910 
3955.000000	99.439188 
3954.000000	99.438884 
3953.000000	99.438676 
3952.000000	99.438132 
3951.000000	99.437178 
3950.000000	99.436079 
3949.000000	99.435045 
3948.000000	99.434069 
3947.000000	99.433216 
3946.000000	99.432842 
3945.000000	99.433226 
3944.000000	99.434077 
3943.000000	99.434617 
3942.000000	99.434345 
3941.000000	99.433545 
3940.000000	99.432849 
3939.000000	99.432422 
3938.000000	99.431941 
3937.000000	99.431177 
3936.000000	99.430248 
3935.000000	99.429445 
3934.000000	99.428922 
3933.000000	99.428666 
3932.000000	99.428562 
3931.000000	99.428439 
3930.000000	99.428140 
3929.000000	99.427570 
3928.000000	99.426751 
3927.000000	99.425842 
3926.000000	99.424957 
3925.000000	99.424162 
3924.000000	99.423524 
3923.000000	99.423092 
3922.000000	99.422779 
3921.000000	99.422407 
3920.000000	99.421928 
3919.000000	99.421449 
3918.000000	99.421063 
3917.000000	99.420749 
3916.000000	99.420438 
3915.000000	99.420129 
3914.000000	99.419856 
3913.000000	99.419603 
3912.000000	99.419307 
3911.000000	99.418925 
3910.000000	99.418460 
3909.000000	99.417959 
3908.000000	99.417476 
3907.000000	99.417041 
3906.000000	99.416653 
3905.000000	99.416290 
3904.000000	99.415938 
3903.000000	99.415604 
3902.000000	99.415300 
3901.000000	99.415018 
3900.000000	99.414739 
3899.000000	99.414449 
3898.000000	99.414141 
3897.000000	99.413820 
3896.000000	99.413500 
3895.000000	99.413197 
3894.000000	99.412919 
3893.000000	99.412670 
3892.000000	99.412445 
3891.000000	99.412230 
3890.000000	99.412020 
3889.000000	99.411827 
3888.000000	99.411667 
3887.000000	99.411534 
3886.000000	99.411393 
3885.000000	99.411207 
3884.000000	99.410991 
3883.000000	99.410817 
3882.000000	99.410727 
3881.000000	99.410682 
3880.000000	99.410572 
3879.000000	99.410335 
3878.000000	99.410044 
3877.000000	99.409805 
3876.000000	99.409585 
3875.000000	99.409269 
3874.000000	99.408794 
3873.000000	99.408249 
3872.000000	99.407842 
3871.000000	99.407633 
3870.000000	99.407420 
3869.000000	99.407032 
3868.000000	99.406714 
3867.000000	99.406794 
3866.000000	99.407144 
3865.000000	99.407377 
3864.000000	99.407377 
3863.000000	99.407294 
3862.000000	99.407244 
3861.000000	99.407140 
3860.000000	99.406862 
3859.000000	99.406413 
3858.000000	99.405829 
3857.000000	99.405261 
3856.000000	99.405046 
3855.000000	99.405469 
3854.000000	99.406293 
3853.000000	99.406813 
3852.000000	99.407044 
3851.000000	99.407518 
3850.000000	99.408155 
3849.000000	99.408572 
3848.000000	99.408718 
3847.000000	99.408724 
3846.000000	99.408709 
3845.000000	99.408726 
3844.000000	99.408786 
3843.000000	99.408885 
3842.000000	99.409008 
3841.000000	99.409139 
3840.000000	99.409272 
3839.000000	99.409413 
3838.000000	99.409564 
3837.000000	99.409723 
3836.000000	99.409891 
3835.000000	99.410066 
3834.000000	99.410250 
3833.000000	99.410442 
3832.000000	99.410641 
3831.000000	99.410842 
3830.000000	99.411037 
3829.000000	99.411223 
3828.000000	99.411398 
3827.000000	99.411561 
3826.000000	99.411716 
3825.000000	99.411870 
3824.000000	99.412036 
3823.000000	99.412226 
3822.000000	99.412431 
3821.000000	99.412634 
3820.000000	99.412828 
3819.000000	99.413032 
3818.000000	99.413264 
3817.000000	99.413515 
3816.000000	99.413759 
3815.000000	99.413975 
3814.000000	99.414159 
3813.000000	99.414312 
3812.000000	99.414426 
3811.000000	99.414501 
3810.000000	99.414551 
3809.000000	99.414591 
3808.000000	99.414631 
3807.000000	99.414680 
3806.000000	99.414749 
3805.000000	99.414860 
3804.000000	99.415024 
3803.000000	99.415233 
3802.000000	99.415462 
3801.000000	99.415688 
3800.000000	99.415907 
3799.000000	99.416130 
3798.000000	99.416356 
3797.000000	99.416568 
3796.000000	99.416755 
3795.000000	99.416923 
3794.000000	99.417090 
3793.000000	99.417265 
3792.000000	99.417445 
3791.000000	99.417609 
3790.000000	99.417742 
3789.000000	99.417836 
3788.000000	99.417895 
3787.000000	99.417924 
3786.000000	99.417923 
3785.000000	99.417878 
3784.000000	99.417785 
3783.000000	99.417651 
3782.000000	99.417485 
3781.000000	99.417278 
3780.000000	99.417014 
3779.000000	99.416688 
3778.000000	99.416320 
3777.000000	99.415947 
3776.000000	99.415575 
3775.000000	99.415188 
3774.000000	99.414786 
3773.000000	99.414383 
3772.000000	99.413989 
3771.000000	99.413597 
3770.000000	99.413202 
3769.000000	99.412813 
3768.000000	99.412445 
3767.000000	99.412098 
3766.000000	99.411757 
3765.000000	99.411408 
3764.000000	99.411044 
3763.000000	99.410671 
3762.000000	99.410291 
3761.000000	99.409895 
3760.000000	99.409474 
3759.000000	99.409025 
3758.000000	99.408550 
3757.000000	99.408047 
3756.000000	99.407517 
3755.000000	99.406981 
3754.000000	99.406474 
3753.000000	99.406012 
3752.000000	99.405581 
3751.000000	99.405141 
3750.000000	99.404664 
3749.000000	99.404156 
3748.000000	99.403654 
3747.000000	99.403202 
3746.000000	99.402818 
3745.000000	99.402480 
3744.000000	99.402126 
3743.000000	99.401765 
3742.000000	99.401501 
3741.000000	99.401354 
3740.000000	99.401206 
3739.000000	99.400970 
3738.000000	99.400700 
3737.000000	99.400525 
3736.000000	99.400480 
3735.000000	99.400472 
3734.000000	99.400439 
3733.000000	99.400370 
3732.000000	99.400158 
3731.000000	99.399756 
3730.000000	99.399453 
3729.000000	99.399529 
3728.000000	99.399793 
3727.000000	99.399766 
3726.000000	99.399192 
3725.000000	99.398303 
3724.000000	99.397514 
3723.000000	99.396810 
3722.000000	99.395973 
3721.000000	99.395157 
3720.000000	99.394749 
3719.000000	99.394706 
3718.000000	99.394285 
3717.000000	99.392718 
3716.000000	99.389979 
3715.000000	99.386769 
3714.000000	99.383829 
3713.000000	99.381629 
3712.000000	99.380307 
3711.000000	99.379655 
3710.000000	99.379609 
3709.000000	99.380112 
3708.000000	99.380524 
3707.000000	99.380007 
3706.000000	99.378339 
3705.000000	99.376075 
3704.000000	99.373957 
3703.000000	99.372393 
3702.000000	99.371233 
3701.000000	99.370102 
3700.000000	99.369038 
3699.000000	99.368176 
3698.000000	99.366962 
3697.000000	99.364601 
3696.000000	99.361197 
3695.000000	99.357803 
3694.000000	99.355174 
3693.000000	99.353087 
3692.000000	99.351142 
3691.000000	99.349544 
3690.000000	99.348588 
3689.000000	99.347860 
3688.000000	99.346788 
3687.000000	99.345748 
3686.000000	99.345331 
3685.000000	99.345189 
3684.000000	99.344594 
3683.000000	99.343420 
3682.000000	99.341983 
3681.000000	99.340423 
3680.000000	99.338577 
3679.000000	99.336546 
3678.000000	99.335045 
3677.000000	99.334678 
3676.000000	99.335043 
3675.000000	99.334780 
3674.000000	99.333827 
3673.000000	99.333573 
3672.000000	99.334262 
3671.000000	99.335032 
3670.000000	99.335163 
3669.000000	99.334500 
3668.000000	99.333815 
3667.000000	99.333888 
3666.000000	99.334547 
3665.000000	99.335355 
3664.000000	99.336159 
3663.000000	99.336919 
3662.000000	99.337532 
3661.000000	99.337934 
3660.000000	99.338266 
3659.000000	99.338858 
3658.000000	99.339892 
3657.000000	99.341077 
3656.000000	99.341856 
3655.000000	99.342190 
3654.000000	99.342751 
3653.000000	99.343869 
3652.000000	99.345260 
3651.000000	99.346715 
3650.000000	99.348153 
3649.000000	99.349363 
3648.000000	99.350437 
3647.000000	99.351772 
3646.000000	99.353542 
3645.000000	99.355644 
3644.000000	99.357832 
3643.000000	99.359843 
3642.000000	99.361529 
3641.000000	99.362963 
3640.000000	99.364383 
3639.000000	99.366024 
3638.000000	99.367969 
3637.000000	99.370223 
3636.000000	99.372648 
3635.000000	99.374745 
3634.000000	99.375960 
3633.000000	99.376349 
3632.000000	99.376666 
3631.000000	99.377664 
3630.000000	99.379344 
3629.000000	99.380785 
3628.000000	99.381259 
3627.000000	99.381721 
3626.000000	99.383288 
3625.000000	99.385480 
3624.000000	99.387331 
3623.000000	99.388574 
3622.000000	99.389473 
3621.000000	99.390376 
3620.000000	99.391392 
3619.000000	99.392336 
3618.000000	99.393083 
3617.000000	99.393864 
3616.000000	99.394879 
3615.000000	99.395921 
3614.000000	99.396608 
3613.000000	99.396694 
3612.000000	99.396298 
3611.000000	99.395909 
3610.000000	99.396047 
3609.000000	99.396923 
3608.000000	99.398347 
3607.000000	99.399913 
3606.000000	99.401376 
3605.000000	99.402696 
3604.000000	99.403872 
3603.000000	99.404926 
3602.000000	99.405789 
3601.000000	99.406315 
3600.000000	99.406575 
3599.000000	99.406947 
3598.000000	99.407635 
3597.000000	99.408324 
3596.000000	99.408610 
3595.000000	99.408403 
3594.000000	99.407903 
3593.000000	99.407419 
3592.000000	99.407300 
3591.000000	99.407737 
3590.000000	99.408760 
3589.000000	99.410058 
3588.000000	99.410690 
3587.000000	99.409800 
3586.000000	99.407974 
3585.000000	99.406842 
3584.000000	99.406988 
3583.000000	99.407667 
3582.000000	99.408095 
3581.000000	99.408070 
3580.000000	99.407712 
3579.000000	99.407157 
3578.000000	99.406462 
3577.000000	99.405674 
3576.000000	99.404977 
3575.000000	99.404590 
3574.000000	99.404580 
3573.000000	99.404790 
3572.000000	99.404994 
3571.000000	99.405062 
3570.000000	99.404965 
3569.000000	99.404724 
3568.000000	99.404335 
3567.000000	99.403849 
3566.000000	99.403475 
3565.000000	99.403402 
3564.000000	99.403469 
3563.000000	99.403343 
3562.000000	99.403014 
3561.000000	99.402792 
3560.000000	99.402857 
3559.000000	99.403044 
3558.000000	99.403050 
3557.000000	99.402753 
3556.000000	99.402302 
3555.000000	99.401980 
3554.000000	99.401939 
3553.000000	99.402047 
3552.000000	99.401999 
3551.000000	99.401655 
3550.000000	99.401187 
3549.000000	99.400912 
3548.000000	99.401016 
3547.000000	99.401453 
3546.000000	99.401942 
3545.000000	99.402134 
3544.000000	99.401874 
3543.000000	99.401348 
3542.000000	99.400827 
3541.000000	99.400382 
3540.000000	99.399926 
3539.000000	99.399437 
3538.000000	99.398973 
3537.000000	99.398478 
3536.000000	99.397732 
3535.000000	99.396665 
3534.000000	99.395613 
3533.000000	99.395085 
3532.000000	99.395305 
3531.000000	99.396051 
3530.000000	99.396891 
3529.000000	99.397474 
3528.000000	99.397710 
3527.000000	99.397785 
3526.000000	99.397999 
3525.000000	99.398431 
3524.000000	99.398806 
3523.000000	99.398817 
3522.000000	99.398496 
3521.000000	99.398102 
3520.000000	99.397667 
3519.000000	99.396912 
3518.000000	99.395671 
3517.000000	99.394238 
3516.000000	99.393159 
3515.000000	99.392809 
3514.000000	99.393231 
3513.000000	99.394182 
3512.000000	99.395155 
3511.000000	99.395483 
3510.000000	99.394818 
3509.000000	99.393476 
3508.000000	99.392200 
3507.000000	99.391442 
3506.000000	99.391045 
3505.000000	99.390600 
3504.000000	99.390000 
3503.000000	99.389618 
3502.000000	99.390003 
3501.000000	99.391418 
3500.000000	99.393554 
3499.000000	99.395531 
3498.000000	99.396462 
3497.000000	99.396132 
3496.000000	99.395118 
3495.000000	99.394305 
3494.000000	99.394040 
3493.000000	99.393988 
3492.000000	99.393714 
3491.000000	99.393156 
3490.000000	99.392581 
3489.000000	99.392235 
3488.000000	99.392098 
3487.000000	99.391972 
3486.000000	99.391729 
3485.000000	99.391441 
3484.000000	99.391280 
3483.000000	99.391325 
3482.000000	99.391476 
3481.000000	99.391553 
3480.000000	99.391476 
3479.000000	99.391329 
3478.000000	99.391228 
3477.000000	99.391165 
3476.000000	99.391004 
3475.000000	99.390650 
3474.000000	99.390193 
3473.000000	99.389850 
3472.000000	99.389744 
3471.000000	99.389811 
3470.000000	99.389892 
3469.000000	99.389872 
3468.000000	99.389730 
3467.000000	99.389495 
3466.000000	99.389209 
3465.000000	99.388924 
3464.000000	99.388673 
3463.000000	99.388460 
3462.000000	99.388260 
3461.000000	99.388051 
3460.000000	99.387822 
3459.000000	99.387576 
3458.000000	99.387322 
3457.000000	99.387075 
3456.000000	99.386845 
3455.000000	99.386634 
3454.000000	99.386441 
3453.000000	99.386264 
3452.000000	99.386100 
3451.000000	99.385951 
3450.000000	99.385817 
3449.000000	99.385697 
3448.000000	99.385579 
3447.000000	99.385452 
3446.000000	99.385306 
3445.000000	99.385143 
3444.000000	99.384968 
3443.000000	99.384784 
3442.000000	99.384590 
3441.000000	99.384385 
3440.000000	99.384168 
3439.000000	99.383948 
3438.000000	99.383731 
3437.000000	99.383522 
3436.000000	99.383320 
3435.000000	99.383123 
3434.000000	99.382930 
3433.000000	99.382742 
3432.000000	99.382555 
3431.000000	99.382365 
3430.000000	99.382167 
3429.000000	99.381958 
3428.000000	99.381742 
3427.000000	99.381529 
3426.000000	99.381328 
3425.000000	99.381145 
3424.000000	99.380978 
3423.000000	99.380817 
3422.000000	99.380648 
3421.000000	99.380456 
3420.000000	99.380234 
3419.000000	99.379987 
3418.000000	99.379725 
3417.000000	99.379460 
3416.000000	99.379198 
3415.000000	99.378939 
3414.000000	99.378683 
3413.000000	99.378427 
3412.000000	99.378154 
3411.000000	99.377860 
3410.000000	99.377553 
3409.000000	99.377253 
3408.000000	99.376971 
3407.000000	99.376697 
3406.000000	99.376398 
3405.000000	99.376042 
3404.000000	99.375649 
3403.000000	99.375326 
3402.000000	99.375222 
3401.000000	99.375423 
3400.000000	99.375836 
3399.000000	99.376177 
3398.000000	99.376138 
3397.000000	99.375630 
3396.000000	99.374903 
3395.000000	99.374384 
3394.000000	99.374314 
3393.000000	99.374594 
3392.000000	99.374910 
3391.000000	99.375013 
3390.000000	99.374887 
3389.000000	99.374683 
3388.000000	99.374526 
3387.000000	99.374366 
3386.000000	99.374050 
3385.000000	99.373509 
3384.000000	99.372816 
3383.000000	99.372037 
3382.000000	99.371138 
3381.000000	99.370068 
3380.000000	99.368864 
3379.000000	99.367684 
3378.000000	99.366883 
3377.000000	99.367005 
3376.000000	99.368446 
3375.000000	99.370974 
3374.000000	99.373664 
3373.000000	99.375577 
3372.000000	99.376381 
3371.000000	99.376217 
3370.000000	99.375378 
3369.000000	99.374351 
3368.000000	99.373796 
3367.000000	99.374061 
3366.000000	99.374799 
3365.000000	99.375354 
3364.000000	99.375478 
3363.000000	99.375399 
3362.000000	99.375277 
3361.000000	99.374971 
3360.000000	99.374387 
3359.000000	99.373748 
3358.000000	99.373396 
3357.000000	99.373535 
3356.000000	99.374238 
3355.000000	99.375358 
3354.000000	99.376389 
3353.000000	99.376764 
3352.000000	99.376469 
3351.000000	99.376175 
3350.000000	99.376562 
3349.000000	99.377651 
3348.000000	99.378920 
3347.000000	99.379864 
3346.000000	99.380261 
3345.000000	99.380013 
3344.000000	99.379105 
3343.000000	99.377718 
3342.000000	99.376246 
3341.000000	99.375138 
3340.000000	99.374718 
3339.000000	99.375074 
3338.000000	99.375966 
3337.000000	99.376876 
3336.000000	99.377357 
3335.000000	99.377380 
3334.000000	99.377282 
3333.000000	99.377365 
3332.000000	99.377609 
3331.000000	99.377752 
3330.000000	99.377631 
3329.000000	99.377403 
3328.000000	99.377456 
3327.000000	99.378094 
3326.000000	99.379273 
3325.000000	99.380578 
3324.000000	99.381504 
3323.000000	99.381845 
3322.000000	99.381762 
3321.000000	99.381517 
3320.000000	99.381183 
3319.000000	99.380700 
3318.000000	99.380161 
3317.000000	99.379884 
3316.000000	99.380132 
3315.000000	99.380820 
3314.000000	99.381497 
3313.000000	99.381715 
3312.000000	99.381433 
3311.000000	99.381009 
3310.000000	99.380815 
3309.000000	99.380877 
3308.000000	99.380948 
3307.000000	99.380877 
3306.000000	99.380787 
3305.000000	99.380853 
3304.000000	99.381013 
3303.000000	99.381005 
3302.000000	99.380663 
3301.000000	99.380110 
3300.000000	99.379656 
3299.000000	99.379523 
3298.000000	99.379705 
3297.000000	99.380035 
3296.000000	99.380334 
3295.000000	99.380521 
3294.000000	99.380647 
3293.000000	99.380851 
3292.000000	99.381234 
3291.000000	99.381721 
3290.000000	99.382082 
3289.000000	99.382112 
3288.000000	99.381813 
3287.000000	99.381417 
3286.000000	99.381203 
3285.000000	99.381300 
3284.000000	99.381642 
3283.000000	99.382047 
3282.000000	99.382329 
3281.000000	99.382338 
3280.000000	99.381977 
3279.000000	99.381256 
3278.000000	99.380359 
3277.000000	99.379627 
3276.000000	99.379334 
3275.000000	99.379494 
3274.000000	99.379914 
3273.000000	99.380384 
3272.000000	99.380779 
3271.000000	99.381006 
3270.000000	99.380964 
3269.000000	99.380660 
3268.000000	99.380314 
3267.000000	99.380255 
3266.000000	99.380666 
3265.000000	99.381451 
3264.000000	99.382286 
3263.000000	99.382837 
3262.000000	99.382979 
3261.000000	99.382832 
3260.000000	99.382641 
3259.000000	99.382588 
3258.000000	99.382702 
3257.000000	99.382886 
3256.000000	99.382983 
3255.000000	99.382896 
3254.000000	99.382729 
3253.000000	99.382781 
3252.000000	99.383263 
3251.000000	99.383999 
3250.000000	99.384495 
3249.000000	99.384416 
3248.000000	99.383903 
3247.000000	99.383432 
3246.000000	99.383354 
3245.000000	99.383657 
3244.000000	99.384142 
3243.000000	99.384695 
3242.000000	99.385375 
3241.000000	99.386279 
3240.000000	99.387278 
3239.000000	99.387891 
3238.000000	99.387579 
3237.000000	99.386248 
3236.000000	99.384496 
3235.000000	99.383221 
3234.000000	99.382892 
3233.000000	99.383364 
3232.000000	99.384194 
3231.000000	99.384993 
3230.000000	99.385502 
3229.000000	99.385519 
3228.000000	99.384959 
3227.000000	99.383941 
3226.000000	99.382790 
3225.000000	99.381970 
3224.000000	99.381944 
3223.000000	99.382874 
3222.000000	99.384406 
3221.000000	99.385970 
3220.000000	99.387261 
3219.000000	99.388256 
3218.000000	99.388822 
3217.000000	99.388653 
3216.000000	99.387784 
3215.000000	99.386929 
3214.000000	99.387000 
3213.000000	99.388301 
3212.000000	99.390305 
3211.000000	99.392179 
3210.000000	99.393463 
3209.000000	99.394232 
3208.000000	99.394769 
3207.000000	99.395136 
3206.000000	99.395086 
3205.000000	99.394403 
3204.000000	99.393274 
3203.000000	99.392271 
3202.000000	99.391947 
3201.000000	99.392499 
3200.000000	99.393777 
3199.000000	99.395363 
3198.000000	99.396658 
3197.000000	99.397180 
3196.000000	99.396929 
3195.000000	99.396388 
3194.000000	99.395979 
3193.000000	99.395606 
3192.000000	99.394986 
3191.000000	99.394251 
3190.000000	99.393843 
3189.000000	99.393923 
3188.000000	99.394214 
3187.000000	99.394450 
3186.000000	99.394672 
3185.000000	99.394962 
3184.000000	99.395173 
3183.000000	99.395166 
3182.000000	99.395141 
3181.000000	99.395447 
3180.000000	99.396092 
3179.000000	99.396678 
3178.000000	99.396829 
3177.000000	99.396553 
3176.000000	99.396151 
3175.000000	99.395943 
3174.000000	99.396112 
3173.000000	99.396681 
3172.000000	99.397465 
3171.000000	99.398125 
3170.000000	99.398423 
3169.000000	99.398393 
3168.000000	99.398293 
3167.000000	99.398381 
3166.000000	99.398717 
3165.000000	99.399201 
3164.000000	99.399742 
3163.000000	99.400309 
3162.000000	99.400884 
3161.000000	99.401515 
3160.000000	99.402390 
3159.000000	99.403630 
3158.000000	99.404959 
3157.000000	99.405756 
3156.000000	99.405585 
3155.000000	99.404597 
3154.000000	99.403446 
3153.000000	99.402797 
3152.000000	99.402922 
3151.000000	99.403681 
3150.000000	99.404739 
3149.000000	99.405874 
3148.000000	99.407107 
3147.000000	99.408508 
3146.000000	99.409854 
3145.000000	99.410630 
3144.000000	99.410495 
3143.000000	99.409747 
3142.000000	99.409205 
3141.000000	99.409511 
3140.000000	99.410519 
3139.000000	99.411355 
3138.000000	99.411131 
3137.000000	99.409720 
3136.000000	99.407911 
3135.000000	99.406717 
3134.000000	99.406485 
3133.000000	99.406867 
3132.000000	99.407734 
3131.000000	99.409741 
3130.000000	99.413554 
3129.000000	99.418535 
3128.000000	99.422617 
3127.000000	99.424016 
3126.000000	99.422656 
3125.000000	99.419921 
3124.000000	99.417322 
3123.000000	99.415592 
3122.000000	99.414856 
3121.000000	99.414927 
3120.000000	99.415321 
3119.000000	99.415476 
3118.000000	99.415161 
3117.000000	99.414458 
3116.000000	99.413337 
3115.000000	99.411607 
3114.000000	99.409401 
3113.000000	99.407361 
3112.000000	99.406119 
3111.000000	99.405873 
3110.000000	99.406540 
3109.000000	99.407891 
3108.000000	99.409299 
3107.000000	99.409827 
3106.000000	99.409083 
3105.000000	99.407858 
3104.000000	99.407508 
3103.000000	99.408637 
3102.000000	99.410618 
3101.000000	99.412283 
3100.000000	99.412884 
3099.000000	99.412364 
3098.000000	99.411102 
3097.000000	99.409647 
3096.000000	99.408403 
3095.000000	99.407371 
3094.000000	99.406304 
3093.000000	99.405244 
3092.000000	99.404681 
3091.000000	99.404967 
3090.000000	99.405765 
3089.000000	99.406372 
3088.000000	99.406612 
3087.000000	99.407048 
3086.000000	99.408128 
3085.000000	99.409430 
3084.000000	99.410018 
3083.000000	99.409464 
3082.000000	99.408205 
3081.000000	99.407082 
3080.000000	99.406672 
3079.000000	99.406941 
3078.000000	99.407302 
3077.000000	99.406964 
3076.000000	99.405511 
3075.000000	99.403374 
3074.000000	99.401610 
3073.000000	99.400938 
3072.000000	99.401150 
3071.000000	99.401726 
3070.000000	99.402776 
3069.000000	99.404657 
3068.000000	99.406713 
3067.000000	99.407378 
3066.000000	99.405953 
3065.000000	99.403631 
3064.000000	99.402277 
3063.000000	99.402527 
3062.000000	99.403434 
3061.000000	99.403558 
3060.000000	99.402130 
3059.000000	99.399651 
3058.000000	99.397759 
3057.000000	99.398033 
3056.000000	99.400439 
3055.000000	99.403283 
3054.000000	99.405061 
3053.000000	99.405779 
3052.000000	99.406103 
3051.000000	99.405990 
3050.000000	99.404802 
3049.000000	99.402164 
3048.000000	99.397887 
3047.000000	99.391766 
3046.000000	99.384602 
3045.000000	99.378784 
3044.000000	99.376337 
3043.000000	99.376418 
3042.000000	99.375997 
3041.000000	99.373272 
3040.000000	99.369389 
3039.000000	99.366660 
3038.000000	99.366157 
3037.000000	99.367402 
3036.000000	99.369292 
3035.000000	99.370680 
3034.000000	99.370862 
3033.000000	99.370097 
3032.000000	99.368936 
3031.000000	99.366701 
3030.000000	99.361475 
3029.000000	99.352176 
3028.000000	99.340148 
3027.000000	99.328312 
3026.000000	99.318931 
3025.000000	99.312390 
3024.000000	99.307674 
3023.000000	99.303570 
3022.000000	99.299554 
3021.000000	99.295713 
3020.000000	99.291802 
3019.000000	99.286798 
3018.000000	99.280103 
3017.000000	99.272963 
3016.000000	99.267476 
3015.000000	99.263906 
3014.000000	99.260044 
3013.000000	99.253583 
3012.000000	99.243978 
3011.000000	99.231581 
3010.000000	99.216673 
3009.000000	99.200706 
3008.000000	99.187152 
3007.000000	99.178915 
3006.000000	99.174822 
3005.000000	99.170195 
3004.000000	99.161511 
3003.000000	99.149664 
3002.000000	99.138301 
3001.000000	99.129959 
3000.000000	99.124382 
2999.000000	99.119741 
2998.000000	99.114631 
2997.000000	99.109139 
2996.000000	99.104547 
2995.000000	99.101751 
2994.000000	99.099501 
2993.000000	99.094336 
2992.000000	99.083054 
2991.000000	99.065897 
2990.000000	99.047362 
2989.000000	99.033140 
2988.000000	99.025738 
2987.000000	99.023246 
2986.000000	99.022348 
2985.000000	99.022285 
2984.000000	99.024919 
2983.000000	99.030994 
2982.000000	99.037881 
2981.000000	99.041896 
2980.000000	99.042050 
2979.000000	99.040230 
2978.000000	99.038158 
2977.000000	99.035629 
2976.000000	99.031874 
2975.000000	99.027367 
2974.000000	99.023402 
2973.000000	99.020504 
2972.000000	99.018052 
2971.000000	99.015418 
2970.000000	99.012995 
2969.000000	99.011908 
2968.000000	99.012907 
2967.000000	99.015667 
2966.000000	99.019236 
2965.000000	99.023081 
2964.000000	99.027420 
2963.000000	99.032535 
2962.000000	99.038221 
2961.000000	99.044054 
2960.000000	99.049715 
2959.000000	99.054728 
2958.000000	99.058481 
2957.000000	99.061173 
2956.000000	99.064209 
2955.000000	99.068670 
2954.000000	99.073613 
2953.000000	99.077165 
2952.000000	99.079505 
2951.000000	99.083403 
2950.000000	99.090756 
2949.000000	99.099310 
2948.000000	99.104298 
2947.000000	99.103246 
2946.000000	99.098204 
2945.000000	99.093330 
2944.000000	99.090953 
2943.000000	99.090482 
2942.000000	99.090399 
2941.000000	99.089892 
2940.000000	99.088507 
2939.000000	99.085484 
2938.000000	99.080412 
2937.000000	99.074313 
2936.000000	99.069336 
2935.000000	99.067112 
2934.000000	99.067537 
2933.000000	99.069011 
2932.000000	99.069666 
2931.000000	99.068536 
2930.000000	99.065883 
2929.000000	99.062425 
2928.000000	99.058260 
2927.000000	99.052966 
2926.000000	99.047012 
2925.000000	99.042516 
2924.000000	99.041777 
2923.000000	99.045108 
2922.000000	99.050586 
2921.000000	99.055760 
2920.000000	99.059177 
2919.000000	99.060464 
2918.000000	99.059963 
2917.000000	99.058700 
2916.000000	99.058058 
2915.000000	99.059002 
2914.000000	99.061743 
2913.000000	99.066034 
2912.000000	99.071258 
2911.000000	99.076193 
2910.000000	99.079492 
2909.000000	99.080869 
2908.000000	99.081366 
2907.000000	99.082082 
2906.000000	99.082967 
2905.000000	99.083139 
2904.000000	99.081910 
2903.000000	99.079396 
2902.000000	99.076720 
2901.000000	99.075908 
2900.000000	99.078695 
2899.000000	99.084805 
2898.000000	99.091682 
2897.000000	99.096764 
2896.000000	99.100046 
2895.000000	99.103643 
2894.000000	99.109042 
2893.000000	99.115546 
2892.000000	99.121406 
2891.000000	99.125749 
2890.000000	99.128990 
2889.000000	99.131879 
2888.000000	99.134734 
2887.000000	99.137533 
2886.000000	99.140327 
2885.000000	99.143383 
2884.000000	99.146970 
2883.000000	99.151110 
2882.000000	99.155650 
2881.000000	99.160602 
2880.000000	99.166363 
2879.000000	99.173475 
2878.000000	99.181981 
2877.000000	99.190798 
2876.000000	99.197813 
2875.000000	99.201125 
2874.000000	99.200534 
2873.000000	99.198097 
2872.000000	99.196845 
2871.000000	99.198373 
2870.000000	99.202063 
2869.000000	99.206453 
2868.000000	99.210898 
2867.000000	99.215741 
2866.000000	99.221329 
2865.000000	99.227472 
2864.000000	99.233655 
2863.000000	99.239199 
2862.000000	99.243284 
2861.000000	99.245438 
2860.000000	99.246296 
2859.000000	99.247392 
2858.000000	99.249809 
2857.000000	99.253208 
2856.000000	99.256434 
2855.000000	99.259007 
2854.000000	99.261725 
2853.000000	99.265733 
2852.000000	99.271294 
2851.000000	99.277691 
2850.000000	99.284248 
2849.000000	99.291119 
2848.000000	99.298785 
2847.000000	99.306953 
2846.000000	99.314396 
2845.000000	99.319979 
2844.000000	99.323636 
2843.000000	99.326330 
2842.000000	99.329328 
2841.000000	99.333413 
2840.000000	99.338342 
2839.000000	99.342923 
2838.000000	99.346001 
2837.000000	99.347494 
2836.000000	99.348173 
2835.000000	99.348486 
2834.000000	99.348290 
2833.000000	99.347869 
2832.000000	99.348411 
2831.000000	99.350912 
2830.000000	99.355216 
2829.000000	99.360625 
2828.000000	99.366688 
2827.000000	99.372729 
2826.000000	99.377292 
2825.000000	99.379164 
2824.000000	99.378938 
2823.000000	99.378846 
2822.000000	99.380789 
2821.000000	99.384769 
2820.000000	99.389156 
2819.000000	99.392150 
2818.000000	99.393161 
2817.000000	99.393213 
2816.000000	99.393935 
2815.000000	99.395809 
2814.000000	99.397627 
2813.000000	99.397877 
2812.000000	99.396303 
2811.000000	99.393867 
2810.000000	99.391706 
2809.000000	99.390522 
2808.000000	99.390514 
2807.000000	99.391286 
2806.000000	99.392047 
2805.000000	99.392455 
2804.000000	99.393121 
2803.000000	99.394862 
2802.000000	99.397665 
2801.000000	99.400725 
2800.000000	99.403227 
2799.000000	99.404760 
2798.000000	99.405288 
2797.000000	99.405214 
2796.000000	99.405266 
2795.000000	99.405841 
2794.000000	99.406564 
2793.000000	99.406784 
2792.000000	99.406393 
2791.000000	99.405914 
2790.000000	99.405955 
2789.000000	99.406801 
2788.000000	99.408356 
2787.000000	99.410130 
2786.000000	99.411376 
2785.000000	99.411642 
2784.000000	99.411206 
2783.000000	99.410766 
2782.000000	99.410672 
2781.000000	99.410693 
2780.000000	99.410566 
2779.000000	99.410479 
2778.000000	99.410835 
2777.000000	99.411730 
2776.000000	99.412809 
2775.000000	99.413574 
2774.000000	99.413767 
2773.000000	99.413483 
2772.000000	99.413071 
2771.000000	99.412887 
2770.000000	99.413089 
2769.000000	99.413646 
2768.000000	99.414442 
2767.000000	99.415291 
2766.000000	99.415914 
2765.000000	99.416105 
2764.000000	99.416003 
2763.000000	99.416039 
2762.000000	99.416496 
2761.000000	99.417236 
2760.000000	99.417935 
2759.000000	99.418441 
2758.000000	99.418739 
2757.000000	99.418694 
2756.000000	99.418022 
2755.000000	99.416538 
2754.000000	99.414366 
2753.000000	99.412109 
2752.000000	99.410770 
2751.000000	99.411166 
2750.000000	99.413303 
2749.000000	99.416238 
2748.000000	99.418748 
2747.000000	99.420220 
2746.000000	99.420690 
2745.000000	99.420442 
2744.000000	99.419861 
2743.000000	99.419413 
2742.000000	99.419384 
2741.000000	99.419593 
2740.000000	99.419691 
2739.000000	99.419770 
2738.000000	99.420360 
2737.000000	99.421729 
2736.000000	99.423449 
2735.000000	99.424801 
2734.000000	99.425439 
2733.000000	99.425499 
2732.000000	99.425267 
2731.000000	99.424987 
2730.000000	99.424861 
2729.000000	99.425031 
2728.000000	99.425515 
2727.000000	99.426237 
2726.000000	99.427089 
2725.000000	99.427933 
2724.000000	99.428640 
2723.000000	99.429236 
2722.000000	99.429897 
2721.000000	99.430685 
2720.000000	99.431349 
2719.000000	99.431576 
2718.000000	99.431361 
2717.000000	99.430969 
2716.000000	99.430641 
2715.000000	99.430521 
2714.000000	99.430800 
2713.000000	99.431612 
2712.000000	99.432683 
2711.000000	99.433394 
2710.000000	99.433448 
2709.000000	99.433179 
2708.000000	99.433093 
2707.000000	99.433183 
2706.000000	99.432991 
2705.000000	99.432283 
2704.000000	99.431432 
2703.000000	99.430990 
2702.000000	99.431075 
2701.000000	99.431375 
2700.000000	99.431518 
2699.000000	99.431351 
2698.000000	99.430950 
2697.000000	99.430474 
2696.000000	99.430045 
2695.000000	99.429726 
2694.000000	99.429575 
2693.000000	99.429624 
2692.000000	99.429804 
2691.000000	99.429920 
2690.000000	99.429815 
2689.000000	99.429549 
2688.000000	99.429318 
2687.000000	99.429237 
2686.000000	99.429237 
2685.000000	99.429194 
2684.000000	99.429065 
2683.000000	99.428903 
2682.000000	99.428780 
2681.000000	99.428722 
2680.000000	99.428708 
2679.000000	99.428698 
2678.000000	99.428670 
2677.000000	99.428622 
2676.000000	99.428560 
2675.000000	99.428493 
2674.000000	99.428422 
2673.000000	99.428351 
2672.000000	99.428286 
2671.000000	99.428236 
2670.000000	99.428193 
2669.000000	99.428138 
2668.000000	99.428060 
2667.000000	99.427965 
2666.000000	99.427895 
2665.000000	99.427900 
2664.000000	99.428003 
2663.000000	99.428173 
2662.000000	99.428338 
2661.000000	99.428439 
2660.000000	99.428473 
2659.000000	99.428483 
2658.000000	99.428496 
2657.000000	99.428505 
2656.000000	99.428531 
2655.000000	99.428665 
2654.000000	99.428950 
2653.000000	99.429244 
2652.000000	99.429279 
2651.000000	99.428924 
2650.000000	99.428386 
2649.000000	99.428112 
2648.000000	99.428408 
2647.000000	99.429168 
2646.000000	99.429994 
2645.000000	99.430671 
2644.000000	99.431340 
2643.000000	99.432115 
2642.000000	99.432665 
2641.000000	99.432455 
2640.000000	99.431381 
2639.000000	99.429990 
2638.000000	99.428989 
2637.000000	99.428652 
2636.000000	99.428812 
2635.000000	99.429166 
2634.000000	99.429481 
2633.000000	99.429712 
2632.000000	99.430100 
2631.000000	99.431034 
2630.000000	99.432656 
2629.000000	99.434651 
2628.000000	99.436485 
2627.000000	99.437696 
2626.000000	99.437985 
2625.000000	99.437398 
2624.000000	99.436539 
2623.000000	99.436111 
2622.000000	99.436029 
2621.000000	99.435428 
2620.000000	99.433839 
2619.000000	99.431942 
2618.000000	99.430832 
2617.000000	99.430851 
2616.000000	99.431685 
2615.000000	99.433114 
2614.000000	99.434929 
2613.000000	99.436433 
2612.000000	99.436762 
2611.000000	99.435751 
2610.000000	99.434112 
2609.000000	99.432734 
2608.000000	99.432066 
2607.000000	99.432228 
2606.000000	99.433268 
2605.000000	99.435067 
2604.000000	99.437189 
2603.000000	99.439024 
2602.000000	99.440095 
2601.000000	99.440314 
2600.000000	99.440010 
2599.000000	99.439628 
2598.000000	99.439357 
2597.000000	99.439170 
2596.000000	99.439103 
2595.000000	99.439138 
2594.000000	99.438832 
2593.000000	99.437581 
2592.000000	99.435474 
2591.000000	99.433482 
2590.000000	99.432430 
2589.000000	99.432120 
2588.000000	99.431826 
2587.000000	99.431313 
2586.000000	99.430932 
2585.000000	99.430847 
2584.000000	99.430769 
2583.000000	99.430503 
2582.000000	99.430277 
2581.000000	99.430312 
2580.000000	99.430343 
2579.000000	99.429868 
2578.000000	99.428797 
2577.000000	99.427711 
2576.000000	99.427408 
2575.000000	99.428262 
2574.000000	99.429949 
2573.000000	99.431510 
2572.000000	99.432016 
2571.000000	99.431194 
2570.000000	99.429515 
2569.000000	99.427785 
2568.000000	99.426585 
2567.000000	99.426098 
2566.000000	99.426144 
2565.000000	99.426299 
2564.000000	99.426230 
2563.000000	99.425958 
2562.000000	99.425604 
2561.000000	99.424983 
2560.000000	99.423837 
2559.000000	99.422481 
2558.000000	99.421676 
2557.000000	99.421675 
2556.000000	99.421829 
2555.000000	99.421538 
2554.000000	99.421274 
2553.000000	99.422170 
2552.000000	99.424734 
2551.000000	99.428263 
2550.000000	99.431410 
2549.000000	99.433156 
2548.000000	99.433355 
2547.000000	99.432637 
2546.000000	99.431859 
2545.000000	99.431658 
2544.000000	99.432440 
2543.000000	99.434433 
2542.000000	99.437302 
2541.000000	99.439789 
2540.000000	99.440336 
2539.000000	99.438173 
2538.000000	99.433620 
2537.000000	99.427599 
2536.000000	99.421344 
2535.000000	99.416436 
2534.000000	99.414201 
2533.000000	99.414624 
2532.000000	99.416262 
2531.000000	99.417791 
2530.000000	99.419421 
2529.000000	99.422359 
2528.000000	99.427211 
2527.000000	99.433127 
2526.000000	99.438107 
2525.000000	99.440211 
2524.000000	99.439135 
2523.000000	99.436895 
2522.000000	99.436355 
2521.000000	99.438463 
2520.000000	99.441495 
2519.000000	99.443403 
2518.000000	99.444185 
2517.000000	99.445159 
2516.000000	99.446446 
2515.000000	99.446483 
2514.000000	99.444193 
2513.000000	99.440555 
2512.000000	99.437585 
2511.000000	99.436089 
2510.000000	99.434984 
2509.000000	99.432810 
2508.000000	99.429610 
2507.000000	99.427170 
2506.000000	99.427243 
2505.000000	99.429583 
2504.000000	99.431946 
2503.000000	99.432172 
2502.000000	99.430135 
2501.000000	99.427576 
2500.000000	99.426409 
2499.000000	99.427419 
2498.000000	99.430311 
2497.000000	99.434145 
2496.000000	99.437609 
2495.000000	99.439574 
2494.000000	99.439743 
2493.000000	99.438682 
2492.000000	99.437069 
2491.000000	99.435132 
2490.000000	99.432977 
2489.000000	99.431053 
2488.000000	99.429843 
2487.000000	99.429240 
2486.000000	99.428691 
2485.000000	99.428062 
2484.000000	99.427974 
2483.000000	99.428998 
2482.000000	99.430702 
2481.000000	99.431798 
2480.000000	99.431311 
2479.000000	99.429429 
2478.000000	99.427391 
2477.000000	99.426584 
2476.000000	99.427646 
2475.000000	99.430157 
2474.000000	99.432953 
2473.000000	99.435002 
2472.000000	99.436238 
2471.000000	99.437511 
2470.000000	99.439509 
2469.000000	99.441614 
2468.000000	99.442201 
2467.000000	99.440248 
2466.000000	99.436393 
2465.000000	99.432467 
2464.000000	99.429937 
2463.000000	99.429094 
2462.000000	99.429305 
2461.000000	99.429609 
2460.000000	99.429376 
2459.000000	99.428794 
2458.000000	99.428701 
2457.000000	99.429596 
2456.000000	99.430827 
2455.000000	99.431120 
2454.000000	99.430040 
2453.000000	99.428511 
2452.000000	99.427789 
2451.000000	99.428160 
2450.000000	99.428970 
2449.000000	99.429571 
2448.000000	99.429897 
2447.000000	99.430216 
2446.000000	99.430717 
2445.000000	99.431367 
2444.000000	99.431893 
2443.000000	99.431908 
2442.000000	99.431324 
2441.000000	99.430638 
2440.000000	99.430525 
2439.000000	99.431047 
2438.000000	99.431532 
2437.000000	99.431374 
2436.000000	99.430690 
2435.000000	99.429957 
2434.000000	99.429294 
2433.000000	99.428480 
2432.000000	99.427481 
2431.000000	99.426587 
2430.000000	99.426060 
2429.000000	99.425907 
2428.000000	99.426012 
2427.000000	99.426281 
2426.000000	99.426595 
2425.000000	99.426778 
2424.000000	99.426700 
2423.000000	99.426370 
2422.000000	99.425952 
2421.000000	99.425701 
2420.000000	99.425714 
2419.000000	99.425904 
2418.000000	99.426123 
2417.000000	99.426293 
2416.000000	99.426419 
2415.000000	99.426488 
2414.000000	99.426411 
2413.000000	99.426115 
2412.000000	99.425678 
2411.000000	99.425325 
2410.000000	99.425218 
2409.000000	99.425319 
2408.000000	99.425418 
2407.000000	99.425326 
2406.000000	99.425043 
2405.000000	99.424755 
2404.000000	99.424704 
2403.000000	99.425012 
2402.000000	99.425587 
2401.000000	99.426169 
2400.000000	99.426533 
2399.000000	99.426670 
2398.000000	99.426786 
2397.000000	99.427123 
2396.000000	99.427758 
2395.000000	99.428582 
2394.000000	99.429428 
2393.000000	99.430188 
2392.000000	99.430833 
2391.000000	99.431382 
2390.000000	99.431956 
2389.000000	99.432805 
2388.000000	99.434136 
2387.000000	99.435777 
2386.000000	99.437095 
2385.000000	99.437399 
2384.000000	99.436547 
2383.000000	99.435150 
2382.000000	99.434115 
2381.000000	99.433922 
2380.000000	99.434197 
2379.000000	99.433971 
2378.000000	99.432484 
2377.000000	99.429998 
2376.000000	99.427963 
2375.000000	99.428059 
2374.000000	99.430840 
2373.000000	99.435119 
2372.000000	99.438788 
2371.000000	99.440805 
2370.000000	99.442084 
2369.000000	99.444150 
2368.000000	99.447051 
2367.000000	99.449071 
2366.000000	99.448824 
2365.000000	99.446958 
2364.000000	99.445517 
2363.000000	99.445650 
2362.000000	99.446727 
2361.000000	99.447629 
2360.000000	99.447945 
2359.000000	99.448019 
2358.000000	99.448591 
2357.000000	99.450412 
2356.000000	99.453785 
2355.000000	99.457707 
2354.000000	99.460325 
2353.000000	99.460651 
2352.000000	99.459369 
2351.000000	99.457945 
2350.000000	99.456791 
2349.000000	99.455220 
2348.000000	99.452714 
2347.000000	99.449903 
2346.000000	99.448470 
2345.000000	99.449336 
2344.000000	99.452034 
2343.000000	99.455105 
2342.000000	99.457352 
2341.000000	99.458492 
2340.000000	99.458929 
2339.000000	99.459446 
2338.000000	99.460322 
2337.000000	99.461375 
2336.000000	99.462078 
2335.000000	99.462113 
2334.000000	99.461480 
2333.000000	99.461032 
2332.000000	99.461589 
2331.000000	99.463124 
2330.000000	99.463830 
2329.000000	99.462270 
2328.000000	99.459059 
2327.000000	99.456603 
2326.000000	99.456773 
2325.000000	99.459229 
2324.000000	99.462588 
2323.000000	99.465998 
2322.000000	99.469827 
2321.000000	99.474556 
2320.000000	99.479166 
2319.000000	99.481733 
2318.000000	99.480737 
2317.000000	99.476815 
2316.000000	99.471829 
2315.000000	99.467455 
2314.000000	99.463836 
2313.000000	99.461021 
2312.000000	99.459795 
2311.000000	99.461290 
2310.000000	99.465049 
2309.000000	99.468945 
2308.000000	99.470646 
2307.000000	99.469292 
2306.000000	99.465481 
2305.000000	99.460458 
2304.000000	99.455094 
2303.000000	99.449949 
2302.000000	99.445712 
2301.000000	99.443441 
2300.000000	99.443366 
2299.000000	99.443944 
2298.000000	99.442897 
2297.000000	99.439993 
2296.000000	99.437464 
2295.000000	99.436902 
2294.000000	99.437147 
2293.000000	99.436154 
2292.000000	99.433853 
2291.000000	99.431766 
2290.000000	99.430712 
2289.000000	99.430068 
2288.000000	99.429174 
2287.000000	99.428170 
2286.000000	99.427144 
2285.000000	99.425468 
2284.000000	99.422678 
2283.000000	99.419353 
2282.000000	99.416499 
2281.000000	99.414509 
2280.000000	99.413286 
2279.000000	99.412901 
2278.000000	99.413467 
2277.000000	99.414629 
2276.000000	99.415732 
2275.000000	99.416391 
2274.000000	99.416499 
2273.000000	99.415854 
2272.000000	99.414220 
2271.000000	99.411804 
2270.000000	99.409378 
2269.000000	99.407764 
2268.000000	99.407346 
2267.000000	99.408031 
2266.000000	99.409308 
2265.000000	99.410312 
2264.000000	99.410233 
2263.000000	99.408935 
2262.000000	99.407170 
2261.000000	99.406076 
2260.000000	99.406298 
2259.000000	99.407306 
2258.000000	99.407477 
2257.000000	99.405465 
2256.000000	99.402045 
2255.000000	99.400297 
2254.000000	99.402810 
2253.000000	99.408769 
2252.000000	99.413843 
2251.000000	99.414624 
2250.000000	99.411817 
2249.000000	99.408807 
2248.000000	99.407425 
2247.000000	99.406500 
2246.000000	99.404429 
2245.000000	99.401108 
2244.000000	99.397248 
2243.000000	99.393335 
2242.000000	99.390019 
2241.000000	99.388393 
2240.000000	99.388816 
2239.000000	99.389839 
2238.000000	99.389235 
2237.000000	99.386041 
2236.000000	99.381246 
2235.000000	99.376751 
2234.000000	99.374023 
2233.000000	99.373451 
2232.000000	99.374536 
2231.000000	99.376515 
2230.000000	99.378831 
2229.000000	99.381131 
2228.000000	99.383034 
2227.000000	99.384311 
2226.000000	99.385234 
2225.000000	99.386166 
2224.000000	99.386778 
2223.000000	99.386312 
2222.000000	99.384819 
2221.000000	99.383478 
2220.000000	99.383249 
2219.000000	99.383738 
2218.000000	99.383958 
2217.000000	99.383744 
2216.000000	99.383763 
2215.000000	99.384352 
2214.000000	99.385041 
2213.000000	99.385209 
2212.000000	99.384796 
2211.000000	99.384223 
2210.000000	99.383906 
2209.000000	99.383883 
2208.000000	99.383975 
2207.000000	99.384055 
2206.000000	99.384113 
2205.000000	99.384165 
2204.000000	99.384207 
2203.000000	99.384252 
2202.000000	99.384315 
2201.000000	99.384403 
2200.000000	99.384505 
2199.000000	99.384595 
2198.000000	99.384646 
2197.000000	99.384656 
2196.000000	99.384656 
2195.000000	99.384685 
2194.000000	99.384748 
2193.000000	99.384813 
2192.000000	99.384834 
2191.000000	99.384783 
2190.000000	99.384666 
2189.000000	99.384507 
2188.000000	99.384328 
2187.000000	99.384129 
2186.000000	99.383896 
2185.000000	99.383615 
2184.000000	99.383289 
2183.000000	99.382926 
2182.000000	99.382522 
2181.000000	99.382080 
2180.000000	99.381593 
2179.000000	99.381053 
2178.000000	99.380480 
2177.000000	99.379896 
2176.000000	99.379313 
2175.000000	99.378750 
2174.000000	99.378227 
2173.000000	99.377743 
2172.000000	99.377309 
2171.000000	99.376943 
2170.000000	99.376625 
2169.000000	99.376313 
2168.000000	99.375974 
2167.000000	99.375563 
2166.000000	99.374890 
2165.000000	99.373684 
2164.000000	99.372007 
2163.000000	99.370433 
2162.000000	99.369547 
2161.000000	99.369546 
2160.000000	99.370390 
2159.000000	99.371687 
2158.000000	99.372366 
2157.000000	99.371509 
2156.000000	99.369700 
2155.000000	99.368589 
2154.000000	99.368705 
2153.000000	99.368892 
2152.000000	99.368214 
2151.000000	99.367244 
2150.000000	99.366971 
2149.000000	99.367573 
2148.000000	99.368752 
2147.000000	99.370124 
2146.000000	99.370741 
2145.000000	99.369580 
2144.000000	99.367173 
2143.000000	99.365494 
2142.000000	99.365508 
2141.000000	99.366063 
2140.000000	99.365884 
2139.000000	99.365423 
2138.000000	99.365749 
2137.000000	99.366594 
2136.000000	99.366702 
2135.000000	99.365540 
2134.000000	99.363752 
2133.000000	99.362375 
2132.000000	99.362003 
2131.000000	99.361874 
2130.000000	99.359498 
2129.000000	99.352605 
2128.000000	99.342551 
2127.000000	99.334869 
2126.000000	99.333953 
2125.000000	99.339083 
2124.000000	99.345749 
2123.000000	99.350799 
2122.000000	99.354577 
2121.000000	99.357861 
2120.000000	99.359900 
2119.000000	99.359987 
2118.000000	99.359003 
2117.000000	99.358273 
2116.000000	99.357932 
2115.000000	99.357498 
2114.000000	99.357386 
2113.000000	99.358667 
2112.000000	99.361389 
2111.000000	99.363994 
2110.000000	99.364779 
2109.000000	99.363694 
2108.000000	99.362446 
2107.000000	99.362697 
2106.000000	99.364169 
2105.000000	99.364762 
2104.000000	99.362714 
2103.000000	99.358395 
2102.000000	99.354022 
2101.000000	99.351678 
2100.000000	99.351735 
2099.000000	99.353112 
2098.000000	99.354555 
2097.000000	99.355798 
2096.000000	99.357476 
2095.000000	99.359910 
2094.000000	99.362168 
2093.000000	99.362777 
2092.000000	99.361486 
2091.000000	99.359872 
2090.000000	99.359806 
2089.000000	99.361440 
2088.000000	99.363196 
2087.000000	99.363578 
2086.000000	99.362628 
2085.000000	99.361480 
2084.000000	99.360993 
2083.000000	99.361242 
2082.000000	99.361861 
2081.000000	99.362680 
2080.000000	99.363797 
2079.000000	99.365127 
2078.000000	99.366264 
2077.000000	99.366957 
2076.000000	99.367601 
2075.000000	99.368858 
2074.000000	99.370735 
2073.000000	99.372487 
2072.000000	99.373547 
2071.000000	99.373952 
2070.000000	99.373763 
2069.000000	99.372813 
2068.000000	99.371412 
2067.000000	99.370551 
2066.000000	99.370739 
2065.000000	99.371078 
2064.000000	99.370271 
2063.000000	99.368349 
2062.000000	99.366563 
2061.000000	99.366053 
2060.000000	99.367352 
2059.000000	99.370579 
2058.000000	99.374899 
2057.000000	99.378062 
2056.000000	99.377991 
2055.000000	99.374754 
2054.000000	99.370272 
2053.000000	99.365913 
2052.000000	99.361358 
2051.000000	99.356294 
2050.000000	99.352133 
2049.000000	99.351051 
2048.000000	99.353659 
2047.000000	99.358192 
2046.000000	99.361875 
2045.000000	99.363106 
2044.000000	99.362365 
2043.000000	99.361449 
2042.000000	99.361533 
2041.000000	99.362087 
2040.000000	99.361889 
2039.000000	99.360255 
2038.000000	99.356701 
2037.000000	99.350763 
2036.000000	99.343511 
2035.000000	99.338137 
2034.000000	99.337131 
2033.000000	99.338827 
2032.000000	99.338619 
2031.000000	99.334271 
2030.000000	99.328291 
2029.000000	99.324408 
2028.000000	99.322772 
2027.000000	99.320161 
2026.000000	99.314924 
2025.000000	99.310294 
2024.000000	99.311002 
2023.000000	99.316706 
2022.000000	99.320862 
2021.000000	99.317526 
2020.000000	99.308489 
2019.000000	99.301444 
2018.000000	99.301457 
2017.000000	99.306607 
2016.000000	99.311939 
2015.000000	99.315325 
2014.000000	99.317614 
2013.000000	99.319346 
2012.000000	99.319879 
2011.000000	99.318946 
2010.000000	99.317730 
2009.000000	99.318752 
2008.000000	99.324622 
2007.000000	99.335505 
2006.000000	99.347788 
2005.000000	99.357193 
2004.000000	99.363132 
2003.000000	99.367180 
2002.000000	99.368080 
2001.000000	99.362173 
2000.000000	99.349308 
1999.000000	99.334341 
1998.000000	99.321504 
1997.000000	99.311158 
1996.000000	99.303655 
1995.000000	99.302201 
1994.000000	99.308826 
1993.000000	99.319804 
1992.000000	99.328047 
1991.000000	99.330381 
1990.000000	99.329021 
1989.000000	99.327122 
1988.000000	99.326297 
1987.000000	99.327163 
1986.000000	99.328938 
1985.000000	99.329042 
1984.000000	99.326004 
1983.000000	99.322524 
1982.000000	99.322998 
1981.000000	99.327916 
1980.000000	99.333005 
1979.000000	99.334328 
1978.000000	99.332165 
1977.000000	99.329175 
1976.000000	99.326719 
1975.000000	99.324504 
1974.000000	99.322252 
1973.000000	99.320261 
1972.000000	99.319232 
1971.000000	99.320107 
1970.000000	99.323037 
1969.000000	99.326222 
1968.000000	99.327194 
1967.000000	99.325950 
1966.000000	99.325412 
1965.000000	99.327997 
1964.000000	99.333022 
1963.000000	99.337945 
1962.000000	99.340847 
1961.000000	99.341250 
1960.000000	99.339848 
1959.000000	99.338322 
1958.000000	99.338614 
1957.000000	99.341295 
1956.000000	99.344810 
1955.000000	99.347055 
1954.000000	99.347423 
1953.000000	99.346670 
1952.000000	99.345115 
1951.000000	99.342040 
1950.000000	99.337159 
1949.000000	99.331960 
1948.000000	99.329206 
1947.000000	99.330270 
1946.000000	99.333000 
1945.000000	99.332944 
1944.000000	99.327993 
1943.000000	99.321450 
1942.000000	99.318852 
1941.000000	99.321773 
1940.000000	99.327196 
1939.000000	99.332301 
1938.000000	99.337195 
1937.000000	99.343025 
1936.000000	99.349906 
1935.000000	99.357233 
1934.000000	99.364209 
1933.000000	99.369328 
1932.000000	99.370996 
1931.000000	99.369643 
1930.000000	99.367884 
1929.000000	99.367342 
1928.000000	99.367177 
1927.000000	99.366160 
1926.000000	99.364707 
1925.000000	99.363782 
1924.000000	99.362813 
1923.000000	99.360928 
1922.000000	99.359051 
1921.000000	99.359091 
1920.000000	99.361350 
1919.000000	99.364162 
1918.000000	99.365546 
1917.000000	99.365218 
1916.000000	99.364576 
1915.000000	99.364856 
1914.000000	99.366047 
1913.000000	99.367564 
1912.000000	99.369006 
1911.000000	99.370158 
1910.000000	99.370473 
1909.000000	99.369373 
1908.000000	99.367535 
1907.000000	99.366600 
1906.000000	99.367257 
1905.000000	99.368387 
1904.000000	99.368463 
1903.000000	99.367629 
1902.000000	99.367277 
1901.000000	99.368075 
1900.000000	99.369387 
1899.000000	99.370388 
1898.000000	99.370928 
1897.000000	99.371263 
1896.000000	99.371477 
1895.000000	99.371578 
1894.000000	99.371714 
1893.000000	99.372023 
1892.000000	99.372502 
1891.000000	99.373075 
1890.000000	99.373504 
1889.000000	99.373304 
1888.000000	99.372264 
1887.000000	99.370870 
1886.000000	99.369917 
1885.000000	99.369816 
1884.000000	99.370415 
1883.000000	99.371450 
1882.000000	99.372646 
1881.000000	99.373176 
1880.000000	99.371815 
1879.000000	99.368093 
1878.000000	99.363543 
1877.000000	99.361204 
1876.000000	99.362982 
1875.000000	99.368370 
1874.000000	99.374908 
1873.000000	99.380092 
1872.000000	99.383124 
1871.000000	99.384603 
1870.000000	99.385298 
1869.000000	99.385280 
1868.000000	99.384530 
1867.000000	99.383863 
1866.000000	99.384072 
1865.000000	99.384864 
1864.000000	99.385319 
1863.000000	99.384963 
1862.000000	99.384160 
1861.000000	99.383586 
1860.000000	99.383668 
1859.000000	99.384541 
1858.000000	99.386067 
1857.000000	99.387765 
1856.000000	99.389162 
1855.000000	99.390303 
1854.000000	99.391529 
1853.000000	99.392734 
1852.000000	99.393499 
1851.000000	99.393831 
1850.000000	99.394235 
1849.000000	99.395183 
1848.000000	99.396469 
1847.000000	99.397439 
1846.000000	99.397648 
1845.000000	99.397325 
1844.000000	99.397248 
1843.000000	99.398023 
1842.000000	99.399384 
1841.000000	99.400406 
1840.000000	99.400609 
1839.000000	99.400276 
1838.000000	99.400011 
1837.000000	99.400149 
1836.000000	99.400532 
1835.000000	99.400903 
1834.000000	99.401147 
1833.000000	99.401231 
1832.000000	99.401182 
1831.000000	99.401053 
1830.000000	99.400938 
1829.000000	99.400954 
1828.000000	99.401090 
1827.000000	99.401243 
1826.000000	99.401343 
1825.000000	99.401383 
1824.000000	99.401409 
1823.000000	99.401487 
1822.000000	99.401622 
1821.000000	99.401753 
1820.000000	99.401863 
1819.000000	99.402023 
1818.000000	99.402304 
1817.000000	99.402628 
1816.000000	99.402792 
1815.000000	99.402721 
1814.000000	99.402569 
1813.000000	99.402587 
1812.000000	99.402831 
1811.000000	99.403136 
1810.000000	99.403418 
1809.000000	99.403733 
1808.000000	99.404004 
1807.000000	99.404047 
1806.000000	99.403833 
1805.000000	99.403543 
1804.000000	99.403334 
1803.000000	99.403202 
1802.000000	99.402933 
1801.000000	99.402241 
1800.000000	99.401131 
1799.000000	99.400118 
1798.000000	99.399893 
1797.000000	99.400625 
1796.000000	99.401856 
1795.000000	99.403011 
1794.000000	99.403833 
1793.000000	99.404251 
1792.000000	99.404242 
1791.000000	99.404093 
1790.000000	99.404295 
1789.000000	99.404787 
1788.000000	99.405202 
1787.000000	99.405411 
1786.000000	99.405559 
1785.000000	99.405763 
1784.000000	99.406007 
1783.000000	99.406331 
1782.000000	99.406599 
1781.000000	99.406517 
1780.000000	99.406016 
1779.000000	99.405334 
1778.000000	99.404930 
1777.000000	99.404930 
1776.000000	99.405204 
1775.000000	99.405497 
1774.000000	99.405557 
1773.000000	99.405330 
1772.000000	99.404951 
1771.000000	99.404738 
1770.000000	99.404902 
1769.000000	99.405171 
1768.000000	99.405125 
1767.000000	99.404573 
1766.000000	99.403677 
1765.000000	99.402778 
1764.000000	99.402130 
1763.000000	99.401824 
1762.000000	99.401736 
1761.000000	99.401748 
1760.000000	99.401921 
1759.000000	99.402216 
1758.000000	99.402550 
1757.000000	99.402757 
1756.000000	99.402788 
1755.000000	99.402768 
1754.000000	99.402920 
1753.000000	99.403473 
1752.000000	99.404337 
1751.000000	99.404620 
1750.000000	99.403608 
1749.000000	99.401650 
1748.000000	99.399772 
1747.000000	99.398714 
1746.000000	99.398391 
1745.000000	99.398380 
1744.000000	99.398333 
1743.000000	99.398126 
1742.000000	99.397915 
1741.000000	99.397866 
1740.000000	99.397869 
1739.000000	99.397776 
1738.000000	99.397768 
1737.000000	99.397903 
1736.000000	99.398053 
1735.000000	99.398178 
1734.000000	99.398157 
1733.000000	99.398116 
1732.000000	99.398360 
1731.000000	99.398569 
1730.000000	99.398554 
1729.000000	99.398475 
1728.000000	99.398504 
1727.000000	99.398625 
1726.000000	99.398717 
1725.000000	99.398768 
1724.000000	99.398827 
1723.000000	99.398915 
1722.000000	99.399043 
1721.000000	99.399206 
1720.000000	99.399400 
1719.000000	99.399611 
1718.000000	99.399805 
1717.000000	99.399955 
1716.000000	99.400082 
1715.000000	99.400208 
1714.000000	99.400340 
1713.000000	99.400481 
1712.000000	99.400630 
1711.000000	99.400782 
1710.000000	99.400935 
1709.000000	99.401089 
1708.000000	99.401244 
1707.000000	99.401399 
1706.000000	99.401550 
1705.000000	99.401694 
1704.000000	99.401833 
1703.000000	99.401973 
1702.000000	99.402117 
1701.000000	99.402265 
1700.000000	99.402410 
1699.000000	99.402550 
1698.000000	99.402689 
1697.000000	99.402819 
1696.000000	99.402927 
1695.000000	99.403007 
1694.000000	99.403064 
1693.000000	99.403107 
1692.000000	99.403143 
1691.000000	99.403176 
1690.000000	99.403209 
1689.000000	99.403243 
1688.000000	99.403279 
1687.000000	99.403318 
1686.000000	99.403354 
1685.000000	99.403379 
1684.000000	99.403384 
1683.000000	99.403370 
1682.000000	99.403346 
1681.000000	99.403309 
1680.000000	99.403258 
1679.000000	99.403194 
1678.000000	99.403127 
1677.000000	99.403061 
1676.000000	99.403000 
1675.000000	99.402947 
1674.000000	99.402902 
1673.000000	99.402862 
1672.000000	99.402820 
1671.000000	99.402768 
1670.000000	99.402702 
1669.000000	99.402626 
1668.000000	99.402550 
1667.000000	99.402480 
1666.000000	99.402419 
1665.000000	99.402367 
1664.000000	99.402325 
1663.000000	99.402294 
1662.000000	99.402269 
1661.000000	99.402246 
1660.000000	99.402219 
1659.000000	99.402184 
1658.000000	99.402141 
1657.000000	99.402097 
1656.000000	99.402057 
1655.000000	99.402033 
1654.000000	99.402037 
1653.000000	99.402072 
1652.000000	99.402139 
1651.000000	99.402231 
1650.000000	99.402335 
1649.000000	99.402443 
1648.000000	99.402558 
1647.000000	99.402681 
1646.000000	99.402810 
1645.000000	99.402945 
1644.000000	99.403093 
1643.000000	99.403254 
1642.000000	99.403431 
1641.000000	99.403620 
1640.000000	99.403818 
1639.000000	99.404037 
1638.000000	99.404307 
1637.000000	99.404662 
1636.000000	99.405082 
1635.000000	99.405471 
1634.000000	99.405842 
1633.000000	99.406206 
1632.000000	99.406420 
1631.000000	99.406497 
1630.000000	99.406576 
1629.000000	99.406772 
1628.000000	99.407149 
1627.000000	99.407753 
1626.000000	99.408447 
1625.000000	99.408918 
1624.000000	99.409040 
1623.000000	99.409068 
1622.000000	99.409410 
1621.000000	99.410119 
1620.000000	99.410869 
1619.000000	99.411394 
1618.000000	99.411755 
1617.000000	99.411912 
1616.000000	99.412093 
1615.000000	99.413184 
1614.000000	99.415045 
1613.000000	99.416669 
1612.000000	99.417767 
1611.000000	99.418618 
1610.000000	99.419186 
1609.000000	99.419308 
1608.000000	99.419452 
1607.000000	99.420161 
1606.000000	99.420889 
1605.000000	99.420795 
1604.000000	99.420317 
1603.000000	99.420434 
1602.000000	99.421602 
1601.000000	99.423546 
1600.000000	99.425642 
1599.000000	99.427129 
1598.000000	99.427478 
1597.000000	99.426981 
1596.000000	99.426315 
1595.000000	99.425601 
1594.000000	99.424508 
1593.000000	99.423311 
1592.000000	99.423035 
1591.000000	99.424107 
1590.000000	99.425617 
1589.000000	99.426503 
1588.000000	99.426917 
1587.000000	99.427520 
1586.000000	99.428166 
1585.000000	99.428110 
1584.000000	99.427638 
1583.000000	99.427442 
1582.000000	99.426967 
1581.000000	99.425606 
1580.000000	99.423890 
1579.000000	99.422672 
1578.000000	99.422050 
1577.000000	99.421583 
1576.000000	99.420550 
1575.000000	99.419357 
1574.000000	99.418728 
1573.000000	99.418191 
1572.000000	99.417649 
1571.000000	99.417555 
1570.000000	99.417850 
1569.000000	99.418100 
1568.000000	99.418644 
1567.000000	99.419431 
1566.000000	99.419859 
1565.000000	99.419761 
1564.000000	99.419370 
1563.000000	99.418815 
1562.000000	99.418068 
1561.000000	99.417347 
1560.000000	99.417481 
1559.000000	99.417942 
1558.000000	99.417627 
1557.000000	99.417679 
1556.000000	99.417937 
1555.000000	99.418066 
1554.000000	99.418046 
1553.000000	99.417901 
1552.000000	99.417704 
1551.000000	99.417462 
1550.000000	99.417203 
1549.000000	99.416964 
1548.000000	99.416760 
1547.000000	99.416557 
1546.000000	99.416280 
1545.000000	99.415930 
1544.000000	99.415637 
1543.000000	99.415574 
1542.000000	99.415780 
1541.000000	99.416146 
1540.000000	99.416401 
1539.000000	99.416488 
1538.000000	99.416573 
1537.000000	99.416680 
1536.000000	99.416766 
1535.000000	99.416871 
1534.000000	99.417001 
1533.000000	99.417099 
1532.000000	99.417170 
1531.000000	99.417259 
1530.000000	99.417376 
1529.000000	99.417497 
1528.000000	99.417583 
1527.000000	99.417637 
1526.000000	99.417715 
1525.000000	99.417875 
1524.000000	99.418132 
1523.000000	99.418528 
1522.000000	99.419110 
1521.000000	99.419630 
1520.000000	99.419791 
1519.000000	99.419481 
1518.000000	99.418653 
1517.000000	99.417666 
1516.000000	99.417047 
1515.000000	99.417023 
1514.000000	99.417350 
1513.000000	99.417714 
1512.000000	99.417899 
1511.000000	99.417616 
1510.000000	99.416907 
1509.000000	99.416296 
1508.000000	99.416706 
1507.000000	99.417869 
1506.000000	99.418185 
1505.000000	99.417910 
1504.000000	99.417801 
1503.000000	99.417746 
1502.000000	99.417797 
1501.000000	99.417831 
1500.000000	99.417605 
1499.000000	99.417437 
1498.000000	99.418083 
1497.000000	99.419413 
1496.000000	99.419869 
1495.000000	99.419263 
1494.000000	99.419020 
1493.000000	99.419595 
1492.000000	99.420412 
1491.000000	99.420867 
1490.000000	99.420743 
1489.000000	99.419970 
1488.000000	99.418229 
1487.000000	99.415641 
1486.000000	99.413109 
1485.000000	99.410540 
1484.000000	99.407780 
1483.000000	99.405264 
1482.000000	99.403459 
1481.000000	99.402549 
1480.000000	99.402184 
1479.000000	99.402262 
1478.000000	99.402510 
1477.000000	99.401988 
1476.000000	99.399675 
1475.000000	99.396977 
1474.000000	99.396672 
1473.000000	99.398926 
1472.000000	99.400623 
1471.000000	99.400061 
1470.000000	99.398381 
1469.000000	99.396143 
1468.000000	99.393535 
1467.000000	99.391383 
1466.000000	99.390642 
1465.000000	99.390715 
1464.000000	99.390444 
1463.000000	99.389557 
1462.000000	99.388375 
1461.000000	99.386759 
1460.000000	99.384226 
1459.000000	99.380253 
1458.000000	99.374541 
1457.000000	99.367720 
1456.000000	99.362817 
1455.000000	99.361970 
1454.000000	99.362328 
1453.000000	99.363286 
1452.000000	99.366213 
1451.000000	99.370445 
1450.000000	99.374145 
1449.000000	99.376195 
1448.000000	99.376219 
1447.000000	99.375260 
1446.000000	99.374653 
1445.000000	99.374719 
1444.000000	99.375587 
1443.000000	99.377014 
1442.000000	99.379536 
1441.000000	99.382999 
1440.000000	99.385674 
1439.000000	99.385509 
1438.000000	99.383677 
1437.000000	99.383273 
1436.000000	99.383858 
1435.000000	99.382658 
1434.000000	99.378481 
1433.000000	99.372726 
1432.000000	99.367879 
1431.000000	99.364959 
1430.000000	99.363128 
1429.000000	99.361675 
1428.000000	99.359935 
1427.000000	99.357882 
1426.000000	99.355831 
1425.000000	99.354662 
1424.000000	99.354954 
1423.000000	99.355038 
1422.000000	99.353392 
1421.000000	99.350102 
1420.000000	99.345963 
1419.000000	99.340143 
1418.000000	99.332682 
1417.000000	99.325732 
1416.000000	99.319182 
1415.000000	99.312153 
1414.000000	99.305168 
1413.000000	99.299577 
1412.000000	99.295854 
1411.000000	99.292533 
1410.000000	99.288033 
1409.000000	99.282724 
1408.000000	99.278195 
1407.000000	99.276242 
1406.000000	99.277576 
1405.000000	99.281254 
1404.000000	99.285666 
1403.000000	99.289515 
1402.000000	99.293032 
1401.000000	99.297362 
1400.000000	99.302824 
1399.000000	99.307335 
1398.000000	99.307793 
1397.000000	99.302709 
1396.000000	99.293105 
1395.000000	99.283470 
1394.000000	99.279574 
1393.000000	99.283460 
1392.000000	99.291969 
1391.000000	99.300242 
1390.000000	99.305746 
1389.000000	99.308313 
1388.000000	99.308238 
1387.000000	99.305873 
1386.000000	99.302758 
1385.000000	99.300859 
1384.000000	99.300698 
1383.000000	99.301117 
1382.000000	99.300879 
1381.000000	99.299955 
1380.000000	99.299527 
1379.000000	99.301174 
1378.000000	99.305688 
1377.000000	99.312349 
1376.000000	99.319081 
1375.000000	99.323725 
1374.000000	99.325894 
1373.000000	99.327787 
1372.000000	99.331626 
1371.000000	99.337176 
1370.000000	99.342483 
1369.000000	99.346041 
1368.000000	99.348127 
1367.000000	99.350025 
1366.000000	99.352874 
1365.000000	99.357120 
1364.000000	99.362448 
1363.000000	99.367749 
1362.000000	99.371882 
1361.000000	99.374623 
1360.000000	99.376428 
1359.000000	99.377976 
1358.000000	99.380242 
1357.000000	99.384103 
1356.000000	99.389260 
1355.000000	99.393938 
1354.000000	99.396695 
1353.000000	99.397992 
1352.000000	99.398825 
1351.000000	99.399179 
1350.000000	99.398541 
1349.000000	99.397543 
1348.000000	99.397855 
1347.000000	99.399905 
1346.000000	99.402530 
1345.000000	99.404581 
1344.000000	99.405969 
1343.000000	99.406844 
1342.000000	99.407226 
1341.000000	99.407697 
1340.000000	99.409348 
1339.000000	99.412282 
1338.000000	99.415162 
1337.000000	99.416822 
1336.000000	99.417298 
1335.000000	99.417167 
1334.000000	99.416842 
1333.000000	99.416591 
1332.000000	99.416354 
1331.000000	99.415341 
1330.000000	99.412765 
1329.000000	99.409456 
1328.000000	99.407669 
1327.000000	99.408614 
1326.000000	99.411020 
1325.000000	99.412863 
1324.000000	99.413782 
1323.000000	99.414562 
1322.000000	99.415387 
1321.000000	99.415874 
1320.000000	99.416418 
1319.000000	99.418006 
1318.000000	99.420540 
1317.000000	99.422442 
1316.000000	99.422481 
1315.000000	99.421272 
1314.000000	99.420554 
1313.000000	99.421264 
1312.000000	99.422612 
1311.000000	99.423011 
1310.000000	99.421640 
1309.000000	99.419167 
1308.000000	99.417142 
1307.000000	99.416707 
1306.000000	99.417657 
1305.000000	99.418891 
1304.000000	99.419836 
1303.000000	99.420924 
1302.000000	99.422605 
1301.000000	99.424165 
1300.000000	99.424291 
1299.000000	99.422815 
1298.000000	99.421250 
1297.000000	99.421021 
1296.000000	99.421728 
1295.000000	99.422011 
1294.000000	99.421578 
1293.000000	99.421164 
1292.000000	99.420633 
1291.000000	99.418942 
1290.000000	99.416314 
1289.000000	99.414664 
1288.000000	99.414938 
1287.000000	99.415385 
1286.000000	99.413867 
1285.000000	99.410741 
1284.000000	99.407856 
1283.000000	99.405667 
1282.000000	99.403051 
1281.000000	99.399650 
1280.000000	99.396635 
1279.000000	99.394749 
1278.000000	99.393004 
1277.000000	99.390199 
1276.000000	99.386733 
1275.000000	99.384036 
1274.000000	99.382603 
1273.000000	99.381391 
1272.000000	99.379022 
1271.000000	99.375046 
1270.000000	99.370101 
1269.000000	99.365243 
1268.000000	99.361227 
1267.000000	99.358197 
1266.000000	99.355801 
1265.000000	99.353543 
1264.000000	99.350987 
1263.000000	99.347805 
1262.000000	99.343967 
1261.000000	99.339931 
1260.000000	99.336415 
1259.000000	99.333740 
1258.000000	99.331605 
1257.000000	99.329821 
1256.000000	99.329043 
1255.000000	99.330218 
1254.000000	99.333070 
1253.000000	99.335545 
1252.000000	99.335417 
1251.000000	99.332561 
1250.000000	99.329232 
1249.000000	99.327906 
1248.000000	99.329115 
1247.000000	99.331536 
1246.000000	99.333452 
1245.000000	99.333658 
1244.000000	99.331469 
1243.000000	99.327191 
1242.000000	99.322924 
1241.000000	99.321475 
1240.000000	99.323733 
1239.000000	99.327695 
1238.000000	99.330499 
1237.000000	99.331387 
1236.000000	99.331619 
1235.000000	99.332118 
1234.000000	99.332450 
1233.000000	99.332023 
1232.000000	99.330914 
1231.000000	99.329190 
1230.000000	99.326693 
1229.000000	99.324176 
1228.000000	99.323507 
1227.000000	99.325709 
1226.000000	99.329435 
1225.000000	99.332286 
1224.000000	99.333514 
1223.000000	99.334478 
1222.000000	99.336589 
1221.000000	99.339702 
1220.000000	99.342694 
1219.000000	99.344960 
1218.000000	99.346910 
1217.000000	99.349193 
1216.000000	99.351801 
1215.000000	99.354089 
1214.000000	99.355572 
1213.000000	99.356452 
1212.000000	99.357237 
1211.000000	99.358193 
1210.000000	99.359579 
1209.000000	99.362122 
1208.000000	99.366501 
1207.000000	99.372244 
1206.000000	99.377701 
1205.000000	99.381395 
1204.000000	99.382999 
1203.000000	99.382932 
1202.000000	99.381843 
1201.000000	99.380769 
1200.000000	99.381030 
1199.000000	99.383223 
1198.000000	99.386468 
1197.000000	99.389067 
1196.000000	99.389791 
1195.000000	99.388489 
1194.000000	99.386140 
1193.000000	99.384250 
1192.000000	99.383744 
1191.000000	99.384184 
1190.000000	99.384229 
1189.000000	99.383097 
1188.000000	99.381356 
1187.000000	99.380276 
1186.000000	99.380720 
1185.000000	99.382704 
1184.000000	99.385498 
1183.000000	99.387849 
1182.000000	99.388649 
1181.000000	99.387864 
1180.000000	99.386663 
1179.000000	99.386315 
1178.000000	99.386962 
1177.000000	99.387698 
1176.000000	99.387680 
1175.000000	99.386828 
1174.000000	99.385515 
1173.000000	99.383988 
1172.000000	99.382302 
1171.000000	99.380644 
1170.000000	99.379419 
1169.000000	99.378959 
1168.000000	99.379173 
1167.000000	99.379506 
1166.000000	99.379337 
1165.000000	99.378516 
1164.000000	99.377449 
1163.000000	99.376553 
1162.000000	99.375738 
1161.000000	99.374666 
1160.000000	99.373533 
1159.000000	99.373173 
1158.000000	99.374008 
1157.000000	99.375036 
1156.000000	99.374450 
1155.000000	99.371542 
1154.000000	99.367691 
1153.000000	99.365312 
1152.000000	99.365626 
1151.000000	99.367631 
1150.000000	99.369037 
1149.000000	99.368312 
1148.000000	99.365704 
1147.000000	99.362591 
1146.000000	99.360070 
1145.000000	99.358161 
1144.000000	99.356115 
1143.000000	99.353337 
1142.000000	99.350111 
1141.000000	99.347545 
1140.000000	99.346810 
1139.000000	99.348155 
1138.000000	99.350407 
1137.000000	99.351610 
1136.000000	99.350531 
1135.000000	99.347714 
1134.000000	99.344892 
1133.000000	99.343160 
1132.000000	99.341863 
1131.000000	99.339294 
1130.000000	99.334102 
1129.000000	99.325990 
1128.000000	99.315748 
1127.000000	99.305268 
1126.000000	99.297020 
1125.000000	99.292506 
1124.000000	99.290958 
1123.000000	99.290000 
1122.000000	99.287971 
1121.000000	99.285351 
1120.000000	99.283622 
1119.000000	99.282936 
1118.000000	99.281400 
1117.000000	99.276918 
1116.000000	99.269626 
1115.000000	99.262175 
1114.000000	99.257392 
1113.000000	99.255803 
1112.000000	99.255556 
1111.000000	99.254224 
1110.000000	99.249875 
1109.000000	99.241334 
1108.000000	99.229263 
1107.000000	99.216874 
1106.000000	99.207601 
1105.000000	99.201172 
1104.000000	99.193523 
1103.000000	99.181984 
1102.000000	99.169184 
1101.000000	99.160100 
1100.000000	99.156107 
1099.000000	99.154197 
1098.000000	99.151468 
1097.000000	99.147843 
1096.000000	99.144061 
1095.000000	99.139269 
1094.000000	99.131890 
1093.000000	99.121396 
1092.000000	99.108089 
1091.000000	99.092282 
1090.000000	99.074767 
1089.000000	99.057046 
1088.000000	99.040052 
1087.000000	99.023479 
1086.000000	99.007300 
1085.000000	98.992939 
1084.000000	98.981614 
1083.000000	98.972113 
1082.000000	98.961660 
1081.000000	98.948772 
1080.000000	98.934000 
1079.000000	98.918114 
1078.000000	98.901330 
1077.000000	98.884911 
1076.000000	98.872076 
1075.000000	98.866058 
1074.000000	98.867574 
1073.000000	98.874470 
1072.000000	98.882737 
1071.000000	98.887077 
1070.000000	98.882129 
1069.000000	98.866107 
1068.000000	98.844360 
1067.000000	98.827643 
1066.000000	98.824395 
1065.000000	98.834424 
1064.000000	98.850281 
1063.000000	98.864019 
1062.000000	98.871665 
1061.000000	98.871982 
1060.000000	98.864453 
1059.000000	98.850860 
1058.000000	98.836996 
1057.000000	98.829364 
1056.000000	98.829723 
1055.000000	98.834422 
1054.000000	98.839012 
1053.000000	98.842104 
1052.000000	98.844725 
1051.000000	98.847967 
1050.000000	98.852165 
1049.000000	98.856626 
1048.000000	98.859361 
1047.000000	98.858954 
1046.000000	98.857563 
1045.000000	98.860005 
1044.000000	98.868674 
1043.000000	98.880841 
1042.000000	98.892058 
1041.000000	98.900974 
1040.000000	98.909434 
1039.000000	98.919350 
1038.000000	98.931469 
1037.000000	98.946113 
1036.000000	98.962918 
1035.000000	98.980095 
1034.000000	98.995581 
1033.000000	99.008448 
1032.000000	99.017869 
1031.000000	99.021867 
1030.000000	99.019497 
1029.000000	99.014173 
1028.000000	99.012664 
1027.000000	99.019692 
1026.000000	99.034357 
1025.000000	99.051615 
1024.000000	99.066002 
1023.000000	99.074386 
1022.000000	99.077398 
1021.000000	99.078995 
1020.000000	99.083280 
1019.000000	99.090847 
1018.000000	99.098895 
1017.000000	99.105098 
1016.000000	99.110153 
1015.000000	99.116144 
1014.000000	99.123803 
1013.000000	99.132202 
1012.000000	99.140141 
1011.000000	99.146961 
1010.000000	99.152646 
1009.000000	99.157990 
1008.000000	99.164325 
1007.000000	99.172396 
1006.000000	99.181503 
1005.000000	99.190120 
1004.000000	99.197393 
1003.000000	99.203908 
1002.000000	99.211039 
1001.000000	99.219537 
1000.000000	99.228601 
999.000000	 99.236366 
998.000000	 99.241566 
997.000000	 99.244649 
996.000000	 99.247156 
995.000000	 99.250290 
994.000000	 99.254388 
993.000000	 99.259399 
992.000000	 99.265048 
991.000000	 99.270506 
990.000000	 99.274683 
989.000000	 99.277082 
988.000000	 99.278060 
987.000000	 99.278425 
986.000000	 99.279311 
985.000000	 99.282182 
984.000000	 99.287872 
983.000000	 99.295208 
982.000000	 99.301495 
981.000000	 99.304821 
980.000000	 99.305507 
979.000000	 99.305375 
978.000000	 99.306157 
977.000000	 99.308776 
976.000000	 99.313119 
975.000000	 99.317878 
974.000000	 99.321337 
973.000000	 99.323165 
972.000000	 99.325185 
971.000000	 99.329607 
970.000000	 99.336446 
969.000000	 99.343175 
968.000000	 99.347169 
967.000000	 99.348132 
966.000000	 99.347920 
965.000000	 99.348309 
964.000000	 99.349337 
963.000000	 99.350120 
962.000000	 99.350663 
961.000000	 99.352096 
960.000000	 99.355118 
959.000000	 99.358840 
958.000000	 99.361628 
957.000000	 99.362798 
956.000000	 99.363065 
955.000000	 99.363563 
954.000000	 99.364781 
953.000000	 99.366381 
952.000000	 99.367756 
951.000000	 99.368629 
950.000000	 99.369186 
949.000000	 99.369675 
948.000000	 99.369959 
947.000000	 99.369692 
946.000000	 99.368924 
945.000000	 99.368193 
944.000000	 99.367955 
943.000000	 99.368274 
942.000000	 99.369203 
941.000000	 99.370919 
940.000000	 99.373098 
939.000000	 99.374550 
938.000000	 99.374211 
937.000000	 99.372366 
936.000000	 99.370479 
935.000000	 99.369807 
934.000000	 99.370478 
933.000000	 99.371848 
932.000000	 99.373242 
931.000000	 99.374241 
930.000000	 99.374544 
929.000000	 99.373844 
928.000000	 99.371939 
927.000000	 99.369038 
926.000000	 99.365938 
925.000000	 99.363699 
924.000000	 99.362924 
923.000000	 99.363456 
922.000000	 99.364834 
921.000000	 99.366696 
920.000000	 99.368506 
919.000000	 99.369395 
918.000000	 99.368734 
917.000000	 99.366788 
916.000000	 99.364493 
915.000000	 99.362457 
914.000000	 99.360677 
913.000000	 99.359127 
912.000000	 99.358030 
911.000000	 99.357552 
910.000000	 99.357644 
909.000000	 99.358293 
908.000000	 99.359589 
907.000000	 99.361378 
906.000000	 99.363047 
905.000000	 99.363854 
904.000000	 99.363420 
903.000000	 99.361943 
902.000000	 99.360192 
901.000000	 99.359163 
900.000000	 99.359408 
899.000000	 99.360619 
898.000000	 99.361908 
897.000000	 99.362493 
896.000000	 99.362025 
895.000000	 99.360552 
894.000000	 99.358607 
893.000000	 99.357191 
892.000000	 99.357112 
891.000000	 99.358278 
890.000000	 99.359948 
889.000000	 99.361645 
888.000000	 99.363484 
887.000000	 99.365602 
886.000000	 99.367844 
885.000000	 99.370067 
884.000000	 99.372275 
883.000000	 99.374239 
882.000000	 99.375390 
881.000000	 99.375465 
880.000000	 99.375165 
879.000000	 99.375868 
878.000000	 99.378521 
877.000000	 99.382905 
876.000000	 99.387610 
875.000000	 99.390863 
874.000000	 99.391717 
873.000000	 99.390484 
872.000000	 99.388395 
871.000000	 99.386718 
870.000000	 99.386008 
869.000000	 99.386267 
868.000000	 99.387518 
867.000000	 99.389979 
866.000000	 99.393565 
865.000000	 99.397440 
864.000000	 99.400449 
863.000000	 99.402167 
862.000000	 99.403192 
861.000000	 99.404304 
860.000000	 99.405585 
859.000000	 99.406757 
858.000000	 99.408020 
857.000000	 99.409851 
856.000000	 99.412104 
855.000000	 99.414086 
854.000000	 99.415610 
853.000000	 99.417212 
852.000000	 99.419054 
851.000000	 99.420371 
850.000000	 99.420584 
849.000000	 99.420289 
848.000000	 99.420646 
847.000000	 99.422051 
846.000000	 99.424047 
845.000000	 99.426171 
844.000000	 99.428303 
843.000000	 99.430189 
842.000000	 99.431390 
841.000000	 99.431825 
840.000000	 99.431738 
839.000000	 99.431149 
838.000000	 99.430074 
837.000000	 99.429217 
836.000000	 99.429488 
835.000000	 99.430681 
834.000000	 99.431562 
833.000000	 99.431717 
832.000000	 99.432205 
831.000000	 99.433870 
830.000000	 99.435896 
829.000000	 99.436781 
828.000000	 99.436101 
827.000000	 99.434697 
826.000000	 99.433626 
825.000000	 99.433426 
824.000000	 99.434107 
823.000000	 99.435273 
822.000000	 99.436564 
821.000000	 99.438102 
820.000000	 99.439865 
819.000000	 99.440865 
818.000000	 99.440177 
817.000000	 99.438843 
816.000000	 99.439404 
815.000000	 99.442724 
814.000000	 99.446416 
813.000000	 99.447569 
812.000000	 99.445990 
811.000000	 99.443741 
810.000000	 99.442252 
809.000000	 99.440959 
808.000000	 99.438598 
807.000000	 99.434864 
806.000000	 99.430780 
805.000000	 99.427509 
804.000000	 99.424687 
803.000000	 99.420728 
802.000000	 99.415748 
801.000000	 99.412952 
800.000000	 99.415180 
799.000000	 99.420822 
798.000000	 99.425690 
797.000000	 99.428398 
796.000000	 99.430582 
795.000000	 99.432545 
794.000000	 99.432382 
793.000000	 99.429900 
792.000000	 99.427759 
791.000000	 99.427488 
790.000000	 99.427424 
789.000000	 99.426046 
788.000000	 99.424426 
787.000000	 99.423559 
786.000000	 99.421812 
785.000000	 99.417317 
784.000000	 99.411075 
783.000000	 99.405634 
782.000000	 99.402087 
781.000000	 99.400246 
780.000000	 99.400363 
779.000000	 99.402438 
778.000000	 99.404669 
777.000000	 99.404857 
776.000000	 99.403124 
775.000000	 99.401710 
774.000000	 99.402189 
773.000000	 99.404068 
772.000000	 99.405944 
771.000000	 99.407220 
770.000000	 99.408714 
769.000000	 99.411764 
768.000000	 99.416573 
767.000000	 99.421534 
766.000000	 99.424816 
765.000000	 99.426602 
764.000000	 99.428798 
763.000000	 99.432332 
762.000000	 99.435558 
761.000000	 99.435992 
760.000000	 99.433010 
759.000000	 99.428525 
758.000000	 99.425685 
757.000000	 99.426287 
756.000000	 99.429404 
755.000000	 99.432181 
754.000000	 99.432604 
753.000000	 99.431385 
752.000000	 99.430589 
751.000000	 99.430965 
750.000000	 99.431568 
749.000000	 99.431662 
748.000000	 99.431637 
747.000000	 99.431929 
746.000000	 99.432266 
745.000000	 99.432411 
744.000000	 99.432755 
743.000000	 99.433661 
742.000000	 99.434867 
741.000000	 99.435898 
740.000000	 99.436673 
739.000000	 99.437347 
738.000000	 99.437852 
737.000000	 99.437982 
736.000000	 99.437741 
735.000000	 99.437357 
734.000000	 99.437109 
733.000000	 99.437154 
732.000000	 99.437472 
731.000000	 99.437920 
730.000000	 99.438329 
729.000000	 99.438629 
728.000000	 99.438868 
727.000000	 99.439115 
726.000000	 99.439371 
725.000000	 99.439566 
724.000000	 99.439652 
723.000000	 99.439637 
722.000000	 99.439557 
721.000000	 99.439496 
720.000000	 99.439579 
719.000000	 99.439866 
718.000000	 99.440267 
717.000000	 99.440571 
716.000000	 99.440641 
715.000000	 99.440460 
714.000000	 99.440135 
713.000000	 99.439817 
712.000000	 99.439690 
711.000000	 99.439803 
710.000000	 99.439979 
709.000000	 99.440037 
708.000000	 99.439987 
707.000000	 99.439915 
706.000000	 99.439833 
705.000000	 99.439767 
704.000000	 99.439760 
703.000000	 99.439825 
702.000000	 99.439990 
701.000000	 99.440239 
700.000000	 99.440522 
699.000000	 99.440787 
698.000000	 99.441003 
697.000000	 99.441154 
696.000000	 99.441238 
695.000000	 99.441258 
694.000000	 99.441225 
693.000000	 99.441159 
692.000000	 99.441085 
691.000000	 99.441021 
690.000000	 99.440973 
689.000000	 99.440933 
688.000000	 99.440892 
687.000000	 99.440843 
686.000000	 99.440781 
685.000000	 99.440705 
684.000000	 99.440620 
683.000000	 99.440530 
682.000000	 99.440432 
681.000000	 99.440322 
680.000000	 99.440207 
679.000000	 99.440097 
678.000000	 99.439990 
677.000000	 99.439873 
676.000000	 99.439748 
675.000000	 99.439633 
674.000000	 99.439552 
673.000000	 99.439523 
672.000000	 99.439556 
671.000000	 99.439662 
670.000000	 99.439855 
669.000000	 99.440137 
668.000000	 99.440470 
667.000000	 99.440786 
666.000000	 99.441046 
665.000000	 99.441257 
664.000000	 99.441454 
663.000000	 99.441669 
662.000000	 99.441895 
661.000000	 99.442078 
660.000000	 99.442158 
659.000000	 99.442127 
658.000000	 99.442033 
657.000000	 99.441939 
656.000000	 99.441889 
655.000000	 99.441910 
654.000000	 99.442018 
653.000000	 99.442226 
652.000000	 99.442542 
651.000000	 99.442949 
650.000000	 99.443403 

