4000.000000	99.332800 
3999.000000	99.333379 
3998.000000	99.331478 
3997.000000	99.328759 
3996.000000	99.327023 
3995.000000	99.327244 
3994.000000	99.329329 
3993.000000	99.332521 
3992.000000	99.335745 
3991.000000	99.337820 
3990.000000	99.338013 
3989.000000	99.336606 
3988.000000	99.334664 
3987.000000	99.333110 
3986.000000	99.332075 
3985.000000	99.330992 
3984.000000	99.329082 
3983.000000	99.325953 
3982.000000	99.322165 
3981.000000	99.319076 
3980.000000	99.317708 
3979.000000	99.317848 
3978.000000	99.318779 
3977.000000	99.320680 
3976.000000	99.324415 
3975.000000	99.329678 
3974.000000	99.334297 
3973.000000	99.335891 
3972.000000	99.333794 
3971.000000	99.329228 
3970.000000	99.324200 
3969.000000	99.320519 
3968.000000	99.319033 
3967.000000	99.319458 
3966.000000	99.321000 
3965.000000	99.323177 
3964.000000	99.325637 
3963.000000	99.327253 
3962.000000	99.326303 
3961.000000	99.322092 
3960.000000	99.316000 
3959.000000	99.310708 
3958.000000	99.308371 
3957.000000	99.309379 
3956.000000	99.312113 
3955.000000	99.314429 
3954.000000	99.315794 
3953.000000	99.317538 
3952.000000	99.320791 
3951.000000	99.324369 
3950.000000	99.325788 
3949.000000	99.324162 
3948.000000	99.321412 
3947.000000	99.320269 
3946.000000	99.321423 
3945.000000	99.322995 
3944.000000	99.322914 
3943.000000	99.321512 
3942.000000	99.320942 
3941.000000	99.322007 
3940.000000	99.322926 
3939.000000	99.321578 
3938.000000	99.318283 
3937.000000	99.316071 
3936.000000	99.317260 
3935.000000	99.320678 
3934.000000	99.323164 
3933.000000	99.323444 
3932.000000	99.323540 
3931.000000	99.325669 
3930.000000	99.329969 
3929.000000	99.335332 
3928.000000	99.340245 
3927.000000	99.342123 
3926.000000	99.338155 
3925.000000	99.329527 
3924.000000	99.321788 
3923.000000	99.318563 
3922.000000	99.317992 
3921.000000	99.316915 
3920.000000	99.315517 
3919.000000	99.315928 
3918.000000	99.318181 
3917.000000	99.320968 
3916.000000	99.324390 
3915.000000	99.328597 
3914.000000	99.331085 
3913.000000	99.328887 
3912.000000	99.322739 
3911.000000	99.317272 
3910.000000	99.316001 
3909.000000	99.318841 
3908.000000	99.322771 
3907.000000	99.324462 
3906.000000	99.322073 
3905.000000	99.317167 
3904.000000	99.315301 
3903.000000	99.320490 
3902.000000	99.330121 
3901.000000	99.337521 
3900.000000	99.339117 
3899.000000	99.337285 
3898.000000	99.335546 
3897.000000	99.333858 
3896.000000	99.330678 
3895.000000	99.326500 
3894.000000	99.323030 
3893.000000	99.320800 
3892.000000	99.318632 
3891.000000	99.317195 
3890.000000	99.318746 
3889.000000	99.323878 
3888.000000	99.328625 
3887.000000	99.327474 
3886.000000	99.322149 
3885.000000	99.319625 
3884.000000	99.319942 
3883.000000	99.316007 
3882.000000	99.304789 
3881.000000	99.294012 
3880.000000	99.294143 
3879.000000	99.303807 
3878.000000	99.312497 
3877.000000	99.313975 
3876.000000	99.309935 
3875.000000	99.306492 
3874.000000	99.309420 
3873.000000	99.318523 
3872.000000	99.325368 
3871.000000	99.321203 
3870.000000	99.310678 
3869.000000	99.307541 
3868.000000	99.314517 
3867.000000	99.320555 
3866.000000	99.316410 
3865.000000	99.308251 
3864.000000	99.309233 
3863.000000	99.319196 
3862.000000	99.326619 
3861.000000	99.326953 
3860.000000	99.324784 
3859.000000	99.325714 
3858.000000	99.330813 
3857.000000	99.338033 
3856.000000	99.342215 
3855.000000	99.336565 
3854.000000	99.326348 
3853.000000	99.326117 
3852.000000	99.333475 
3851.000000	99.335719 
3850.000000	99.328890 
3849.000000	99.318283 
3848.000000	99.311934 
3847.000000	99.313043 
3846.000000	99.318349 
3845.000000	99.323991 
3844.000000	99.328986 
3843.000000	99.333888 
3842.000000	99.337708 
3841.000000	99.337184 
3840.000000	99.329934 
3839.000000	99.320752 
3838.000000	99.317038 
3837.000000	99.319080 
3836.000000	99.320352 
3835.000000	99.316157 
3834.000000	99.307212 
3833.000000	99.297459 
3832.000000	99.292025 
3831.000000	99.294006 
3830.000000	99.301294 
3829.000000	99.308698 
3828.000000	99.312446 
3827.000000	99.313055 
3826.000000	99.314464 
3825.000000	99.319257 
3824.000000	99.323812 
3823.000000	99.321070 
3822.000000	99.310775 
3821.000000	99.305224 
3820.000000	99.313036 
3819.000000	99.327036 
3818.000000	99.333745 
3817.000000	99.326837 
3816.000000	99.316423 
3815.000000	99.315550 
3814.000000	99.321600 
3813.000000	99.324001 
3812.000000	99.320494 
3811.000000	99.318129 
3810.000000	99.322135 
3809.000000	99.327661 
3808.000000	99.326507 
3807.000000	99.320877 
3806.000000	99.320228 
3805.000000	99.326357 
3804.000000	99.330698 
3803.000000	99.323748 
3802.000000	99.309151 
3801.000000	99.302242 
3800.000000	99.305962 
3799.000000	99.308962 
3798.000000	99.304436 
3797.000000	99.297650 
3796.000000	99.298694 
3795.000000	99.308573 
3794.000000	99.318110 
3793.000000	99.320025 
3792.000000	99.316794 
3791.000000	99.315071 
3790.000000	99.316753 
3789.000000	99.318476 
3788.000000	99.317695 
3787.000000	99.315329 
3786.000000	99.313364 
3785.000000	99.312716 
3784.000000	99.313758 
3783.000000	99.316073 
3782.000000	99.317524 
3781.000000	99.316099 
3780.000000	99.313028 
3779.000000	99.311896 
3778.000000	99.313152 
3777.000000	99.313713 
3776.000000	99.311633 
3775.000000	99.309244 
3774.000000	99.310586 
3773.000000	99.315988 
3772.000000	99.320590 
3771.000000	99.320971 
3770.000000	99.320935 
3769.000000	99.325334 
3768.000000	99.331562 
3767.000000	99.332975 
3766.000000	99.327499 
3765.000000	99.320348 
3764.000000	99.317732 
3763.000000	99.319160 
3762.000000	99.318757 
3761.000000	99.313834 
3760.000000	99.309027 
3759.000000	99.309095 
3758.000000	99.311489 
3757.000000	99.313239 
3756.000000	99.316132 
3755.000000	99.321169 
3754.000000	99.324165 
3753.000000	99.321111 
3752.000000	99.316496 
3751.000000	99.316867 
3750.000000	99.318422 
3749.000000	99.315239 
3748.000000	99.311193 
3747.000000	99.311020 
3746.000000	99.309020 
3745.000000	99.302878 
3744.000000	99.304202 
3743.000000	99.313356 
3742.000000	99.317426 
3741.000000	99.312558 
3740.000000	99.307477 
3739.000000	99.312931 
3738.000000	99.325663 
3737.000000	99.330617 
3736.000000	99.322077 
3735.000000	99.310806 
3734.000000	99.306557 
3733.000000	99.307046 
3732.000000	99.308453 
3731.000000	99.311154 
3730.000000	99.314644 
3729.000000	99.315247 
3728.000000	99.310440 
3727.000000	99.304140 
3726.000000	99.303133 
3725.000000	99.306877 
3724.000000	99.309022 
3723.000000	99.308019 
3722.000000	99.308563 
3721.000000	99.312813 
3720.000000	99.317118 
3719.000000	99.317917 
3718.000000	99.315513 
3717.000000	99.313555 
3716.000000	99.314489 
3715.000000	99.316310 
3714.000000	99.315482 
3713.000000	99.311780 
3712.000000	99.308306 
3711.000000	99.305637 
3710.000000	99.300909 
3709.000000	99.293909 
3708.000000	99.287913 
3707.000000	99.286050 
3706.000000	99.288719 
3705.000000	99.293308 
3704.000000	99.296398 
3703.000000	99.297133 
3702.000000	99.298173 
3701.000000	99.301932 
3700.000000	99.307079 
3699.000000	99.309958 
3698.000000	99.308037 
3697.000000	99.302915 
3696.000000	99.299661 
3695.000000	99.300492 
3694.000000	99.302416 
3693.000000	99.302252 
3692.000000	99.300162 
3691.000000	99.296848 
3690.000000	99.291321 
3689.000000	99.285098 
3688.000000	99.282339 
3687.000000	99.284739 
3686.000000	99.289705 
3685.000000	99.292904 
3684.000000	99.292825 
3683.000000	99.292271 
3682.000000	99.293033 
3681.000000	99.292555 
3680.000000	99.289726 
3679.000000	99.288385 
3678.000000	99.290186 
3677.000000	99.287435 
3676.000000	99.277591 
3675.000000	99.271731 
3674.000000	99.274649 
3673.000000	99.279432 
3672.000000	99.278303 
3671.000000	99.271968 
3670.000000	99.271817 
3669.000000	99.282032 
3668.000000	99.292219 
3667.000000	99.295403 
3666.000000	99.295057 
3665.000000	99.296091 
3664.000000	99.298353 
3663.000000	99.298306 
3662.000000	99.294033 
3661.000000	99.288319 
3660.000000	99.286390 
3659.000000	99.290631 
3658.000000	99.298485 
3657.000000	99.305331 
3656.000000	99.309786 
3655.000000	99.312327 
3654.000000	99.312073 
3653.000000	99.307280 
3652.000000	99.297969 
3651.000000	99.289858 
3650.000000	99.291388 
3649.000000	99.300689 
3648.000000	99.306639 
3647.000000	99.305975 
3646.000000	99.305170 
3645.000000	99.308698 
3644.000000	99.314500 
3643.000000	99.318402 
3642.000000	99.318610 
3641.000000	99.316541 
3640.000000	99.314070 
3639.000000	99.312168 
3638.000000	99.311466 
3637.000000	99.311551 
3636.000000	99.310473 
3635.000000	99.306794 
3634.000000	99.303127 
3633.000000	99.303812 
3632.000000	99.308973 
3631.000000	99.312690 
3630.000000	99.311076 
3629.000000	99.311466 
3628.000000	99.318410 
3627.000000	99.322969 
3626.000000	99.318698 
3625.000000	99.310172 
3624.000000	99.305616 
3623.000000	99.308600 
3622.000000	99.314693 
3621.000000	99.316492 
3620.000000	99.312461 
3619.000000	99.307779 
3618.000000	99.305714 
3617.000000	99.304788 
3616.000000	99.303189 
3615.000000	99.300679 
3614.000000	99.299237 
3613.000000	99.302182 
3612.000000	99.310625 
3611.000000	99.321634 
3610.000000	99.330751 
3609.000000	99.335413 
3608.000000	99.335791 
3607.000000	99.333001 
3606.000000	99.327944 
3605.000000	99.322300 
3604.000000	99.317868 
3603.000000	99.314830 
3602.000000	99.311691 
3601.000000	99.307747 
3600.000000	99.305066 
3599.000000	99.305610 
3598.000000	99.308448 
3597.000000	99.311369 
3596.000000	99.313704 
3595.000000	99.315950 
3594.000000	99.318437 
3593.000000	99.319968 
3592.000000	99.319179 
3591.000000	99.316324 
3590.000000	99.312541 
3589.000000	99.308650 
3588.000000	99.305745 
3587.000000	99.305053 
3586.000000	99.306092 
3585.000000	99.307400 
3584.000000	99.308332 
3583.000000	99.309091 
3582.000000	99.310174 
3581.000000	99.311646 
3580.000000	99.312803 
3579.000000	99.312185 
3578.000000	99.308657 
3577.000000	99.302414 
3576.000000	99.294885 
3575.000000	99.287698 
3574.000000	99.282274 
3573.000000	99.280191 
3572.000000	99.282774 
3571.000000	99.290202 
3570.000000	99.300350 
3569.000000	99.309193 
3568.000000	99.313930 
3567.000000	99.315092 
3566.000000	99.313914 
3565.000000	99.310699 
3564.000000	99.306784 
3563.000000	99.304815 
3562.000000	99.306464 
3561.000000	99.310590 
3560.000000	99.313821 
3559.000000	99.313195 
3558.000000	99.308318 
3557.000000	99.301912 
3556.000000	99.298358 
3555.000000	99.300646 
3554.000000	99.307507 
3553.000000	99.314155 
3552.000000	99.316518 
3551.000000	99.314515 
3550.000000	99.310960 
3549.000000	99.308256 
3548.000000	99.307034 
3547.000000	99.306950 
3546.000000	99.307407 
3545.000000	99.307652 
3544.000000	99.307299 
3543.000000	99.306968 
3542.000000	99.307882 
3541.000000	99.310620 
3540.000000	99.314153 
3539.000000	99.316281 
3538.000000	99.315203 
3537.000000	99.311028 
3536.000000	99.305606 
3535.000000	99.300764 
3534.000000	99.297312 
3533.000000	99.295258 
3532.000000	99.294347 
3531.000000	99.293882 
3530.000000	99.292914 
3529.000000	99.291272 
3528.000000	99.290054 
3527.000000	99.290330 
3526.000000	99.291782 
3525.000000	99.293544 
3524.000000	99.295842 
3523.000000	99.299539 
3522.000000	99.304226 
3521.000000	99.308282 
3520.000000	99.310917 
3519.000000	99.313023 
3518.000000	99.315744 
3517.000000	99.318812 
3516.000000	99.320885 
3515.000000	99.321170 
3514.000000	99.320254 
3513.000000	99.319068 
3512.000000	99.317688 
3511.000000	99.315714 
3510.000000	99.313339 
3509.000000	99.311248 
3508.000000	99.309394 
3507.000000	99.306589 
3506.000000	99.301815 
3505.000000	99.295853 
3504.000000	99.291341 
3503.000000	99.290753 
3502.000000	99.294451 
3501.000000	99.300800 
3500.000000	99.307409 
3499.000000	99.311707 
3498.000000	99.311499 
3497.000000	99.306481 
3496.000000	99.298976 
3495.000000	99.292291 
3494.000000	99.288284 
3493.000000	99.286782 
3492.000000	99.286754 
3491.000000	99.287212 
3490.000000	99.287248 
3489.000000	99.286146 
3488.000000	99.284032 
3487.000000	99.282128 
3486.000000	99.281938 
3485.000000	99.284118 
3484.000000	99.287795 
3483.000000	99.290730 
3482.000000	99.290796 
3481.000000	99.287964 
3480.000000	99.284616 
3479.000000	99.283308 
3478.000000	99.284499 
3477.000000	99.286979 
3476.000000	99.289930 
3475.000000	99.293386 
3474.000000	99.296629 
3473.000000	99.297660 
3472.000000	99.295193 
3471.000000	99.290508 
3470.000000	99.286454 
3469.000000	99.284813 
3468.000000	99.285200 
3467.000000	99.286263 
3466.000000	99.287026 
3465.000000	99.286999 
3464.000000	99.285974 
3463.000000	99.284266 
3462.000000	99.282709 
3461.000000	99.281981 
3460.000000	99.282138 
3459.000000	99.283013 
3458.000000	99.284566 
3457.000000	99.286470 
3456.000000	99.287868 
3455.000000	99.288164 
3454.000000	99.287829 
3453.000000	99.287716 
3452.000000	99.287857 
3451.000000	99.287428 
3450.000000	99.286083 
3449.000000	99.284773 
3448.000000	99.284675 
3447.000000	99.285322 
3446.000000	99.284472 
3445.000000	99.280668 
3444.000000	99.275482 
3443.000000	99.272417 
3442.000000	99.273522 
3441.000000	99.277550 
3440.000000	99.281499 
3439.000000	99.283256 
3438.000000	99.282558 
3437.000000	99.280331 
3436.000000	99.278005 
3435.000000	99.277010 
3434.000000	99.277938 
3433.000000	99.279973 
3432.000000	99.281704 
3431.000000	99.282347 
3430.000000	99.282050 
3429.000000	99.281565 
3428.000000	99.282040 
3427.000000	99.284519 
3426.000000	99.288800 
3425.000000	99.293075 
3424.000000	99.295321 
3423.000000	99.295145 
3422.000000	99.293936 
3421.000000	99.293306 
3420.000000	99.293806 
3419.000000	99.295069 
3418.000000	99.296643 
3417.000000	99.298274 
3416.000000	99.299503 
3415.000000	99.299374 
3414.000000	99.296895 
3413.000000	99.292012 
3412.000000	99.286043 
3411.000000	99.280820 
3410.000000	99.277386 
3409.000000	99.275700 
3408.000000	99.275372 
3407.000000	99.276121 
3406.000000	99.277492 
3405.000000	99.278771 
3404.000000	99.279577 
3403.000000	99.280349 
3402.000000	99.282057 
3401.000000	99.285260 
3400.000000	99.289288 
3399.000000	99.292130 
3398.000000	99.291495 
3397.000000	99.286476 
3396.000000	99.278337 
3395.000000	99.269741 
3394.000000	99.263328 
3393.000000	99.260929 
3392.000000	99.263169 
3391.000000	99.268960 
3390.000000	99.275602 
3389.000000	99.280276 
3388.000000	99.281843 
3387.000000	99.281106 
3386.000000	99.279730 
3385.000000	99.279358 
3384.000000	99.281301 
3383.000000	99.285775 
3382.000000	99.291087 
3381.000000	99.294445 
3380.000000	99.294312 
3379.000000	99.291640 
3378.000000	99.288400 
3377.000000	99.285485 
3376.000000	99.282719 
3375.000000	99.280405 
3374.000000	99.279574 
3373.000000	99.280478 
3372.000000	99.281787 
3371.000000	99.282125 
3370.000000	99.281986 
3369.000000	99.283270 
3368.000000	99.286842 
3367.000000	99.291217 
3366.000000	99.293941 
3365.000000	99.293910 
3364.000000	99.291966 
3363.000000	99.289431 
3362.000000	99.286581 
3361.000000	99.282710 
3360.000000	99.277462 
3359.000000	99.271920 
3358.000000	99.268333 
3357.000000	99.268508 
3356.000000	99.272086 
3355.000000	99.276395 
3354.000000	99.278509 
3353.000000	99.277774 
3352.000000	99.276111 
3351.000000	99.275779 
3350.000000	99.277183 
3349.000000	99.279038 
3348.000000	99.280069 
3347.000000	99.279907 
3346.000000	99.278617 
3345.000000	99.276281 
3344.000000	99.273401 
3343.000000	99.271146 
3342.000000	99.270685 
3341.000000	99.272160 
3340.000000	99.274341 
3339.000000	99.275393 
3338.000000	99.274310 
3337.000000	99.271936 
3336.000000	99.270480 
3335.000000	99.271645 
3334.000000	99.275224 
3333.000000	99.279673 
3332.000000	99.283736 
3331.000000	99.287049 
3330.000000	99.289361 
3329.000000	99.289976 
3328.000000	99.288283 
3327.000000	99.284465 
3326.000000	99.279515 
3325.000000	99.274779 
3324.000000	99.271436 
3323.000000	99.269917 
3322.000000	99.269833 
3321.000000	99.270885 
3320.000000	99.273750 
3319.000000	99.279286 
3318.000000	99.286633 
3317.000000	99.293019 
3316.000000	99.296258 
3315.000000	99.296949 
3314.000000	99.297360 
3313.000000	99.298325 
3312.000000	99.298232 
3311.000000	99.295357 
3310.000000	99.290478 
3309.000000	99.286441 
3308.000000	99.285280 
3307.000000	99.286371 
3306.000000	99.287579 
3305.000000	99.287788 
3304.000000	99.287804 
3303.000000	99.288971 
3302.000000	99.291408 
3301.000000	99.293591 
3300.000000	99.293237 
3299.000000	99.288667 
3298.000000	99.280236 
3297.000000	99.270983 
3296.000000	99.265098 
3295.000000	99.264647 
3294.000000	99.267876 
3293.000000	99.271347 
3292.000000	99.273543 
3291.000000	99.275646 
3290.000000	99.278971 
3289.000000	99.282809 
3288.000000	99.285254 
3287.000000	99.285415 
3286.000000	99.284406 
3285.000000	99.284544 
3284.000000	99.287574 
3283.000000	99.292919 
3282.000000	99.297589 
3281.000000	99.298636 
3280.000000	99.296032 
3279.000000	99.292555 
3278.000000	99.290659 
3277.000000	99.290223 
3276.000000	99.289568 
3275.000000	99.287586 
3274.000000	99.284159 
3273.000000	99.279525 
3272.000000	99.274417 
3271.000000	99.270280 
3270.000000	99.268136 
3269.000000	99.267345 
3268.000000	99.266530 
3267.000000	99.265615 
3266.000000	99.265945 
3265.000000	99.268279 
3264.000000	99.271579 
3263.000000	99.274255 
3262.000000	99.275920 
3261.000000	99.277315 
3260.000000	99.278964 
3259.000000	99.280752 
3258.000000	99.282586 
3257.000000	99.284601 
3256.000000	99.286410 
3255.000000	99.286857 
3254.000000	99.285246 
3253.000000	99.282670 
3252.000000	99.281345 
3251.000000	99.282320 
3250.000000	99.284371 
3249.000000	99.285551 
3248.000000	99.285442 
3247.000000	99.285227 
3246.000000	99.285695 
3245.000000	99.285920 
3244.000000	99.284141 
3243.000000	99.279522 
3242.000000	99.272917 
3241.000000	99.266342 
3240.000000	99.261906 
3239.000000	99.260834 
3238.000000	99.262969 
3237.000000	99.267014 
3236.000000	99.271191 
3235.000000	99.273710 
3234.000000	99.273196 
3233.000000	99.269533 
3232.000000	99.264438 
3231.000000	99.260512 
3230.000000	99.259309 
3229.000000	99.260507 
3228.000000	99.262863 
3227.000000	99.265374 
3226.000000	99.267467 
3225.000000	99.268910 
3224.000000	99.269972 
3223.000000	99.270974 
3222.000000	99.271333 
3221.000000	99.269852 
3220.000000	99.266712 
3219.000000	99.264470 
3218.000000	99.265865 
3217.000000	99.270629 
3216.000000	99.275410 
3215.000000	99.277147 
3214.000000	99.275979 
3213.000000	99.274637 
3212.000000	99.275428 
3211.000000	99.277963 
3210.000000	99.279453 
3209.000000	99.277143 
3208.000000	99.270959 
3207.000000	99.263989 
3206.000000	99.260087 
3205.000000	99.260728 
3204.000000	99.264145 
3203.000000	99.267367 
3202.000000	99.268755 
3201.000000	99.268633 
3200.000000	99.268159 
3199.000000	99.268249 
3198.000000	99.269398 
3197.000000	99.271680 
3196.000000	99.274382 
3195.000000	99.275961 
3194.000000	99.275098 
3193.000000	99.272041 
3192.000000	99.268516 
3191.000000	99.266113 
3190.000000	99.265191 
3189.000000	99.265464 
3188.000000	99.266830 
3187.000000	99.268936 
3186.000000	99.270751 
3185.000000	99.271653 
3184.000000	99.272430 
3183.000000	99.273847 
3182.000000	99.274418 
3181.000000	99.271394 
3180.000000	99.264602 
3179.000000	99.257724 
3178.000000	99.254723 
3177.000000	99.256021 
3176.000000	99.259166 
3175.000000	99.261947 
3174.000000	99.263424 
3173.000000	99.263036 
3172.000000	99.260776 
3171.000000	99.258129 
3170.000000	99.257135 
3169.000000	99.258108 
3168.000000	99.259386 
3167.000000	99.259662 
3166.000000	99.259606 
3165.000000	99.260830 
3164.000000	99.263955 
3163.000000	99.267903 
3162.000000	99.270409 
3161.000000	99.269273 
3160.000000	99.264166 
3159.000000	99.257602 
3158.000000	99.253433 
3157.000000	99.253752 
3156.000000	99.257301 
3155.000000	99.260690 
3154.000000	99.260784 
3153.000000	99.256471 
3152.000000	99.249333 
3151.000000	99.242865 
3150.000000	99.240145 
3149.000000	99.241633 
3148.000000	99.245413 
3147.000000	99.249470 
3146.000000	99.253181 
3145.000000	99.256695 
3144.000000	99.259757 
3143.000000	99.261574 
3142.000000	99.261423 
3141.000000	99.259276 
3140.000000	99.256233 
3139.000000	99.254326 
3138.000000	99.255134 
3137.000000	99.258143 
3136.000000	99.260822 
3135.000000	99.260729 
3134.000000	99.257407 
3133.000000	99.252245 
3132.000000	99.247067 
3131.000000	99.243165 
3130.000000	99.241144 
3129.000000	99.241019 
3128.000000	99.242469 
3127.000000	99.245292 
3126.000000	99.249499 
3125.000000	99.254827 
3124.000000	99.260281 
3123.000000	99.264248 
3122.000000	99.265173 
3121.000000	99.262516 
3120.000000	99.257387 
3119.000000	99.252035 
3118.000000	99.248330 
3117.000000	99.246648 
3116.000000	99.246310 
3115.000000	99.246750 
3114.000000	99.247779 
3113.000000	99.249090 
3112.000000	99.250370 
3111.000000	99.251960 
3110.000000	99.254495 
3109.000000	99.257443 
3108.000000	99.258667 
3107.000000	99.256313 
3106.000000	99.251329 
3105.000000	99.247646 
3104.000000	99.249118 
3103.000000	99.255682 
3102.000000	99.262797 
3101.000000	99.265696 
3100.000000	99.264189 
3099.000000	99.262148 
3098.000000	99.262251 
3097.000000	99.263041 
3096.000000	99.262124 
3095.000000	99.260571 
3094.000000	99.261905 
3093.000000	99.267052 
3092.000000	99.272398 
3091.000000	99.273335 
3090.000000	99.268624 
3089.000000	99.260920 
3088.000000	99.253984 
3087.000000	99.249806 
3086.000000	99.247765 
3085.000000	99.246228 
3084.000000	99.245132 
3083.000000	99.246487 
3082.000000	99.251528 
3081.000000	99.257892 
3080.000000	99.261194 
3079.000000	99.259689 
3078.000000	99.256124 
3077.000000	99.254471 
3076.000000	99.255844 
3075.000000	99.258228 
3074.000000	99.259180 
3073.000000	99.257974 
3072.000000	99.255829 
3071.000000	99.254783 
3070.000000	99.256045 
3069.000000	99.258921 
3068.000000	99.261464 
3067.000000	99.262335 
3066.000000	99.261723 
3065.000000	99.260498 
3064.000000	99.259159 
3063.000000	99.257767 
3062.000000	99.256178 
3061.000000	99.253927 
3060.000000	99.250552 
3059.000000	99.246581 
3058.000000	99.243669 
3057.000000	99.243049 
3056.000000	99.243942 
3055.000000	99.244100 
3054.000000	99.242034 
3053.000000	99.238491 
3052.000000	99.235719 
3051.000000	99.235282 
3050.000000	99.236507 
3049.000000	99.237208 
3048.000000	99.236182 
3047.000000	99.234704 
3046.000000	99.234949 
3045.000000	99.237061 
3044.000000	99.238717 
3043.000000	99.238107 
3042.000000	99.236633 
3041.000000	99.237674 
3040.000000	99.242588 
3039.000000	99.248647 
3038.000000	99.251339 
3037.000000	99.248594 
3036.000000	99.242592 
3035.000000	99.237471 
3034.000000	99.235589 
3033.000000	99.236126 
3032.000000	99.236954 
3031.000000	99.237125 
3030.000000	99.237138 
3029.000000	99.237354 
3028.000000	99.237098 
3027.000000	99.235560 
3026.000000	99.233007 
3025.000000	99.230693 
3024.000000	99.229611 
3023.000000	99.229432 
3022.000000	99.228694 
3021.000000	99.226180 
3020.000000	99.222177 
3019.000000	99.218145 
3018.000000	99.215027 
3017.000000	99.212412 
3016.000000	99.209767 
3015.000000	99.208042 
3014.000000	99.209176 
3013.000000	99.213777 
3012.000000	99.219638 
3011.000000	99.222875 
3010.000000	99.220864 
3009.000000	99.214536 
3008.000000	99.207907 
3007.000000	99.204815 
3006.000000	99.205637 
3005.000000	99.207475 
3004.000000	99.207645 
3003.000000	99.206216 
3002.000000	99.204719 
3001.000000	99.203587 
3000.000000	99.202124 
2999.000000	99.200230 
2998.000000	99.198452 
2997.000000	99.196378 
2996.000000	99.192568 
2995.000000	99.186584 
2994.000000	99.179963 
2993.000000	99.174588 
2992.000000	99.170994 
2991.000000	99.168769 
2990.000000	99.167660 
2989.000000	99.167429 
2988.000000	99.167269 
2987.000000	99.166396 
2986.000000	99.165089 
2985.000000	99.164415 
2984.000000	99.164822 
2983.000000	99.165442 
2982.000000	99.164939 
2981.000000	99.162894 
2980.000000	99.160400 
2979.000000	99.159275 
2978.000000	99.160491 
2977.000000	99.163205 
2976.000000	99.165448 
2975.000000	99.165848 
2974.000000	99.164626 
2973.000000	99.163057 
2972.000000	99.162301 
2971.000000	99.162712 
2970.000000	99.163891 
2969.000000	99.165139 
2968.000000	99.166001 
2967.000000	99.166570 
2966.000000	99.167346 
2965.000000	99.168831 
2964.000000	99.171076 
2963.000000	99.173274 
2962.000000	99.173861 
2961.000000	99.171742 
2960.000000	99.167835 
2959.000000	99.164813 
2958.000000	99.164630 
2957.000000	99.166615 
2956.000000	99.168534 
2955.000000	99.169134 
2954.000000	99.169004 
2953.000000	99.169371 
2952.000000	99.171002 
2951.000000	99.173956 
2950.000000	99.177340 
2949.000000	99.179372 
2948.000000	99.178840 
2947.000000	99.176752 
2946.000000	99.175577 
2945.000000	99.176517 
2944.000000	99.178235 
2943.000000	99.178523 
2942.000000	99.176460 
2941.000000	99.172768 
2940.000000	99.169018 
2939.000000	99.166906 
2938.000000	99.167301 
2937.000000	99.169178 
2936.000000	99.170030 
2935.000000	99.168073 
2934.000000	99.163807 
2933.000000	99.159119 
2932.000000	99.155367 
2931.000000	99.152710 
2930.000000	99.150630 
2929.000000	99.148424 
2928.000000	99.145587 
2927.000000	99.142465 
2926.000000	99.140410 
2925.000000	99.140654 
2924.000000	99.142884 
2923.000000	99.145180 
2922.000000	99.145554 
2921.000000	99.143759 
2920.000000	99.141806 
2919.000000	99.142491 
2918.000000	99.146784 
2917.000000	99.152493 
2916.000000	99.155978 
2915.000000	99.155489 
2914.000000	99.152620 
2913.000000	99.150453 
2912.000000	99.150735 
2911.000000	99.153072 
2910.000000	99.156327 
2909.000000	99.160152 
2908.000000	99.165025 
2907.000000	99.170936 
2906.000000	99.176215 
2905.000000	99.178070 
2904.000000	99.174833 
2903.000000	99.168137 
2902.000000	99.162333 
2901.000000	99.161229 
2900.000000	99.165278 
2899.000000	99.171424 
2898.000000	99.175665 
2897.000000	99.175970 
2896.000000	99.173463 
2895.000000	99.171261 
2894.000000	99.172056 
2893.000000	99.176253 
2892.000000	99.182004 
2891.000000	99.186740 
2890.000000	99.188863 
2889.000000	99.188601 
2888.000000	99.187624 
2887.000000	99.187603 
2886.000000	99.188786 
2885.000000	99.189947 
2884.000000	99.189725 
2883.000000	99.187754 
2882.000000	99.184638 
2881.000000	99.181599 
2880.000000	99.180405 
2879.000000	99.182600 
2878.000000	99.187816 
2877.000000	99.193315 
2876.000000	99.196201 
2875.000000	99.196003 
2874.000000	99.194415 
2873.000000	99.192895 
2872.000000	99.191491 
2871.000000	99.189847 
2870.000000	99.188227 
2869.000000	99.187205 
2868.000000	99.187104 
2867.000000	99.188032 
2866.000000	99.189914 
2865.000000	99.192259 
2864.000000	99.194283 
2863.000000	99.195462 
2862.000000	99.195760 
2861.000000	99.195513 
2860.000000	99.195332 
2859.000000	99.195732 
2858.000000	99.196444 
2857.000000	99.196662 
2856.000000	99.196465 
2855.000000	99.197197 
2854.000000	99.199518 
2853.000000	99.201890 
2852.000000	99.202234 
2851.000000	99.200514 
2850.000000	99.198306 
2849.000000	99.196466 
2848.000000	99.195116 
2847.000000	99.195639 
2846.000000	99.200222 
2845.000000	99.208602 
2844.000000	99.217133 
2843.000000	99.222352 
2842.000000	99.224271 
2841.000000	99.225155 
2840.000000	99.226336 
2839.000000	99.227550 
2838.000000	99.228450 
2837.000000	99.229179 
2836.000000	99.229694 
2835.000000	99.229780 
2834.000000	99.229675 
2833.000000	99.229816 
2832.000000	99.229992 
2831.000000	99.229493 
2830.000000	99.228120 
2829.000000	99.226481 
2828.000000	99.225304 
2827.000000	99.224920 
2826.000000	99.225417 
2825.000000	99.226811 
2824.000000	99.228931 
2823.000000	99.231302 
2822.000000	99.233229 
2821.000000	99.234109 
2820.000000	99.233897 
2819.000000	99.233250 
2818.000000	99.232872 
2817.000000	99.232664 
2816.000000	99.231923 
2815.000000	99.230442 
2814.000000	99.228994 
2813.000000	99.228548 
2812.000000	99.229302 
2811.000000	99.230488 
2810.000000	99.230738 
2809.000000	99.228801 
2808.000000	99.224684 
2807.000000	99.220363 
2806.000000	99.218760 
2805.000000	99.221551 
2804.000000	99.227937 
2803.000000	99.235276 
2802.000000	99.240413 
2801.000000	99.240894 
2800.000000	99.236355 
2799.000000	99.229338 
2798.000000	99.223946 
2797.000000	99.222899 
2796.000000	99.225895 
2795.000000	99.230707 
2794.000000	99.235121 
2793.000000	99.237807 
2792.000000	99.238434 
2791.000000	99.237695 
2790.000000	99.236722 
2789.000000	99.236016 
2788.000000	99.235241 
2787.000000	99.234097 
2786.000000	99.232736 
2785.000000	99.231306 
2784.000000	99.230057 
2783.000000	99.230036 
2782.000000	99.232403 
2781.000000	99.236471 
2780.000000	99.239608 
2779.000000	99.240010 
2778.000000	99.238691 
2777.000000	99.237748 
2776.000000	99.237552 
2775.000000	99.236892 
2774.000000	99.235365 
2773.000000	99.234241 
2772.000000	99.234881 
2771.000000	99.237186 
2770.000000	99.239703 
2769.000000	99.240742 
2768.000000	99.239593 
2767.000000	99.237249 
2766.000000	99.235801 
2765.000000	99.236613 
2764.000000	99.239195 
2763.000000	99.242027 
2762.000000	99.243946 
2761.000000	99.244370 
2760.000000	99.243087 
2759.000000	99.240686 
2758.000000	99.238544 
2757.000000	99.237359 
2756.000000	99.236241 
2755.000000	99.234332 
2754.000000	99.232761 
2753.000000	99.233516 
2752.000000	99.236514 
2751.000000	99.239345 
2750.000000	99.240172 
2749.000000	99.239562 
2748.000000	99.238974 
2747.000000	99.238715 
2746.000000	99.238135 
2745.000000	99.236876 
2744.000000	99.235005 
2743.000000	99.232601 
2742.000000	99.230148 
2741.000000	99.228892 
2740.000000	99.229837 
2739.000000	99.232428 
2738.000000	99.234848 
2737.000000	99.235584 
2736.000000	99.234254 
2735.000000	99.231182 
2734.000000	99.227056 
2733.000000	99.223205 
2732.000000	99.221421 
2731.000000	99.222679 
2730.000000	99.225995 
2729.000000	99.229048 
2728.000000	99.230324 
2727.000000	99.230602 
2726.000000	99.232076 
2725.000000	99.235896 
2724.000000	99.240744 
2723.000000	99.244066 
2722.000000	99.244521 
2721.000000	99.242903 
2720.000000	99.240695 
2719.000000	99.238312 
2718.000000	99.235172 
2717.000000	99.231147 
2716.000000	99.227275 
2715.000000	99.224912 
2714.000000	99.224635 
2713.000000	99.226209 
2712.000000	99.229204 
2711.000000	99.233124 
2710.000000	99.237086 
2709.000000	99.240025 
2708.000000	99.241459 
2707.000000	99.241695 
2706.000000	99.241046 
2705.000000	99.239302 
2704.000000	99.236457 
2703.000000	99.233701 
2702.000000	99.232959 
2701.000000	99.235131 
2700.000000	99.239085 
2699.000000	99.242626 
2698.000000	99.244319 
2697.000000	99.244280 
2696.000000	99.243478 
2695.000000	99.242583 
2694.000000	99.241473 
2693.000000	99.239686 
2692.000000	99.237186 
2691.000000	99.234578 
2690.000000	99.232500 
2689.000000	99.230965 
2688.000000	99.229609 
2687.000000	99.228610 
2686.000000	99.228882 
2685.000000	99.230865 
2684.000000	99.233241 
2683.000000	99.233536 
2682.000000	99.230563 
2681.000000	99.226077 
2680.000000	99.223421 
2679.000000	99.224374 
2678.000000	99.227764 
2677.000000	99.231349 
2676.000000	99.234316 
2675.000000	99.237143 
2674.000000	99.239546 
2673.000000	99.239979 
2672.000000	99.237610 
2671.000000	99.233806 
2670.000000	99.230909 
2669.000000	99.230013 
2668.000000	99.230593 
2667.000000	99.231789 
2666.000000	99.233212 
2665.000000	99.234675 
2664.000000	99.235907 
2663.000000	99.236704 
2662.000000	99.237032 
2661.000000	99.237038 
2660.000000	99.237140 
2659.000000	99.237700 
2658.000000	99.238248 
2657.000000	99.237509 
2656.000000	99.234903 
2655.000000	99.231684 
2654.000000	99.229958 
2653.000000	99.230857 
2652.000000	99.234207 
2651.000000	99.239121 
2650.000000	99.243569 
2649.000000	99.243985 
2648.000000	99.237576 
2647.000000	99.225957 
2646.000000	99.215189 
2645.000000	99.210995 
2644.000000	99.214246 
2643.000000	99.221335 
2642.000000	99.227876 
2641.000000	99.231488 
2640.000000	99.232335 
2639.000000	99.232514 
2638.000000	99.234489 
2637.000000	99.238715 
2636.000000	99.242669 
2635.000000	99.243160 
2634.000000	99.239816 
2633.000000	99.235803 
2632.000000	99.235030 
2631.000000	99.239005 
2630.000000	99.246076 
2629.000000	99.252796 
2628.000000	99.255891 
2627.000000	99.253945 
2626.000000	99.248205 
2625.000000	99.241841 
2624.000000	99.237820 
2623.000000	99.236957 
2622.000000	99.237766 
2621.000000	99.238033 
2620.000000	99.236369 
2619.000000	99.232482 
2618.000000	99.226792 
2617.000000	99.220641 
2616.000000	99.216461 
2615.000000	99.216197 
2614.000000	99.218773 
2613.000000	99.220295 
2612.000000	99.218151 
2611.000000	99.214460 
2610.000000	99.213963 
2609.000000	99.218504 
2608.000000	99.224950 
2607.000000	99.228798 
2606.000000	99.228655 
2605.000000	99.226814 
2604.000000	99.226652 
2603.000000	99.230020 
2602.000000	99.236005 
2601.000000	99.241358 
2600.000000	99.242964 
2599.000000	99.240722 
2598.000000	99.237458 
2597.000000	99.235490 
2596.000000	99.234229 
2595.000000	99.231927 
2594.000000	99.228690 
2593.000000	99.226265 
2592.000000	99.225323 
2591.000000	99.224583 
2590.000000	99.222940 
2589.000000	99.221266 
2588.000000	99.221456 
2587.000000	99.224234 
2586.000000	99.228462 
2585.000000	99.232381 
2584.000000	99.235116 
2583.000000	99.236804 
2582.000000	99.237455 
2581.000000	99.236176 
2580.000000	99.232116 
2579.000000	99.226031 
2578.000000	99.220076 
2577.000000	99.215667 
2576.000000	99.212261 
2575.000000	99.208950 
2574.000000	99.206707 
2573.000000	99.208031 
2572.000000	99.214186 
2571.000000	99.223248 
2570.000000	99.230933 
2569.000000	99.233276 
2568.000000	99.229208 
2567.000000	99.221500 
2566.000000	99.215157 
2565.000000	99.213944 
2564.000000	99.217845 
2563.000000	99.223905 
2562.000000	99.229196 
2561.000000	99.232315 
2560.000000	99.232581 
2559.000000	99.229665 
2558.000000	99.224998 
2557.000000	99.222030 
2556.000000	99.223097 
2555.000000	99.226417 
2554.000000	99.228239 
2553.000000	99.228198 
2552.000000	99.230226 
2551.000000	99.236751 
2550.000000	99.243895 
2549.000000	99.244883 
2548.000000	99.237733 
2547.000000	99.227420 
2546.000000	99.220441 
2545.000000	99.219206 
2544.000000	99.221900 
2543.000000	99.225461 
2542.000000	99.227551 
2541.000000	99.227409 
2540.000000	99.226350 
2539.000000	99.226497 
2538.000000	99.227999 
2537.000000	99.228699 
2536.000000	99.227644 
2535.000000	99.227363 
2534.000000	99.230736 
2533.000000	99.236583 
2532.000000	99.240604 
2531.000000	99.240498 
2530.000000	99.238244 
2529.000000	99.237255 
2528.000000	99.239016 
2527.000000	99.242709 
2526.000000	99.246207 
2525.000000	99.246583 
2524.000000	99.241382 
2523.000000	99.231119 
2522.000000	99.220131 
2521.000000	99.213578 
2520.000000	99.213142 
2519.000000	99.216036 
2518.000000	99.218358 
2517.000000	99.219038 
2516.000000	99.220354 
2515.000000	99.225001 
2514.000000	99.233435 
2513.000000	99.244089 
2512.000000	99.254853 
2511.000000	99.263219 
2510.000000	99.266053 
2509.000000	99.261659 
2508.000000	99.252527 
2507.000000	99.244090 
2506.000000	99.239792 
2505.000000	99.238667 
2504.000000	99.238343 
2503.000000	99.238457 
2502.000000	99.239682 
2501.000000	99.241202 
2500.000000	99.241263 
2499.000000	99.239356 
2498.000000	99.236135 
2497.000000	99.232146 
2496.000000	99.228481 
2495.000000	99.227691 
2494.000000	99.231571 
2493.000000	99.238111 
2492.000000	99.242724 
2491.000000	99.242764 
2490.000000	99.239394 
2489.000000	99.235136 
2488.000000	99.231332 
2487.000000	99.228172 
2486.000000	99.225534 
2485.000000	99.223204 
2484.000000	99.221343 
2483.000000	99.221039 
2482.000000	99.223462 
2481.000000	99.228323 
2480.000000	99.233848 
2479.000000	99.238179 
2478.000000	99.240296 
2477.000000	99.240347 
2476.000000	99.240036 
2475.000000	99.241736 
2474.000000	99.245651 
2473.000000	99.248383 
2472.000000	99.245880 
2471.000000	99.237617 
2470.000000	99.226919 
2469.000000	99.217968 
2468.000000	99.213663 
2467.000000	99.214976 
2466.000000	99.220096 
2465.000000	99.224864 
2464.000000	99.226353 
2463.000000	99.225745 
2462.000000	99.225789 
2461.000000	99.226350 
2460.000000	99.225135 
2459.000000	99.222219 
2458.000000	99.220596 
2457.000000	99.221880 
2456.000000	99.224316 
2455.000000	99.225529 
2454.000000	99.224536 
2453.000000	99.220701 
2452.000000	99.214103 
2451.000000	99.208240 
2450.000000	99.209016 
2449.000000	99.218493 
2448.000000	99.231419 
2447.000000	99.239967 
2446.000000	99.240650 
2445.000000	99.235469 
2444.000000	99.228363 
2443.000000	99.222406 
2442.000000	99.218833 
2441.000000	99.216545 
2440.000000	99.213210 
2439.000000	99.208392 
2438.000000	99.205039 
2437.000000	99.206826 
2436.000000	99.214584 
2435.000000	99.225710 
2434.000000	99.235840 
2433.000000	99.240757 
2432.000000	99.238889 
2431.000000	99.233252 
2430.000000	99.229347 
2429.000000	99.229772 
2428.000000	99.232302 
2427.000000	99.234164 
2426.000000	99.235861 
2425.000000	99.238716 
2424.000000	99.240801 
2423.000000	99.238519 
2422.000000	99.231746 
2421.000000	99.224826 
2420.000000	99.222255 
2419.000000	99.225153 
2418.000000	99.231701 
2417.000000	99.238896 
2416.000000	99.243434 
2415.000000	99.242870 
2414.000000	99.237392 
2413.000000	99.230093 
2412.000000	99.224685 
2411.000000	99.222655 
2410.000000	99.222457 
2409.000000	99.221436 
2408.000000	99.218834 
2407.000000	99.216892 
2406.000000	99.218390 
2405.000000	99.223093 
2404.000000	99.227642 
2403.000000	99.229206 
2402.000000	99.228064 
2401.000000	99.226000 
2400.000000	99.223498 
2399.000000	99.219733 
2398.000000	99.214598 
2397.000000	99.209558 
2396.000000	99.206726 
2395.000000	99.207717 
2394.000000	99.212691 
2393.000000	99.219569 
2392.000000	99.224671 
2391.000000	99.225237 
2390.000000	99.221505 
2389.000000	99.216177 
2388.000000	99.212300 
2387.000000	99.211728 
2386.000000	99.214386 
2385.000000	99.218089 
2384.000000	99.219977 
2383.000000	99.219363 
2382.000000	99.218827 
2381.000000	99.221489 
2380.000000	99.227399 
2379.000000	99.233377 
2378.000000	99.235936 
2377.000000	99.233529 
2376.000000	99.226729 
2375.000000	99.218126 
2374.000000	99.212273 
2373.000000	99.213491 
2372.000000	99.221882 
2371.000000	99.231890 
2370.000000	99.236436 
2369.000000	99.233424 
2368.000000	99.227938 
2367.000000	99.226982 
2366.000000	99.231666 
2365.000000	99.235674 
2364.000000	99.232426 
2363.000000	99.222343 
2362.000000	99.212208 
2361.000000	99.208782 
2360.000000	99.213953 
2359.000000	99.225309 
2358.000000	99.237673 
2357.000000	99.244720 
2356.000000	99.243424 
2355.000000	99.236894 
2354.000000	99.231185 
2353.000000	99.229443 
2352.000000	99.230675 
2351.000000	99.232348 
2350.000000	99.232081 
2349.000000	99.229320 
2348.000000	99.225579 
2347.000000	99.222807 
2346.000000	99.222096 
2345.000000	99.223471 
2344.000000	99.226866 
2343.000000	99.231140 
2342.000000	99.235021 
2341.000000	99.238324 
2340.000000	99.241059 
2339.000000	99.242885 
2338.000000	99.242559 
2337.000000	99.239094 
2336.000000	99.233226 
2335.000000	99.227340 
2334.000000	99.222939 
2333.000000	99.219895 
2332.000000	99.218524 
2331.000000	99.221199 
2330.000000	99.228694 
2329.000000	99.237518 
2328.000000	99.241832 
2327.000000	99.239375 
2326.000000	99.233865 
2325.000000	99.230561 
2324.000000	99.231117 
2323.000000	99.232047 
2322.000000	99.229536 
2321.000000	99.223863 
2320.000000	99.218651 
2319.000000	99.216728 
2318.000000	99.217691 
2317.000000	99.219877 
2316.000000	99.222375 
2315.000000	99.225460 
2314.000000	99.228760 
2313.000000	99.230939 
2312.000000	99.230698 
2311.000000	99.228553 
2310.000000	99.226719 
2309.000000	99.227882 
2308.000000	99.233045 
2307.000000	99.240011 
2306.000000	99.243858 
2305.000000	99.240685 
2304.000000	99.231727 
2303.000000	99.223103 
2302.000000	99.220258 
2301.000000	99.223316 
2300.000000	99.228473 
2299.000000	99.232990 
2298.000000	99.236476 
2297.000000	99.237765 
2296.000000	99.233518 
2295.000000	99.221898 
2294.000000	99.206298 
2293.000000	99.193482 
2292.000000	99.188018 
2291.000000	99.189262 
2290.000000	99.193471 
2289.000000	99.197707 
2288.000000	99.201490 
2287.000000	99.205156 
2286.000000	99.207393 
2285.000000	99.205301 
2284.000000	99.197586 
2283.000000	99.187206 
2282.000000	99.179562 
2281.000000	99.177617 
2280.000000	99.179512 
2279.000000	99.181349 
2278.000000	99.181337 
2277.000000	99.180631 
2276.000000	99.180857 
2275.000000	99.181909 
2274.000000	99.182424 
2273.000000	99.182189 
2272.000000	99.183425 
2271.000000	99.188584 
2270.000000	99.196532 
2269.000000	99.202100 
2268.000000	99.200665 
2267.000000	99.192526 
2266.000000	99.182045 
2265.000000	99.173641 
2264.000000	99.169711 
2263.000000	99.170678 
2262.000000	99.174646 
2261.000000	99.177860 
2260.000000	99.178275 
2259.000000	99.178433 
2258.000000	99.182472 
2257.000000	99.190349 
2256.000000	99.197421 
2255.000000	99.199723 
2254.000000	99.197119 
2253.000000	99.191289 
2252.000000	99.183776 
2251.000000	99.177086 
2250.000000	99.174874 
2249.000000	99.179012 
2248.000000	99.187606 
2247.000000	99.196700 
2246.000000	99.202943 
2245.000000	99.204538 
2244.000000	99.201607 
2243.000000	99.196317 
2242.000000	99.191317 
2241.000000	99.187509 
2240.000000	99.184062 
2239.000000	99.179987 
2238.000000	99.174430 
2237.000000	99.166720 
2236.000000	99.158560 
2235.000000	99.154974 
2234.000000	99.159799 
2233.000000	99.170584 
2232.000000	99.181061 
2231.000000	99.188112 
2230.000000	99.192766 
2229.000000	99.195339 
2228.000000	99.194567 
2227.000000	99.191743 
2226.000000	99.190529 
2225.000000	99.191615 
2224.000000	99.192378 
2223.000000	99.192973 
2222.000000	99.197003 
2221.000000	99.203763 
2220.000000	99.205698 
2219.000000	99.197657 
2218.000000	99.184157 
2217.000000	99.173401 
2216.000000	99.168070 
2215.000000	99.166565 
2214.000000	99.169257 
2213.000000	99.177317 
2212.000000	99.187474 
2211.000000	99.193868 
2210.000000	99.194496 
2209.000000	99.191371 
2208.000000	99.185405 
2207.000000	99.176202 
2206.000000	99.166766 
2205.000000	99.162842 
2204.000000	99.165759 
2203.000000	99.170182 
2202.000000	99.171479 
2201.000000	99.172268 
2200.000000	99.178522 
2199.000000	99.190608 
2198.000000	99.201343 
2197.000000	99.203223 
2196.000000	99.195438 
2195.000000	99.182705 
2194.000000	99.169394 
2193.000000	99.157607 
2192.000000	99.150029 
2191.000000	99.150200 
2190.000000	99.157470 
2189.000000	99.164531 
2188.000000	99.163732 
2187.000000	99.154558 
2186.000000	99.141738 
2185.000000	99.128153 
2184.000000	99.114481 
2183.000000	99.104631 
2182.000000	99.104802 
2181.000000	99.115241 
2180.000000	99.128501 
2179.000000	99.138642 
2178.000000	99.147317 
2177.000000	99.158172 
2176.000000	99.169747 
2175.000000	99.177398 
2174.000000	99.179164 
2173.000000	99.176593 
2172.000000	99.172189 
2171.000000	99.168537 
2170.000000	99.167513 
2169.000000	99.167852 
2168.000000	99.165984 
2167.000000	99.161820 
2166.000000	99.160767 
2165.000000	99.166185 
2164.000000	99.171764 
2163.000000	99.166244 
2162.000000	99.146367 
2161.000000	99.122764 
2160.000000	99.112034 
2159.000000	99.122630 
2158.000000	99.147389 
2157.000000	99.169645 
2156.000000	99.177258 
2155.000000	99.170343 
2154.000000	99.157240 
2153.000000	99.146628 
2152.000000	99.143454 
2151.000000	99.148273 
2150.000000	99.156737 
2149.000000	99.160938 
2148.000000	99.155457 
2147.000000	99.142651 
2146.000000	99.129796 
2145.000000	99.122086 
2144.000000	99.121092 
2143.000000	99.127969 
2142.000000	99.142862 
2141.000000	99.161088 
2140.000000	99.175377 
2139.000000	99.183818 
2138.000000	99.191781 
2137.000000	99.204316 
2136.000000	99.219467 
2135.000000	99.230356 
2134.000000	99.231298 
2133.000000	99.221326 
2132.000000	99.204722 
2131.000000	99.188874 
2130.000000	99.178799 
2129.000000	99.172646 
2128.000000	99.165006 
2127.000000	99.155516 
2126.000000	99.150968 
2125.000000	99.156965 
2124.000000	99.169828 
2123.000000	99.179041 
2122.000000	99.176478 
2121.000000	99.162425 
2120.000000	99.144855 
2119.000000	99.134270 
2118.000000	99.137124 
2117.000000	99.151595 
2116.000000	99.169807 
2115.000000	99.184695 
2114.000000	99.193505 
2113.000000	99.195398 
2112.000000	99.189886 
2111.000000	99.179924 
2110.000000	99.173162 
2109.000000	99.175814 
2108.000000	99.185745 
2107.000000	99.194696 
2106.000000	99.197319 
2105.000000	99.195797 
2104.000000	99.195599 
2103.000000	99.198813 
2102.000000	99.202343 
2101.000000	99.201301 
2100.000000	99.193504 
2099.000000	99.181416 
2098.000000	99.170947 
2097.000000	99.168450 
2096.000000	99.177387 
2095.000000	99.195402 
2094.000000	99.213474 
2093.000000	99.220369 
2092.000000	99.211333 
2091.000000	99.192392 
2090.000000	99.174434 
2089.000000	99.163489 
2088.000000	99.158461 
2087.000000	99.157210 
2086.000000	99.160615 
2085.000000	99.169425 
2084.000000	99.180531 
2083.000000	99.188631 
2082.000000	99.190078 
2081.000000	99.184730 
2080.000000	99.176679 
2079.000000	99.173446 
2078.000000	99.180599 
2077.000000	99.194657 
2076.000000	99.204161 
2075.000000	99.200488 
2074.000000	99.185517 
2073.000000	99.167883 
2072.000000	99.154878 
2071.000000	99.149971 
2070.000000	99.153797 
2069.000000	99.162353 
2068.000000	99.166709 
2067.000000	99.160365 
2066.000000	99.146989 
2065.000000	99.136893 
2064.000000	99.135439 
2063.000000	99.138998 
2062.000000	99.142714 
2061.000000	99.147014 
2060.000000	99.153938 
2059.000000	99.160642 
2058.000000	99.160811 
2057.000000	99.152293 
2056.000000	99.140243 
2055.000000	99.131481 
2054.000000	99.127376 
2053.000000	99.124098 
2052.000000	99.118937 
2051.000000	99.114347 
2050.000000	99.115759 
2049.000000	99.126881 
2048.000000	99.146624 
2047.000000	99.168534 
2046.000000	99.182567 
2045.000000	99.180978 
2044.000000	99.165948 
2043.000000	99.149254 
2042.000000	99.141215 
2041.000000	99.141575 
2040.000000	99.143589 
2039.000000	99.143842 
2038.000000	99.143096 
2037.000000	99.140923 
2036.000000	99.136847 
2035.000000	99.135494 
2034.000000	99.142578 
2033.000000	99.155287 
2032.000000	99.164541 
2031.000000	99.167759 
2030.000000	99.170634 
2029.000000	99.174958 
2028.000000	99.173688 
2027.000000	99.162360 
2026.000000	99.147400 
2025.000000	99.138166 
2024.000000	99.135752 
2023.000000	99.134347 
2022.000000	99.129198 
2021.000000	99.118853 
2020.000000	99.104431 
2019.000000	99.091337 
2018.000000	99.087652 
2017.000000	99.095443 
2016.000000	99.106995 
2015.000000	99.114882 
2014.000000	99.121037 
2013.000000	99.130327 
2012.000000	99.139469 
2011.000000	99.139255 
2010.000000	99.126799 
2009.000000	99.110434 
2008.000000	99.101682 
2007.000000	99.105159 
2006.000000	99.115656 
2005.000000	99.122644 
2004.000000	99.118566 
2003.000000	99.105521 
2002.000000	99.094058 
2001.000000	99.092836 
2000.000000	99.099932 
1999.000000	99.105261 
1998.000000	99.101807 
1997.000000	99.093642 
1996.000000	99.091907 
1995.000000	99.102744 
1994.000000	99.120186 
1993.000000	99.132145 
1992.000000	99.134193 
1991.000000	99.134714 
1990.000000	99.143305 
1989.000000	99.158109 
1988.000000	99.168965 
1987.000000	99.169944 
1986.000000	99.163413 
1985.000000	99.153158 
1984.000000	99.140283 
1983.000000	99.127096 
1982.000000	99.119183 
1981.000000	99.119623 
1980.000000	99.125426 
1979.000000	99.131771 
1978.000000	99.137113 
1977.000000	99.142214 
1976.000000	99.146849 
1975.000000	99.149368 
1974.000000	99.146951 
1973.000000	99.136052 
1972.000000	99.116729 
1971.000000	99.097055 
1970.000000	99.088424 
1969.000000	99.094318 
1968.000000	99.106722 
1967.000000	99.115362 
1966.000000	99.116722 
1965.000000	99.112227 
1964.000000	99.103584 
1963.000000	99.094408 
1962.000000	99.091637 
1961.000000	99.099520 
1960.000000	99.113644 
1959.000000	99.124954 
1958.000000	99.128038 
1957.000000	99.122894 
1956.000000	99.112215 
1955.000000	99.101761 
1954.000000	99.100580 
1953.000000	99.114758 
1952.000000	99.139095 
1951.000000	99.159783 
1950.000000	99.166714 
1949.000000	99.160850 
1948.000000	99.150406 
1947.000000	99.142379 
1946.000000	99.138465 
1945.000000	99.136642 
1944.000000	99.134346 
1943.000000	99.131046 
1942.000000	99.129034 
1941.000000	99.131418 
1940.000000	99.139071 
1939.000000	99.149076 
1938.000000	99.156020 
1937.000000	99.156651 
1936.000000	99.153898 
1935.000000	99.154173 
1934.000000	99.159394 
1933.000000	99.163892 
1932.000000	99.160524 
1931.000000	99.150231 
1930.000000	99.142016 
1929.000000	99.142257 
1928.000000	99.148703 
1927.000000	99.154125 
1926.000000	99.155017 
1925.000000	99.153236 
1924.000000	99.151909 
1923.000000	99.152777 
1922.000000	99.155435 
1921.000000	99.157976 
1920.000000	99.158955 
1919.000000	99.157869 
1918.000000	99.154921 
1917.000000	99.149691 
1916.000000	99.142303 
1915.000000	99.135979 
1914.000000	99.134579 
1913.000000	99.138386 
1912.000000	99.143653 
1911.000000	99.146578 
1910.000000	99.145391 
1909.000000	99.139023 
1908.000000	99.128942 
1907.000000	99.120758 
1906.000000	99.121899 
1905.000000	99.133498 
1904.000000	99.147511 
1903.000000	99.155424 
1902.000000	99.155965 
1901.000000	99.153271 
1900.000000	99.151553 
1899.000000	99.151965 
1898.000000	99.153911 
1897.000000	99.155929 
1896.000000	99.155830 
1895.000000	99.152792 
1894.000000	99.148673 
1893.000000	99.146573 
1892.000000	99.148787 
1891.000000	99.155495 
1890.000000	99.164250 
1889.000000	99.170925 
1888.000000	99.172881 
1887.000000	99.171292 
1886.000000	99.168272 
1885.000000	99.163909 
1884.000000	99.157794 
1883.000000	99.151785 
1882.000000	99.148189 
1881.000000	99.146878 
1880.000000	99.147325 
1879.000000	99.150138 
1878.000000	99.154383 
1877.000000	99.155944 
1876.000000	99.151285 
1875.000000	99.142671 
1874.000000	99.135961 
1873.000000	99.133017 
1872.000000	99.131155 
1871.000000	99.130133 
1870.000000	99.134946 
1869.000000	99.148972 
1868.000000	99.166436 
1867.000000	99.178644 
1866.000000	99.183908 
1865.000000	99.184841 
1864.000000	99.182666 
1863.000000	99.177894 
1862.000000	99.172447 
1861.000000	99.168060 
1860.000000	99.164425 
1859.000000	99.160669 
1858.000000	99.157044 
1857.000000	99.153808 
1856.000000	99.150548 
1855.000000	99.147290 
1854.000000	99.144968 
1853.000000	99.142856 
1852.000000	99.140751 
1851.000000	99.140056 
1850.000000	99.141958 
1849.000000	99.145864 
1848.000000	99.150199 
1847.000000	99.154799 
1846.000000	99.159744 
1845.000000	99.163259 
1844.000000	99.163589 
1843.000000	99.160669 
1842.000000	99.155430 
1841.000000	99.149249 
1840.000000	99.144182 
1839.000000	99.142479 
1838.000000	99.145778 
1837.000000	99.152002 
1836.000000	99.156824 
1835.000000	99.159241 
1834.000000	99.161584 
1833.000000	99.164490 
1832.000000	99.165236 
1831.000000	99.159360 
1830.000000	99.147979 
1829.000000	99.139744 
1828.000000	99.140883 
1827.000000	99.150231 
1826.000000	99.161659 
1825.000000	99.168985 
1824.000000	99.169511 
1823.000000	99.164862 
1822.000000	99.159101 
1821.000000	99.155243 
1820.000000	99.153640 
1819.000000	99.152509 
1818.000000	99.151147 
1817.000000	99.150017 
1816.000000	99.149142 
1815.000000	99.149379 
1814.000000	99.151649 
1813.000000	99.155763 
1812.000000	99.159068 
1811.000000	99.159076 
1810.000000	99.157412 
1809.000000	99.156406 
1808.000000	99.155853 
1807.000000	99.155287 
1806.000000	99.154866 
1805.000000	99.153343 
1804.000000	99.148421 
1803.000000	99.141845 
1802.000000	99.138230 
1801.000000	99.140501 
1800.000000	99.145339 
1799.000000	99.147346 
1798.000000	99.145526 
1797.000000	99.141728 
1796.000000	99.138024 
1795.000000	99.137266 
1794.000000	99.140462 
1793.000000	99.145188 
1792.000000	99.147722 
1791.000000	99.148074 
1790.000000	99.150008 
1789.000000	99.154546 
1788.000000	99.157908 
1787.000000	99.156931 
1786.000000	99.153497 
1785.000000	99.152093 
1784.000000	99.154130 
1783.000000	99.158613 
1782.000000	99.161178 
1781.000000	99.158317 
1780.000000	99.151097 
1779.000000	99.144662 
1778.000000	99.143901 
1777.000000	99.148402 
1776.000000	99.155295 
1775.000000	99.162054 
1774.000000	99.164328 
1773.000000	99.157240 
1772.000000	99.143772 
1771.000000	99.132434 
1770.000000	99.129303 
1769.000000	99.134405 
1768.000000	99.141524 
1767.000000	99.145348 
1766.000000	99.146256 
1765.000000	99.147938 
1764.000000	99.150029 
1763.000000	99.148274 
1762.000000	99.141781 
1761.000000	99.137040 
1760.000000	99.137839 
1759.000000	99.142632 
1758.000000	99.147684 
1757.000000	99.149753 
1756.000000	99.149211 
1755.000000	99.146780 
1754.000000	99.144003 
1753.000000	99.143464 
1752.000000	99.146899 
1751.000000	99.152058 
1750.000000	99.154547 
1749.000000	99.151809 
1748.000000	99.145692 
1747.000000	99.140079 
1746.000000	99.136195 
1745.000000	99.134886 
1744.000000	99.135838 
1743.000000	99.136797 
1742.000000	99.136894 
1741.000000	99.138288 
1740.000000	99.141524 
1739.000000	99.144022 
1738.000000	99.142875 
1737.000000	99.140354 
1736.000000	99.139278 
1735.000000	99.137284 
1734.000000	99.135965 
1733.000000	99.136831 
1732.000000	99.136380 
1731.000000	99.135380 
1730.000000	99.134736 
1729.000000	99.133415 
1728.000000	99.132642 
1727.000000	99.135575 
1726.000000	99.142738 
1725.000000	99.151579 
1724.000000	99.155780 
1723.000000	99.150860 
1722.000000	99.140313 
1721.000000	99.131558 
1720.000000	99.128955 
1719.000000	99.130537 
1718.000000	99.135129 
1717.000000	99.142684 
1716.000000	99.146418 
1715.000000	99.144630 
1714.000000	99.144106 
1713.000000	99.147546 
1712.000000	99.151256 
1711.000000	99.153166 
1710.000000	99.154660 
1709.000000	99.156216 
1708.000000	99.157079 
1707.000000	99.156711 
1706.000000	99.157475 
1705.000000	99.161094 
1704.000000	99.164202 
1703.000000	99.166833 
1702.000000	99.171209 
1701.000000	99.174180 
1700.000000	99.174772 
1699.000000	99.170123 
1698.000000	99.162958 
1697.000000	99.158098 
1696.000000	99.154729 
1695.000000	99.155020 
1694.000000	99.158346 
1693.000000	99.162259 
1692.000000	99.165083 
1691.000000	99.166035 
1690.000000	99.166473 
1689.000000	99.166560 
1688.000000	99.166455 
1687.000000	99.166892 
1686.000000	99.168421 
1685.000000	99.169240 
1684.000000	99.173200 
1683.000000	99.179873 
1682.000000	99.181628 
1681.000000	99.179171 
1680.000000	99.176526 
1679.000000	99.175959 
1678.000000	99.178146 
1677.000000	99.183297 
1676.000000	99.190645 
1675.000000	99.198400 
1674.000000	99.200933 
1673.000000	99.198466 
1672.000000	99.197083 
1671.000000	99.198870 
1670.000000	99.200259 
1669.000000	99.197690 
1668.000000	99.193178 
1667.000000	99.191394 
1666.000000	99.194188 
1665.000000	99.200637 
1664.000000	99.206839 
1663.000000	99.210600 
1662.000000	99.211201 
1661.000000	99.208233 
1660.000000	99.205354 
1659.000000	99.205829 
1658.000000	99.208232 
1657.000000	99.210566 
1656.000000	99.216577 
1655.000000	99.226803 
1654.000000	99.230364 
1653.000000	99.228935 
1652.000000	99.224360 
1651.000000	99.213424 
1650.000000	99.205285 
1649.000000	99.203063 
1648.000000	99.200734 
1647.000000	99.196416 
1646.000000	99.195756 
1645.000000	99.198892 
1644.000000	99.201464 
1643.000000	99.203435 
1642.000000	99.205162 
1641.000000	99.204759 
1640.000000	99.201382 
1639.000000	99.196389 
1638.000000	99.193371 
1637.000000	99.191679 
1636.000000	99.190355 
1635.000000	99.191582 
1634.000000	99.194510 
1633.000000	99.198322 
1632.000000	99.202786 
1631.000000	99.207127 
1630.000000	99.210015 
1629.000000	99.209753 
1628.000000	99.205831 
1627.000000	99.200752 
1626.000000	99.196738 
1625.000000	99.194177 
1624.000000	99.192313 
1623.000000	99.192182 
1622.000000	99.193725 
1621.000000	99.194357 
1620.000000	99.194700 
1619.000000	99.195943 
1618.000000	99.195193 
1617.000000	99.188189 
1616.000000	99.177593 
1615.000000	99.168963 
1614.000000	99.164867 
1613.000000	99.164974 
1612.000000	99.167459 
1611.000000	99.171438 
1610.000000	99.175382 
1609.000000	99.177260 
1608.000000	99.176896 
1607.000000	99.175870 
1606.000000	99.173443 
1605.000000	99.168753 
1604.000000	99.164685 
1603.000000	99.163872 
1602.000000	99.165176 
1601.000000	99.166055 
1600.000000	99.166735 
1599.000000	99.169175 
1598.000000	99.173045 
1597.000000	99.175716 
1596.000000	99.174780 
1595.000000	99.169998 
1594.000000	99.163112 
1593.000000	99.156963 
1592.000000	99.154486 
1591.000000	99.156799 
1590.000000	99.161492 
1589.000000	99.164675 
1588.000000	99.165413 
1587.000000	99.165886 
1586.000000	99.167707 
1585.000000	99.168863 
1584.000000	99.168768 
1583.000000	99.168933 
1582.000000	99.168898 
1581.000000	99.166777 
1580.000000	99.163758 
1579.000000	99.163165 
1578.000000	99.165559 
1577.000000	99.168605 
1576.000000	99.171646 
1575.000000	99.173732 
1574.000000	99.170840 
1573.000000	99.164416 
1572.000000	99.159076 
1571.000000	99.156577 
1570.000000	99.157727 
1569.000000	99.162787 
1568.000000	99.171847 
1567.000000	99.182652 
1566.000000	99.190401 
1565.000000	99.189331 
1564.000000	99.180593 
1563.000000	99.169176 
1562.000000	99.161051 
1561.000000	99.156647 
1560.000000	99.153805 
1559.000000	99.159782 
1558.000000	99.175446 
1557.000000	99.181016 
1556.000000	99.180073 
1555.000000	99.181869 
1554.000000	99.183372 
1553.000000	99.181140 
1552.000000	99.176388 
1551.000000	99.172057 
1550.000000	99.170671 
1549.000000	99.172433 
1548.000000	99.175437 
1547.000000	99.178458 
1546.000000	99.180440 
1545.000000	99.180695 
1544.000000	99.180645 
1543.000000	99.180514 
1542.000000	99.179228 
1541.000000	99.175459 
1540.000000	99.172944 
1539.000000	99.176324 
1538.000000	99.178308 
1537.000000	99.175361 
1536.000000	99.171893 
1535.000000	99.171622 
1534.000000	99.174180 
1533.000000	99.178139 
1532.000000	99.179733 
1531.000000	99.177080 
1530.000000	99.174120 
1529.000000	99.173402 
1528.000000	99.173538 
1527.000000	99.172941 
1526.000000	99.171068 
1525.000000	99.168005 
1524.000000	99.164327 
1523.000000	99.159974 
1522.000000	99.155883 
1521.000000	99.156015 
1520.000000	99.160261 
1519.000000	99.165404 
1518.000000	99.170105 
1517.000000	99.172948 
1516.000000	99.172447 
1515.000000	99.168936 
1514.000000	99.164699 
1513.000000	99.162940 
1512.000000	99.163479 
1511.000000	99.164112 
1510.000000	99.165335 
1509.000000	99.169665 
1508.000000	99.174534 
1507.000000	99.175351 
1506.000000	99.176167 
1505.000000	99.174285 
1504.000000	99.168462 
1503.000000	99.163041 
1502.000000	99.159968 
1501.000000	99.158973 
1500.000000	99.158823 
1499.000000	99.158140 
1498.000000	99.156899 
1497.000000	99.157313 
1496.000000	99.157498 
1495.000000	99.154267 
1494.000000	99.150192 
1493.000000	99.150020 
1492.000000	99.153156 
1491.000000	99.154165 
1490.000000	99.150571 
1489.000000	99.146347 
1488.000000	99.143884 
1487.000000	99.143095 
1486.000000	99.145370 
1485.000000	99.148970 
1484.000000	99.152415 
1483.000000	99.155298 
1482.000000	99.156710 
1481.000000	99.155630 
1480.000000	99.151632 
1479.000000	99.146197 
1478.000000	99.141089 
1477.000000	99.137171 
1476.000000	99.133874 
1475.000000	99.132472 
1474.000000	99.133268 
1473.000000	99.133787 
1472.000000	99.132465 
1471.000000	99.130030 
1470.000000	99.128980 
1469.000000	99.130860 
1468.000000	99.134191 
1467.000000	99.137330 
1466.000000	99.139586 
1465.000000	99.140432 
1464.000000	99.140759 
1463.000000	99.140428 
1462.000000	99.139679 
1461.000000	99.137908 
1460.000000	99.133671 
1459.000000	99.125660 
1458.000000	99.115826 
1457.000000	99.113065 
1456.000000	99.119343 
1455.000000	99.125450 
1454.000000	99.129490 
1453.000000	99.135369 
1452.000000	99.142638 
1451.000000	99.147059 
1450.000000	99.146239 
1449.000000	99.142928 
1448.000000	99.139830 
1447.000000	99.138524 
1446.000000	99.138355 
1445.000000	99.139048 
1444.000000	99.140797 
1443.000000	99.140937 
1442.000000	99.137558 
1441.000000	99.131896 
1440.000000	99.127152 
1439.000000	99.124280 
1438.000000	99.122885 
1437.000000	99.123705 
1436.000000	99.127143 
1435.000000	99.129466 
1434.000000	99.129707 
1433.000000	99.131301 
1432.000000	99.135063 
1431.000000	99.137742 
1430.000000	99.136780 
1429.000000	99.134664 
1428.000000	99.133877 
1427.000000	99.134488 
1426.000000	99.134429 
1425.000000	99.132899 
1424.000000	99.132477 
1423.000000	99.133770 
1422.000000	99.135271 
1421.000000	99.136287 
1420.000000	99.136798 
1419.000000	99.135528 
1418.000000	99.131580 
1417.000000	99.126232 
1416.000000	99.121430 
1415.000000	99.117926 
1414.000000	99.115714 
1413.000000	99.114933 
1412.000000	99.114439 
1411.000000	99.111321 
1410.000000	99.105347 
1409.000000	99.101543 
1408.000000	99.103391 
1407.000000	99.109139 
1406.000000	99.113913 
1405.000000	99.115310 
1404.000000	99.115663 
1403.000000	99.116363 
1402.000000	99.116658 
1401.000000	99.115965 
1400.000000	99.114682 
1399.000000	99.113684 
1398.000000	99.113390 
1397.000000	99.113531 
1396.000000	99.113001 
1395.000000	99.111348 
1394.000000	99.109181 
1393.000000	99.108037 
1392.000000	99.108840 
1391.000000	99.110503 
1390.000000	99.111828 
1389.000000	99.113406 
1388.000000	99.116186 
1387.000000	99.119453 
1386.000000	99.121108 
1385.000000	99.120097 
1384.000000	99.117593 
1383.000000	99.114777 
1382.000000	99.112760 
1381.000000	99.112664 
1380.000000	99.114533 
1379.000000	99.117324 
1378.000000	99.119661 
1377.000000	99.120693 
1376.000000	99.120124 
1375.000000	99.118424 
1374.000000	99.116554 
1373.000000	99.115475 
1372.000000	99.114883 
1371.000000	99.114308 
1370.000000	99.113954 
1369.000000	99.114991 
1368.000000	99.118919 
1367.000000	99.124502 
1366.000000	99.128130 
1365.000000	99.127578 
1364.000000	99.124170 
1363.000000	99.121664 
1362.000000	99.122623 
1361.000000	99.125888 
1360.000000	99.129205 
1359.000000	99.132395 
1358.000000	99.135823 
1357.000000	99.138146 
1356.000000	99.137416 
1355.000000	99.133997 
1354.000000	99.130904 
1353.000000	99.131043 
1352.000000	99.133932 
1351.000000	99.137615 
1350.000000	99.140521 
1349.000000	99.141481 
1348.000000	99.140178 
1347.000000	99.137595 
1346.000000	99.135811 
1345.000000	99.135880 
1344.000000	99.136535 
1343.000000	99.135832 
1342.000000	99.133724 
1341.000000	99.131775 
1340.000000	99.130660 
1339.000000	99.129140 
1338.000000	99.126294 
1337.000000	99.123939 
1336.000000	99.125180 
1335.000000	99.130831 
1334.000000	99.138176 
1333.000000	99.143189 
1332.000000	99.143710 
1331.000000	99.140785 
1330.000000	99.137018 
1329.000000	99.134072 
1328.000000	99.131951 
1327.000000	99.130766 
1326.000000	99.131541 
1325.000000	99.134809 
1324.000000	99.139050 
1323.000000	99.141209 
1322.000000	99.139766 
1321.000000	99.136704 
1320.000000	99.135451 
1319.000000	99.136810 
1318.000000	99.138127 
1317.000000	99.137023 
1316.000000	99.134789 
1315.000000	99.134852 
1314.000000	99.138476 
1313.000000	99.143201 
1312.000000	99.145749 
1311.000000	99.145603 
1310.000000	99.144709 
1309.000000	99.144483 
1308.000000	99.144252 
1307.000000	99.143109 
1306.000000	99.141686 
1305.000000	99.141366 
1304.000000	99.142446 
1303.000000	99.143590 
1302.000000	99.143078 
1301.000000	99.140074 
1300.000000	99.135274 
1299.000000	99.130848 
1298.000000	99.129357 
1297.000000	99.131582 
1296.000000	99.135554 
1295.000000	99.138432 
1294.000000	99.139156 
1293.000000	99.138710 
1292.000000	99.138234 
1291.000000	99.138065 
1290.000000	99.138414 
1289.000000	99.139532 
1288.000000	99.140879 
1287.000000	99.141315 
1286.000000	99.140526 
1285.000000	99.139331 
1284.000000	99.138241 
1283.000000	99.136703 
1282.000000	99.134283 
1281.000000	99.131582 
1280.000000	99.129629 
1279.000000	99.129081 
1278.000000	99.130163 
1277.000000	99.132289 
1276.000000	99.133473 
1275.000000	99.131624 
1274.000000	99.127226 
1273.000000	99.123577 
1272.000000	99.123297 
1271.000000	99.125543 
1270.000000	99.127792 
1269.000000	99.129270 
1268.000000	99.131023 
1267.000000	99.133274 
1266.000000	99.134860 
1265.000000	99.135439 
1264.000000	99.136203 
1263.000000	99.137636 
1262.000000	99.138042 
1261.000000	99.135266 
1260.000000	99.129262 
1259.000000	99.122025 
1258.000000	99.115428 
1257.000000	99.110061 
1256.000000	99.105812 
1255.000000	99.102594 
1254.000000	99.100403 
1253.000000	99.099378 
1252.000000	99.100053 
1251.000000	99.102916 
1250.000000	99.107253 
1249.000000	99.110890 
1248.000000	99.111812 
1247.000000	99.109904 
1246.000000	99.106590 
1245.000000	99.102956 
1244.000000	99.098971 
1243.000000	99.094752 
1242.000000	99.091632 
1241.000000	99.091131 
1240.000000	99.093327 
1239.000000	99.096959 
1238.000000	99.100674 
1237.000000	99.103408 
1236.000000	99.104065 
1235.000000	99.102215 
1234.000000	99.099159 
1233.000000	99.096976 
1232.000000	99.096127 
1231.000000	99.095083 
1230.000000	99.092812 
1229.000000	99.090500 
1228.000000	99.089825 
1227.000000	99.090298 
1226.000000	99.089420 
1225.000000	99.085303 
1224.000000	99.078521 
1223.000000	99.071531 
1222.000000	99.066744 
1221.000000	99.064932 
1220.000000	99.065031 
1219.000000	99.065416 
1218.000000	99.065380 
1217.000000	99.065213 
1216.000000	99.065009 
1215.000000	99.064171 
1214.000000	99.062364 
1213.000000	99.060156 
1212.000000	99.058074 
1211.000000	99.055606 
1210.000000	99.051973 
1209.000000	99.047565 
1208.000000	99.043896 
1207.000000	99.042192 
1206.000000	99.042436 
1205.000000	99.043531 
1204.000000	99.043920 
1203.000000	99.042331 
1202.000000	99.038643 
1201.000000	99.034126 
1200.000000	99.030440 
1199.000000	99.028316 
1198.000000	99.027345 
1197.000000	99.026809 
1196.000000	99.026146 
1195.000000	99.024721 
1194.000000	99.021921 
1193.000000	99.017874 
1192.000000	99.013663 
1191.000000	99.010264 
1190.000000	99.007453 
1189.000000	99.004318 
1188.000000	99.000755 
1187.000000	98.997605 
1186.000000	98.994951 
1185.000000	98.991183 
1184.000000	98.984832 
1183.000000	98.977104 
1182.000000	98.971357 
1181.000000	98.969559 
1180.000000	98.970046 
1179.000000	98.969233 
1178.000000	98.964964 
1177.000000	98.957930 
1176.000000	98.950654 
1175.000000	98.945839 
1174.000000	98.944902 
1173.000000	98.946891 
1172.000000	98.948778 
1171.000000	98.947462 
1170.000000	98.941926 
1169.000000	98.933796 
1168.000000	98.926266 
1167.000000	98.922330 
1166.000000	98.922872 
1165.000000	98.925812 
1164.000000	98.927791 
1163.000000	98.927377 
1162.000000	98.926223 
1161.000000	98.926661 
1160.000000	98.928800 
1159.000000	98.930505 
1158.000000	98.929517 
1157.000000	98.925147 
1156.000000	98.918789 
1155.000000	98.913472 
1154.000000	98.911811 
1153.000000	98.913372 
1152.000000	98.914842 
1151.000000	98.913552 
1150.000000	98.909786 
1149.000000	98.904892 
1148.000000	98.898883 
1147.000000	98.891716 
1146.000000	98.885352 
1145.000000	98.881895 
1144.000000	98.880338 
1143.000000	98.877755 
1142.000000	98.873586 
1141.000000	98.870213 
1140.000000	98.868967 
1139.000000	98.868020 
1138.000000	98.865040 
1137.000000	98.859903 
1136.000000	98.853766 
1135.000000	98.847325 
1134.000000	98.841177 
1133.000000	98.836303 
1132.000000	98.832717 
1131.000000	98.828763 
1130.000000	98.823241 
1129.000000	98.817568 
1128.000000	98.814289 
1127.000000	98.813617 
1126.000000	98.812607 
1125.000000	98.807993 
1124.000000	98.799205 
1123.000000	98.788458 
1122.000000	98.778379 
1121.000000	98.769994 
1120.000000	98.763049 
1119.000000	98.757724 
1118.000000	98.755066 
1117.000000	98.755452 
1116.000000	98.757471 
1115.000000	98.758885 
1114.000000	98.757980 
1113.000000	98.753454 
1112.000000	98.744271 
1111.000000	98.731279 
1110.000000	98.718127 
1109.000000	98.708613 
1108.000000	98.703094 
1107.000000	98.698935 
1106.000000	98.694354 
1105.000000	98.689954 
1104.000000	98.686476 
1103.000000	98.683373 
1102.000000	98.680388 
1101.000000	98.678877 
1100.000000	98.679990 
1099.000000	98.682706 
1098.000000	98.684855 
1097.000000	98.685106 
1096.000000	98.683450 
1095.000000	98.680618 
1094.000000	98.677822 
1093.000000	98.675915 
1092.000000	98.673891 
1091.000000	98.669228 
1090.000000	98.660798 
1089.000000	98.650681 
1088.000000	98.642093 
1087.000000	98.636198 
1086.000000	98.631841 
1085.000000	98.627582 
1084.000000	98.622898 
1083.000000	98.617977 
1082.000000	98.613697 
1081.000000	98.611548 
1080.000000	98.612239 
1079.000000	98.614201 
1078.000000	98.614458 
1077.000000	98.611295 
1076.000000	98.605402 
1075.000000	98.598444 
1074.000000	98.591572 
1073.000000	98.585572 
1072.000000	98.581095 
1071.000000	98.577446 
1070.000000	98.571832 
1069.000000	98.561850 
1068.000000	98.549596 
1067.000000	98.541873 
1066.000000	98.544191 
1065.000000	98.554149 
1064.000000	98.562107 
1063.000000	98.559164 
1062.000000	98.544291 
1061.000000	98.523944 
1060.000000	98.506165 
1059.000000	98.495651 
1058.000000	98.492707 
1057.000000	98.494843 
1056.000000	98.499159 
1055.000000	98.503980 
1054.000000	98.508317 
1053.000000	98.509935 
1052.000000	98.505636 
1051.000000	98.495221 
1050.000000	98.484092 
1049.000000	98.479057 
1048.000000	98.481159 
1047.000000	98.484400 
1046.000000	98.481694 
1045.000000	98.471092 
1044.000000	98.456992 
1043.000000	98.446887 
1042.000000	98.446117 
1041.000000	98.453642 
1040.000000	98.462712 
1039.000000	98.467007 
1038.000000	98.466235 
1037.000000	98.464746 
1036.000000	98.465545 
1035.000000	98.467994 
1034.000000	98.471068 
1033.000000	98.475639 
1032.000000	98.482108 
1031.000000	98.488131 
1030.000000	98.490878 
1029.000000	98.490557 
1028.000000	98.490145 
1027.000000	98.492243 
1026.000000	98.497156 
1025.000000	98.503235 
1024.000000	98.508300 
1023.000000	98.511645 
1022.000000	98.515420 
1021.000000	98.522715 
1020.000000	98.533216 
1019.000000	98.542150 
1018.000000	98.545145 
1017.000000	98.543114 
1016.000000	98.540802 
1015.000000	98.541625 
1014.000000	98.545684 
1013.000000	98.551791 
1012.000000	98.558851 
1011.000000	98.565163 
1010.000000	98.568695 
1009.000000	98.568948 
1008.000000	98.567313 
1007.000000	98.565307 
1006.000000	98.563823 
1005.000000	98.564348 
1004.000000	98.569039 
1003.000000	98.578277 
1002.000000	98.589119 
1001.000000	98.597568 
1000.000000	98.602004 
999.000000	 98.603635 
998.000000	 98.604230 
997.000000	 98.604637 
996.000000	 98.605328 
995.000000	 98.606948 
994.000000	 98.609552 
993.000000	 98.612018 
992.000000	 98.613202 
991.000000	 98.613788 
990.000000	 98.616402 
989.000000	 98.623361 
988.000000	 98.634080 
987.000000	 98.644783 
986.000000	 98.651275 
985.000000	 98.652772 
984.000000	 98.653164 
983.000000	 98.657848 
982.000000	 98.668571 
981.000000	 98.681591 
980.000000	 98.691535 
979.000000	 98.696963 
978.000000	 98.701464 
977.000000	 98.709301 
976.000000	 98.720781 
975.000000	 98.732166 
974.000000	 98.739401 
973.000000	 98.741630 
972.000000	 98.741604 
971.000000	 98.743079 
970.000000	 98.747465 
969.000000	 98.752940 
968.000000	 98.757286 
967.000000	 98.761033 
966.000000	 98.766513 
965.000000	 98.774077 
964.000000	 98.781311 
963.000000	 98.786559 
962.000000	 98.791064 
961.000000	 98.796358 
960.000000	 98.801660 
959.000000	 98.805923 
958.000000	 98.810667 
957.000000	 98.817923 
956.000000	 98.826258 
955.000000	 98.831987 
954.000000	 98.834437 
953.000000	 98.837068 
952.000000	 98.842323 
951.000000	 98.847709 
950.000000	 98.848850 
949.000000	 98.845363 
948.000000	 98.841841 
947.000000	 98.842758 
946.000000	 98.847245 
945.000000	 98.849949 
944.000000	 98.847638 
943.000000	 98.844161 
942.000000	 98.846999 
941.000000	 98.858426 
940.000000	 98.871982 
939.000000	 98.878850 
938.000000	 98.876086 
937.000000	 98.867301 
936.000000	 98.857605 
935.000000	 98.850842 
934.000000	 98.850138 
933.000000	 98.856939 
932.000000	 98.868523 
931.000000	 98.878817 
930.000000	 98.882898 
929.000000	 98.880077 
928.000000	 98.873148 
927.000000	 98.866402 
926.000000	 98.863806 
925.000000	 98.866727 
924.000000	 98.872985 
923.000000	 98.879323 
922.000000	 98.884285 
921.000000	 98.887266 
920.000000	 98.886317 
919.000000	 98.880269 
918.000000	 98.872774 
917.000000	 98.870392 
916.000000	 98.875340 
915.000000	 98.882797 
914.000000	 98.886971 
913.000000	 98.887743 
912.000000	 98.889273 
911.000000	 98.893546 
910.000000	 98.897786 
909.000000	 98.898427 
908.000000	 98.895921 
907.000000	 98.894391 
906.000000	 98.896712 
905.000000	 98.901322 
904.000000	 98.904945 
903.000000	 98.907195 
902.000000	 98.910016 
901.000000	 98.913181 
900.000000	 98.914241 
899.000000	 98.914082 
898.000000	 98.918031 
897.000000	 98.928176 
896.000000	 98.938212 
895.000000	 98.940294 
894.000000	 98.934812 
893.000000	 98.928914 
892.000000	 98.927240 
891.000000	 98.928834 
890.000000	 98.931510 
889.000000	 98.933677 
888.000000	 98.932532 
887.000000	 98.926635 
886.000000	 98.921223 
885.000000	 98.925162 
884.000000	 98.940166 
883.000000	 98.957150 
882.000000	 98.965844 
881.000000	 98.965112 
880.000000	 98.961755 
879.000000	 98.962027 
878.000000	 98.966489 
877.000000	 98.971319 
876.000000	 98.973082 
875.000000	 98.972863 
874.000000	 98.975187 
873.000000	 98.981604 
872.000000	 98.987545 
871.000000	 98.988470 
870.000000	 98.986399 
869.000000	 98.985813 
868.000000	 98.985622 
867.000000	 98.981315 
866.000000	 98.973892 
865.000000	 98.969882 
864.000000	 98.972167 
863.000000	 98.977223 
862.000000	 98.982453 
861.000000	 98.989732 
860.000000	 98.999269 
859.000000	 99.005788 
858.000000	 99.004346 
857.000000	 98.996176 
856.000000	 98.986651 
855.000000	 98.981488 
854.000000	 98.985870 
853.000000	 99.001333 
852.000000	 99.020776 
851.000000	 99.031927 
850.000000	 99.029438 
849.000000	 99.019387 
848.000000	 99.009439 
847.000000	 99.000317 
846.000000	 98.990430 
845.000000	 98.982559 
844.000000	 98.980167 
843.000000	 98.981376 
842.000000	 98.982515 
841.000000	 98.984564 
840.000000	 98.990488 
839.000000	 98.998396 
838.000000	 99.002646 
837.000000	 99.000502 
836.000000	 98.993500 
835.000000	 98.983924 
834.000000	 98.973968 
833.000000	 98.966590 
832.000000	 98.963054 
831.000000	 98.961143 
830.000000	 98.959772 
829.000000	 98.963233 
828.000000	 98.975469 
827.000000	 98.991469 
826.000000	 99.001126 
825.000000	 99.002258 
824.000000	 99.002922 
823.000000	 99.009284 
822.000000	 99.018325 
821.000000	 99.025291 
820.000000	 99.031396 
819.000000	 99.039432 
818.000000	 99.046058 
817.000000	 99.043577 
816.000000	 99.028905 
815.000000	 99.007975 
814.000000	 98.990502 
813.000000	 98.981642 
812.000000	 98.979279 
811.000000	 98.977485 
810.000000	 98.970543 
809.000000	 98.954950 
808.000000	 98.931262 
807.000000	 98.905430 
806.000000	 98.885427 
805.000000	 98.874092 
804.000000	 98.867071 
803.000000	 98.859311 
802.000000	 98.850676 
801.000000	 98.842875 
800.000000	 98.835057 
799.000000	 98.827431 
798.000000	 98.826056 
797.000000	 98.837104 
796.000000	 98.856905 
795.000000	 98.873983 
794.000000	 98.881531 
793.000000	 98.882286 
792.000000	 98.880943 
791.000000	 98.878794 
790.000000	 98.877488 
789.000000	 98.880509 
788.000000	 98.886893 
787.000000	 98.889206 
786.000000	 98.882298 
785.000000	 98.869641 
784.000000	 98.857241 
783.000000	 98.846218 
782.000000	 98.835975 
781.000000	 98.830051 
780.000000	 98.832514 
779.000000	 98.840818 
778.000000	 98.847803 
777.000000	 98.849784 
776.000000	 98.848568 
775.000000	 98.847150 
774.000000	 98.847873 
773.000000	 98.853568 
772.000000	 98.865696 
771.000000	 98.881025 
770.000000	 98.893495 
769.000000	 98.899497 
768.000000	 98.899075 
767.000000	 98.893442 
766.000000	 98.884895 
765.000000	 98.878453 
764.000000	 98.879641 
763.000000	 98.889466 
762.000000	 98.903062 
761.000000	 98.913295 
760.000000	 98.914948 
759.000000	 98.907534 
758.000000	 98.896816 
757.000000	 98.892076 
756.000000	 98.898481 
755.000000	 98.912084 
754.000000	 98.924255 
753.000000	 98.930025 
752.000000	 98.929444 
751.000000	 98.922609 
750.000000	 98.908861 
749.000000	 98.892190 
748.000000	 98.882682 
747.000000	 98.888127 
746.000000	 98.904899 
745.000000	 98.920737 
744.000000	 98.927456 
743.000000	 98.928429 
742.000000	 98.932143 
741.000000	 98.940758 
740.000000	 98.948490 
739.000000	 98.950774 
738.000000	 98.950723 
737.000000	 98.954259 
736.000000	 98.961768 
735.000000	 98.967568 
734.000000	 98.966204 
733.000000	 98.956766 
732.000000	 98.942428 
731.000000	 98.928277 
730.000000	 98.917980 
729.000000	 98.910083 
728.000000	 98.899563 
727.000000	 98.886364 
726.000000	 98.880206 
725.000000	 98.891542 
724.000000	 98.918515 
723.000000	 98.947872 
722.000000	 98.968158 
721.000000	 98.977285 
720.000000	 98.978196 
719.000000	 98.973729 
718.000000	 98.966816 
717.000000	 98.959562 
716.000000	 98.950344 
715.000000	 98.937094 
714.000000	 98.924816 
713.000000	 98.923963 
712.000000	 98.938311 
711.000000	 98.959077 
710.000000	 98.973956 
709.000000	 98.978049 
708.000000	 98.973484 
707.000000	 98.962878 
706.000000	 98.947770 
705.000000	 98.930987 
704.000000	 98.917236 
703.000000	 98.912276 
702.000000	 98.920101 
701.000000	 98.936895 
700.000000	 98.948917 
699.000000	 98.942422 
698.000000	 98.918385 
697.000000	 98.893024 
696.000000	 98.882074 
695.000000	 98.889297 
694.000000	 98.909044 
693.000000	 98.932538 
692.000000	 98.949931 
691.000000	 98.953240 
690.000000	 98.942690 
689.000000	 98.926519 
688.000000	 98.912758 
687.000000	 98.905927 
686.000000	 98.909968 
685.000000	 98.925160 
684.000000	 98.941391 
683.000000	 98.944623 
682.000000	 98.933458 
681.000000	 98.920613 
680.000000	 98.914810 
679.000000	 98.911026 
678.000000	 98.903713 
677.000000	 98.899372 
676.000000	 98.906270 
675.000000	 98.919620 
674.000000	 98.928643 
673.000000	 98.931372 
672.000000	 98.931428 
671.000000	 98.926697 
670.000000	 98.911410 
669.000000	 98.885101 
668.000000	 98.862117 
667.000000	 98.855055 
666.000000	 98.854399 
665.000000	 98.856557 
664.000000	 98.870465 
663.000000	 98.895533 
662.000000	 98.918413 
661.000000	 98.921705 
660.000000	 98.895814 
659.000000	 98.846199 
658.000000	 98.799135 
657.000000	 98.787789 
656.000000	 98.820882 
655.000000	 98.871212 
654.000000	 98.904211 
653.000000	 98.910361 
652.000000	 98.900727 
651.000000	 98.888407 
650.000000	 98.887094 

