4000.000000	99.183539 
3999.000000	99.181719 
3998.000000	99.180001 
3997.000000	99.179794 
3996.000000	99.180487 
3995.000000	99.180514 
3994.000000	99.179877 
3993.000000	99.180549 
3992.000000	99.183829 
3991.000000	99.187968 
3990.000000	99.189296 
3989.000000	99.185592 
3988.000000	99.178054 
3987.000000	99.170274 
3986.000000	99.165743 
3985.000000	99.165927 
3984.000000	99.169758 
3983.000000	99.174826 
3982.000000	99.179380 
3981.000000	99.183239 
3980.000000	99.186938 
3979.000000	99.190411 
3978.000000	99.192940 
3977.000000	99.194043 
3976.000000	99.193800 
3975.000000	99.192251 
3974.000000	99.189053 
3973.000000	99.184123 
3972.000000	99.178561 
3971.000000	99.174545 
3970.000000	99.174217 
3969.000000	99.178177 
3968.000000	99.184648 
3967.000000	99.190376 
3966.000000	99.192760 
3965.000000	99.191522 
3964.000000	99.188330 
3963.000000	99.185258 
3962.000000	99.183539 
3961.000000	99.183180 
3960.000000	99.183177 
3959.000000	99.182204 
3958.000000	99.180092 
3957.000000	99.178559 
3956.000000	99.179525 
3955.000000	99.182675 
3954.000000	99.185331 
3953.000000	99.185156 
3952.000000	99.182143 
3951.000000	99.178101 
3950.000000	99.174687 
3949.000000	99.171984 
3948.000000	99.169087 
3947.000000	99.166041 
3946.000000	99.164541 
3945.000000	99.165863 
3944.000000	99.168603 
3943.000000	99.169626 
3942.000000	99.167903 
3941.000000	99.166357 
3940.000000	99.168145 
3939.000000	99.171957 
3938.000000	99.173513 
3937.000000	99.170717 
3936.000000	99.165385 
3935.000000	99.160644 
3934.000000	99.158037 
3933.000000	99.157887 
3932.000000	99.160262 
3931.000000	99.164615 
3930.000000	99.169462 
3929.000000	99.172930 
3928.000000	99.174351 
3927.000000	99.174330 
3926.000000	99.173142 
3925.000000	99.170378 
3924.000000	99.166669 
3923.000000	99.163951 
3922.000000	99.162252 
3921.000000	99.159225 
3920.000000	99.154646 
3919.000000	99.151934 
3918.000000	99.153322 
3917.000000	99.156890 
3916.000000	99.160291 
3915.000000	99.164637 
3914.000000	99.171522 
3913.000000	99.178659 
3912.000000	99.181607 
3911.000000	99.177980 
3910.000000	99.168789 
3909.000000	99.157361 
3908.000000	99.147176 
3907.000000	99.140972 
3906.000000	99.138885 
3905.000000	99.137991 
3904.000000	99.134488 
3903.000000	99.129258 
3902.000000	99.128323 
3901.000000	99.134755 
3900.000000	99.143924 
3899.000000	99.149498 
3898.000000	99.150566 
3897.000000	99.149540 
3896.000000	99.146780 
3895.000000	99.142114 
3894.000000	99.139893 
3893.000000	99.145572 
3892.000000	99.156227 
3891.000000	99.161248 
3890.000000	99.157721 
3889.000000	99.155239 
3888.000000	99.159384 
3887.000000	99.165142 
3886.000000	99.163801 
3885.000000	99.152091 
3884.000000	99.139464 
3883.000000	99.137950 
3882.000000	99.146124 
3881.000000	99.153853 
3880.000000	99.153443 
3879.000000	99.146506 
3878.000000	99.142949 
3877.000000	99.147421 
3876.000000	99.153938 
3875.000000	99.153717 
3874.000000	99.143124 
3873.000000	99.129594 
3872.000000	99.124239 
3871.000000	99.126336 
3870.000000	99.124189 
3869.000000	99.114659 
3868.000000	99.112179 
3867.000000	99.125718 
3866.000000	99.143152 
3865.000000	99.151778 
3864.000000	99.153158 
3863.000000	99.154504 
3862.000000	99.157731 
3861.000000	99.158407 
3860.000000	99.152398 
3859.000000	99.138679 
3858.000000	99.117129 
3857.000000	99.091652 
3856.000000	99.072989 
3855.000000	99.075254 
3854.000000	99.094816 
3853.000000	99.103862 
3852.000000	99.098888 
3851.000000	99.109265 
3850.000000	99.136154 
3849.000000	99.157589 
3848.000000	99.166462 
3847.000000	99.167916 
3846.000000	99.166255 
3845.000000	99.162048 
3844.000000	99.155081 
3843.000000	99.145610 
3842.000000	99.135826 
3841.000000	99.129735 
3840.000000	99.129601 
3839.000000	99.134059 
3838.000000	99.138505 
3837.000000	99.139969 
3836.000000	99.140555 
3835.000000	99.144379 
3834.000000	99.151778 
3833.000000	99.159788 
3832.000000	99.164635 
3831.000000	99.164794 
3830.000000	99.163121 
3829.000000	99.163632 
3828.000000	99.166108 
3827.000000	99.165176 
3826.000000	99.156219 
3825.000000	99.143166 
3824.000000	99.135638 
3823.000000	99.138796 
3822.000000	99.147240 
3821.000000	99.146836 
3820.000000	99.134797 
3819.000000	99.130252 
3818.000000	99.141901 
3817.000000	99.156366 
3816.000000	99.160348 
3815.000000	99.154274 
3814.000000	99.152195 
3813.000000	99.159787 
3812.000000	99.164989 
3811.000000	99.160411 
3810.000000	99.154105 
3809.000000	99.156170 
3808.000000	99.164439 
3807.000000	99.164942 
3806.000000	99.151594 
3805.000000	99.137958 
3804.000000	99.137052 
3803.000000	99.145003 
3802.000000	99.149291 
3801.000000	99.139688 
3800.000000	99.124843 
3799.000000	99.124604 
3798.000000	99.137228 
3797.000000	99.147173 
3796.000000	99.148643 
3795.000000	99.147450 
3794.000000	99.151550 
3793.000000	99.161151 
3792.000000	99.170661 
3791.000000	99.176042 
3790.000000	99.176912 
3789.000000	99.174919 
3788.000000	99.173616 
3787.000000	99.176608 
3786.000000	99.183638 
3785.000000	99.189620 
3784.000000	99.190679 
3783.000000	99.189145 
3782.000000	99.189790 
3781.000000	99.192852 
3780.000000	99.193635 
3779.000000	99.187968 
3778.000000	99.178203 
3777.000000	99.171157 
3776.000000	99.168706 
3775.000000	99.167012 
3774.000000	99.164319 
3773.000000	99.163943 
3772.000000	99.168117 
3771.000000	99.172525 
3770.000000	99.170106 
3769.000000	99.161567 
3768.000000	99.156661 
3767.000000	99.161220 
3766.000000	99.169364 
3765.000000	99.172646 
3764.000000	99.171037 
3763.000000	99.171353 
3762.000000	99.176334 
3761.000000	99.181982 
3760.000000	99.184586 
3759.000000	99.183021 
3758.000000	99.176534 
3757.000000	99.165215 
3756.000000	99.151177 
3755.000000	99.137637 
3754.000000	99.126196 
3753.000000	99.118973 
3752.000000	99.119301 
3751.000000	99.123354 
3750.000000	99.118516 
3749.000000	99.101082 
3748.000000	99.083391 
3747.000000	99.077702 
3746.000000	99.086298 
3745.000000	99.101392 
3744.000000	99.106110 
3743.000000	99.102068 
3742.000000	99.111067 
3741.000000	99.127182 
3740.000000	99.129523 
3739.000000	99.119660 
3738.000000	99.111465 
3737.000000	99.111520 
3736.000000	99.115725 
3735.000000	99.121196 
3734.000000	99.131042 
3733.000000	99.144798 
3732.000000	99.154727 
3731.000000	99.157309 
3730.000000	99.157801 
3729.000000	99.159973 
3728.000000	99.161864 
3727.000000	99.161857 
3726.000000	99.161694 
3725.000000	99.163868 
3724.000000	99.167670 
3723.000000	99.169248 
3722.000000	99.167959 
3721.000000	99.167716 
3720.000000	99.171747 
3719.000000	99.177615 
3718.000000	99.178638 
3717.000000	99.170583 
3716.000000	99.155622 
3715.000000	99.139239 
3714.000000	99.124943 
3713.000000	99.114313 
3712.000000	99.107542 
3711.000000	99.104018 
3710.000000	99.105753 
3709.000000	99.114730 
3708.000000	99.126322 
3707.000000	99.132376 
3706.000000	99.128915 
3705.000000	99.118704 
3704.000000	99.107835 
3703.000000	99.101167 
3702.000000	99.098693 
3701.000000	99.096683 
3700.000000	99.093839 
3699.000000	99.091475 
3698.000000	99.087765 
3697.000000	99.078738 
3696.000000	99.064630 
3695.000000	99.050564 
3694.000000	99.040228 
3693.000000	99.032559 
3692.000000	99.026346 
3691.000000	99.023007 
3690.000000	99.022368 
3689.000000	99.019828 
3688.000000	99.014079 
3687.000000	99.013695 
3686.000000	99.024982 
3685.000000	99.040621 
3684.000000	99.049415 
3683.000000	99.049154 
3682.000000	99.044223 
3681.000000	99.035503 
3680.000000	99.017693 
3679.000000	98.989671 
3678.000000	98.961149 
3677.000000	98.944534 
3676.000000	98.940361 
3675.000000	98.935478 
3674.000000	98.930903 
3673.000000	98.941001 
3672.000000	98.960736 
3671.000000	98.977136 
3670.000000	98.985787 
3669.000000	98.986539 
3668.000000	98.987392 
3667.000000	98.993621 
3666.000000	98.999656 
3665.000000	99.001675 
3664.000000	99.001826 
3663.000000	99.002552 
3662.000000	99.003084 
3661.000000	99.001436 
3660.000000	98.998185 
3659.000000	98.997334 
3658.000000	99.001794 
3657.000000	99.008176 
3656.000000	99.008619 
3655.000000	99.002298 
3654.000000	98.997489 
3653.000000	98.997156 
3652.000000	98.997827 
3651.000000	98.998954 
3650.000000	99.000340 
3649.000000	98.997552 
3648.000000	98.991546 
3647.000000	98.990620 
3646.000000	98.999283 
3645.000000	99.014424 
3644.000000	99.029864 
3643.000000	99.041209 
3642.000000	99.048039 
3641.000000	99.053402 
3640.000000	99.060676 
3639.000000	99.070582 
3638.000000	99.081191 
3637.000000	99.091226 
3636.000000	99.099398 
3635.000000	99.101289 
3634.000000	99.091946 
3633.000000	99.073141 
3632.000000	99.054579 
3631.000000	99.045897 
3630.000000	99.049842 
3629.000000	99.055993 
3628.000000	99.052241 
3627.000000	99.048907 
3626.000000	99.057792 
3625.000000	99.069276 
3624.000000	99.073050 
3623.000000	99.069870 
3622.000000	99.064368 
3621.000000	99.059148 
3620.000000	99.054404 
3619.000000	99.049841 
3618.000000	99.047563 
3617.000000	99.052090 
3616.000000	99.063307 
3615.000000	99.074241 
3614.000000	99.077397 
3613.000000	99.070571 
3612.000000	99.058733 
3611.000000	99.049985 
3610.000000	99.049107 
3609.000000	99.055565 
3608.000000	99.065604 
3607.000000	99.075656 
3606.000000	99.084549 
3605.000000	99.092073 
3604.000000	99.097893 
3603.000000	99.102465 
3602.000000	99.106064 
3601.000000	99.108113 
3600.000000	99.108961 
3599.000000	99.110380 
3598.000000	99.112596 
3597.000000	99.113498 
3596.000000	99.111526 
3595.000000	99.106860 
3594.000000	99.100804 
3593.000000	99.095357 
3592.000000	99.092803 
3591.000000	99.094053 
3590.000000	99.098702 
3589.000000	99.104723 
3588.000000	99.107683 
3587.000000	99.103918 
3586.000000	99.097204 
3585.000000	99.094960 
3584.000000	99.098277 
3583.000000	99.103049 
3582.000000	99.106178 
3581.000000	99.106688 
3580.000000	99.104391 
3579.000000	99.099726 
3578.000000	99.094141 
3577.000000	99.089759 
3576.000000	99.088580 
3575.000000	99.090741 
3574.000000	99.093817 
3573.000000	99.094052 
3572.000000	99.088901 
3571.000000	99.078551 
3570.000000	99.065591 
3569.000000	99.053528 
3568.000000	99.044917 
3567.000000	99.040667 
3566.000000	99.041944 
3565.000000	99.050602 
3564.000000	99.064393 
3563.000000	99.077147 
3562.000000	99.085011 
3561.000000	99.088626 
3560.000000	99.090345 
3559.000000	99.091383 
3558.000000	99.091316 
3557.000000	99.089346 
3556.000000	99.086012 
3555.000000	99.083467 
3554.000000	99.083471 
3553.000000	99.085257 
3552.000000	99.085930 
3551.000000	99.083326 
3550.000000	99.077431 
3549.000000	99.069587 
3548.000000	99.062098 
3547.000000	99.058013 
3546.000000	99.059091 
3545.000000	99.064230 
3544.000000	99.070560 
3543.000000	99.075332 
3542.000000	99.076954 
3541.000000	99.075469 
3540.000000	99.072781 
3539.000000	99.071760 
3538.000000	99.073955 
3537.000000	99.078006 
3536.000000	99.080617 
3535.000000	99.079598 
3534.000000	99.075423 
3533.000000	99.070184 
3532.000000	99.065938 
3531.000000	99.063928 
3530.000000	99.064222 
3529.000000	99.065484 
3528.000000	99.066013 
3527.000000	99.065244 
3526.000000	99.063913 
3525.000000	99.062466 
3524.000000	99.060470 
3523.000000	99.057870 
3522.000000	99.055923 
3521.000000	99.055906 
3520.000000	99.057203 
3519.000000	99.057690 
3518.000000	99.056117 
3517.000000	99.053569 
3516.000000	99.052221 
3515.000000	99.053196 
3514.000000	99.056015 
3513.000000	99.059445 
3512.000000	99.061993 
3511.000000	99.062157 
3510.000000	99.059612 
3509.000000	99.056130 
3508.000000	99.054434 
3507.000000	99.055406 
3506.000000	99.056808 
3505.000000	99.055301 
3504.000000	99.049861 
3503.000000	99.043176 
3502.000000	99.039989 
3501.000000	99.043583 
3500.000000	99.052970 
3499.000000	99.063112 
3498.000000	99.068305 
3497.000000	99.066490 
3496.000000	99.060941 
3495.000000	99.057105 
3494.000000	99.057326 
3493.000000	99.058932 
3492.000000	99.057418 
3491.000000	99.050882 
3490.000000	99.041389 
3489.000000	99.032738 
3488.000000	99.027519 
3487.000000	99.025981 
3486.000000	99.026691 
3485.000000	99.027832 
3484.000000	99.028305 
3483.000000	99.028150 
3482.000000	99.027814 
3481.000000	99.027104 
3480.000000	99.025432 
3479.000000	99.023178 
3478.000000	99.022070 
3477.000000	99.023370 
3476.000000	99.025956 
3475.000000	99.027134 
3474.000000	99.025812 
3473.000000	99.024045 
3472.000000	99.024699 
3471.000000	99.028100 
3470.000000	99.031689 
3469.000000	99.032666 
3468.000000	99.030222 
3467.000000	99.025501 
3466.000000	99.020254 
3465.000000	99.015677 
3464.000000	99.011941 
3463.000000	99.008478 
3462.000000	99.004745 
3461.000000	99.000770 
3460.000000	98.997051 
3459.000000	98.994241 
3458.000000	98.993085 
3457.000000	98.994144 
3456.000000	98.997007 
3455.000000	99.000146 
3454.000000	99.002056 
3453.000000	99.002411 
3452.000000	99.001918 
3451.000000	99.001415 
3450.000000	99.001330 
3449.000000	99.001529 
3448.000000	99.001293 
3447.000000	98.999681 
3446.000000	98.996696 
3445.000000	98.993846 
3444.000000	98.992841 
3443.000000	98.993824 
3442.000000	98.995244 
3441.000000	98.995375 
3440.000000	98.993795 
3439.000000	98.991286 
3438.000000	98.988738 
3437.000000	98.986572 
3436.000000	98.984962 
3435.000000	98.984267 
3434.000000	98.984866 
3433.000000	98.986595 
3432.000000	98.988697 
3431.000000	98.990458 
3430.000000	98.991610 
3429.000000	98.991875 
3428.000000	98.990548 
3427.000000	98.986942 
3426.000000	98.981455 
3425.000000	98.975866 
3424.000000	98.972173 
3423.000000	98.970989 
3422.000000	98.971104 
3421.000000	98.970760 
3420.000000	98.969329 
3419.000000	98.967817 
3418.000000	98.967844 
3417.000000	98.970040 
3416.000000	98.973173 
3415.000000	98.974859 
3414.000000	98.973641 
3413.000000	98.970613 
3412.000000	98.968616 
3411.000000	98.969540 
3410.000000	98.972704 
3409.000000	98.975905 
3408.000000	98.977334 
3407.000000	98.976133 
3406.000000	98.972032 
3405.000000	98.965816 
3404.000000	98.960026 
3403.000000	98.957928 
3402.000000	98.960972 
3401.000000	98.967441 
3400.000000	98.973804 
3399.000000	98.977352 
3398.000000	98.977908 
3397.000000	98.977394 
3396.000000	98.977658 
3395.000000	98.978571 
3394.000000	98.978542 
3393.000000	98.976881 
3392.000000	98.974983 
3391.000000	98.974730 
3390.000000	98.976271 
3389.000000	98.977980 
3388.000000	98.978096 
3387.000000	98.975804 
3386.000000	98.971301 
3385.000000	98.965829 
3384.000000	98.961347 
3383.000000	98.959169 
3382.000000	98.958746 
3381.000000	98.958290 
3380.000000	98.956444 
3379.000000	98.952960 
3378.000000	98.948434 
3377.000000	98.944406 
3376.000000	98.943469 
3375.000000	98.947875 
3374.000000	98.957416 
3373.000000	98.968999 
3372.000000	98.978482 
3371.000000	98.982962 
3370.000000	98.982031 
3369.000000	98.977919 
3368.000000	98.974245 
3367.000000	98.973402 
3366.000000	98.974539 
3365.000000	98.974606 
3364.000000	98.971707 
3363.000000	98.966967 
3362.000000	98.962975 
3361.000000	98.960983 
3360.000000	98.960038 
3359.000000	98.958510 
3358.000000	98.956046 
3357.000000	98.954019 
3356.000000	98.954091 
3355.000000	98.956286 
3354.000000	98.958772 
3353.000000	98.959882 
3352.000000	98.960043 
3351.000000	98.961221 
3350.000000	98.964736 
3349.000000	98.970230 
3348.000000	98.976443 
3347.000000	98.982098 
3346.000000	98.986051 
3345.000000	98.987636 
3344.000000	98.987201 
3343.000000	98.985586 
3342.000000	98.982926 
3341.000000	98.978857 
3340.000000	98.974060 
3339.000000	98.970333 
3338.000000	98.968485 
3337.000000	98.967224 
3336.000000	98.965224 
3335.000000	98.963567 
3334.000000	98.964734 
3333.000000	98.969297 
3332.000000	98.974720 
3331.000000	98.977707 
3330.000000	98.977196 
3329.000000	98.974978 
3328.000000	98.973915 
3327.000000	98.975547 
3326.000000	98.978970 
3325.000000	98.982037 
3324.000000	98.983912 
3323.000000	98.986082 
3322.000000	98.990148 
3321.000000	98.994899 
3320.000000	98.996701 
3319.000000	98.993357 
3318.000000	98.986988 
3317.000000	98.982277 
3316.000000	98.981971 
3315.000000	98.984610 
3314.000000	98.986621 
3313.000000	98.986059 
3312.000000	98.984011 
3311.000000	98.982812 
3310.000000	98.983605 
3309.000000	98.985783 
3308.000000	98.988180 
3307.000000	98.990046 
3306.000000	98.990844 
3305.000000	98.989865 
3304.000000	98.986702 
3303.000000	98.982152 
3302.000000	98.978346 
3301.000000	98.977749 
3300.000000	98.981589 
3299.000000	98.988686 
3298.000000	98.995659 
3297.000000	98.998992 
3296.000000	98.997802 
3295.000000	98.994717 
3294.000000	98.993650 
3293.000000	98.996444 
3292.000000	99.001598 
3291.000000	99.005941 
3290.000000	99.007138 
3289.000000	99.004773 
3288.000000	99.000024 
3287.000000	98.995051 
3286.000000	98.992217 
3285.000000	98.992839 
3284.000000	98.996204 
3283.000000	99.000028 
3282.000000	99.002122 
3281.000000	99.001592 
3280.000000	98.998619 
3279.000000	98.993943 
3278.000000	98.989164 
3277.000000	98.986827 
3276.000000	98.988892 
3275.000000	98.994670 
3274.000000	99.000867 
3273.000000	99.004127 
3272.000000	99.003370 
3271.000000	98.999855 
3270.000000	98.995835 
3269.000000	98.993517 
3268.000000	98.994417 
3267.000000	98.998655 
3266.000000	99.004781 
3265.000000	99.010821 
3264.000000	99.015619 
3263.000000	99.019080 
3262.000000	99.021648 
3261.000000	99.023955 
3260.000000	99.026359 
3259.000000	99.028024 
3258.000000	99.026865 
3257.000000	99.021426 
3256.000000	99.013091 
3255.000000	99.005850 
3254.000000	99.003376 
3253.000000	99.006310 
3252.000000	99.012153 
3251.000000	99.017346 
3250.000000	99.019607 
3249.000000	99.019029 
3248.000000	99.017400 
3247.000000	99.016358 
3246.000000	99.016143 
3245.000000	99.016123 
3244.000000	99.016238 
3243.000000	99.017488 
3242.000000	99.021113 
3241.000000	99.027411 
3240.000000	99.034919 
3239.000000	99.040494 
3238.000000	99.041057 
3237.000000	99.036279 
3236.000000	99.029382 
3235.000000	99.024547 
3234.000000	99.023543 
3233.000000	99.025342 
3232.000000	99.028405 
3231.000000	99.032090 
3230.000000	99.035892 
3229.000000	99.038731 
3228.000000	99.039594 
3227.000000	99.038157 
3226.000000	99.034550 
3225.000000	99.029472 
3224.000000	99.024917 
3223.000000	99.023584 
3222.000000	99.026617 
3221.000000	99.032451 
3220.000000	99.038461 
3219.000000	99.043027 
3218.000000	99.045445 
3217.000000	99.045018 
3216.000000	99.041781 
3215.000000	99.037795 
3214.000000	99.035990 
3213.000000	99.037179 
3212.000000	99.039393 
3211.000000	99.040785 
3210.000000	99.042161 
3209.000000	99.045544 
3208.000000	99.050766 
3207.000000	99.054898 
3206.000000	99.055486 
3205.000000	99.053537 
3204.000000	99.052551 
3203.000000	99.054829 
3202.000000	99.059537 
3201.000000	99.064412 
3200.000000	99.068295 
3199.000000	99.071271 
3198.000000	99.073178 
3197.000000	99.073490 
3196.000000	99.072720 
3195.000000	99.072442 
3194.000000	99.073086 
3193.000000	99.072804 
3192.000000	99.069831 
3191.000000	99.065631 
3190.000000	99.064331 
3189.000000	99.068649 
3188.000000	99.077001 
3187.000000	99.084731 
3186.000000	99.087667 
3185.000000	99.084560 
3184.000000	99.077167 
3183.000000	99.068841 
3182.000000	99.062603 
3181.000000	99.059534 
3180.000000	99.058569 
3179.000000	99.057949 
3178.000000	99.056936 
3177.000000	99.056115 
3176.000000	99.056397 
3175.000000	99.058286 
3174.000000	99.062170 
3173.000000	99.068570 
3172.000000	99.077270 
3171.000000	99.086122 
3170.000000	99.091653 
3169.000000	99.091878 
3168.000000	99.088649 
3167.000000	99.086463 
3166.000000	99.088466 
3165.000000	99.093773 
3164.000000	99.098862 
3163.000000	99.101127 
3162.000000	99.100712 
3161.000000	99.099421 
3160.000000	99.098806 
3159.000000	99.099328 
3158.000000	99.100388 
3157.000000	99.100689 
3156.000000	99.099108 
3155.000000	99.095846 
3154.000000	99.092641 
3153.000000	99.091545 
3152.000000	99.093370 
3151.000000	99.097161 
3150.000000	99.100929 
3149.000000	99.103007 
3148.000000	99.103208 
3147.000000	99.102823 
3146.000000	99.103119 
3145.000000	99.103843 
3144.000000	99.103806 
3143.000000	99.103058 
3142.000000	99.103569 
3141.000000	99.106966 
3140.000000	99.112107 
3139.000000	99.115905 
3138.000000	99.116679 
3137.000000	99.115923 
3136.000000	99.116372 
3135.000000	99.118879 
3134.000000	99.121734 
3133.000000	99.122778 
3132.000000	99.121608 
3131.000000	99.119661 
3130.000000	99.118561 
3129.000000	99.118639 
3128.000000	99.118930 
3127.000000	99.118310 
3126.000000	99.116574 
3125.000000	99.114524 
3124.000000	99.113280 
3123.000000	99.113498 
3122.000000	99.114969 
3121.000000	99.116939 
3120.000000	99.118879 
3119.000000	99.120708 
3118.000000	99.122063 
3117.000000	99.121887 
3116.000000	99.119602 
3115.000000	99.116578 
3114.000000	99.115200 
3113.000000	99.115885 
3112.000000	99.116175 
3111.000000	99.113993 
3110.000000	99.110936 
3109.000000	99.110540 
3108.000000	99.113416 
3107.000000	99.116004 
3106.000000	99.114915 
3105.000000	99.111027 
3104.000000	99.108208 
3103.000000	99.109026 
3102.000000	99.112972 
3101.000000	99.118155 
3100.000000	99.123068 
3099.000000	99.126540 
3098.000000	99.127703 
3097.000000	99.127060 
3096.000000	99.126634 
3095.000000	99.127982 
3094.000000	99.130464 
3093.000000	99.132221 
3092.000000	99.132321 
3091.000000	99.131121 
3090.000000	99.129084 
3089.000000	99.126626 
3088.000000	99.125106 
3087.000000	99.126379 
3086.000000	99.130479 
3085.000000	99.134656 
3084.000000	99.135797 
3083.000000	99.133448 
3082.000000	99.129791 
3081.000000	99.127092 
3080.000000	99.126023 
3079.000000	99.126058 
3078.000000	99.126288 
3077.000000	99.125721 
3076.000000	99.123917 
3075.000000	99.121837 
3074.000000	99.121320 
3073.000000	99.123166 
3072.000000	99.126348 
3071.000000	99.129525 
3070.000000	99.132402 
3069.000000	99.134781 
3068.000000	99.135149 
3067.000000	99.131834 
3066.000000	99.125721 
3065.000000	99.120437 
3064.000000	99.119017 
3063.000000	99.120972 
3062.000000	99.123299 
3061.000000	99.123947 
3060.000000	99.123633 
3059.000000	99.124448 
3058.000000	99.127408 
3057.000000	99.131560 
3056.000000	99.135032 
3055.000000	99.136640 
3054.000000	99.136558 
3053.000000	99.135675 
3052.000000	99.134536 
3051.000000	99.133040 
3050.000000	99.131019 
3049.000000	99.128609 
3048.000000	99.125754 
3047.000000	99.121731 
3046.000000	99.115935 
3045.000000	99.109198 
3044.000000	99.103687 
3043.000000	99.101041 
3042.000000	99.100893 
3041.000000	99.101579 
3040.000000	99.102040 
3039.000000	99.102550 
3038.000000	99.103507 
3037.000000	99.104008 
3036.000000	99.102187 
3035.000000	99.097137 
3034.000000	99.090232 
3033.000000	99.084033 
3032.000000	99.079639 
3031.000000	99.075443 
3030.000000	99.068794 
3029.000000	99.058575 
3028.000000	99.045840 
3027.000000	99.032575 
3026.000000	99.020546 
3025.000000	99.010896 
3024.000000	99.003638 
3023.000000	98.997117 
3022.000000	98.988875 
3021.000000	98.977715 
3020.000000	98.964753 
3019.000000	98.952229 
3018.000000	98.941625 
3017.000000	98.932996 
3016.000000	98.925319 
3015.000000	98.916935 
3014.000000	98.906291 
3013.000000	98.892993 
3012.000000	98.877789 
3011.000000	98.861124 
3010.000000	98.842541 
3009.000000	98.822376 
3008.000000	98.803319 
3007.000000	98.788816 
3006.000000	98.779677 
3005.000000	98.772997 
3004.000000	98.764454 
3003.000000	98.751198 
3002.000000	98.733080 
3001.000000	98.712600 
3000.000000	98.693807 
2999.000000	98.679686 
2998.000000	98.669840 
2997.000000	98.661641 
2996.000000	98.653745 
2995.000000	98.646611 
2994.000000	98.638541 
2993.000000	98.623607 
2992.000000	98.596847 
2991.000000	98.561599 
2990.000000	98.529114 
2989.000000	98.509493 
2988.000000	98.503930 
2987.000000	98.506354 
2986.000000	98.510857 
2985.000000	98.515904 
2984.000000	98.522308 
2983.000000	98.529674 
2982.000000	98.535836 
2981.000000	98.538717 
2980.000000	98.537865 
2979.000000	98.534365 
2978.000000	98.529660 
2977.000000	98.524340 
2976.000000	98.517855 
2975.000000	98.509415 
2974.000000	98.499142 
2973.000000	98.488137 
2972.000000	98.477569 
2971.000000	98.468198 
2970.000000	98.460866 
2969.000000	98.456817 
2968.000000	98.456937 
2967.000000	98.460766 
2966.000000	98.466615 
2965.000000	98.472643 
2964.000000	98.477774 
2963.000000	98.481856 
2962.000000	98.485286 
2961.000000	98.488360 
2960.000000	98.490850 
2959.000000	98.492538 
2958.000000	98.494394 
2957.000000	98.498525 
2956.000000	98.505957 
2955.000000	98.514693 
2954.000000	98.521288 
2953.000000	98.525045 
2952.000000	98.529675 
2951.000000	98.539570 
2950.000000	98.554463 
2949.000000	98.568674 
2948.000000	98.575988 
2947.000000	98.574828 
2946.000000	98.568557 
2945.000000	98.561446 
2944.000000	98.555117 
2943.000000	98.548598 
2942.000000	98.540564 
2941.000000	98.530498 
2940.000000	98.517909 
2939.000000	98.501677 
2938.000000	98.481162 
2937.000000	98.457824 
2936.000000	98.434889 
2935.000000	98.414955 
2934.000000	98.398053 
2933.000000	98.382111 
2932.000000	98.364906 
2931.000000	98.345394 
2930.000000	98.323757 
2929.000000	98.301111 
2928.000000	98.279527 
2927.000000	98.261801 
2926.000000	98.250311 
2925.000000	98.245481 
2924.000000	98.245520 
2923.000000	98.248179 
2922.000000	98.252904 
2921.000000	98.260948 
2920.000000	98.273229 
2919.000000	98.288681 
2918.000000	98.305153 
2917.000000	98.321400 
2916.000000	98.337516 
2915.000000	98.353759 
2914.000000	98.370001 
2913.000000	98.386315 
2912.000000	98.402918 
2911.000000	98.418998 
2910.000000	98.432571 
2909.000000	98.442380 
2908.000000	98.449401 
2907.000000	98.455556 
2906.000000	98.461154 
2905.000000	98.464353 
2904.000000	98.463189 
2903.000000	98.458081 
2902.000000	98.452838 
2901.000000	98.453540 
2900.000000	98.465021 
2899.000000	98.486936 
2898.000000	98.513116 
2897.000000	98.535925 
2896.000000	98.551849 
2895.000000	98.562560 
2894.000000	98.571283 
2893.000000	98.579440 
2892.000000	98.586816 
2891.000000	98.593190 
2890.000000	98.598793 
2889.000000	98.604008 
2888.000000	98.609500 
2887.000000	98.616110 
2886.000000	98.623959 
2885.000000	98.632171 
2884.000000	98.640128 
2883.000000	98.648447 
2882.000000	98.658007 
2881.000000	98.668545 
2880.000000	98.679122 
2879.000000	98.689623 
2878.000000	98.700595 
2877.000000	98.711458 
2876.000000	98.719903 
2875.000000	98.723752 
2874.000000	98.723186 
2873.000000	98.720911 
2872.000000	98.720364 
2871.000000	98.723683 
2870.000000	98.730760 
2869.000000	98.739547 
2868.000000	98.747416 
2867.000000	98.752875 
2866.000000	98.756493 
2865.000000	98.760079 
2864.000000	98.764526 
2863.000000	98.768288 
2862.000000	98.768302 
2861.000000	98.762811 
2860.000000	98.753261 
2859.000000	98.743136 
2858.000000	98.735111 
2857.000000	98.729811 
2856.000000	98.727048 
2855.000000	98.727270 
2854.000000	98.731290 
2853.000000	98.739192 
2852.000000	98.750331 
2851.000000	98.764361 
2850.000000	98.781776 
2849.000000	98.803339 
2848.000000	98.829092 
2847.000000	98.857684 
2846.000000	98.886334 
2845.000000	98.911799 
2844.000000	98.932260 
2843.000000	98.948695 
2842.000000	98.964201 
2841.000000	98.981456 
2840.000000	99.000432 
2839.000000	99.018270 
2838.000000	99.031306 
2837.000000	99.037703 
2836.000000	99.038909 
2835.000000	99.039024 
2834.000000	99.042315 
2833.000000	99.050376 
2832.000000	99.060901 
2831.000000	99.069363 
2830.000000	99.072701 
2829.000000	99.072041 
2828.000000	99.071861 
2827.000000	99.075977 
2826.000000	99.084153 
2825.000000	99.092600 
2824.000000	99.097772 
2823.000000	99.099560 
2822.000000	99.100933 
2821.000000	99.104873 
2820.000000	99.111819 
2819.000000	99.119832 
2818.000000	99.126720 
2817.000000	99.131615 
2816.000000	99.134554 
2815.000000	99.135345 
2814.000000	99.133897 
2813.000000	99.131622 
2812.000000	99.131175 
2811.000000	99.133731 
2810.000000	99.137146 
2809.000000	99.138116 
2808.000000	99.136058 
2807.000000	99.133715 
2806.000000	99.133732 
2805.000000	99.135842 
2804.000000	99.138055 
2803.000000	99.139541 
2802.000000	99.141229 
2801.000000	99.143888 
2800.000000	99.146725 
2799.000000	99.148164 
2798.000000	99.147606 
2797.000000	99.146144 
2796.000000	99.145578 
2795.000000	99.146703 
2794.000000	99.148637 
2793.000000	99.149978 
2792.000000	99.150438 
2791.000000	99.150980 
2790.000000	99.152534 
2789.000000	99.155179 
2788.000000	99.158481 
2787.000000	99.161806 
2786.000000	99.164193 
2785.000000	99.164944 
2784.000000	99.164793 
2783.000000	99.165438 
2782.000000	99.167166 
2781.000000	99.167891 
2780.000000	99.165717 
2779.000000	99.161849 
2778.000000	99.159704 
2777.000000	99.161231 
2776.000000	99.165128 
2775.000000	99.168600 
2774.000000	99.169838 
2773.000000	99.168770 
2772.000000	99.166566 
2771.000000	99.164991 
2770.000000	99.165562 
2769.000000	99.168725 
2768.000000	99.173883 
2767.000000	99.180004 
2766.000000	99.185744 
2765.000000	99.189347 
2764.000000	99.189577 
2763.000000	99.187116 
2762.000000	99.184309 
2761.000000	99.183135 
2760.000000	99.183907 
2759.000000	99.185917 
2758.000000	99.188387 
2757.000000	99.190474 
2756.000000	99.191392 
2755.000000	99.191328 
2754.000000	99.191508 
2753.000000	99.192520 
2752.000000	99.193090 
2751.000000	99.191481 
2750.000000	99.187796 
2749.000000	99.184027 
2748.000000	99.181910 
2747.000000	99.181569 
2746.000000	99.182216 
2745.000000	99.183289 
2744.000000	99.184611 
2743.000000	99.186065 
2742.000000	99.187587 
2741.000000	99.189270 
2740.000000	99.191355 
2739.000000	99.194271 
2738.000000	99.198520 
2737.000000	99.203965 
2736.000000	99.209157 
2735.000000	99.211914 
2734.000000	99.210926 
2733.000000	99.206651 
2732.000000	99.200636 
2731.000000	99.194471 
2730.000000	99.189572 
2729.000000	99.187315 
2728.000000	99.188580 
2727.000000	99.193014 
2726.000000	99.199001 
2725.000000	99.204472 
2724.000000	99.207949 
2723.000000	99.209231 
2722.000000	99.209361 
2721.000000	99.209714 
2720.000000	99.210821 
2719.000000	99.212090 
2718.000000	99.212693 
2717.000000	99.212481 
2716.000000	99.212052 
2715.000000	99.212341 
2714.000000	99.214237 
2713.000000	99.217867 
2712.000000	99.221785 
2711.000000	99.223580 
2710.000000	99.222286 
2709.000000	99.219924 
2708.000000	99.219570 
2707.000000	99.221751 
2706.000000	99.223720 
2705.000000	99.222692 
2704.000000	99.218933 
2703.000000	99.215046 
2702.000000	99.213006 
2701.000000	99.212806 
2700.000000	99.213574 
2699.000000	99.214783 
2698.000000	99.216063 
2697.000000	99.216659 
2696.000000	99.215885 
2695.000000	99.214099 
2694.000000	99.212777 
2693.000000	99.213230 
2692.000000	99.215076 
2691.000000	99.216299 
2690.000000	99.215360 
2689.000000	99.213337 
2688.000000	99.213189 
2687.000000	99.216340 
2686.000000	99.220553 
2685.000000	99.222137 
2684.000000	99.220184 
2683.000000	99.217710 
2682.000000	99.218390 
2681.000000	99.222908 
2680.000000	99.228812 
2679.000000	99.233064 
2678.000000	99.234069 
2677.000000	99.231997 
2676.000000	99.228407 
2675.000000	99.225574 
2674.000000	99.225069 
2673.000000	99.226266 
2672.000000	99.226691 
2671.000000	99.224408 
2670.000000	99.219920 
2669.000000	99.215377 
2668.000000	99.212233 
2667.000000	99.210386 
2666.000000	99.209536 
2665.000000	99.210432 
2664.000000	99.213986 
2663.000000	99.219473 
2662.000000	99.224489 
2661.000000	99.227046 
2660.000000	99.227237 
2659.000000	99.226439 
2658.000000	99.225263 
2657.000000	99.223039 
2656.000000	99.219491 
2655.000000	99.216160 
2654.000000	99.215288 
2653.000000	99.217222 
2652.000000	99.219698 
2651.000000	99.220289 
2650.000000	99.219160 
2649.000000	99.218574 
2648.000000	99.219841 
2647.000000	99.221945 
2646.000000	99.223581 
2645.000000	99.225222 
2644.000000	99.227857 
2643.000000	99.230425 
2642.000000	99.230327 
2641.000000	99.226824 
2640.000000	99.222570 
2639.000000	99.221116 
2638.000000	99.223719 
2637.000000	99.228873 
2636.000000	99.233865 
2635.000000	99.236377 
2634.000000	99.235907 
2633.000000	99.234636 
2632.000000	99.235761 
2631.000000	99.239757 
2630.000000	99.243206 
2629.000000	99.242673 
2628.000000	99.238992 
2627.000000	99.236125 
2626.000000	99.236266 
2625.000000	99.237836 
2624.000000	99.238118 
2623.000000	99.236047 
2622.000000	99.232282 
2621.000000	99.228347 
2620.000000	99.226250 
2619.000000	99.227201 
2618.000000	99.229814 
2617.000000	99.230935 
2616.000000	99.229324 
2615.000000	99.227415 
2614.000000	99.228399 
2613.000000	99.232527 
2612.000000	99.237336 
2611.000000	99.240607 
2610.000000	99.241640 
2609.000000	99.240271 
2608.000000	99.236591 
2607.000000	99.232135 
2606.000000	99.229960 
2605.000000	99.232214 
2604.000000	99.237641 
2603.000000	99.242342 
2602.000000	99.243536 
2601.000000	99.242432 
2600.000000	99.242802 
2599.000000	99.246682 
2598.000000	99.252220 
2597.000000	99.255922 
2596.000000	99.255790 
2595.000000	99.251491 
2594.000000	99.243153 
2593.000000	99.232374 
2592.000000	99.223684 
2591.000000	99.221985 
2590.000000	99.227600 
2589.000000	99.235952 
2588.000000	99.242870 
2587.000000	99.247950 
2586.000000	99.251553 
2585.000000	99.251404 
2584.000000	99.245187 
2583.000000	99.235189 
2582.000000	99.227166 
2581.000000	99.224382 
2580.000000	99.224878 
2579.000000	99.224883 
2578.000000	99.223154 
2577.000000	99.221506 
2576.000000	99.222495 
2575.000000	99.227151 
2574.000000	99.233963 
2573.000000	99.239582 
2572.000000	99.241204 
2571.000000	99.238580 
2570.000000	99.233536 
2569.000000	99.228144 
2568.000000	99.224114 
2567.000000	99.223014 
2566.000000	99.225327 
2565.000000	99.229323 
2564.000000	99.232359 
2563.000000	99.233420 
2562.000000	99.233280 
2561.000000	99.232601 
2560.000000	99.231791 
2559.000000	99.232474 
2558.000000	99.236286 
2557.000000	99.241102 
2556.000000	99.241195 
2555.000000	99.233641 
2554.000000	99.223140 
2553.000000	99.217825 
2552.000000	99.220734 
2551.000000	99.227845 
2550.000000	99.234272 
2549.000000	99.239363 
2548.000000	99.244460 
2547.000000	99.248394 
2546.000000	99.248214 
2545.000000	99.243988 
2544.000000	99.240269 
2543.000000	99.241652 
2542.000000	99.247919 
2541.000000	99.254447 
2540.000000	99.256824 
2539.000000	99.254249 
2538.000000	99.248647 
2537.000000	99.241515 
2536.000000	99.232533 
2535.000000	99.221558 
2534.000000	99.211470 
2533.000000	99.207559 
2532.000000	99.212734 
2531.000000	99.223687 
2530.000000	99.233477 
2529.000000	99.238418 
2528.000000	99.240871 
2527.000000	99.244357 
2526.000000	99.248044 
2525.000000	99.248611 
2524.000000	99.246472 
2523.000000	99.246551 
2522.000000	99.251840 
2521.000000	99.258910 
2520.000000	99.261862 
2519.000000	99.259166 
2518.000000	99.254396 
2517.000000	99.251128 
2516.000000	99.249512 
2515.000000	99.248047 
2514.000000	99.246624 
2513.000000	99.246499 
2512.000000	99.247850 
2511.000000	99.248496 
2510.000000	99.245675 
2509.000000	99.239405 
2508.000000	99.233684 
2507.000000	99.233205 
2506.000000	99.238256 
2505.000000	99.243613 
2504.000000	99.243282 
2503.000000	99.235892 
2502.000000	99.225105 
2501.000000	99.216170 
2500.000000	99.213342 
2499.000000	99.219123 
2498.000000	99.233013 
2497.000000	99.250339 
2496.000000	99.264328 
2495.000000	99.270680 
2494.000000	99.269619 
2493.000000	99.263619 
2492.000000	99.254844 
2491.000000	99.245436 
2490.000000	99.238215 
2489.000000	99.234822 
2488.000000	99.233468 
2487.000000	99.230397 
2486.000000	99.224295 
2485.000000	99.218538 
2484.000000	99.218356 
2483.000000	99.225620 
2482.000000	99.236460 
2481.000000	99.244135 
2480.000000	99.244678 
2479.000000	99.239834 
2478.000000	99.234411 
2477.000000	99.231304 
2476.000000	99.229864 
2475.000000	99.228630 
2474.000000	99.227820 
2473.000000	99.228432 
2472.000000	99.230450 
2471.000000	99.233277 
2470.000000	99.236852 
2469.000000	99.240679 
2468.000000	99.242529 
2467.000000	99.240320 
2466.000000	99.235446 
2465.000000	99.232313 
2464.000000	99.233668 
2463.000000	99.237771 
2462.000000	99.240982 
2461.000000	99.241854 
2460.000000	99.241562 
2459.000000	99.241408 
2458.000000	99.241426 
2457.000000	99.240926 
2456.000000	99.238999 
2455.000000	99.234737 
2454.000000	99.228348 
2453.000000	99.222064 
2452.000000	99.218665 
2451.000000	99.218821 
2450.000000	99.220829 
2449.000000	99.222976 
2448.000000	99.225015 
2447.000000	99.227339 
2446.000000	99.230279 
2445.000000	99.234731 
2444.000000	99.241794 
2443.000000	99.250550 
2442.000000	99.257400 
2441.000000	99.259110 
2440.000000	99.256014 
2439.000000	99.251043 
2438.000000	99.246315 
2437.000000	99.241976 
2436.000000	99.237636 
2435.000000	99.232943 
2434.000000	99.226827 
2433.000000	99.218288 
2432.000000	99.208802 
2431.000000	99.202466 
2430.000000	99.202567 
2429.000000	99.208700 
2428.000000	99.218044 
2427.000000	99.228470 
2426.000000	99.238949 
2425.000000	99.247354 
2424.000000	99.250010 
2423.000000	99.244862 
2422.000000	99.234661 
2421.000000	99.225704 
2420.000000	99.222636 
2419.000000	99.224809 
2418.000000	99.228088 
2417.000000	99.229689 
2416.000000	99.230239 
2415.000000	99.231406 
2414.000000	99.233232 
2413.000000	99.234718 
2412.000000	99.235739 
2411.000000	99.236806 
2410.000000	99.237561 
2409.000000	99.237259 
2408.000000	99.236714 
2407.000000	99.238074 
2406.000000	99.242004 
2405.000000	99.246276 
2404.000000	99.247918 
2403.000000	99.245937 
2402.000000	99.241325 
2401.000000	99.235301 
2400.000000	99.228611 
2399.000000	99.222263 
2398.000000	99.217976 
2397.000000	99.217419 
2396.000000	99.220976 
2395.000000	99.227185 
2394.000000	99.233488 
2393.000000	99.237958 
2392.000000	99.240583 
2391.000000	99.242876 
2390.000000	99.246217 
2389.000000	99.250476 
2388.000000	99.253883 
2387.000000	99.254235 
2386.000000	99.251062 
2385.000000	99.247136 
2384.000000	99.247009 
2383.000000	99.253044 
2382.000000	99.263230 
2381.000000	99.273515 
2380.000000	99.281189 
2379.000000	99.284711 
2378.000000	99.281952 
2377.000000	99.272294 
2376.000000	99.260932 
2375.000000	99.256823 
2374.000000	99.263208 
2373.000000	99.272569 
2372.000000	99.274930 
2371.000000	99.270036 
2370.000000	99.266879 
2369.000000	99.271194 
2368.000000	99.278103 
2367.000000	99.279052 
2366.000000	99.272293 
2365.000000	99.263613 
2364.000000	99.259140 
2363.000000	99.260399 
2362.000000	99.265202 
2361.000000	99.270427 
2360.000000	99.273584 
2359.000000	99.274252 
2358.000000	99.273739 
2357.000000	99.273295 
2356.000000	99.272855 
2355.000000	99.272420 
2354.000000	99.272497 
2353.000000	99.272631 
2352.000000	99.272392 
2351.000000	99.272133 
2350.000000	99.272043 
2349.000000	99.271948 
2348.000000	99.271792 
2347.000000	99.271379 
2346.000000	99.269201 
2345.000000	99.265134 
2344.000000	99.261736 
2343.000000	99.261740 
2342.000000	99.265667 
2341.000000	99.271340 
2340.000000	99.275711 
2339.000000	99.277181 
2338.000000	99.277217 
2337.000000	99.277822 
2336.000000	99.279466 
2335.000000	99.281063 
2334.000000	99.281433 
2333.000000	99.278530 
2332.000000	99.271307 
2331.000000	99.261806 
2330.000000	99.254724 
2329.000000	99.252463 
2328.000000	99.253252 
2327.000000	99.254446 
2326.000000	99.254417 
2325.000000	99.251631 
2324.000000	99.244897 
2323.000000	99.236859 
2322.000000	99.234407 
2321.000000	99.241351 
2320.000000	99.252999 
2319.000000	99.260091 
2318.000000	99.259014 
2317.000000	99.254253 
2316.000000	99.252341 
2315.000000	99.254837 
2314.000000	99.258534 
2313.000000	99.259847 
2312.000000	99.258525 
2311.000000	99.257579 
2310.000000	99.260348 
2309.000000	99.266764 
2308.000000	99.272528 
2307.000000	99.272860 
2306.000000	99.267464 
2305.000000	99.260467 
2304.000000	99.255275 
2303.000000	99.250849 
2302.000000	99.244684 
2301.000000	99.237493 
2300.000000	99.232713 
2299.000000	99.231366 
2298.000000	99.230670 
2297.000000	99.228525 
2296.000000	99.226849 
2295.000000	99.228331 
2294.000000	99.231401 
2293.000000	99.231438 
2292.000000	99.226621 
2291.000000	99.220320 
2290.000000	99.216842 
2289.000000	99.216989 
2288.000000	99.218604 
2287.000000	99.219898 
2286.000000	99.220583 
2285.000000	99.220971 
2284.000000	99.221515 
2283.000000	99.222393 
2282.000000	99.221870 
2281.000000	99.216034 
2280.000000	99.202948 
2279.000000	99.187245 
2278.000000	99.177972 
2277.000000	99.180171 
2276.000000	99.190199 
2275.000000	99.200755 
2274.000000	99.208383 
2273.000000	99.213456 
2272.000000	99.214690 
2271.000000	99.208590 
2270.000000	99.195850 
2269.000000	99.184653 
2268.000000	99.184048 
2267.000000	99.195014 
2266.000000	99.210187 
2265.000000	99.221353 
2264.000000	99.224966 
2263.000000	99.221913 
2262.000000	99.216035 
2261.000000	99.213376 
2260.000000	99.218467 
2259.000000	99.228770 
2258.000000	99.235417 
2257.000000	99.232311 
2256.000000	99.222924 
2255.000000	99.215486 
2254.000000	99.213254 
2253.000000	99.212886 
2252.000000	99.211372 
2251.000000	99.210208 
2250.000000	99.212028 
2249.000000	99.216492 
2248.000000	99.220959 
2247.000000	99.222913 
2246.000000	99.220396 
2245.000000	99.212249 
2244.000000	99.199925 
2243.000000	99.187826 
2242.000000	99.180147 
2241.000000	99.177655 
2240.000000	99.178202 
2239.000000	99.179440 
2238.000000	99.179914 
2237.000000	99.178297 
2236.000000	99.173099 
2235.000000	99.163704 
2234.000000	99.151746 
2233.000000	99.141591 
2232.000000	99.138695 
2231.000000	99.145837 
2230.000000	99.160293 
2229.000000	99.175604 
2228.000000	99.187013 
2227.000000	99.194671 
2226.000000	99.201102 
2225.000000	99.206547 
2224.000000	99.207918 
2223.000000	99.202464 
2222.000000	99.192055 
2221.000000	99.183258 
2220.000000	99.182081 
2219.000000	99.188249 
2218.000000	99.195899 
2217.000000	99.200745 
2216.000000	99.205006 
2215.000000	99.213038 
2214.000000	99.223074 
2213.000000	99.226548 
2212.000000	99.217011 
2211.000000	99.198188 
2210.000000	99.181906 
2209.000000	99.178139 
2208.000000	99.186658 
2207.000000	99.197767 
2206.000000	99.201276 
2205.000000	99.194992 
2204.000000	99.184294 
2203.000000	99.174500 
2202.000000	99.166727 
2201.000000	99.161342 
2200.000000	99.160389 
2199.000000	99.163096 
2198.000000	99.163006 
2197.000000	99.155417 
2196.000000	99.146213 
2195.000000	99.147329 
2194.000000	99.162952 
2193.000000	99.184447 
2192.000000	99.199232 
2191.000000	99.200813 
2190.000000	99.190401 
2189.000000	99.174387 
2188.000000	99.161616 
2187.000000	99.158546 
2186.000000	99.164993 
2185.000000	99.176610 
2184.000000	99.190455 
2183.000000	99.203865 
2182.000000	99.209967 
2181.000000	99.202908 
2180.000000	99.188928 
2179.000000	99.183146 
2178.000000	99.191448 
2177.000000	99.202110 
2176.000000	99.199687 
2175.000000	99.182223 
2174.000000	99.160454 
2173.000000	99.145206 
2172.000000	99.140843 
2171.000000	99.146842 
2170.000000	99.159422 
2169.000000	99.172872 
2168.000000	99.183573 
2167.000000	99.191689 
2166.000000	99.196959 
2165.000000	99.196353 
2164.000000	99.189086 
2163.000000	99.180060 
2162.000000	99.174113 
2161.000000	99.169761 
2160.000000	99.162442 
2159.000000	99.151654 
2158.000000	99.141550 
2157.000000	99.136965 
2156.000000	99.141096 
2155.000000	99.153152 
2154.000000	99.166107 
2153.000000	99.171380 
2152.000000	99.168357 
2151.000000	99.165376 
2150.000000	99.170342 
2149.000000	99.185131 
2148.000000	99.208549 
2147.000000	99.236174 
2146.000000	99.255408 
2145.000000	99.251925 
2144.000000	99.227846 
2143.000000	99.204284 
2142.000000	99.198169 
2141.000000	99.204083 
2140.000000	99.206918 
2139.000000	99.204615 
2138.000000	99.206017 
2137.000000	99.210971 
2136.000000	99.207625 
2135.000000	99.191525 
2134.000000	99.175050 
2133.000000	99.172051 
2132.000000	99.180657 
2131.000000	99.187002 
2130.000000	99.181284 
2129.000000	99.166139 
2128.000000	99.152251 
2127.000000	99.148585 
2126.000000	99.155505 
2125.000000	99.165856 
2124.000000	99.173603 
2123.000000	99.180789 
2122.000000	99.193348 
2121.000000	99.210778 
2120.000000	99.224159 
2119.000000	99.225673 
2118.000000	99.216752 
2117.000000	99.205324 
2116.000000	99.197846 
2115.000000	99.196006 
2114.000000	99.198650 
2113.000000	99.203493 
2112.000000	99.207248 
2111.000000	99.206621 
2110.000000	99.200591 
2109.000000	99.191684 
2108.000000	99.184356 
2107.000000	99.180917 
2106.000000	99.178575 
2105.000000	99.171852 
2104.000000	99.159381 
2103.000000	99.147173 
2102.000000	99.143064 
2101.000000	99.148311 
2100.000000	99.156616 
2099.000000	99.161258 
2098.000000	99.161512 
2097.000000	99.162260 
2096.000000	99.168667 
2095.000000	99.180469 
2094.000000	99.189937 
2093.000000	99.187168 
2092.000000	99.170245 
2091.000000	99.149265 
2090.000000	99.137570 
2089.000000	99.138982 
2088.000000	99.145865 
2087.000000	99.149529 
2086.000000	99.148992 
2085.000000	99.148985 
2084.000000	99.152962 
2083.000000	99.160155 
2082.000000	99.167464 
2081.000000	99.172083 
2080.000000	99.173025 
2079.000000	99.171344 
2078.000000	99.169176 
2077.000000	99.168959 
2076.000000	99.173544 
2075.000000	99.184832 
2074.000000	99.199907 
2073.000000	99.210499 
2072.000000	99.209997 
2071.000000	99.200680 
2070.000000	99.190887 
2069.000000	99.185464 
2068.000000	99.182439 
2067.000000	99.178986 
2066.000000	99.176152 
2065.000000	99.175891 
2064.000000	99.176976 
2063.000000	99.176832 
2062.000000	99.175629 
2061.000000	99.176243 
2060.000000	99.180759 
2059.000000	99.187939 
2058.000000	99.193605 
2057.000000	99.193689 
2056.000000	99.188129 
2055.000000	99.181455 
2054.000000	99.178256 
2053.000000	99.179089 
2052.000000	99.182371 
2051.000000	99.188130 
2050.000000	99.196286 
2049.000000	99.202337 
2048.000000	99.199952 
2047.000000	99.188914 
2046.000000	99.175671 
2045.000000	99.164881 
2044.000000	99.155279 
2043.000000	99.145190 
2042.000000	99.137134 
2041.000000	99.134362 
2040.000000	99.136777 
2039.000000	99.143015 
2038.000000	99.152456 
2037.000000	99.161914 
2036.000000	99.164331 
2035.000000	99.155422 
2034.000000	99.139784 
2033.000000	99.126686 
2032.000000	99.120668 
2031.000000	99.119058 
2030.000000	99.117236 
2029.000000	99.113241 
2028.000000	99.107821 
2027.000000	99.103029 
2026.000000	99.101338 
2025.000000	99.104796 
2024.000000	99.113436 
2023.000000	99.123334 
2022.000000	99.127001 
2021.000000	99.118930 
2020.000000	99.103649 
2019.000000	99.095332 
2018.000000	99.104683 
2017.000000	99.125941 
2016.000000	99.141550 
2015.000000	99.140981 
2014.000000	99.129843 
2013.000000	99.120828 
2012.000000	99.121174 
2011.000000	99.130074 
2010.000000	99.143717 
2009.000000	99.159362 
2008.000000	99.175991 
2007.000000	99.192692 
2006.000000	99.205563 
2005.000000	99.207941 
2004.000000	99.197052 
2003.000000	99.179331 
2002.000000	99.165767 
2001.000000	99.160916 
2000.000000	99.159323 
1999.000000	99.153058 
1998.000000	99.140475 
1997.000000	99.127812 
1996.000000	99.123929 
1995.000000	99.133766 
1994.000000	99.154310 
1993.000000	99.175259 
1992.000000	99.185679 
1991.000000	99.182360 
1990.000000	99.170663 
1989.000000	99.158414 
1988.000000	99.151391 
1987.000000	99.151797 
1986.000000	99.156436 
1985.000000	99.157717 
1984.000000	99.151479 
1983.000000	99.143520 
1982.000000	99.143502 
1981.000000	99.151447 
1980.000000	99.156163 
1979.000000	99.149157 
1978.000000	99.135383 
1977.000000	99.126515 
1976.000000	99.126177 
1975.000000	99.127816 
1974.000000	99.125867 
1973.000000	99.123860 
1972.000000	99.130433 
1971.000000	99.148739 
1970.000000	99.170150 
1969.000000	99.179565 
1968.000000	99.169640 
1967.000000	99.149621 
1966.000000	99.136105 
1965.000000	99.135462 
1964.000000	99.140473 
1963.000000	99.142991 
1962.000000	99.142551 
1961.000000	99.141781 
1960.000000	99.140754 
1959.000000	99.140011 
1958.000000	99.143677 
1957.000000	99.153458 
1956.000000	99.163008 
1955.000000	99.164667 
1954.000000	99.160149 
1953.000000	99.158897 
1952.000000	99.164907 
1951.000000	99.170996 
1950.000000	99.168330 
1949.000000	99.157046 
1948.000000	99.145067 
1947.000000	99.137937 
1946.000000	99.133013 
1945.000000	99.124274 
1944.000000	99.111361 
1943.000000	99.102433 
1942.000000	99.106426 
1941.000000	99.122376 
1940.000000	99.139609 
1939.000000	99.148843 
1938.000000	99.150851 
1937.000000	99.153831 
1936.000000	99.162630 
1935.000000	99.172028 
1934.000000	99.172704 
1933.000000	99.163429 
1932.000000	99.154068 
1931.000000	99.155696 
1930.000000	99.169178 
1929.000000	99.184497 
1928.000000	99.192366 
1927.000000	99.192473 
1926.000000	99.190749 
1925.000000	99.191259 
1924.000000	99.193310 
1923.000000	99.195871 
1922.000000	99.199249 
1921.000000	99.202159 
1920.000000	99.200195 
1919.000000	99.189599 
1918.000000	99.172193 
1917.000000	99.155050 
1916.000000	99.144550 
1915.000000	99.142003 
1914.000000	99.145054 
1913.000000	99.151070 
1912.000000	99.158014 
1911.000000	99.164120 
1910.000000	99.167258 
1909.000000	99.166037 
1908.000000	99.163094 
1907.000000	99.163574 
1906.000000	99.169998 
1905.000000	99.178895 
1904.000000	99.183917 
1903.000000	99.183327 
1902.000000	99.180360 
1901.000000	99.178079 
1900.000000	99.177006 
1899.000000	99.176595 
1898.000000	99.177138 
1897.000000	99.179143 
1896.000000	99.181786 
1895.000000	99.183663 
1894.000000	99.183601 
1893.000000	99.181233 
1892.000000	99.177699 
1891.000000	99.175316 
1890.000000	99.175117 
1889.000000	99.175048 
1888.000000	99.172893 
1887.000000	99.169692 
1886.000000	99.168278 
1885.000000	99.170471 
1884.000000	99.176334 
1883.000000	99.185033 
1882.000000	99.194337 
1881.000000	99.200695 
1880.000000	99.203077 
1879.000000	99.204693 
1878.000000	99.209304 
1877.000000	99.216792 
1876.000000	99.222844 
1875.000000	99.223240 
1874.000000	99.217039 
1873.000000	99.205976 
1872.000000	99.193356 
1871.000000	99.183309 
1870.000000	99.178524 
1869.000000	99.177234 
1868.000000	99.175826 
1867.000000	99.175586 
1866.000000	99.180437 
1865.000000	99.189723 
1864.000000	99.197678 
1863.000000	99.198849 
1862.000000	99.192810 
1861.000000	99.184250 
1860.000000	99.179781 
1859.000000	99.183532 
1858.000000	99.193530 
1857.000000	99.202786 
1856.000000	99.206236 
1855.000000	99.206017 
1854.000000	99.207475 
1853.000000	99.210897 
1852.000000	99.212577 
1851.000000	99.211068 
1850.000000	99.209139 
1849.000000	99.210865 
1848.000000	99.216736 
1847.000000	99.223508 
1846.000000	99.226888 
1845.000000	99.224662 
1844.000000	99.218448 
1843.000000	99.213736 
1842.000000	99.214537 
1841.000000	99.218353 
1840.000000	99.220614 
1839.000000	99.219188 
1838.000000	99.215236 
1837.000000	99.210941 
1836.000000	99.207205 
1835.000000	99.204450 
1834.000000	99.202896 
1833.000000	99.202291 
1832.000000	99.202146 
1831.000000	99.201023 
1830.000000	99.197648 
1829.000000	99.194387 
1828.000000	99.195185 
1827.000000	99.199768 
1826.000000	99.204268 
1825.000000	99.206304 
1824.000000	99.206426 
1823.000000	99.205488 
1822.000000	99.201436 
1821.000000	99.192479 
1820.000000	99.182952 
1819.000000	99.181414 
1818.000000	99.191859 
1817.000000	99.207038 
1816.000000	99.215232 
1815.000000	99.214163 
1814.000000	99.211178 
1813.000000	99.213257 
1812.000000	99.220160 
1811.000000	99.227604 
1810.000000	99.233840 
1809.000000	99.237766 
1808.000000	99.236974 
1807.000000	99.231056 
1806.000000	99.222880 
1805.000000	99.215478 
1804.000000	99.210271 
1803.000000	99.208846 
1802.000000	99.211273 
1801.000000	99.213751 
1800.000000	99.211205 
1799.000000	99.204522 
1798.000000	99.201298 
1797.000000	99.205849 
1796.000000	99.214987 
1795.000000	99.223009 
1794.000000	99.227004 
1793.000000	99.227154 
1792.000000	99.223728 
1791.000000	99.217952 
1790.000000	99.213257 
1789.000000	99.210901 
1788.000000	99.210458 
1787.000000	99.212303 
1786.000000	99.216896 
1785.000000	99.221790 
1784.000000	99.223064 
1783.000000	99.220378 
1782.000000	99.215031 
1781.000000	99.208683 
1780.000000	99.202923 
1779.000000	99.198494 
1778.000000	99.196707 
1777.000000	99.197733 
1776.000000	99.201200 
1775.000000	99.205027 
1774.000000	99.206223 
1773.000000	99.204676 
1772.000000	99.203603 
1771.000000	99.205716 
1770.000000	99.210285 
1769.000000	99.212851 
1768.000000	99.209941 
1767.000000	99.203166 
1766.000000	99.197363 
1765.000000	99.195221 
1764.000000	99.194951 
1763.000000	99.193460 
1762.000000	99.189290 
1761.000000	99.184269 
1760.000000	99.180520 
1759.000000	99.177862 
1758.000000	99.176548 
1757.000000	99.177789 
1756.000000	99.181611 
1755.000000	99.183687 
1754.000000	99.179616 
1753.000000	99.170124 
1752.000000	99.160375 
1751.000000	99.152163 
1750.000000	99.142594 
1749.000000	99.130945 
1748.000000	99.120800 
1747.000000	99.114977 
1746.000000	99.110502 
1745.000000	99.104775 
1744.000000	99.099147 
1743.000000	99.096096 
1742.000000	99.096330 
1741.000000	99.098288 
1740.000000	99.100071 
1739.000000	99.101992 
1738.000000	99.105591 
1737.000000	99.108955 
1736.000000	99.109877 
1735.000000	99.112432 
1734.000000	99.119822 
1733.000000	99.127512 
1732.000000	99.133301 
1731.000000	99.135828 
1730.000000	99.136018 
1729.000000	99.136574 
1728.000000	99.138819 
1727.000000	99.141771 
1726.000000	99.144125 
1725.000000	99.147222 
1724.000000	99.151110 
1723.000000	99.153564 
1722.000000	99.153979 
1721.000000	99.152540 
1720.000000	99.149302 
1719.000000	99.144923 
1718.000000	99.141001 
1717.000000	99.136708 
1716.000000	99.131035 
1715.000000	99.126273 
1714.000000	99.124010 
1713.000000	99.122600 
1712.000000	99.120260 
1711.000000	99.119310 
1710.000000	99.122773 
1709.000000	99.129339 
1708.000000	99.135312 
1707.000000	99.139699 
1706.000000	99.145257 
1705.000000	99.152026 
1704.000000	99.156315 
1703.000000	99.156452 
1702.000000	99.155425 
1701.000000	99.159528 
1700.000000	99.165099 
1699.000000	99.166661 
1698.000000	99.169503 
1697.000000	99.171752 
1696.000000	99.169155 
1695.000000	99.161256 
1694.000000	99.154174 
1693.000000	99.150612 
1692.000000	99.147496 
1691.000000	99.144812 
1690.000000	99.143892 
1689.000000	99.143997 
1688.000000	99.144994 
1687.000000	99.145724 
1686.000000	99.146161 
1685.000000	99.148043 
1684.000000	99.148441 
1683.000000	99.147530 
1682.000000	99.148989 
1681.000000	99.148111 
1680.000000	99.145461 
1679.000000	99.145600 
1678.000000	99.149004 
1677.000000	99.152103 
1676.000000	99.151987 
1675.000000	99.148043 
1674.000000	99.142699 
1673.000000	99.140942 
1672.000000	99.143262 
1671.000000	99.147197 
1670.000000	99.149216 
1669.000000	99.145351 
1668.000000	99.138312 
1667.000000	99.131611 
1666.000000	99.124481 
1665.000000	99.116930 
1664.000000	99.111922 
1663.000000	99.112201 
1662.000000	99.114231 
1661.000000	99.113250 
1660.000000	99.111073 
1659.000000	99.110754 
1658.000000	99.112198 
1657.000000	99.113364 
1656.000000	99.112827 
1655.000000	99.111117 
1654.000000	99.113641 
1653.000000	99.115347 
1652.000000	99.109058 
1651.000000	99.109448 
1650.000000	99.112893 
1649.000000	99.112367 
1648.000000	99.110256 
1647.000000	99.109766 
1646.000000	99.109433 
1645.000000	99.109130 
1644.000000	99.109483 
1643.000000	99.110245 
1642.000000	99.110193 
1641.000000	99.108275 
1640.000000	99.105711 
1639.000000	99.103975 
1638.000000	99.104346 
1637.000000	99.108381 
1636.000000	99.116428 
1635.000000	99.123495 
1634.000000	99.127126 
1633.000000	99.128327 
1632.000000	99.125548 
1631.000000	99.120389 
1630.000000	99.115678 
1629.000000	99.112615 
1628.000000	99.111179 
1627.000000	99.112040 
1626.000000	99.114790 
1625.000000	99.118146 
1624.000000	99.122072 
1623.000000	99.126689 
1622.000000	99.130630 
1621.000000	99.133076 
1620.000000	99.135072 
1619.000000	99.137682 
1618.000000	99.141868 
1617.000000	99.145614 
1616.000000	99.146779 
1615.000000	99.148471 
1614.000000	99.152112 
1613.000000	99.155349 
1612.000000	99.158293 
1611.000000	99.162659 
1610.000000	99.166625 
1609.000000	99.167105 
1608.000000	99.165475 
1607.000000	99.165759 
1606.000000	99.168052 
1605.000000	99.170024 
1604.000000	99.171954 
1603.000000	99.174471 
1602.000000	99.176680 
1601.000000	99.177758 
1600.000000	99.178961 
1599.000000	99.181695 
1598.000000	99.185072 
1597.000000	99.187295 
1596.000000	99.187697 
1595.000000	99.186727 
1594.000000	99.184886 
1593.000000	99.183152 
1592.000000	99.183541 
1591.000000	99.187056 
1590.000000	99.191564 
1589.000000	99.193950 
1588.000000	99.194004 
1587.000000	99.193990 
1586.000000	99.194937 
1585.000000	99.195481 
1584.000000	99.196043 
1583.000000	99.197920 
1582.000000	99.199616 
1581.000000	99.199390 
1580.000000	99.197863 
1579.000000	99.195435 
1578.000000	99.191000 
1577.000000	99.185489 
1576.000000	99.181171 
1575.000000	99.180070 
1574.000000	99.181615 
1573.000000	99.182262 
1572.000000	99.181037 
1571.000000	99.180970 
1570.000000	99.183457 
1569.000000	99.185412 
1568.000000	99.186815 
1567.000000	99.187895 
1566.000000	99.186130 
1565.000000	99.181368 
1564.000000	99.177468 
1563.000000	99.176721 
1562.000000	99.176530 
1561.000000	99.174642 
1560.000000	99.177477 
1559.000000	99.182236 
1558.000000	99.176764 
1557.000000	99.173000 
1556.000000	99.174368 
1555.000000	99.176322 
1554.000000	99.175954 
1553.000000	99.173544 
1552.000000	99.170739 
1551.000000	99.167537 
1550.000000	99.165062 
1549.000000	99.164165 
1548.000000	99.164484 
1547.000000	99.164627 
1546.000000	99.162415 
1545.000000	99.157778 
1544.000000	99.153236 
1543.000000	99.152526 
1542.000000	99.159272 
1541.000000	99.173450 
1540.000000	99.184676 
1539.000000	99.184681 
1538.000000	99.181375 
1537.000000	99.180935 
1536.000000	99.181065 
1535.000000	99.181415 
1534.000000	99.182436 
1533.000000	99.182594 
1532.000000	99.181262 
1531.000000	99.179443 
1530.000000	99.178026 
1529.000000	99.176979 
1528.000000	99.176235 
1527.000000	99.176768 
1526.000000	99.178862 
1525.000000	99.181570 
1524.000000	99.184341 
1523.000000	99.188499 
1522.000000	99.195907 
1521.000000	99.202222 
1520.000000	99.201785 
1519.000000	99.195345 
1518.000000	99.186147 
1517.000000	99.178956 
1516.000000	99.176442 
1515.000000	99.177296 
1514.000000	99.178800 
1513.000000	99.180039 
1512.000000	99.180800 
1511.000000	99.180088 
1510.000000	99.178574 
1509.000000	99.179239 
1508.000000	99.187643 
1507.000000	99.201499 
1506.000000	99.205975 
1505.000000	99.199048 
1504.000000	99.192290 
1503.000000	99.189749 
1502.000000	99.190246 
1501.000000	99.191523 
1500.000000	99.190353 
1499.000000	99.184701 
1498.000000	99.176410 
1497.000000	99.169650 
1496.000000	99.165400 
1495.000000	99.164442 
1494.000000	99.168254 
1493.000000	99.175500 
1492.000000	99.183593 
1491.000000	99.190482 
1490.000000	99.193906 
1489.000000	99.191779 
1488.000000	99.184582 
1487.000000	99.176660 
1486.000000	99.171645 
1485.000000	99.167144 
1484.000000	99.161434 
1483.000000	99.156238 
1482.000000	99.153829 
1481.000000	99.153744 
1480.000000	99.152659 
1479.000000	99.149273 
1478.000000	99.144667 
1477.000000	99.139812 
1476.000000	99.134175 
1475.000000	99.129162 
1474.000000	99.126523 
1473.000000	99.123926 
1472.000000	99.116111 
1471.000000	99.103046 
1470.000000	99.090103 
1469.000000	99.079397 
1468.000000	99.070250 
1467.000000	99.063055 
1466.000000	99.059215 
1465.000000	99.058895 
1464.000000	99.060893 
1463.000000	99.063310 
1462.000000	99.065375 
1461.000000	99.066384 
1460.000000	99.065561 
1459.000000	99.062502 
1458.000000	99.057578 
1457.000000	99.049764 
1456.000000	99.038369 
1455.000000	99.027963 
1454.000000	99.021219 
1453.000000	99.019806 
1452.000000	99.025209 
1451.000000	99.034861 
1450.000000	99.043992 
1449.000000	99.049841 
1448.000000	99.052522 
1447.000000	99.054226 
1446.000000	99.055778 
1445.000000	99.057029 
1444.000000	99.058280 
1443.000000	99.059078 
1442.000000	99.059975 
1441.000000	99.061511 
1440.000000	99.063179 
1439.000000	99.063600 
1438.000000	99.064279 
1437.000000	99.067685 
1436.000000	99.070926 
1435.000000	99.070017 
1434.000000	99.066134 
1433.000000	99.062543 
1432.000000	99.061186 
1431.000000	99.061637 
1430.000000	99.061967 
1429.000000	99.060935 
1428.000000	99.057592 
1427.000000	99.052580 
1426.000000	99.047086 
1425.000000	99.043223 
1424.000000	99.042310 
1423.000000	99.041093 
1422.000000	99.035777 
1421.000000	99.025757 
1420.000000	99.013679 
1419.000000	99.001582 
1418.000000	98.990292 
1417.000000	98.979935 
1416.000000	98.967665 
1415.000000	98.951482 
1414.000000	98.933465 
1413.000000	98.918161 
1412.000000	98.908198 
1411.000000	98.901562 
1410.000000	98.894755 
1409.000000	98.886738 
1408.000000	98.878861 
1407.000000	98.874409 
1406.000000	98.875914 
1405.000000	98.883046 
1404.000000	98.893122 
1403.000000	98.903126 
1402.000000	98.913269 
1401.000000	98.925674 
1400.000000	98.940397 
1399.000000	98.952227 
1398.000000	98.953334 
1397.000000	98.938539 
1396.000000	98.908475 
1395.000000	98.875135 
1394.000000	98.859194 
1393.000000	98.872501 
1392.000000	98.906323 
1391.000000	98.941241 
1390.000000	98.963340 
1389.000000	98.969757 
1388.000000	98.964431 
1387.000000	98.952451 
1386.000000	98.938672 
1385.000000	98.927433 
1384.000000	98.920563 
1383.000000	98.916253 
1382.000000	98.912199 
1381.000000	98.908745 
1380.000000	98.908589 
1379.000000	98.913588 
1378.000000	98.922385 
1377.000000	98.932101 
1376.000000	98.941391 
1375.000000	98.951133 
1374.000000	98.962466 
1373.000000	98.975644 
1372.000000	98.989764 
1371.000000	99.003096 
1370.000000	99.013610 
1369.000000	99.020555 
1368.000000	99.025530 
1367.000000	99.030673 
1366.000000	99.037444 
1365.000000	99.046517 
1364.000000	99.057729 
1363.000000	99.069213 
1362.000000	99.077941 
1361.000000	99.082330 
1360.000000	99.083665 
1359.000000	99.085000 
1358.000000	99.089257 
1357.000000	99.097469 
1356.000000	99.107734 
1355.000000	99.116339 
1354.000000	99.121238 
1353.000000	99.123570 
1352.000000	99.124977 
1351.000000	99.125782 
1350.000000	99.125501 
1349.000000	99.124679 
1348.000000	99.124775 
1347.000000	99.125875 
1346.000000	99.127175 
1345.000000	99.128652 
1344.000000	99.130955 
1343.000000	99.133728 
1342.000000	99.136114 
1341.000000	99.138579 
1340.000000	99.142383 
1339.000000	99.146807 
1338.000000	99.149467 
1337.000000	99.149901 
1336.000000	99.150020 
1335.000000	99.150768 
1334.000000	99.150838 
1333.000000	99.149257 
1332.000000	99.147329 
1331.000000	99.146803 
1330.000000	99.147432 
1329.000000	99.147830 
1328.000000	99.147612 
1327.000000	99.147174 
1326.000000	99.145974 
1325.000000	99.143119 
1324.000000	99.139426 
1323.000000	99.137108 
1322.000000	99.137708 
1321.000000	99.141081 
1320.000000	99.146269 
1319.000000	99.152117 
1318.000000	99.156970 
1317.000000	99.158803 
1316.000000	99.156585 
1315.000000	99.151490 
1314.000000	99.146374 
1313.000000	99.143659 
1312.000000	99.143610 
1311.000000	99.144852 
1310.000000	99.146199 
1309.000000	99.147312 
1308.000000	99.147742 
1307.000000	99.146642 
1306.000000	99.143816 
1305.000000	99.140561 
1304.000000	99.138716 
1303.000000	99.138971 
1302.000000	99.140688 
1301.000000	99.142791 
1300.000000	99.144418 
1299.000000	99.145233 
1298.000000	99.145936 
1297.000000	99.147783 
1296.000000	99.150763 
1295.000000	99.152698 
1294.000000	99.151204 
1293.000000	99.146348 
1292.000000	99.140433 
1291.000000	99.135607 
1290.000000	99.132674 
1289.000000	99.131801 
1288.000000	99.132788 
1287.000000	99.134295 
1286.000000	99.134127 
1285.000000	99.131091 
1284.000000	99.125923 
1283.000000	99.120087 
1282.000000	99.114447 
1281.000000	99.109383 
1280.000000	99.105423 
1279.000000	99.102808 
1278.000000	99.100738 
1277.000000	99.097857 
1276.000000	99.093469 
1275.000000	99.087937 
1274.000000	99.081932 
1273.000000	99.075772 
1272.000000	99.069430 
1271.000000	99.062838 
1270.000000	99.055959 
1269.000000	99.048768 
1268.000000	99.041336 
1267.000000	99.033818 
1266.000000	99.026307 
1265.000000	99.018747 
1264.000000	99.010976 
1263.000000	99.002857 
1262.000000	98.994385 
1261.000000	98.985758 
1260.000000	98.977395 
1259.000000	98.969592 
1258.000000	98.962107 
1257.000000	98.954556 
1256.000000	98.947490 
1255.000000	98.942609 
1254.000000	98.940990 
1253.000000	98.941278 
1252.000000	98.940820 
1251.000000	98.939028 
1250.000000	98.938567 
1249.000000	98.942388 
1248.000000	98.950306 
1247.000000	98.959003 
1246.000000	98.964164 
1245.000000	98.961793 
1244.000000	98.949765 
1243.000000	98.931491 
1242.000000	98.917191 
1241.000000	98.917004 
1240.000000	98.930997 
1239.000000	98.948214 
1238.000000	98.957122 
1237.000000	98.955250 
1236.000000	98.947664 
1235.000000	98.939375 
1234.000000	98.932140 
1233.000000	98.926180 
1232.000000	98.920909 
1231.000000	98.914331 
1230.000000	98.905145 
1229.000000	98.895844 
1228.000000	98.891084 
1227.000000	98.892391 
1226.000000	98.896540 
1225.000000	98.899716 
1224.000000	98.901272 
1223.000000	98.902696 
1222.000000	98.904963 
1221.000000	98.908197 
1220.000000	98.912515 
1219.000000	98.917655 
1218.000000	98.922373 
1217.000000	98.925191 
1216.000000	98.925535 
1215.000000	98.923785 
1214.000000	98.920541 
1213.000000	98.916001 
1212.000000	98.909810 
1211.000000	98.901854 
1210.000000	98.893583 
1209.000000	98.887724 
1208.000000	98.885662 
1207.000000	98.885588 
1206.000000	98.884352 
1205.000000	98.880591 
1204.000000	98.874799 
1203.000000	98.867202 
1202.000000	98.857760 
1201.000000	98.848058 
1200.000000	98.840841 
1199.000000	98.836887 
1198.000000	98.833975 
1197.000000	98.829488 
1196.000000	98.822438 
1195.000000	98.812675 
1194.000000	98.800372 
1193.000000	98.787327 
1192.000000	98.776557 
1191.000000	98.768701 
1190.000000	98.760260 
1189.000000	98.747466 
1188.000000	98.731175 
1187.000000	98.716167 
1186.000000	98.706091 
1185.000000	98.700543 
1184.000000	98.696515 
1183.000000	98.690932 
1182.000000	98.682152 
1181.000000	98.670909 
1180.000000	98.660021 
1179.000000	98.651652 
1178.000000	98.644569 
1177.000000	98.635255 
1176.000000	98.621752 
1175.000000	98.604997 
1174.000000	98.586336 
1173.000000	98.565724 
1172.000000	98.543471 
1171.000000	98.522061 
1170.000000	98.504202 
1169.000000	98.489488 
1168.000000	98.474770 
1167.000000	98.458250 
1166.000000	98.442213 
1165.000000	98.431093 
1164.000000	98.427330 
1163.000000	98.429640 
1162.000000	98.435062 
1161.000000	98.441910 
1160.000000	98.450162 
1159.000000	98.459192 
1158.000000	98.466026 
1157.000000	98.466451 
1156.000000	98.458015 
1155.000000	98.442324 
1154.000000	98.424843 
1153.000000	98.411733 
1152.000000	98.405492 
1151.000000	98.402969 
1150.000000	98.398347 
1149.000000	98.388749 
1148.000000	98.376436 
1147.000000	98.365183 
1146.000000	98.355492 
1145.000000	98.344379 
1144.000000	98.329266 
1143.000000	98.310902 
1142.000000	98.292651 
1141.000000	98.277994 
1140.000000	98.268581 
1139.000000	98.263221 
1138.000000	98.258140 
1137.000000	98.249311 
1136.000000	98.235525 
1135.000000	98.218976 
1134.000000	98.202268 
1133.000000	98.185056 
1132.000000	98.164452 
1131.000000	98.139118 
1130.000000	98.112347 
1129.000000	98.089718 
1128.000000	98.072839 
1127.000000	98.056212 
1126.000000	98.032231 
1125.000000	97.999967 
1124.000000	97.967312 
1123.000000	97.942941 
1122.000000	97.927067 
1121.000000	97.911864 
1120.000000	97.890423 
1119.000000	97.863083 
1118.000000	97.835010 
1117.000000	97.810046 
1116.000000	97.788279 
1115.000000	97.768005 
1114.000000	97.748087 
1113.000000	97.728461 
1112.000000	97.709307 
1111.000000	97.689951 
1110.000000	97.668573 
1109.000000	97.643715 
1108.000000	97.616374 
1107.000000	97.590000 
1106.000000	97.567661 
1105.000000	97.549024 
1104.000000	97.530539 
1103.000000	97.508880 
1102.000000	97.484531 
1101.000000	97.461868 
1100.000000	97.445066 
1099.000000	97.433933 
1098.000000	97.424574 
1097.000000	97.414145 
1096.000000	97.403117 
1095.000000	97.391738 
1094.000000	97.376240 
1093.000000	97.350989 
1092.000000	97.314002 
1091.000000	97.268815 
1090.000000	97.221441 
1089.000000	97.176980 
1088.000000	97.138386 
1087.000000	97.105926 
1086.000000	97.077201 
1085.000000	97.049160 
1084.000000	97.020284 
1083.000000	96.989825 
1082.000000	96.956187 
1081.000000	96.918535 
1080.000000	96.879461 
1079.000000	96.843228 
1078.000000	96.811319 
1077.000000	96.782582 
1076.000000	96.757925 
1075.000000	96.741393 
1074.000000	96.735211 
1073.000000	96.736047 
1072.000000	96.736506 
1071.000000	96.727459 
1070.000000	96.699516 
1069.000000	96.648251 
1068.000000	96.582157 
1067.000000	96.522582 
1066.000000	96.489975 
1065.000000	96.488317 
1064.000000	96.504035 
1063.000000	96.518214 
1062.000000	96.517608 
1061.000000	96.496912 
1060.000000	96.457286 
1059.000000	96.406500 
1058.000000	96.357572 
1057.000000	96.321819 
1056.000000	96.301254 
1055.000000	96.288687 
1054.000000	96.275638 
1053.000000	96.259194 
1052.000000	96.241002 
1051.000000	96.222052 
1050.000000	96.201417 
1049.000000	96.179337 
1048.000000	96.158108 
1047.000000	96.139455 
1046.000000	96.123521 
1045.000000	96.110295 
1044.000000	96.099181 
1043.000000	96.087280 
1042.000000	96.071591 
1041.000000	96.053777 
1040.000000	96.039558 
1039.000000	96.032419 
1038.000000	96.031298 
1037.000000	96.035361 
1036.000000	96.046418 
1035.000000	96.064182 
1034.000000	96.083539 
1033.000000	96.099462 
1032.000000	96.110313 
1031.000000	96.113549 
1030.000000	96.104617 
1029.000000	96.086449 
1028.000000	96.075389 
1027.000000	96.088736 
1026.000000	96.126176 
1025.000000	96.169684 
1024.000000	96.201648 
1023.000000	96.217808 
1022.000000	96.223882 
1021.000000	96.226897 
1020.000000	96.231695 
1019.000000	96.240253 
1018.000000	96.250743 
1017.000000	96.259644 
1016.000000	96.266419 
1015.000000	96.274008 
1014.000000	96.284156 
1013.000000	96.294907 
1012.000000	96.303512 
1011.000000	96.309505 
1010.000000	96.314410 
1009.000000	96.320543 
1008.000000	96.330374 
1007.000000	96.344994 
1006.000000	96.362909 
1005.000000	96.381925 
1004.000000	96.401717 
1003.000000	96.422877 
1002.000000	96.444752 
1001.000000	96.466649 
1000.000000	96.489651 
999.000000	 96.514077 
998.000000	 96.536555 
997.000000	 96.553697 
996.000000	 96.568152 
995.000000	 96.586733 
994.000000	 96.612017 
993.000000	 96.639549 
992.000000	 96.664082 
991.000000	 96.684941 
990.000000	 96.704113 
989.000000	 96.722566 
988.000000	 96.740520 
987.000000	 96.759009 
986.000000	 96.779174 
985.000000	 96.801272 
984.000000	 96.825468 
983.000000	 96.852228 
982.000000	 96.881126 
981.000000	 96.910638 
980.000000	 96.939909 
979.000000	 96.969724 
978.000000	 97.001474 
977.000000	 97.036038 
976.000000	 97.073367 
975.000000	 97.111747 
974.000000	 97.147898 
973.000000	 97.179769 
972.000000	 97.209398 
971.000000	 97.241332 
970.000000	 97.277873 
969.000000	 97.317023 
968.000000	 97.355068 
967.000000	 97.389828 
966.000000	 97.421405 
965.000000	 97.451174 
964.000000	 97.480350 
963.000000	 97.508805 
962.000000	 97.535382 
961.000000	 97.559913 
960.000000	 97.583972 
959.000000	 97.608452 
958.000000	 97.631410 
957.000000	 97.650208 
956.000000	 97.665323 
955.000000	 97.680083 
954.000000	 97.696731 
953.000000	 97.714566 
952.000000	 97.732089 
951.000000	 97.748891 
950.000000	 97.764575 
949.000000	 97.777418 
948.000000	 97.785466 
947.000000	 97.788592 
946.000000	 97.788833 
945.000000	 97.788951 
944.000000	 97.791061 
943.000000	 97.796357 
942.000000	 97.805490 
941.000000	 97.818325 
940.000000	 97.832632 
939.000000	 97.843645 
938.000000	 97.847100 
937.000000	 97.844001 
936.000000	 97.841245 
935.000000	 97.846006 
934.000000	 97.859554 
933.000000	 97.877127 
932.000000	 97.892989 
931.000000	 97.904599 
930.000000	 97.912760 
929.000000	 97.919175 
928.000000	 97.923957 
927.000000	 97.925339 
926.000000	 97.922413 
925.000000	 97.917974 
924.000000	 97.916967 
923.000000	 97.921372 
922.000000	 97.928127 
921.000000	 97.932933 
920.000000	 97.934247 
919.000000	 97.932418 
918.000000	 97.927372 
917.000000	 97.919451 
916.000000	 97.910821 
915.000000	 97.903614 
914.000000	 97.897822 
913.000000	 97.893255 
912.000000	 97.892247 
911.000000	 97.897762 
910.000000	 97.909922 
909.000000	 97.927003 
908.000000	 97.948321 
907.000000	 97.972730 
906.000000	 97.995545 
905.000000	 98.011483 
904.000000	 98.021146 
903.000000	 98.031267 
902.000000	 98.047746 
901.000000	 98.070671 
900.000000	 98.096053 
899.000000	 98.119448 
898.000000	 98.137560 
897.000000	 98.149375 
896.000000	 98.156806 
895.000000	 98.162596 
894.000000	 98.167715 
893.000000	 98.172869 
892.000000	 98.181725 
891.000000	 98.198903 
890.000000	 98.224072 
889.000000	 98.251248 
888.000000	 98.275002 
887.000000	 98.294684 
886.000000	 98.312151 
885.000000	 98.328633 
884.000000	 98.344884 
883.000000	 98.360843 
882.000000	 98.373400 
881.000000	 98.378201 
880.000000	 98.376623 
879.000000	 98.377986 
878.000000	 98.390879 
877.000000	 98.413669 
876.000000	 98.436670 
875.000000	 98.452129 
874.000000	 98.459069 
873.000000	 98.460145 
872.000000	 98.458094 
871.000000	 98.455809 
870.000000	 98.456951 
869.000000	 98.465264 
868.000000	 98.483538 
867.000000	 98.511397 
866.000000	 98.542426 
865.000000	 98.566239 
864.000000	 98.577392 
863.000000	 98.581468 
862.000000	 98.588578 
861.000000	 98.601100 
860.000000	 98.612280 
859.000000	 98.617282 
858.000000	 98.620112 
857.000000	 98.627096 
856.000000	 98.638517 
855.000000	 98.650958 
854.000000	 98.663830 
853.000000	 98.677814 
852.000000	 98.689277 
851.000000	 98.693110 
850.000000	 98.691301 
849.000000	 98.692324 
848.000000	 98.700205 
847.000000	 98.709514 
846.000000	 98.713688 
845.000000	 98.713429 
844.000000	 98.713278 
843.000000	 98.714252 
842.000000	 98.714656 
841.000000	 98.714959 
840.000000	 98.716053 
839.000000	 98.714221 
838.000000	 98.704076 
837.000000	 98.687135 
836.000000	 98.672065 
835.000000	 98.664517 
834.000000	 98.661198 
833.000000	 98.657098 
832.000000	 98.654682 
831.000000	 98.660606 
830.000000	 98.674216 
829.000000	 98.684856 
828.000000	 98.683329 
827.000000	 98.673281 
826.000000	 98.667417 
825.000000	 98.672506 
824.000000	 98.681894 
823.000000	 98.684841 
822.000000	 98.680043 
821.000000	 98.675653 
820.000000	 98.677577 
819.000000	 98.683189 
818.000000	 98.687318 
817.000000	 98.689716 
816.000000	 98.693120 
815.000000	 98.696097 
814.000000	 98.692468 
813.000000	 98.678472 
812.000000	 98.656782 
811.000000	 98.631325 
810.000000	 98.600725 
809.000000	 98.559971 
808.000000	 98.507911 
807.000000	 98.450195 
806.000000	 98.393837 
805.000000	 98.340801 
804.000000	 98.289103 
803.000000	 98.239406 
802.000000	 98.197614 
801.000000	 98.169348 
800.000000	 98.153323 
799.000000	 98.142724 
798.000000	 98.133587 
797.000000	 98.129468 
796.000000	 98.135785 
795.000000	 98.151305 
794.000000	 98.168497 
793.000000	 98.182088 
792.000000	 98.193917 
791.000000	 98.208444 
790.000000	 98.226375 
789.000000	 98.243805 
788.000000	 98.254832 
787.000000	 98.253397 
786.000000	 98.235440 
785.000000	 98.202300 
784.000000	 98.161451 
783.000000	 98.122291 
782.000000	 98.091231 
781.000000	 98.070795 
780.000000	 98.061277 
779.000000	 98.061182 
778.000000	 98.067218 
777.000000	 98.076331 
776.000000	 98.088023 
775.000000	 98.103722 
774.000000	 98.124051 
773.000000	 98.147199 
772.000000	 98.169597 
771.000000	 98.188512 
770.000000	 98.205092 
769.000000	 98.223745 
768.000000	 98.245957 
767.000000	 98.265587 
766.000000	 98.274347 
765.000000	 98.272807 
764.000000	 98.271832 
763.000000	 98.280646 
762.000000	 98.296036 
761.000000	 98.305755 
760.000000	 98.301168 
759.000000	 98.285368 
758.000000	 98.270931 
757.000000	 98.270133 
756.000000	 98.283898 
755.000000	 98.298713 
754.000000	 98.298312 
753.000000	 98.281415 
752.000000	 98.264908 
751.000000	 98.266734 
750.000000	 98.288043 
749.000000	 98.314474 
748.000000	 98.331653 
747.000000	 98.335968 
746.000000	 98.333591 
745.000000	 98.333875 
744.000000	 98.342643 
743.000000	 98.358251 
742.000000	 98.374515 
741.000000	 98.389002 
740.000000	 98.405662 
739.000000	 98.426796 
738.000000	 98.446230 
737.000000	 98.454809 
736.000000	 98.450108 
735.000000	 98.437103 
734.000000	 98.422604 
733.000000	 98.413663 
732.000000	 98.417629 
731.000000	 98.436103 
730.000000	 98.459372 
729.000000	 98.474031 
728.000000	 98.477450 
727.000000	 98.478513 
726.000000	 98.483260 
725.000000	 98.486861 
724.000000	 98.481861 
723.000000	 98.468413 
722.000000	 98.453496 
721.000000	 98.444673 
720.000000	 98.447241 
719.000000	 98.462529 
718.000000	 98.485190 
717.000000	 98.505237 
716.000000	 98.515106 
715.000000	 98.513538 
714.000000	 98.503261 
713.000000	 98.488964 
712.000000	 98.478393 
711.000000	 98.479552 
710.000000	 98.492499 
709.000000	 98.506573 
708.000000	 98.509460 
707.000000	 98.497484 
706.000000	 98.474943 
705.000000	 98.447549 
704.000000	 98.420367 
703.000000	 98.398722 
702.000000	 98.386233 
701.000000	 98.381363 
700.000000	 98.378241 
699.000000	 98.371636 
698.000000	 98.359907 
697.000000	 98.344665 
696.000000	 98.329029 
695.000000	 98.315300 
694.000000	 98.304830 
693.000000	 98.300039 
692.000000	 98.305016 
691.000000	 98.322317 
690.000000	 98.349060 
689.000000	 98.379029 
688.000000	 98.407473 
687.000000	 98.430392 
686.000000	 98.441807 
685.000000	 98.437352 
684.000000	 98.421476 
683.000000	 98.406762 
682.000000	 98.403530 
681.000000	 98.412172 
680.000000	 98.424635 
679.000000	 98.430877 
678.000000	 98.424373 
677.000000	 98.407181 
676.000000	 98.392813 
675.000000	 98.395035 
674.000000	 98.411174 
673.000000	 98.423072 
672.000000	 98.418389 
671.000000	 98.406481 
670.000000	 98.409101 
669.000000	 98.438996 
668.000000	 98.471562 
667.000000	 98.482875 
666.000000	 98.472475 
665.000000	 98.439530 
664.000000	 98.400803 
663.000000	 98.390823 
662.000000	 98.425538 
661.000000	 98.476464 
660.000000	 98.496563 
659.000000	 98.471435 
658.000000	 98.426798 
657.000000	 98.390994 
656.000000	 98.368642 
655.000000	 98.352215 
654.000000	 98.341253 
653.000000	 98.342702 
652.000000	 98.358170 
651.000000	 98.374976 
650.000000	 98.373733 

