4000.000000	99.074085 
3999.000000	99.072268 
3998.000000	99.070934 
3997.000000	99.071989 
3996.000000	99.075097 
3995.000000	99.078205 
3994.000000	99.079933 
3993.000000	99.080850 
3992.000000	99.082199 
3991.000000	99.083915 
3990.000000	99.084544 
3989.000000	99.082945 
3988.000000	99.079546 
3987.000000	99.075967 
3986.000000	99.073832 
3985.000000	99.073935 
3984.000000	99.076056 
3983.000000	99.079406 
3982.000000	99.083342 
3981.000000	99.087564 
3980.000000	99.091673 
3979.000000	99.094933 
3978.000000	99.096879 
3977.000000	99.097888 
3976.000000	99.098549 
3975.000000	99.098343 
3974.000000	99.095582 
3973.000000	99.089221 
3972.000000	99.080773 
3971.000000	99.073997 
3970.000000	99.072486 
3969.000000	99.077098 
3968.000000	99.085200 
3967.000000	99.092363 
3966.000000	99.095117 
3965.000000	99.092942 
3964.000000	99.088063 
3963.000000	99.083698 
3962.000000	99.082015 
3961.000000	99.082929 
3960.000000	99.084406 
3959.000000	99.084113 
3958.000000	99.081508 
3957.000000	99.078544 
3956.000000	99.077793 
3955.000000	99.079808 
3954.000000	99.082559 
3953.000000	99.083665 
3952.000000	99.082496 
3951.000000	99.080169 
3950.000000	99.077929 
3949.000000	99.075665 
3948.000000	99.072265 
3947.000000	99.067645 
3946.000000	99.064073 
3945.000000	99.064443 
3944.000000	99.069003 
3943.000000	99.074553 
3942.000000	99.077676 
3941.000000	99.078345 
3940.000000	99.078899 
3939.000000	99.079915 
3938.000000	99.079270 
3937.000000	99.075319 
3936.000000	99.069212 
3935.000000	99.063837 
3934.000000	99.061180 
3933.000000	99.061580 
3932.000000	99.064402 
3931.000000	99.068510 
3930.000000	99.072561 
3929.000000	99.075160 
3928.000000	99.075721 
3927.000000	99.074770 
3926.000000	99.073121 
3925.000000	99.071281 
3924.000000	99.069813 
3923.000000	99.069355 
3922.000000	99.069032 
3921.000000	99.066630 
3920.000000	99.061926 
3919.000000	99.057994 
3918.000000	99.057473 
3917.000000	99.059329 
3916.000000	99.061032 
3915.000000	99.062601 
3914.000000	99.065726 
3913.000000	99.070111 
3912.000000	99.073106 
3911.000000	99.072408 
3910.000000	99.067760 
3909.000000	99.061163 
3908.000000	99.055301 
3907.000000	99.052474 
3906.000000	99.052686 
3905.000000	99.053180 
3904.000000	99.050275 
3903.000000	99.043964 
3902.000000	99.039232 
3901.000000	99.040189 
3900.000000	99.044997 
3899.000000	99.048609 
3898.000000	99.048806 
3897.000000	99.046836 
3896.000000	99.043952 
3895.000000	99.041279 
3894.000000	99.042586 
3893.000000	99.051590 
3892.000000	99.064326 
3891.000000	99.070225 
3890.000000	99.065468 
3889.000000	99.058930 
3888.000000	99.058757 
3887.000000	99.063281 
3886.000000	99.064881 
3885.000000	99.059050 
3884.000000	99.052213 
3883.000000	99.054600 
3882.000000	99.065677 
3881.000000	99.075670 
3880.000000	99.075678 
3879.000000	99.065575 
3878.000000	99.054882 
3877.000000	99.051754 
3876.000000	99.054925 
3875.000000	99.057600 
3874.000000	99.054527 
3873.000000	99.048110 
3872.000000	99.045154 
3871.000000	99.046071 
3870.000000	99.043335 
3869.000000	99.033986 
3868.000000	99.028306 
3867.000000	99.035565 
3866.000000	99.049262 
3865.000000	99.058674 
3864.000000	99.062194 
3863.000000	99.064248 
3862.000000	99.066721 
3861.000000	99.066521 
3860.000000	99.060459 
3859.000000	99.048549 
3858.000000	99.031771 
3857.000000	99.013347 
3856.000000	99.000046 
3855.000000	98.999801 
3854.000000	99.008104 
3853.000000	99.007538 
3852.000000	99.001520 
3851.000000	99.013967 
3850.000000	99.043820 
3849.000000	99.069383 
3848.000000	99.080380 
3847.000000	99.080864 
3846.000000	99.077650 
3845.000000	99.074213 
3844.000000	99.070840 
3843.000000	99.066501 
3842.000000	99.061284 
3841.000000	99.057799 
3840.000000	99.058500 
3839.000000	99.062704 
3838.000000	99.065690 
3837.000000	99.063661 
3836.000000	99.058283 
3835.000000	99.054767 
3834.000000	99.055593 
3833.000000	99.059448 
3832.000000	99.063385 
3831.000000	99.065615 
3830.000000	99.067830 
3829.000000	99.072902 
3828.000000	99.079744 
3827.000000	99.082483 
3826.000000	99.076197 
3825.000000	99.064335 
3824.000000	99.057046 
3823.000000	99.061494 
3822.000000	99.073368 
3821.000000	99.077738 
3820.000000	99.067790 
3819.000000	99.057497 
3818.000000	99.058597 
3817.000000	99.065786 
3816.000000	99.068346 
3815.000000	99.062646 
3814.000000	99.057715 
3813.000000	99.060372 
3812.000000	99.062603 
3811.000000	99.056080 
3810.000000	99.045404 
3809.000000	99.041346 
3808.000000	99.047415 
3807.000000	99.054334 
3806.000000	99.052502 
3805.000000	99.046773 
3804.000000	99.047236 
3803.000000	99.054560 
3802.000000	99.061244 
3801.000000	99.057757 
3800.000000	99.046618 
3799.000000	99.042993 
3798.000000	99.049990 
3797.000000	99.057589 
3796.000000	99.059638 
3795.000000	99.058730 
3794.000000	99.061207 
3793.000000	99.068782 
3792.000000	99.077438 
3791.000000	99.082687 
3790.000000	99.083141 
3789.000000	99.080139 
3788.000000	99.077226 
3787.000000	99.078386 
3786.000000	99.084595 
3785.000000	99.091955 
3784.000000	99.095701 
3783.000000	99.095410 
3782.000000	99.094470 
3781.000000	99.094892 
3780.000000	99.094839 
3779.000000	99.091204 
3778.000000	99.084260 
3777.000000	99.078047 
3776.000000	99.074473 
3775.000000	99.071421 
3774.000000	99.067374 
3773.000000	99.064737 
3772.000000	99.066218 
3771.000000	99.069836 
3770.000000	99.070088 
3769.000000	99.065917 
3768.000000	99.063691 
3767.000000	99.068457 
3766.000000	99.076317 
3765.000000	99.079807 
3764.000000	99.077433 
3763.000000	99.074676 
3762.000000	99.075681 
3761.000000	99.078971 
3760.000000	99.081792 
3759.000000	99.083054 
3758.000000	99.081961 
3757.000000	99.077538 
3756.000000	99.069765 
3755.000000	99.060576 
3754.000000	99.051926 
3753.000000	99.046059 
3752.000000	99.045051 
3751.000000	99.045023 
3750.000000	99.036469 
3749.000000	99.017473 
3748.000000	98.999353 
3747.000000	98.994577 
3746.000000	99.005578 
3745.000000	99.022107 
3744.000000	99.024835 
3743.000000	99.013751 
3742.000000	99.013553 
3741.000000	99.027093 
3740.000000	99.035419 
3739.000000	99.033647 
3738.000000	99.030690 
3737.000000	99.033034 
3736.000000	99.038095 
3735.000000	99.041940 
3734.000000	99.045515 
3733.000000	99.049917 
3732.000000	99.052743 
3731.000000	99.053493 
3730.000000	99.056008 
3729.000000	99.061492 
3728.000000	99.066013 
3727.000000	99.066751 
3726.000000	99.065909 
3725.000000	99.068079 
3724.000000	99.074357 
3723.000000	99.079701 
3722.000000	99.079242 
3721.000000	99.074117 
3720.000000	99.069538 
3719.000000	99.067980 
3718.000000	99.066079 
3717.000000	99.058682 
3716.000000	99.044217 
3715.000000	99.025422 
3714.000000	99.005880 
3713.000000	98.989206 
3712.000000	98.978490 
3711.000000	98.974872 
3710.000000	98.977636 
3709.000000	98.983789 
3708.000000	98.987942 
3707.000000	98.985734 
3706.000000	98.976780 
3705.000000	98.964459 
3704.000000	98.953073 
3703.000000	98.944929 
3702.000000	98.939012 
3701.000000	98.932672 
3700.000000	98.925959 
3699.000000	98.921039 
3698.000000	98.917377 
3697.000000	98.911553 
3696.000000	98.902395 
3695.000000	98.893099 
3694.000000	98.886845 
3693.000000	98.883221 
3692.000000	98.881170 
3691.000000	98.882036 
3690.000000	98.885832 
3689.000000	98.887347 
3688.000000	98.882200 
3687.000000	98.876339 
3686.000000	98.879014 
3685.000000	98.888597 
3684.000000	98.895411 
3683.000000	98.894274 
3682.000000	98.887134 
3681.000000	98.876332 
3680.000000	98.860238 
3679.000000	98.838130 
3678.000000	98.815768 
3677.000000	98.801184 
3676.000000	98.794195 
3675.000000	98.784139 
3674.000000	98.770600 
3673.000000	98.766248 
3672.000000	98.771954 
3671.000000	98.778730 
3670.000000	98.780218 
3669.000000	98.773791 
3668.000000	98.765181 
3667.000000	98.760506 
3666.000000	98.757384 
3665.000000	98.752225 
3664.000000	98.744996 
3663.000000	98.736928 
3662.000000	98.727909 
3661.000000	98.717202 
3660.000000	98.705777 
3659.000000	98.696895 
3658.000000	98.692510 
3657.000000	98.689141 
3656.000000	98.680159 
3655.000000	98.665503 
3654.000000	98.653545 
3653.000000	98.648071 
3652.000000	98.644753 
3651.000000	98.639269 
3650.000000	98.629954 
3649.000000	98.616665 
3648.000000	98.603319 
3647.000000	98.594933 
3646.000000	98.593246 
3645.000000	98.597261 
3644.000000	98.603974 
3643.000000	98.609397 
3642.000000	98.610338 
3641.000000	98.606397 
3640.000000	98.599908 
3639.000000	98.593834 
3638.000000	98.589407 
3637.000000	98.586490 
3636.000000	98.583371 
3635.000000	98.575734 
3634.000000	98.559308 
3633.000000	98.535139 
3632.000000	98.510476 
3631.000000	98.492487 
3630.000000	98.482647 
3629.000000	98.473200 
3628.000000	98.457070 
3627.000000	98.445093 
3626.000000	98.449539 
3625.000000	98.463648 
3624.000000	98.474904 
3623.000000	98.478791 
3622.000000	98.477539 
3621.000000	98.475430 
3620.000000	98.475853 
3619.000000	98.480059 
3618.000000	98.488503 
3617.000000	98.502869 
3616.000000	98.523274 
3615.000000	98.545330 
3614.000000	98.562132 
3613.000000	98.568732 
3612.000000	98.566118 
3611.000000	98.560467 
3610.000000	98.557980 
3609.000000	98.561205 
3608.000000	98.569303 
3607.000000	98.580570 
3606.000000	98.593998 
3605.000000	98.608310 
3604.000000	98.621660 
3603.000000	98.633108 
3602.000000	98.642950 
3601.000000	98.651860 
3600.000000	98.660500 
3599.000000	98.669090 
3598.000000	98.676520 
3597.000000	98.680884 
3596.000000	98.681586 
3595.000000	98.679568 
3594.000000	98.676370 
3593.000000	98.673987 
3592.000000	98.674923 
3591.000000	98.680371 
3590.000000	98.689065 
3589.000000	98.697150 
3588.000000	98.699514 
3587.000000	98.694105 
3586.000000	98.685699 
3585.000000	98.681281 
3584.000000	98.682473 
3583.000000	98.685745 
3582.000000	98.687411 
3581.000000	98.686256 
3580.000000	98.683012 
3579.000000	98.678784 
3578.000000	98.674199 
3577.000000	98.669662 
3576.000000	98.666237 
3575.000000	98.665127 
3574.000000	98.666329 
3573.000000	98.668156 
3572.000000	98.668402 
3571.000000	98.665765 
3570.000000	98.660187 
3569.000000	98.652681 
3568.000000	98.644985 
3567.000000	98.639382 
3566.000000	98.638210 
3565.000000	98.642471 
3564.000000	98.649790 
3563.000000	98.655721 
3562.000000	98.657569 
3561.000000	98.655989 
3560.000000	98.653170 
3559.000000	98.650367 
3558.000000	98.647336 
3557.000000	98.643651 
3556.000000	98.640130 
3555.000000	98.638632 
3554.000000	98.639981 
3553.000000	98.642433 
3552.000000	98.642792 
3551.000000	98.639461 
3550.000000	98.633559 
3549.000000	98.627312 
3548.000000	98.622421 
3547.000000	98.619828 
3546.000000	98.619598 
3545.000000	98.620924 
3544.000000	98.622715 
3543.000000	98.623993 
3542.000000	98.623941 
3541.000000	98.622338 
3540.000000	98.620222 
3539.000000	98.619552 
3538.000000	98.621392 
3537.000000	98.624559 
3536.000000	98.626322 
3535.000000	98.624645 
3534.000000	98.619513 
3533.000000	98.612742 
3532.000000	98.607222 
3531.000000	98.605792 
3530.000000	98.609433 
3529.000000	98.616006 
3528.000000	98.621842 
3527.000000	98.624803 
3526.000000	98.625392 
3525.000000	98.624898 
3524.000000	98.623848 
3523.000000	98.622471 
3522.000000	98.621349 
3521.000000	98.620680 
3520.000000	98.619595 
3519.000000	98.617059 
3518.000000	98.613192 
3517.000000	98.609280 
3516.000000	98.606670 
3515.000000	98.606092 
3514.000000	98.607680 
3513.000000	98.610780 
3512.000000	98.613637 
3511.000000	98.614121 
3510.000000	98.611518 
3509.000000	98.607233 
3508.000000	98.603515 
3507.000000	98.601495 
3506.000000	98.600203 
3505.000000	98.597155 
3504.000000	98.590633 
3503.000000	98.582299 
3502.000000	98.577267 
3501.000000	98.579911 
3500.000000	98.588862 
3499.000000	98.596902 
3498.000000	98.596756 
3497.000000	98.587673 
3496.000000	98.576410 
3495.000000	98.571246 
3494.000000	98.574793 
3493.000000	98.582434 
3492.000000	98.587200 
3491.000000	98.585797 
3490.000000	98.580517 
3489.000000	98.576075 
3488.000000	98.575109 
3487.000000	98.576761 
3486.000000	98.578766 
3485.000000	98.579901 
3484.000000	98.580359 
3483.000000	98.580678 
3482.000000	98.580775 
3481.000000	98.579868 
3480.000000	98.577313 
3479.000000	98.573592 
3478.000000	98.570207 
3477.000000	98.568086 
3476.000000	98.566328 
3475.000000	98.563266 
3474.000000	98.558943 
3473.000000	98.555502 
3472.000000	98.554615 
3471.000000	98.555396 
3470.000000	98.555644 
3469.000000	98.554461 
3468.000000	98.552589 
3467.000000	98.550671 
3466.000000	98.548414 
3465.000000	98.545473 
3464.000000	98.542057 
3463.000000	98.538404 
3462.000000	98.534434 
3461.000000	98.530378 
3460.000000	98.527264 
3459.000000	98.526221 
3458.000000	98.527218 
3457.000000	98.528674 
3456.000000	98.528491 
3455.000000	98.525881 
3454.000000	98.522254 
3453.000000	98.519797 
3452.000000	98.519195 
3451.000000	98.519328 
3450.000000	98.519189 
3449.000000	98.518913 
3448.000000	98.518395 
3447.000000	98.516049 
3446.000000	98.510645 
3445.000000	98.503985 
3444.000000	98.499851 
3443.000000	98.499960 
3442.000000	98.502024 
3441.000000	98.502409 
3440.000000	98.500019 
3439.000000	98.496692 
3438.000000	98.494277 
3437.000000	98.492421 
3436.000000	98.489485 
3435.000000	98.485106 
3434.000000	98.481204 
3433.000000	98.480189 
3432.000000	98.482364 
3431.000000	98.485357 
3430.000000	98.486094 
3429.000000	98.483160 
3428.000000	98.477516 
3427.000000	98.471326 
3426.000000	98.466459 
3425.000000	98.463819 
3424.000000	98.463371 
3423.000000	98.464310 
3422.000000	98.465291 
3421.000000	98.465040 
3420.000000	98.463174 
3419.000000	98.460649 
3418.000000	98.459187 
3417.000000	98.459750 
3416.000000	98.461287 
3415.000000	98.461304 
3414.000000	98.458190 
3413.000000	98.452983 
3412.000000	98.448464 
3411.000000	98.446629 
3410.000000	98.447542 
3409.000000	98.450228 
3408.000000	98.453518 
3407.000000	98.455739 
3406.000000	98.454925 
3405.000000	98.450646 
3404.000000	98.445284 
3403.000000	98.442403 
3402.000000	98.443592 
3401.000000	98.447366 
3400.000000	98.451019 
3399.000000	98.453010 
3398.000000	98.453728 
3397.000000	98.454616 
3396.000000	98.456631 
3395.000000	98.459223 
3394.000000	98.460838 
3393.000000	98.460589 
3392.000000	98.459183 
3391.000000	98.457931 
3390.000000	98.457288 
3389.000000	98.456905 
3388.000000	98.456624 
3387.000000	98.456523 
3386.000000	98.456074 
3385.000000	98.454264 
3384.000000	98.451042 
3383.000000	98.448091 
3382.000000	98.447576 
3381.000000	98.450055 
3380.000000	98.453710 
3379.000000	98.455680 
3378.000000	98.454498 
3377.000000	98.451522 
3376.000000	98.449921 
3375.000000	98.452021 
3374.000000	98.457595 
3373.000000	98.464321 
3372.000000	98.469297 
3371.000000	98.470294 
3370.000000	98.466907 
3369.000000	98.461445 
3368.000000	98.457892 
3367.000000	98.458684 
3366.000000	98.462480 
3365.000000	98.465839 
3364.000000	98.466883 
3363.000000	98.466514 
3362.000000	98.466397 
3361.000000	98.466973 
3360.000000	98.467686 
3359.000000	98.468144 
3358.000000	98.468527 
3357.000000	98.469308 
3356.000000	98.470819 
3355.000000	98.472652 
3354.000000	98.473562 
3353.000000	98.472725 
3352.000000	98.471166 
3351.000000	98.471129 
3350.000000	98.473772 
3349.000000	98.478261 
3348.000000	98.483269 
3347.000000	98.488295 
3346.000000	98.492987 
3345.000000	98.496263 
3344.000000	98.497131 
3343.000000	98.495727 
3342.000000	98.492700 
3341.000000	98.488277 
3340.000000	98.483033 
3339.000000	98.478944 
3338.000000	98.478056 
3337.000000	98.479899 
3336.000000	98.481543 
3335.000000	98.480962 
3334.000000	98.479523 
3333.000000	98.480444 
3332.000000	98.485185 
3331.000000	98.491849 
3330.000000	98.496973 
3329.000000	98.498622 
3328.000000	98.497864 
3327.000000	98.497380 
3326.000000	98.498697 
3325.000000	98.501084 
3324.000000	98.503272 
3323.000000	98.505474 
3322.000000	98.508623 
3321.000000	98.511938 
3320.000000	98.512791 
3319.000000	98.509773 
3318.000000	98.505015 
3317.000000	98.502341 
3316.000000	98.503447 
3315.000000	98.506688 
3314.000000	98.509384 
3313.000000	98.510455 
3312.000000	98.510740 
3311.000000	98.511547 
3310.000000	98.513268 
3309.000000	98.515127 
3308.000000	98.516144 
3307.000000	98.516473 
3306.000000	98.517523 
3305.000000	98.520222 
3304.000000	98.523363 
3303.000000	98.524524 
3302.000000	98.522901 
3301.000000	98.520582 
3300.000000	98.520481 
3299.000000	98.523419 
3298.000000	98.527648 
3297.000000	98.530849 
3296.000000	98.532144 
3295.000000	98.532422 
3294.000000	98.533302 
3293.000000	98.535761 
3292.000000	98.539310 
3291.000000	98.542432 
3290.000000	98.544127 
3289.000000	98.544901 
3288.000000	98.545992 
3287.000000	98.547845 
3286.000000	98.549797 
3285.000000	98.551173 
3284.000000	98.552195 
3283.000000	98.553631 
3282.000000	98.555819 
3281.000000	98.558116 
3280.000000	98.559120 
3279.000000	98.557662 
3278.000000	98.554092 
3277.000000	98.550537 
3276.000000	98.549317 
3275.000000	98.550888 
3274.000000	98.553650 
3273.000000	98.555670 
3272.000000	98.556056 
3271.000000	98.554810 
3270.000000	98.552402 
3269.000000	98.549996 
3268.000000	98.549351 
3267.000000	98.551614 
3266.000000	98.556289 
3265.000000	98.561800 
3264.000000	98.566989 
3263.000000	98.571839 
3262.000000	98.576990 
3261.000000	98.582751 
3260.000000	98.588156 
3259.000000	98.590906 
3258.000000	98.589069 
3257.000000	98.583365 
3256.000000	98.577159 
3255.000000	98.573559 
3254.000000	98.572899 
3253.000000	98.573515 
3252.000000	98.574244 
3251.000000	98.575067 
3250.000000	98.575885 
3249.000000	98.576152 
3248.000000	98.575933 
3247.000000	98.576182 
3246.000000	98.577510 
3245.000000	98.579462 
3244.000000	98.581612 
3243.000000	98.584802 
3242.000000	98.590599 
3241.000000	98.599440 
3240.000000	98.609292 
3239.000000	98.616162 
3238.000000	98.616591 
3237.000000	98.610672 
3236.000000	98.602679 
3235.000000	98.597887 
3234.000000	98.598305 
3233.000000	98.601896 
3232.000000	98.605868 
3231.000000	98.609645 
3230.000000	98.614031 
3229.000000	98.618478 
3228.000000	98.620523 
3227.000000	98.618146 
3226.000000	98.612093 
3225.000000	98.605710 
3224.000000	98.602671 
3223.000000	98.604566 
3222.000000	98.610095 
3221.000000	98.616382 
3220.000000	98.621224 
3219.000000	98.624188 
3218.000000	98.625846 
3217.000000	98.626596 
3216.000000	98.626536 
3215.000000	98.626013 
3214.000000	98.625566 
3213.000000	98.625367 
3212.000000	98.625357 
3211.000000	98.626137 
3210.000000	98.629129 
3209.000000	98.635279 
3208.000000	98.643664 
3207.000000	98.651775 
3206.000000	98.657334 
3205.000000	98.659755 
3204.000000	98.660024 
3203.000000	98.659598 
3202.000000	98.659771 
3201.000000	98.661667 
3200.000000	98.665815 
3199.000000	98.671148 
3198.000000	98.675020 
3197.000000	98.675270 
3196.000000	98.672449 
3195.000000	98.669361 
3194.000000	98.668126 
3193.000000	98.668249 
3192.000000	98.667979 
3191.000000	98.667058 
3190.000000	98.667383 
3189.000000	98.670919 
3188.000000	98.677393 
3187.000000	98.684204 
3186.000000	98.688403 
3185.000000	98.688805 
3184.000000	98.686558 
3183.000000	98.684028 
3182.000000	98.683117 
3181.000000	98.684242 
3180.000000	98.686442 
3179.000000	98.688238 
3178.000000	98.688495 
3177.000000	98.686839 
3176.000000	98.683662 
3175.000000	98.680064 
3174.000000	98.677874 
3173.000000	98.679129 
3172.000000	98.684526 
3171.000000	98.691983 
3170.000000	98.697549 
3169.000000	98.698822 
3168.000000	98.697441 
3167.000000	98.697474 
3166.000000	98.701316 
3165.000000	98.707736 
3164.000000	98.713738 
3163.000000	98.717299 
3162.000000	98.718191 
3161.000000	98.717454 
3160.000000	98.716949 
3159.000000	98.718501 
3158.000000	98.722154 
3157.000000	98.725509 
3156.000000	98.725864 
3155.000000	98.723181 
3154.000000	98.720331 
3153.000000	98.720394 
3152.000000	98.724092 
3151.000000	98.729570 
3150.000000	98.734041 
3149.000000	98.735877 
3148.000000	98.735931 
3147.000000	98.736803 
3146.000000	98.740068 
3145.000000	98.744283 
3144.000000	98.746602 
3143.000000	98.746385 
3142.000000	98.746111 
3141.000000	98.748251 
3140.000000	98.752232 
3139.000000	98.755349 
3138.000000	98.756117 
3137.000000	98.755772 
3136.000000	98.756412 
3135.000000	98.758484 
3134.000000	98.760522 
3133.000000	98.761073 
3132.000000	98.760384 
3131.000000	98.759975 
3130.000000	98.760742 
3129.000000	98.761948 
3128.000000	98.762323 
3127.000000	98.761789 
3126.000000	98.761491 
3125.000000	98.762197 
3124.000000	98.763309 
3123.000000	98.763642 
3122.000000	98.762733 
3121.000000	98.761338 
3120.000000	98.761152 
3119.000000	98.763861 
3118.000000	98.769551 
3117.000000	98.775770 
3116.000000	98.779059 
3115.000000	98.778056 
3114.000000	98.774608 
3113.000000	98.771493 
3112.000000	98.769835 
3111.000000	98.769381 
3110.000000	98.770211 
3109.000000	98.772644 
3108.000000	98.775710 
3107.000000	98.777300 
3106.000000	98.776474 
3105.000000	98.774790 
3104.000000	98.774851 
3103.000000	98.778060 
3102.000000	98.784037 
3101.000000	98.791432 
3100.000000	98.798539 
3099.000000	98.803443 
3098.000000	98.804719 
3097.000000	98.802707 
3096.000000	98.799771 
3095.000000	98.798573 
3094.000000	98.799905 
3093.000000	98.802425 
3092.000000	98.804365 
3091.000000	98.805006 
3090.000000	98.804568 
3089.000000	98.803624 
3088.000000	98.803237 
3087.000000	98.804825 
3086.000000	98.808662 
3085.000000	98.812707 
3084.000000	98.814204 
3083.000000	98.812697 
3082.000000	98.810470 
3081.000000	98.809750 
3080.000000	98.810551 
3079.000000	98.811735 
3078.000000	98.812896 
3077.000000	98.814167 
3076.000000	98.815136 
3075.000000	98.815320 
3074.000000	98.815280 
3073.000000	98.816039 
3072.000000	98.817682 
3071.000000	98.819570 
3070.000000	98.821505 
3069.000000	98.823239 
3068.000000	98.823045 
3067.000000	98.818665 
3066.000000	98.810611 
3065.000000	98.803218 
3064.000000	98.801123 
3063.000000	98.804999 
3062.000000	98.811478 
3061.000000	98.816800 
3060.000000	98.819830 
3059.000000	98.821799 
3058.000000	98.823989 
3057.000000	98.826129 
3056.000000	98.826927 
3055.000000	98.825958 
3054.000000	98.824621 
3053.000000	98.824794 
3052.000000	98.826753 
3051.000000	98.829046 
3050.000000	98.830395 
3049.000000	98.830785 
3048.000000	98.830368 
3047.000000	98.828384 
3046.000000	98.824322 
3045.000000	98.819656 
3044.000000	98.817174 
3043.000000	98.818269 
3042.000000	98.821547 
3041.000000	98.824256 
3040.000000	98.824598 
3039.000000	98.822669 
3038.000000	98.819917 
3037.000000	98.818042 
3036.000000	98.817883 
3035.000000	98.818756 
3034.000000	98.818945 
3033.000000	98.817214 
3032.000000	98.813890 
3031.000000	98.810320 
3030.000000	98.807228 
3029.000000	98.803696 
3028.000000	98.797980 
3027.000000	98.789592 
3026.000000	98.780476 
3025.000000	98.773540 
3024.000000	98.769646 
3023.000000	98.766425 
3022.000000	98.760622 
3021.000000	98.751418 
3020.000000	98.741121 
3019.000000	98.732875 
3018.000000	98.728186 
3017.000000	98.726316 
3016.000000	98.725147 
3015.000000	98.722462 
3014.000000	98.717085 
3013.000000	98.709230 
3012.000000	98.699507 
3011.000000	98.687712 
3010.000000	98.673386 
3009.000000	98.657695 
3008.000000	98.643778 
3007.000000	98.634500 
3006.000000	98.630137 
3005.000000	98.628492 
3004.000000	98.626558 
3003.000000	98.621651 
3002.000000	98.612077 
3001.000000	98.598306 
3000.000000	98.583442 
2999.000000	98.571164 
2998.000000	98.562784 
2997.000000	98.557163 
2996.000000	98.553366 
2995.000000	98.551567 
2994.000000	98.550299 
2993.000000	98.544572 
2992.000000	98.529518 
2991.000000	98.506459 
2990.000000	98.483686 
2989.000000	98.469893 
2988.000000	98.467133 
2987.000000	98.470746 
2986.000000	98.475244 
2985.000000	98.478986 
2984.000000	98.483306 
2983.000000	98.488843 
2982.000000	98.494093 
2981.000000	98.497216 
2980.000000	98.498159 
2979.000000	98.498466 
2978.000000	98.499371 
2977.000000	98.500558 
2976.000000	98.500741 
2975.000000	98.499078 
2974.000000	98.495862 
2973.000000	98.492155 
2972.000000	98.489127 
2971.000000	98.487769 
2970.000000	98.488847 
2969.000000	98.492759 
2968.000000	98.499346 
2967.000000	98.507914 
2966.000000	98.517524 
2965.000000	98.527390 
2964.000000	98.537233 
2963.000000	98.547287 
2962.000000	98.557696 
2961.000000	98.567673 
2960.000000	98.575584 
2959.000000	98.580418 
2958.000000	98.583299 
2957.000000	98.586912 
2956.000000	98.592840 
2955.000000	98.599584 
2954.000000	98.603881 
2953.000000	98.604463 
2952.000000	98.604196 
2951.000000	98.607834 
2950.000000	98.617316 
2949.000000	98.629520 
2948.000000	98.639009 
2947.000000	98.642825 
2946.000000	98.642327 
2945.000000	98.640698 
2944.000000	98.639699 
2943.000000	98.639268 
2942.000000	98.639296 
2941.000000	98.640442 
2940.000000	98.642979 
2939.000000	98.645671 
2938.000000	98.646472 
2937.000000	98.644386 
2936.000000	98.640718 
2935.000000	98.638576 
2934.000000	98.640622 
2933.000000	98.646506 
2932.000000	98.652352 
2931.000000	98.653558 
2930.000000	98.648577 
2929.000000	98.639870 
2928.000000	98.631429 
2927.000000	98.625992 
2926.000000	98.624349 
2925.000000	98.625663 
2924.000000	98.627643 
2923.000000	98.627638 
2922.000000	98.624957 
2921.000000	98.621731 
2920.000000	98.620402 
2919.000000	98.620751 
2918.000000	98.620403 
2917.000000	98.617978 
2916.000000	98.614536 
2915.000000	98.612046 
2914.000000	98.611698 
2913.000000	98.613904 
2912.000000	98.618455 
2911.000000	98.623761 
2910.000000	98.626870 
2909.000000	98.625555 
2908.000000	98.620423 
2907.000000	98.614363 
2906.000000	98.609893 
2905.000000	98.607262 
2904.000000	98.604823 
2903.000000	98.600994 
2902.000000	98.596221 
2901.000000	98.593477 
2900.000000	98.596283 
2899.000000	98.605405 
2898.000000	98.617423 
2897.000000	98.627200 
2896.000000	98.632156 
2895.000000	98.633965 
2894.000000	98.636193 
2893.000000	98.640737 
2892.000000	98.646714 
2891.000000	98.652076 
2890.000000	98.655587 
2889.000000	98.657319 
2888.000000	98.658029 
2887.000000	98.658630 
2886.000000	98.660083 
2885.000000	98.663128 
2884.000000	98.667722 
2883.000000	98.672936 
2882.000000	98.677763 
2881.000000	98.682134 
2880.000000	98.687082 
2879.000000	98.693972 
2878.000000	98.703498 
2877.000000	98.714845 
2876.000000	98.725388 
2875.000000	98.731750 
2874.000000	98.732268 
2873.000000	98.728924 
2872.000000	98.726285 
2871.000000	98.727927 
2870.000000	98.733937 
2869.000000	98.741859 
2868.000000	98.749636 
2867.000000	98.757371 
2866.000000	98.766638 
2865.000000	98.778485 
2864.000000	98.791829 
2863.000000	98.803494 
2862.000000	98.810261 
2861.000000	98.811628 
2860.000000	98.810669 
2859.000000	98.811765 
2858.000000	98.817145 
2857.000000	98.825520 
2856.000000	98.833725 
2855.000000	98.839490 
2854.000000	98.842916 
2853.000000	98.845826 
2852.000000	98.849945 
2851.000000	98.855632 
2850.000000	98.862198 
2849.000000	98.869001 
2848.000000	98.875759 
2847.000000	98.881990 
2846.000000	98.886977 
2845.000000	98.890670 
2844.000000	98.893999 
2843.000000	98.897772 
2842.000000	98.901644 
2841.000000	98.904699 
2840.000000	98.906679 
2839.000000	98.908007 
2838.000000	98.908852 
2837.000000	98.908898 
2836.000000	98.908106 
2835.000000	98.907267 
2834.000000	98.907748 
2833.000000	98.910856 
2832.000000	98.916989 
2831.000000	98.924853 
2830.000000	98.931859 
2829.000000	98.936141 
2828.000000	98.938171 
2827.000000	98.939662 
2826.000000	98.941020 
2825.000000	98.940923 
2824.000000	98.938764 
2823.000000	98.936453 
2822.000000	98.936827 
2821.000000	98.940594 
2820.000000	98.945586 
2819.000000	98.948993 
2818.000000	98.949814 
2817.000000	98.949162 
2816.000000	98.948763 
2815.000000	98.949449 
2814.000000	98.950819 
2813.000000	98.951893 
2812.000000	98.951933 
2811.000000	98.950846 
2810.000000	98.949170 
2809.000000	98.947854 
2808.000000	98.947862 
2807.000000	98.949662 
2806.000000	98.952917 
2805.000000	98.956677 
2804.000000	98.959944 
2803.000000	98.962247 
2802.000000	98.963855 
2801.000000	98.965318 
2800.000000	98.966511 
2799.000000	98.966347 
2798.000000	98.964090 
2797.000000	98.960920 
2796.000000	98.959277 
2795.000000	98.960156 
2794.000000	98.961815 
2793.000000	98.961909 
2792.000000	98.960273 
2791.000000	98.958764 
2790.000000	98.958909 
2789.000000	98.960847 
2788.000000	98.964167 
2787.000000	98.968378 
2786.000000	98.972436 
2785.000000	98.975208 
2784.000000	98.976875 
2783.000000	98.978718 
2782.000000	98.980982 
2781.000000	98.982032 
2780.000000	98.980466 
2779.000000	98.977245 
2778.000000	98.974803 
2777.000000	98.974575 
2776.000000	98.976110 
2775.000000	98.978052 
2774.000000	98.979103 
2773.000000	98.978402 
2772.000000	98.975951 
2771.000000	98.972814 
2770.000000	98.970520 
2769.000000	98.970307 
2768.000000	98.972956 
2767.000000	98.978517 
2766.000000	98.985507 
2765.000000	98.991130 
2764.000000	98.993432 
2763.000000	98.993143 
2762.000000	98.992611 
2761.000000	98.993176 
2760.000000	98.994449 
2759.000000	98.995776 
2758.000000	98.997131 
2757.000000	98.998471 
2756.000000	98.999446 
2755.000000	99.000152 
2754.000000	99.001170 
2753.000000	99.002300 
2752.000000	99.002177 
2751.000000	98.999898 
2750.000000	98.996409 
2749.000000	98.993496 
2748.000000	98.991776 
2747.000000	98.990379 
2746.000000	98.988393 
2745.000000	98.985958 
2744.000000	98.984088 
2743.000000	98.983957 
2742.000000	98.986288 
2741.000000	98.990814 
2740.000000	98.996146 
2739.000000	99.000531 
2738.000000	99.002953 
2737.000000	99.003570 
2736.000000	99.003275 
2735.000000	99.003016 
2734.000000	99.003291 
2733.000000	99.003838 
2732.000000	99.003819 
2731.000000	99.002615 
2730.000000	99.000548 
2729.000000	98.998759 
2728.000000	98.998410 
2727.000000	99.000001 
2726.000000	99.003042 
2725.000000	99.006146 
2724.000000	99.007878 
2723.000000	99.008153 
2722.000000	99.008642 
2721.000000	99.011153 
2720.000000	99.015425 
2719.000000	99.018968 
2718.000000	99.019259 
2717.000000	99.015920 
2716.000000	99.011001 
2715.000000	99.007681 
2714.000000	99.008406 
2713.000000	99.013132 
2712.000000	99.018810 
2711.000000	99.021457 
2710.000000	99.019758 
2709.000000	99.016422 
2708.000000	99.015351 
2707.000000	99.017658 
2706.000000	99.021039 
2705.000000	99.022744 
2704.000000	99.022201 
2703.000000	99.020639 
2702.000000	99.019164 
2701.000000	99.017887 
2700.000000	99.016476 
2699.000000	99.014791 
2698.000000	99.012879 
2697.000000	99.010783 
2696.000000	99.008759 
2695.000000	99.007672 
2694.000000	99.008755 
2693.000000	99.012283 
2692.000000	99.016351 
2691.000000	99.017803 
2690.000000	99.015307 
2689.000000	99.011346 
2688.000000	99.010180 
2687.000000	99.013597 
2686.000000	99.019293 
2685.000000	99.023554 
2684.000000	99.024766 
2683.000000	99.024042 
2682.000000	99.023453 
2681.000000	99.024519 
2680.000000	99.027720 
2679.000000	99.032126 
2678.000000	99.035378 
2677.000000	99.035044 
2676.000000	99.030717 
2675.000000	99.024689 
2674.000000	99.020333 
2673.000000	99.019683 
2672.000000	99.022131 
2671.000000	99.024941 
2670.000000	99.025073 
2669.000000	99.021248 
2668.000000	99.014926 
2667.000000	99.009423 
2666.000000	99.007741 
2665.000000	99.010615 
2664.000000	99.016130 
2663.000000	99.021180 
2662.000000	99.023727 
2661.000000	99.023957 
2660.000000	99.023222 
2659.000000	99.022085 
2658.000000	99.019927 
2657.000000	99.016400 
2656.000000	99.012377 
2655.000000	99.008949 
2654.000000	99.006219 
2653.000000	99.003814 
2652.000000	99.002076 
2651.000000	99.001778 
2650.000000	99.002761 
2649.000000	99.003686 
2648.000000	99.003316 
2647.000000	99.001659 
2646.000000	99.000042 
2645.000000	99.000431 
2644.000000	99.004139 
2643.000000	99.010218 
2642.000000	99.015333 
2641.000000	99.016476 
2640.000000	99.014282 
2639.000000	99.012896 
2638.000000	99.015987 
2637.000000	99.023075 
2636.000000	99.029738 
2635.000000	99.031137 
2634.000000	99.025824 
2633.000000	99.017234 
2632.000000	99.011484 
2631.000000	99.012441 
2630.000000	99.018234 
2629.000000	99.023121 
2628.000000	99.023082 
2627.000000	99.019135 
2626.000000	99.015376 
2625.000000	99.015057 
2624.000000	99.018850 
2623.000000	99.025192 
2622.000000	99.030875 
2621.000000	99.032244 
2620.000000	99.027749 
2619.000000	99.019733 
2618.000000	99.012834 
2617.000000	99.010172 
2616.000000	99.011217 
2615.000000	99.013014 
2614.000000	99.012914 
2613.000000	99.010436 
2612.000000	99.007524 
2611.000000	99.007361 
2610.000000	99.012207 
2609.000000	99.021411 
2608.000000	99.031217 
2607.000000	99.037071 
2606.000000	99.037093 
2605.000000	99.033756 
2604.000000	99.031578 
2603.000000	99.032511 
2602.000000	99.034053 
2601.000000	99.032578 
2600.000000	99.027916 
2599.000000	99.023429 
2598.000000	99.022061 
2597.000000	99.023993 
2596.000000	99.027976 
2595.000000	99.032612 
2594.000000	99.035549 
2593.000000	99.033960 
2592.000000	99.028035 
2591.000000	99.022781 
2590.000000	99.023991 
2589.000000	99.032423 
2588.000000	99.043224 
2587.000000	99.050426 
2586.000000	99.050602 
2585.000000	99.043225 
2584.000000	99.030506 
2583.000000	99.017714 
2582.000000	99.011203 
2581.000000	99.013683 
2580.000000	99.021422 
2579.000000	99.027170 
2578.000000	99.026285 
2577.000000	99.020312 
2576.000000	99.015177 
2575.000000	99.016065 
2574.000000	99.023264 
2573.000000	99.032104 
2572.000000	99.036780 
2571.000000	99.034675 
2570.000000	99.027820 
2569.000000	99.021120 
2568.000000	99.019098 
2567.000000	99.022877 
2566.000000	99.029058 
2565.000000	99.032189 
2564.000000	99.029824 
2563.000000	99.025130 
2562.000000	99.023514 
2561.000000	99.026983 
2560.000000	99.033003 
2559.000000	99.038290 
2558.000000	99.041467 
2557.000000	99.041783 
2556.000000	99.038208 
2555.000000	99.031890 
2554.000000	99.027640 
2553.000000	99.029935 
2552.000000	99.037562 
2551.000000	99.044547 
2550.000000	99.046721 
2549.000000	99.045305 
2548.000000	99.043397 
2547.000000	99.041289 
2546.000000	99.037235 
2545.000000	99.031629 
2544.000000	99.027987 
2543.000000	99.029564 
2542.000000	99.036347 
2541.000000	99.045479 
2540.000000	99.053325 
2539.000000	99.056843 
2538.000000	99.054433 
2537.000000	99.046716 
2536.000000	99.036428 
2535.000000	99.027229 
2534.000000	99.022617 
2533.000000	99.025012 
2532.000000	99.033999 
2531.000000	99.045100 
2530.000000	99.052175 
2529.000000	99.052591 
2528.000000	99.049345 
2527.000000	99.047214 
2526.000000	99.047948 
2525.000000	99.050307 
2524.000000	99.053275 
2523.000000	99.056924 
2522.000000	99.060692 
2521.000000	99.063179 
2520.000000	99.063957 
2519.000000	99.063758 
2518.000000	99.062582 
2517.000000	99.059442 
2516.000000	99.054568 
2515.000000	99.050268 
2514.000000	99.048632 
2513.000000	99.049308 
2512.000000	99.049971 
2511.000000	99.048115 
2510.000000	99.042650 
2509.000000	99.035554 
2508.000000	99.032067 
2507.000000	99.036630 
2506.000000	99.047075 
2505.000000	99.054585 
2504.000000	99.051525 
2503.000000	99.038808 
2502.000000	99.024600 
2501.000000	99.017069 
2500.000000	99.019417 
2499.000000	99.029913 
2498.000000	99.043914 
2497.000000	99.056135 
2496.000000	99.063491 
2495.000000	99.066554 
2494.000000	99.067233 
2493.000000	99.065234 
2492.000000	99.058367 
2491.000000	99.046578 
2490.000000	99.034085 
2489.000000	99.026505 
2488.000000	99.026228 
2487.000000	99.031006 
2486.000000	99.036726 
2485.000000	99.041233 
2484.000000	99.045421 
2483.000000	99.050649 
2482.000000	99.055818 
2481.000000	99.058263 
2480.000000	99.057616 
2479.000000	99.056831 
2478.000000	99.058100 
2477.000000	99.059288 
2476.000000	99.056522 
2475.000000	99.049721 
2474.000000	99.043511 
2473.000000	99.042581 
2472.000000	99.047556 
2471.000000	99.055284 
2470.000000	99.061326 
2469.000000	99.061989 
2468.000000	99.056065 
2467.000000	99.046030 
2466.000000	99.036906 
2465.000000	99.032893 
2464.000000	99.034828 
2463.000000	99.040331 
2462.000000	99.045452 
2461.000000	99.046663 
2460.000000	99.043134 
2459.000000	99.037927 
2458.000000	99.035770 
2457.000000	99.038576 
2456.000000	99.043474 
2455.000000	99.045726 
2454.000000	99.043236 
2453.000000	99.038069 
2452.000000	99.034285 
2451.000000	99.034504 
2450.000000	99.037825 
2449.000000	99.040632 
2448.000000	99.040096 
2447.000000	99.037379 
2446.000000	99.036815 
2445.000000	99.041497 
2444.000000	99.050084 
2443.000000	99.058197 
2442.000000	99.062224 
2441.000000	99.061381 
2440.000000	99.056998 
2439.000000	99.050985 
2438.000000	99.045024 
2437.000000	99.040289 
2436.000000	99.037056 
2435.000000	99.034354 
2434.000000	99.030511 
2433.000000	99.024975 
2432.000000	99.019890 
2431.000000	99.018849 
2430.000000	99.023090 
2429.000000	99.029615 
2428.000000	99.034570 
2427.000000	99.038101 
2426.000000	99.043759 
2425.000000	99.052425 
2424.000000	99.058903 
2423.000000	99.056583 
2422.000000	99.044987 
2421.000000	99.031216 
2420.000000	99.023767 
2419.000000	99.025798 
2418.000000	99.034125 
2417.000000	99.043269 
2416.000000	99.049537 
2415.000000	99.051979 
2414.000000	99.051024 
2413.000000	99.047477 
2412.000000	99.042836 
2411.000000	99.039485 
2410.000000	99.039330 
2409.000000	99.042042 
2408.000000	99.045349 
2407.000000	99.047525 
2406.000000	99.049161 
2405.000000	99.052007 
2404.000000	99.056264 
2403.000000	99.059542 
2402.000000	99.058778 
2401.000000	99.053178 
2400.000000	99.045233 
2399.000000	99.038739 
2398.000000	99.035820 
2397.000000	99.036095 
2396.000000	99.038470 
2395.000000	99.042644 
2394.000000	99.048108 
2393.000000	99.052770 
2392.000000	99.054528 
2391.000000	99.054474 
2390.000000	99.056710 
2389.000000	99.063567 
2388.000000	99.071786 
2387.000000	99.075061 
2386.000000	99.070615 
2385.000000	99.062406 
2384.000000	99.057469 
2383.000000	99.059385 
2382.000000	99.065392 
2381.000000	99.069170 
2380.000000	99.065979 
2379.000000	99.055806 
2378.000000	99.042898 
2377.000000	99.033163 
2376.000000	99.031461 
2375.000000	99.038975 
2374.000000	99.051974 
2373.000000	99.063497 
2372.000000	99.068663 
2371.000000	99.069490 
2370.000000	99.072893 
2369.000000	99.082360 
2368.000000	99.092578 
2367.000000	99.093572 
2366.000000	99.080114 
2365.000000	99.057223 
2364.000000	99.038085 
2363.000000	99.034281 
2362.000000	99.045874 
2361.000000	99.063130 
2360.000000	99.074132 
2359.000000	99.073715 
2358.000000	99.068314 
2357.000000	99.066902 
2356.000000	99.074362 
2355.000000	99.087370 
2354.000000	99.098166 
2353.000000	99.102569 
2352.000000	99.101640 
2351.000000	99.101110 
2350.000000	99.100506 
2349.000000	99.092973 
2348.000000	99.074911 
2347.000000	99.049930 
2346.000000	99.030474 
2345.000000	99.023089 
2344.000000	99.026000 
2343.000000	99.033488 
2342.000000	99.043113 
2341.000000	99.057371 
2340.000000	99.072532 
2339.000000	99.083016 
2338.000000	99.084743 
2337.000000	99.080139 
2336.000000	99.074027 
2335.000000	99.071461 
2334.000000	99.072868 
2333.000000	99.076482 
2332.000000	99.077734 
2331.000000	99.076415 
2330.000000	99.073119 
2329.000000	99.069766 
2328.000000	99.068475 
2327.000000	99.067738 
2326.000000	99.066707 
2325.000000	99.061375 
2324.000000	99.052040 
2323.000000	99.043039 
2322.000000	99.040763 
2321.000000	99.049227 
2320.000000	99.063751 
2319.000000	99.077946 
2318.000000	99.085518 
2317.000000	99.085899 
2316.000000	99.080166 
2315.000000	99.072315 
2314.000000	99.066390 
2313.000000	99.065504 
2312.000000	99.069154 
2311.000000	99.074865 
2310.000000	99.080821 
2309.000000	99.085903 
2308.000000	99.088513 
2307.000000	99.086526 
2306.000000	99.080152 
2305.000000	99.072156 
2304.000000	99.065054 
2303.000000	99.059081 
2302.000000	99.053388 
2301.000000	99.048885 
2300.000000	99.047038 
2299.000000	99.047386 
2298.000000	99.047469 
2297.000000	99.045984 
2296.000000	99.044721 
2295.000000	99.045540 
2294.000000	99.047533 
2293.000000	99.047114 
2292.000000	99.042926 
2291.000000	99.037435 
2290.000000	99.034426 
2289.000000	99.034126 
2288.000000	99.033456 
2287.000000	99.030078 
2286.000000	99.025368 
2285.000000	99.022191 
2284.000000	99.021228 
2283.000000	99.020529 
2282.000000	99.017840 
2281.000000	99.012294 
2280.000000	99.004580 
2279.000000	98.997706 
2278.000000	98.996518 
2277.000000	99.004133 
2276.000000	99.017745 
2275.000000	99.030560 
2274.000000	99.037867 
2273.000000	99.039152 
2272.000000	99.034267 
2271.000000	99.021821 
2270.000000	99.004334 
2269.000000	98.991431 
2268.000000	98.993062 
2267.000000	99.009761 
2266.000000	99.032295 
2265.000000	99.050084 
2264.000000	99.057418 
2263.000000	99.053500 
2262.000000	99.042311 
2261.000000	99.032741 
2260.000000	99.033454 
2259.000000	99.044063 
2258.000000	99.054447 
2257.000000	99.055553 
2256.000000	99.048240 
2255.000000	99.039612 
2254.000000	99.033751 
2253.000000	99.030430 
2252.000000	99.030196 
2251.000000	99.035227 
2250.000000	99.044606 
2249.000000	99.052948 
2248.000000	99.055705 
2247.000000	99.053522 
2246.000000	99.050125 
2245.000000	99.047392 
2244.000000	99.043907 
2243.000000	99.037556 
2242.000000	99.028738 
2241.000000	99.021006 
2240.000000	99.018230 
2239.000000	99.020458 
2238.000000	99.023042 
2237.000000	99.020616 
2236.000000	99.011543 
2235.000000	98.998059 
2234.000000	98.983843 
2233.000000	98.973469 
2232.000000	98.972679 
2231.000000	98.985399 
2230.000000	99.009150 
2229.000000	99.035390 
2228.000000	99.056024 
2227.000000	99.068750 
2226.000000	99.075458 
2225.000000	99.077421 
2224.000000	99.073957 
2223.000000	99.065235 
2222.000000	99.054512 
2221.000000	99.046493 
2220.000000	99.043464 
2219.000000	99.043890 
2218.000000	99.045622 
2217.000000	99.049793 
2216.000000	99.059510 
2215.000000	99.073859 
2214.000000	99.085241 
2213.000000	99.085154 
2212.000000	99.072917 
2211.000000	99.057561 
2210.000000	99.050937 
2209.000000	99.058614 
2208.000000	99.075513 
2207.000000	99.089375 
2206.000000	99.090184 
2205.000000	99.078354 
2204.000000	99.063438 
2203.000000	99.054249 
2202.000000	99.051909 
2201.000000	99.052550 
2200.000000	99.052671 
2199.000000	99.049091 
2198.000000	99.037626 
2197.000000	99.017593 
2196.000000	98.996841 
2195.000000	98.987184 
2194.000000	98.993703 
2193.000000	99.010864 
2192.000000	99.028770 
2191.000000	99.040567 
2190.000000	99.044563 
2189.000000	99.043628 
2188.000000	99.043650 
2187.000000	99.049459 
2186.000000	99.061040 
2185.000000	99.074905 
2184.000000	99.087850 
2183.000000	99.096883 
2182.000000	99.098005 
2181.000000	99.090436 
2180.000000	99.081013 
2179.000000	99.078406 
2178.000000	99.082773 
2177.000000	99.085798 
2176.000000	99.080815 
2175.000000	99.068074 
2174.000000	99.050258 
2173.000000	99.029174 
2172.000000	99.008429 
2171.000000	98.993909 
2170.000000	98.989533 
2169.000000	98.995955 
2168.000000	99.013145 
2167.000000	99.038491 
2166.000000	99.061626 
2165.000000	99.069229 
2164.000000	99.059805 
2163.000000	99.047824 
2162.000000	99.048699 
2161.000000	99.064076 
2160.000000	99.084344 
2159.000000	99.099939 
2158.000000	99.106575 
2157.000000	99.105768 
2156.000000	99.104737 
2155.000000	99.110152 
2154.000000	99.118712 
2153.000000	99.119128 
2152.000000	99.106296 
2151.000000	99.088325 
2150.000000	99.077099 
2149.000000	99.077719 
2148.000000	99.089299 
2147.000000	99.108423 
2146.000000	99.126712 
2145.000000	99.132365 
2144.000000	99.121935 
2143.000000	99.106059 
2142.000000	99.097436 
2141.000000	99.097373 
2140.000000	99.099406 
2139.000000	99.100796 
2138.000000	99.102401 
2137.000000	99.101079 
2136.000000	99.092209 
2135.000000	99.079749 
2134.000000	99.075214 
2133.000000	99.084062 
2132.000000	99.098320 
2131.000000	99.104658 
2130.000000	99.096400 
2129.000000	99.077732 
2128.000000	99.059540 
2127.000000	99.050694 
2126.000000	99.050455 
2125.000000	99.050025 
2124.000000	99.044352 
2123.000000	99.040365 
2122.000000	99.048554 
2121.000000	99.067322 
2120.000000	99.081930 
2119.000000	99.080602 
2118.000000	99.066570 
2117.000000	99.052051 
2116.000000	99.044905 
2115.000000	99.044550 
2114.000000	99.047335 
2113.000000	99.050804 
2112.000000	99.053200 
2111.000000	99.052624 
2110.000000	99.048193 
2109.000000	99.041416 
2108.000000	99.036083 
2107.000000	99.036043 
2106.000000	99.041234 
2105.000000	99.045540 
2104.000000	99.040992 
2103.000000	99.026030 
2102.000000	99.008563 
2101.000000	98.999476 
2100.000000	99.003472 
2099.000000	99.016686 
2098.000000	99.031814 
2097.000000	99.043917 
2096.000000	99.051781 
2095.000000	99.055174 
2094.000000	99.052176 
2093.000000	99.040838 
2092.000000	99.023889 
2091.000000	99.009537 
2090.000000	99.004906 
2089.000000	99.008700 
2088.000000	99.012806 
2087.000000	99.011800 
2086.000000	99.008426 
2085.000000	99.008916 
2084.000000	99.015277 
2083.000000	99.023887 
2082.000000	99.030203 
2081.000000	99.033044 
2080.000000	99.035016 
2079.000000	99.039889 
2078.000000	99.049300 
2077.000000	99.061320 
2076.000000	99.072297 
2075.000000	99.079891 
2074.000000	99.083618 
2073.000000	99.083756 
2072.000000	99.081385 
2071.000000	99.078656 
2070.000000	99.076707 
2069.000000	99.073577 
2068.000000	99.066859 
2067.000000	99.058478 
2066.000000	99.053626 
2065.000000	99.053889 
2064.000000	99.054700 
2063.000000	99.052022 
2062.000000	99.048650 
2061.000000	99.050907 
2060.000000	99.060734 
2059.000000	99.073899 
2058.000000	99.085016 
2057.000000	99.091375 
2056.000000	99.091965 
2055.000000	99.085732 
2054.000000	99.072785 
2053.000000	99.056876 
2052.000000	99.045129 
2051.000000	99.044113 
2050.000000	99.054975 
2049.000000	99.071062 
2048.000000	99.081460 
2047.000000	99.079350 
2046.000000	99.067400 
2045.000000	99.055116 
2044.000000	99.051307 
2043.000000	99.058010 
2042.000000	99.069658 
2041.000000	99.077595 
2040.000000	99.077334 
2039.000000	99.072202 
2038.000000	99.069048 
2037.000000	99.070716 
2036.000000	99.074028 
2035.000000	99.075005 
2034.000000	99.073619 
2033.000000	99.072249 
2032.000000	99.071981 
2031.000000	99.072822 
2030.000000	99.076029 
2029.000000	99.083198 
2028.000000	99.092613 
2027.000000	99.099037 
2026.000000	99.098661 
2025.000000	99.093775 
2024.000000	99.090684 
2023.000000	99.091900 
2022.000000	99.092083 
2021.000000	99.083703 
2020.000000	99.066835 
2019.000000	99.050993 
2018.000000	99.046169 
2017.000000	99.053009 
2016.000000	99.062816 
2015.000000	99.066435 
2014.000000	99.061206 
2013.000000	99.051143 
2012.000000	99.043648 
2011.000000	99.045425 
2010.000000	99.058709 
2009.000000	99.080169 
2008.000000	99.103826 
2007.000000	99.124540 
2006.000000	99.137856 
2005.000000	99.139641 
2004.000000	99.129600 
2003.000000	99.113745 
2002.000000	99.100383 
2001.000000	99.093108 
2000.000000	99.089527 
1999.000000	99.085804 
1998.000000	99.080192 
1997.000000	99.073391 
1996.000000	99.068481 
1995.000000	99.070796 
1994.000000	99.084074 
1993.000000	99.103839 
1992.000000	99.116773 
1991.000000	99.111884 
1990.000000	99.092209 
1989.000000	99.072264 
1988.000000	99.064523 
1987.000000	99.069710 
1986.000000	99.079374 
1985.000000	99.085834 
1984.000000	99.088414 
1983.000000	99.090765 
1982.000000	99.094475 
1981.000000	99.096434 
1980.000000	99.092383 
1979.000000	99.081639 
1978.000000	99.068263 
1977.000000	99.058125 
1976.000000	99.053833 
1975.000000	99.052986 
1974.000000	99.052734 
1973.000000	99.055971 
1972.000000	99.070007 
1971.000000	99.096499 
1970.000000	99.124269 
1969.000000	99.136251 
1968.000000	99.125350 
1967.000000	99.101534 
1966.000000	99.081292 
1965.000000	99.072717 
1964.000000	99.073277 
1963.000000	99.078026 
1962.000000	99.084277 
1961.000000	99.089465 
1960.000000	99.090130 
1959.000000	99.085480 
1958.000000	99.079608 
1957.000000	99.077675 
1956.000000	99.080473 
1955.000000	99.084414 
1954.000000	99.086239 
1953.000000	99.086044 
1952.000000	99.084741 
1951.000000	99.080883 
1950.000000	99.072434 
1949.000000	99.060841 
1948.000000	99.051053 
1947.000000	99.045480 
1946.000000	99.039590 
1945.000000	99.026567 
1944.000000	99.006824 
1943.000000	98.990597 
1942.000000	98.988464 
1941.000000	98.999841 
1940.000000	99.014269 
1939.000000	99.022978 
1938.000000	99.026408 
1937.000000	99.031289 
1936.000000	99.041562 
1935.000000	99.052998 
1934.000000	99.057807 
1933.000000	99.054229 
1932.000000	99.048711 
1931.000000	99.047919 
1930.000000	99.050890 
1929.000000	99.051403 
1928.000000	99.047912 
1927.000000	99.045580 
1926.000000	99.048679 
1925.000000	99.054452 
1924.000000	99.056856 
1923.000000	99.054998 
1922.000000	99.053327 
1921.000000	99.054545 
1920.000000	99.055800 
1919.000000	99.052175 
1918.000000	99.041764 
1917.000000	99.027496 
1916.000000	99.014835 
1915.000000	99.007564 
1914.000000	99.006145 
1913.000000	99.009047 
1912.000000	99.013916 
1911.000000	99.018350 
1910.000000	99.019955 
1909.000000	99.017620 
1908.000000	99.014283 
1907.000000	99.014743 
1906.000000	99.020422 
1905.000000	99.027284 
1904.000000	99.030106 
1903.000000	99.028408 
1902.000000	99.024811 
1901.000000	99.020614 
1900.000000	99.016215 
1899.000000	99.013367 
1898.000000	99.014282 
1897.000000	99.018359 
1896.000000	99.021738 
1895.000000	99.021231 
1894.000000	99.016687 
1893.000000	99.010177 
1892.000000	99.004595 
1891.000000	99.002656 
1890.000000	99.004814 
1889.000000	99.008060 
1888.000000	99.009468 
1887.000000	99.009396 
1886.000000	99.009059 
1885.000000	99.008046 
1884.000000	99.005957 
1883.000000	99.004820 
1882.000000	99.006739 
1881.000000	99.010318 
1880.000000	99.012880 
1879.000000	99.014620 
1878.000000	99.018247 
1877.000000	99.024845 
1876.000000	99.031540 
1875.000000	99.034334 
1874.000000	99.031561 
1873.000000	99.024091 
1872.000000	99.014541 
1871.000000	99.006652 
1870.000000	99.003227 
1869.000000	99.002873 
1868.000000	99.001596 
1867.000000	98.999240 
1866.000000	98.998875 
1865.000000	99.000964 
1864.000000	99.002337 
1863.000000	98.999930 
1862.000000	98.994116 
1861.000000	98.988596 
1860.000000	98.987948 
1859.000000	98.994438 
1858.000000	99.005509 
1857.000000	99.015027 
1856.000000	99.019108 
1855.000000	99.020021 
1854.000000	99.022130 
1853.000000	99.024865 
1852.000000	99.024388 
1851.000000	99.019945 
1850.000000	99.015895 
1849.000000	99.017988 
1848.000000	99.027226 
1847.000000	99.039201 
1846.000000	99.048031 
1845.000000	99.050757 
1844.000000	99.049100 
1843.000000	99.047879 
1842.000000	99.049124 
1841.000000	99.049245 
1840.000000	99.044865 
1839.000000	99.036872 
1838.000000	99.029450 
1837.000000	99.025794 
1836.000000	99.025582 
1835.000000	99.027126 
1834.000000	99.028964 
1833.000000	99.029788 
1832.000000	99.028511 
1831.000000	99.024376 
1830.000000	99.018529 
1829.000000	99.015198 
1828.000000	99.017535 
1827.000000	99.023311 
1826.000000	99.027776 
1825.000000	99.028919 
1824.000000	99.027992 
1823.000000	99.026463 
1822.000000	99.023457 
1821.000000	99.018408 
1820.000000	99.014369 
1819.000000	99.015361 
1818.000000	99.021409 
1817.000000	99.027046 
1816.000000	99.027298 
1815.000000	99.024273 
1814.000000	99.023259 
1813.000000	99.025939 
1812.000000	99.029259 
1811.000000	99.031029 
1810.000000	99.033794 
1809.000000	99.039007 
1808.000000	99.043198 
1807.000000	99.042425 
1806.000000	99.036547 
1805.000000	99.028054 
1804.000000	99.019343 
1803.000000	99.012324 
1802.000000	99.007493 
1801.000000	99.004112 
1800.000000	99.001571 
1799.000000	99.001030 
1798.000000	99.004419 
1797.000000	99.010507 
1796.000000	99.016031 
1795.000000	99.019320 
1794.000000	99.020848 
1793.000000	99.021313 
1792.000000	99.019897 
1791.000000	99.016635 
1790.000000	99.013847 
1789.000000	99.012356 
1788.000000	99.012347 
1787.000000	99.015454 
1786.000000	99.022703 
1785.000000	99.030742 
1784.000000	99.034315 
1783.000000	99.032652 
1782.000000	99.027796 
1781.000000	99.021973 
1780.000000	99.016537 
1779.000000	99.012079 
1778.000000	99.009739 
1777.000000	99.009439 
1776.000000	99.010633 
1775.000000	99.012010 
1774.000000	99.012408 
1773.000000	99.013456 
1772.000000	99.017868 
1771.000000	99.024801 
1770.000000	99.030546 
1769.000000	99.031219 
1768.000000	99.026227 
1767.000000	99.020149 
1766.000000	99.018545 
1765.000000	99.022337 
1764.000000	99.027485 
1763.000000	99.029052 
1762.000000	99.024612 
1761.000000	99.017052 
1760.000000	99.011575 
1759.000000	99.010937 
1758.000000	99.015969 
1757.000000	99.025569 
1756.000000	99.036014 
1755.000000	99.041702 
1754.000000	99.039909 
1753.000000	99.033214 
1752.000000	99.027548 
1751.000000	99.025470 
1750.000000	99.024359 
1749.000000	99.021558 
1748.000000	99.017952 
1747.000000	99.016037 
1746.000000	99.015559 
1745.000000	99.015792 
1744.000000	99.016498 
1743.000000	99.016897 
1742.000000	99.016267 
1741.000000	99.014572 
1740.000000	99.012531 
1739.000000	99.012000 
1738.000000	99.014541 
1737.000000	99.018194 
1736.000000	99.020067 
1735.000000	99.020326 
1734.000000	99.018757 
1733.000000	99.014753 
1732.000000	99.011389 
1731.000000	99.008333 
1730.000000	99.005465 
1729.000000	99.004024 
1728.000000	99.003971 
1727.000000	99.003299 
1726.000000	99.000115 
1725.000000	98.996208 
1724.000000	98.994144 
1723.000000	98.994389 
1722.000000	98.995882 
1721.000000	98.996455 
1720.000000	98.995257 
1719.000000	98.994215 
1718.000000	98.995977 
1717.000000	98.998298 
1716.000000	98.997769 
1715.000000	98.995917 
1714.000000	98.994571 
1713.000000	98.992074 
1712.000000	98.986430 
1711.000000	98.979765 
1710.000000	98.975940 
1709.000000	98.975831 
1708.000000	98.977027 
1707.000000	98.976404 
1706.000000	98.972258 
1705.000000	98.964271 
1704.000000	98.955016 
1703.000000	98.947816 
1702.000000	98.943679 
1701.000000	98.941721 
1700.000000	98.937381 
1699.000000	98.932330 
1698.000000	98.932184 
1697.000000	98.931461 
1696.000000	98.925695 
1695.000000	98.917851 
1694.000000	98.914339 
1693.000000	98.913591 
1692.000000	98.910287 
1691.000000	98.904845 
1690.000000	98.899732 
1689.000000	98.895457 
1688.000000	98.892743 
1687.000000	98.891675 
1686.000000	98.891926 
1685.000000	98.891369 
1684.000000	98.883387 
1683.000000	98.870278 
1682.000000	98.861705 
1681.000000	98.855788 
1680.000000	98.850357 
1679.000000	98.846179 
1678.000000	98.841969 
1677.000000	98.835003 
1676.000000	98.825274 
1675.000000	98.816767 
1674.000000	98.813418 
1673.000000	98.815540 
1672.000000	98.818710 
1671.000000	98.818977 
1670.000000	98.814123 
1669.000000	98.803897 
1668.000000	98.794173 
1667.000000	98.789244 
1666.000000	98.786907 
1665.000000	98.783903 
1664.000000	98.779285 
1663.000000	98.774438 
1662.000000	98.769833 
1661.000000	98.765460 
1660.000000	98.762735 
1659.000000	98.761694 
1658.000000	98.760678 
1657.000000	98.758581 
1656.000000	98.755938 
1655.000000	98.753795 
1654.000000	98.753896 
1653.000000	98.749777 
1652.000000	98.740582 
1651.000000	98.740813 
1650.000000	98.743956 
1649.000000	98.743430 
1648.000000	98.740159 
1647.000000	98.734145 
1646.000000	98.726808 
1645.000000	98.723711 
1644.000000	98.725550 
1643.000000	98.728135 
1642.000000	98.728284 
1641.000000	98.725142 
1640.000000	98.720721 
1639.000000	98.717563 
1638.000000	98.717515 
1637.000000	98.721379 
1636.000000	98.727995 
1635.000000	98.732935 
1634.000000	98.735716 
1633.000000	98.737341 
1632.000000	98.735512 
1631.000000	98.731524 
1630.000000	98.728134 
1629.000000	98.726495 
1628.000000	98.726299 
1627.000000	98.727756 
1626.000000	98.730717 
1625.000000	98.734507 
1624.000000	98.739228 
1623.000000	98.745123 
1622.000000	98.751331 
1621.000000	98.757139 
1620.000000	98.762869 
1619.000000	98.768983 
1618.000000	98.776101 
1617.000000	98.782817 
1616.000000	98.787954 
1615.000000	98.793769 
1614.000000	98.800716 
1613.000000	98.806792 
1612.000000	98.812285 
1611.000000	98.818878 
1610.000000	98.825660 
1609.000000	98.830218 
1608.000000	98.832746 
1607.000000	98.835707 
1606.000000	98.839624 
1605.000000	98.843449 
1604.000000	98.847285 
1603.000000	98.851163 
1602.000000	98.854771 
1601.000000	98.858310 
1600.000000	98.862734 
1599.000000	98.868391 
1598.000000	98.874626 
1597.000000	98.881006 
1596.000000	98.887101 
1595.000000	98.891501 
1594.000000	98.892748 
1593.000000	98.891992 
1592.000000	98.892983 
1591.000000	98.898061 
1590.000000	98.905237 
1589.000000	98.910789 
1588.000000	98.913887 
1587.000000	98.916741 
1586.000000	98.920869 
1585.000000	98.925166 
1584.000000	98.928979 
1583.000000	98.932248 
1582.000000	98.933733 
1581.000000	98.933069 
1580.000000	98.932091 
1579.000000	98.932190 
1578.000000	98.932797 
1577.000000	98.933121 
1576.000000	98.931984 
1575.000000	98.930058 
1574.000000	98.929272 
1573.000000	98.929368 
1572.000000	98.930354 
1571.000000	98.933628 
1570.000000	98.938654 
1569.000000	98.942267 
1568.000000	98.944851 
1567.000000	98.947106 
1566.000000	98.947348 
1565.000000	98.945574 
1564.000000	98.944162 
1563.000000	98.943603 
1562.000000	98.941727 
1561.000000	98.937412 
1560.000000	98.938165 
1559.000000	98.944763 
1558.000000	98.944664 
1557.000000	98.945929 
1556.000000	98.951268 
1555.000000	98.954371 
1554.000000	98.952807 
1553.000000	98.948491 
1552.000000	98.944406 
1551.000000	98.940656 
1550.000000	98.938427 
1549.000000	98.939489 
1548.000000	98.943732 
1547.000000	98.947639 
1546.000000	98.946441 
1545.000000	98.939769 
1544.000000	98.932418 
1543.000000	98.929935 
1542.000000	98.935165 
1541.000000	98.947024 
1540.000000	98.956885 
1539.000000	98.958068 
1538.000000	98.956498 
1537.000000	98.956204 
1536.000000	98.955899 
1535.000000	98.956733 
1534.000000	98.957511 
1533.000000	98.954455 
1532.000000	98.948728 
1531.000000	98.945513 
1530.000000	98.946658 
1529.000000	98.949608 
1528.000000	98.951072 
1527.000000	98.950545 
1526.000000	98.950036 
1525.000000	98.951468 
1524.000000	98.954975 
1523.000000	98.960457 
1522.000000	98.968447 
1521.000000	98.975455 
1520.000000	98.977413 
1519.000000	98.974470 
1518.000000	98.968162 
1517.000000	98.961716 
1516.000000	98.957477 
1515.000000	98.955743 
1514.000000	98.955622 
1513.000000	98.956946 
1512.000000	98.959795 
1511.000000	98.962614 
1510.000000	98.964127 
1509.000000	98.965143 
1508.000000	98.970302 
1507.000000	98.980252 
1506.000000	98.985987 
1505.000000	98.986265 
1504.000000	98.986307 
1503.000000	98.986208 
1502.000000	98.986550 
1501.000000	98.987100 
1500.000000	98.985934 
1499.000000	98.982165 
1498.000000	98.978021 
1497.000000	98.975830 
1496.000000	98.974336 
1495.000000	98.974173 
1494.000000	98.978003 
1493.000000	98.984902 
1492.000000	98.991078 
1491.000000	98.993287 
1490.000000	98.991105 
1489.000000	98.986318 
1488.000000	98.980454 
1487.000000	98.975123 
1486.000000	98.971545 
1485.000000	98.968206 
1484.000000	98.964785 
1483.000000	98.962657 
1482.000000	98.962966 
1481.000000	98.964827 
1480.000000	98.965309 
1479.000000	98.962982 
1478.000000	98.958587 
1477.000000	98.953775 
1476.000000	98.949649 
1475.000000	98.948176 
1474.000000	98.950488 
1473.000000	98.954058 
1472.000000	98.953942 
1471.000000	98.949809 
1470.000000	98.945813 
1469.000000	98.942968 
1468.000000	98.939978 
1467.000000	98.936638 
1466.000000	98.933865 
1465.000000	98.932218 
1464.000000	98.931755 
1463.000000	98.931766 
1462.000000	98.931431 
1461.000000	98.929925 
1460.000000	98.927109 
1459.000000	98.922653 
1458.000000	98.914847 
1457.000000	98.901754 
1456.000000	98.887591 
1455.000000	98.879887 
1454.000000	98.877608 
1453.000000	98.878377 
1452.000000	98.882065 
1451.000000	98.886620 
1450.000000	98.889258 
1449.000000	98.888965 
1448.000000	98.886970 
1447.000000	98.885919 
1446.000000	98.886795 
1445.000000	98.888944 
1444.000000	98.891174 
1443.000000	98.891217 
1442.000000	98.888281 
1441.000000	98.883595 
1440.000000	98.879108 
1439.000000	98.875432 
1438.000000	98.873638 
1437.000000	98.874699 
1436.000000	98.876408 
1435.000000	98.876169 
1434.000000	98.873769 
1433.000000	98.870081 
1432.000000	98.866391 
1431.000000	98.863302 
1430.000000	98.860288 
1429.000000	98.856956 
1428.000000	98.853306 
1427.000000	98.850492 
1426.000000	98.848986 
1425.000000	98.849095 
1424.000000	98.850426 
1423.000000	98.849883 
1422.000000	98.844989 
1421.000000	98.835676 
1420.000000	98.824207 
1419.000000	98.813106 
1418.000000	98.804446 
1417.000000	98.799028 
1416.000000	98.794283 
1415.000000	98.787549 
1414.000000	98.778857 
1413.000000	98.770503 
1412.000000	98.764503 
1411.000000	98.760272 
1410.000000	98.756056 
1409.000000	98.751252 
1408.000000	98.746681 
1407.000000	98.744788 
1406.000000	98.747294 
1405.000000	98.753509 
1404.000000	98.761714 
1403.000000	98.771121 
1402.000000	98.782755 
1401.000000	98.796950 
1400.000000	98.811345 
1399.000000	98.820919 
1398.000000	98.821511 
1397.000000	98.811639 
1396.000000	98.792101 
1395.000000	98.770472 
1394.000000	98.761165 
1393.000000	98.773376 
1392.000000	98.800965 
1391.000000	98.829261 
1390.000000	98.847973 
1389.000000	98.855297 
1388.000000	98.854286 
1387.000000	98.848784 
1386.000000	98.842703 
1385.000000	98.839278 
1384.000000	98.839041 
1383.000000	98.839694 
1382.000000	98.839343 
1381.000000	98.838428 
1380.000000	98.838754 
1379.000000	98.841585 
1378.000000	98.846860 
1377.000000	98.853911 
1376.000000	98.862038 
1375.000000	98.870444 
1374.000000	98.878227 
1373.000000	98.885642 
1372.000000	98.893565 
1371.000000	98.901549 
1370.000000	98.907747 
1369.000000	98.911237 
1368.000000	98.913245 
1367.000000	98.915431 
1366.000000	98.918831 
1365.000000	98.923914 
1364.000000	98.930738 
1363.000000	98.938187 
1362.000000	98.944288 
1361.000000	98.948272 
1360.000000	98.951250 
1359.000000	98.954848 
1358.000000	98.959983 
1357.000000	98.966309 
1356.000000	98.972359 
1355.000000	98.976754 
1354.000000	98.979817 
1353.000000	98.982858 
1352.000000	98.985653 
1351.000000	98.986751 
1350.000000	98.985552 
1349.000000	98.983619 
1348.000000	98.983073 
1347.000000	98.983968 
1346.000000	98.985242 
1345.000000	98.986493 
1344.000000	98.987616 
1343.000000	98.987522 
1342.000000	98.985566 
1341.000000	98.983702 
1340.000000	98.985011 
1339.000000	98.989434 
1338.000000	98.993671 
1337.000000	98.995880 
1336.000000	98.997372 
1335.000000	98.999398 
1334.000000	99.000949 
1333.000000	99.000552 
1332.000000	98.998709 
1331.000000	98.997211 
1330.000000	98.996763 
1329.000000	98.996524 
1328.000000	98.995557 
1327.000000	98.993739 
1326.000000	98.991393 
1325.000000	98.989194 
1324.000000	98.988081 
1323.000000	98.988234 
1322.000000	98.988786 
1321.000000	98.989116 
1320.000000	98.990096 
1319.000000	98.993031 
1318.000000	98.997267 
1317.000000	98.999732 
1316.000000	98.997615 
1315.000000	98.991291 
1314.000000	98.984175 
1313.000000	98.979430 
1312.000000	98.977081 
1311.000000	98.974978 
1310.000000	98.972132 
1309.000000	98.969828 
1308.000000	98.969228 
1307.000000	98.969320 
1306.000000	98.968107 
1305.000000	98.965300 
1304.000000	98.962585 
1303.000000	98.961311 
1302.000000	98.961167 
1301.000000	98.961126 
1300.000000	98.960831 
1299.000000	98.960651 
1298.000000	98.960985 
1297.000000	98.961682 
1296.000000	98.961870 
1295.000000	98.960274 
1294.000000	98.956050 
1293.000000	98.949393 
1292.000000	98.941140 
1291.000000	98.932225 
1290.000000	98.923825 
1289.000000	98.917409 
1288.000000	98.913613 
1287.000000	98.911041 
1286.000000	98.907038 
1285.000000	98.900026 
1284.000000	98.890580 
1283.000000	98.880313 
1282.000000	98.870513 
1281.000000	98.861951 
1280.000000	98.855186 
1279.000000	98.850204 
1278.000000	98.846156 
1277.000000	98.842168 
1276.000000	98.838170 
1275.000000	98.834364 
1274.000000	98.830083 
1273.000000	98.824079 
1272.000000	98.816027 
1271.000000	98.807062 
1270.000000	98.798465 
1269.000000	98.790358 
1268.000000	98.782094 
1267.000000	98.773341 
1266.000000	98.764256 
1265.000000	98.754969 
1264.000000	98.745491 
1263.000000	98.736045 
1262.000000	98.726883 
1261.000000	98.717806 
1260.000000	98.708450 
1259.000000	98.698925 
1258.000000	98.689652 
1257.000000	98.680749 
1256.000000	98.672187 
1255.000000	98.664406 
1254.000000	98.657743 
1253.000000	98.651182 
1252.000000	98.642850 
1251.000000	98.632428 
1250.000000	98.622144 
1249.000000	98.614587 
1248.000000	98.610146 
1247.000000	98.606945 
1246.000000	98.602090 
1245.000000	98.592170 
1244.000000	98.574438 
1243.000000	98.550323 
1242.000000	98.527233 
1241.000000	98.513617 
1240.000000	98.510951 
1239.000000	98.512183 
1238.000000	98.508932 
1237.000000	98.498717 
1236.000000	98.484361 
1235.000000	98.468804 
1234.000000	98.452921 
1233.000000	98.436970 
1232.000000	98.421072 
1231.000000	98.404087 
1230.000000	98.384433 
1229.000000	98.362824 
1228.000000	98.342373 
1227.000000	98.324886 
1226.000000	98.308254 
1225.000000	98.288724 
1224.000000	98.264970 
1223.000000	98.238700 
1222.000000	98.211773 
1221.000000	98.184141 
1220.000000	98.154752 
1219.000000	98.123165 
1218.000000	98.089432 
1217.000000	98.053043 
1216.000000	98.013070 
1215.000000	97.969613 
1214.000000	97.924436 
1213.000000	97.879538 
1212.000000	97.835108 
1211.000000	97.789485 
1210.000000	97.741475 
1209.000000	97.692239 
1208.000000	97.644172 
1207.000000	97.598052 
1206.000000	97.552266 
1205.000000	97.505205 
1204.000000	97.457363 
1203.000000	97.410253 
1202.000000	97.364097 
1201.000000	97.317821 
1200.000000	97.270827 
1199.000000	97.223430 
1198.000000	97.175715 
1197.000000	97.127124 
1196.000000	97.077099 
1195.000000	97.025300 
1194.000000	96.971559 
1193.000000	96.916625 
1192.000000	96.862352 
1191.000000	96.809801 
1190.000000	96.757625 
1189.000000	96.703786 
1188.000000	96.648329 
1187.000000	96.592878 
1186.000000	96.537982 
1185.000000	96.482810 
1184.000000	96.426847 
1183.000000	96.369783 
1182.000000	96.310319 
1181.000000	96.247556 
1180.000000	96.183169 
1179.000000	96.119485 
1178.000000	96.055639 
1177.000000	95.988481 
1176.000000	95.917079 
1175.000000	95.843064 
1174.000000	95.766512 
1173.000000	95.685411 
1172.000000	95.600244 
1171.000000	95.515449 
1170.000000	95.434684 
1169.000000	95.357468 
1168.000000	95.282003 
1167.000000	95.208939 
1166.000000	95.141827 
1165.000000	95.087102 
1164.000000	95.054089 
1163.000000	95.050452 
1162.000000	95.074836 
1161.000000	95.116119 
1160.000000	95.160520 
1159.000000	95.196814 
1158.000000	95.215583 
1157.000000	95.209071 
1156.000000	95.175015 
1155.000000	95.119021 
1154.000000	95.051564 
1153.000000	94.982987 
1152.000000	94.919897 
1151.000000	94.862368 
1150.000000	94.803977 
1149.000000	94.738324 
1148.000000	94.666639 
1147.000000	94.595906 
1146.000000	94.529326 
1145.000000	94.462888 
1144.000000	94.392256 
1143.000000	94.318328 
1142.000000	94.244300 
1141.000000	94.171718 
1140.000000	94.101562 
1139.000000	94.034763 
1138.000000	93.968787 
1137.000000	93.897584 
1136.000000	93.818047 
1135.000000	93.733678 
1134.000000	93.649381 
1133.000000	93.565379 
1132.000000	93.478690 
1131.000000	93.388099 
1130.000000	93.295505 
1129.000000	93.204204 
1128.000000	93.116810 
1127.000000	93.032431 
1126.000000	92.945691 
1125.000000	92.851949 
1124.000000	92.753602 
1123.000000	92.657305 
1122.000000	92.565048 
1121.000000	92.472854 
1120.000000	92.378414 
1119.000000	92.284151 
1118.000000	92.191751 
1117.000000	92.099888 
1116.000000	92.009195 
1115.000000	91.923504 
1114.000000	91.843910 
1113.000000	91.767049 
1112.000000	91.691031 
1111.000000	91.617048 
1110.000000	91.543273 
1109.000000	91.464010 
1108.000000	91.378046 
1107.000000	91.291984 
1106.000000	91.211849 
1105.000000	91.136293 
1104.000000	91.060893 
1103.000000	90.984096 
1102.000000	90.906366 
1101.000000	90.828460 
1100.000000	90.752851 
1099.000000	90.682233 
1098.000000	90.614775 
1097.000000	90.545491 
1096.000000	90.473402 
1095.000000	90.401967 
1094.000000	90.331864 
1093.000000	90.259362 
1092.000000	90.182673 
1091.000000	90.103682 
1090.000000	90.022927 
1089.000000	89.939796 
1088.000000	89.858221 
1087.000000	89.784451 
1086.000000	89.718043 
1085.000000	89.652902 
1084.000000	89.588162 
1083.000000	89.529255 
1082.000000	89.476516 
1081.000000	89.421925 
1080.000000	89.360078 
1079.000000	89.294189 
1078.000000	89.228654 
1077.000000	89.163806 
1076.000000	89.100671 
1075.000000	89.042401 
1074.000000	88.987401 
1073.000000	88.927967 
1072.000000	88.857611 
1071.000000	88.772476 
1070.000000	88.665610 
1069.000000	88.530680 
1068.000000	88.374843 
1067.000000	88.218560 
1066.000000	88.077563 
1065.000000	87.951651 
1064.000000	87.833417 
1063.000000	87.717867 
1062.000000	87.599394 
1061.000000	87.469957 
1060.000000	87.327589 
1059.000000	87.180664 
1058.000000	87.038809 
1057.000000	86.904563 
1056.000000	86.775821 
1055.000000	86.648765 
1054.000000	86.515719 
1053.000000	86.368557 
1052.000000	86.208311 
1051.000000	86.044161 
1050.000000	85.880067 
1049.000000	85.711292 
1048.000000	85.536237 
1047.000000	85.360672 
1046.000000	85.187746 
1045.000000	85.014204 
1044.000000	84.838155 
1043.000000	84.661070 
1042.000000	84.481657 
1041.000000	84.298092 
1040.000000	84.117365 
1039.000000	83.951636 
1038.000000	83.803667 
1037.000000	83.666340 
1036.000000	83.537226 
1035.000000	83.421685 
1034.000000	83.320651 
1033.000000	83.228074 
1032.000000	83.141929 
1031.000000	83.065315 
1030.000000	82.996056 
1029.000000	82.929022 
1028.000000	82.869900 
1027.000000	82.831516 
1026.000000	82.813122 
1025.000000	82.797409 
1024.000000	82.771550 
1023.000000	82.737999 
1022.000000	82.702034 
1021.000000	82.662877 
1020.000000	82.621305 
1019.000000	82.582666 
1018.000000	82.547228 
1017.000000	82.508896 
1016.000000	82.467099 
1015.000000	82.428534 
1014.000000	82.394260 
1013.000000	82.357068 
1012.000000	82.314702 
1011.000000	82.273871 
1010.000000	82.238381 
1009.000000	82.205240 
1008.000000	82.175242 
1007.000000	82.155218 
1006.000000	82.146700 
1005.000000	82.143951 
1004.000000	82.145665 
1003.000000	82.156882 
1002.000000	82.177458 
1001.000000	82.200877 
1000.000000	82.226304 
999.000000	 82.259226 
998.000000	 82.298433 
997.000000	 82.335671 
996.000000	 82.370626 
995.000000	 82.412932 
994.000000	 82.466196 
993.000000	 82.522710 
992.000000	 82.577080 
991.000000	 82.632513 
990.000000	 82.690558 
989.000000	 82.747521 
988.000000	 82.805095 
987.000000	 82.872682 
986.000000	 82.954893 
985.000000	 83.047278 
984.000000	 83.147229 
983.000000	 83.257969 
982.000000	 83.379117 
981.000000	 83.504808 
980.000000	 83.634376 
979.000000	 83.774295 
978.000000	 83.926929 
977.000000	 84.087518 
976.000000	 84.254005 
975.000000	 84.429070 
974.000000	 84.610796 
973.000000	 84.792344 
972.000000	 84.972917 
971.000000	 85.158431 
970.000000	 85.349434 
969.000000	 85.538874 
968.000000	 85.723718 
967.000000	 85.908141 
966.000000	 86.092934 
965.000000	 86.271982 
964.000000	 86.442096 
963.000000	 86.607095 
962.000000	 86.769660 
961.000000	 86.927787 
960.000000	 87.081162 
959.000000	 87.232131 
958.000000	 87.378280 
957.000000	 87.512839 
956.000000	 87.634858 
955.000000	 87.751029 
954.000000	 87.865540 
953.000000	 87.975967 
952.000000	 88.080638 
951.000000	 88.181508 
950.000000	 88.277534 
949.000000	 88.363411 
948.000000	 88.437519 
947.000000	 88.503920 
946.000000	 88.564674 
945.000000	 88.617801 
944.000000	 88.664835 
943.000000	 88.712564 
942.000000	 88.764273 
941.000000	 88.815790 
940.000000	 88.862334 
939.000000	 88.903001 
938.000000	 88.937575 
937.000000	 88.966517 
936.000000	 88.995933 
935.000000	 89.034923 
934.000000	 89.085188 
933.000000	 89.139494 
932.000000	 89.191918 
931.000000	 89.242776 
930.000000	 89.292256 
929.000000	 89.336962 
928.000000	 89.375335 
927.000000	 89.410114 
926.000000	 89.443422 
925.000000	 89.475284 
924.000000	 89.507843 
923.000000	 89.544088 
922.000000	 89.580854 
921.000000	 89.609835 
920.000000	 89.627158 
919.000000	 89.636129 
918.000000	 89.640325 
917.000000	 89.641196 
916.000000	 89.643179 
915.000000	 89.653199 
914.000000	 89.673127 
913.000000	 89.699860 
912.000000	 89.734531 
911.000000	 89.784500 
910.000000	 89.854780 
909.000000	 89.944490 
908.000000	 90.052453 
907.000000	 90.178136 
906.000000	 90.315977 
905.000000	 90.457271 
904.000000	 90.599609 
903.000000	 90.747354 
902.000000	 90.901808 
901.000000	 91.058017 
900.000000	 91.212016 
899.000000	 91.363858 
898.000000	 91.512325 
897.000000	 91.653452 
896.000000	 91.785493 
895.000000	 91.909613 
894.000000	 92.025581 
893.000000	 92.132930 
892.000000	 92.236397 
891.000000	 92.343562 
890.000000	 92.456032 
889.000000	 92.568095 
888.000000	 92.673965 
887.000000	 92.771268 
886.000000	 92.859040 
885.000000	 92.939110 
884.000000	 93.018457 
883.000000	 93.102672 
882.000000	 93.187089 
881.000000	 93.261983 
880.000000	 93.327087 
879.000000	 93.393406 
878.000000	 93.469620 
877.000000	 93.553920 
876.000000	 93.639959 
875.000000	 93.722851 
874.000000	 93.798230 
873.000000	 93.863897 
872.000000	 93.924952 
871.000000	 93.990751 
870.000000	 94.065158 
869.000000	 94.145695 
868.000000	 94.231967 
867.000000	 94.326236 
866.000000	 94.423923 
865.000000	 94.512642 
864.000000	 94.585491 
863.000000	 94.649342 
862.000000	 94.715116 
861.000000	 94.784255 
860.000000	 94.849721 
859.000000	 94.907046 
858.000000	 94.959081 
857.000000	 95.010885 
856.000000	 95.064180 
855.000000	 95.117220 
854.000000	 95.167264 
853.000000	 95.212064 
852.000000	 95.250213 
851.000000	 95.281554 
850.000000	 95.307841 
849.000000	 95.332254 
848.000000	 95.356644 
847.000000	 95.378954 
846.000000	 95.394839 
845.000000	 95.402167 
844.000000	 95.401972 
843.000000	 95.394898 
842.000000	 95.380077 
841.000000	 95.358449 
840.000000	 95.332983 
839.000000	 95.303309 
838.000000	 95.264551 
837.000000	 95.215309 
836.000000	 95.162934 
835.000000	 95.116076 
834.000000	 95.075485 
833.000000	 95.037894 
832.000000	 95.005611 
831.000000	 94.984287 
830.000000	 94.972585 
829.000000	 94.963214 
828.000000	 94.955522 
827.000000	 94.958625 
826.000000	 94.978789 
825.000000	 95.010649 
824.000000	 95.044380 
823.000000	 95.075213 
822.000000	 95.102732 
821.000000	 95.126485 
820.000000	 95.145381 
819.000000	 95.157977 
818.000000	 95.162370 
817.000000	 95.158140 
816.000000	 95.146878 
815.000000	 95.127046 
814.000000	 95.089992 
813.000000	 95.025445 
812.000000	 94.929210 
811.000000	 94.800265 
810.000000	 94.632348 
809.000000	 94.416160 
808.000000	 94.151341 
807.000000	 93.850237 
806.000000	 93.527844 
805.000000	 93.193826 
804.000000	 92.856974 
803.000000	 92.531023 
802.000000	 92.231916 
801.000000	 91.974252 
800.000000	 91.772301 
799.000000	 91.636928 
798.000000	 91.567919 
797.000000	 91.555436 
796.000000	 91.589752 
795.000000	 91.661932 
794.000000	 91.756278 
793.000000	 91.853262 
792.000000	 91.941780 
791.000000	 92.020352 
790.000000	 92.086346 
789.000000	 92.132626 
788.000000	 92.154133 
787.000000	 92.148015 
786.000000	 92.107120 
785.000000	 92.024051 
784.000000	 91.904505 
783.000000	 91.768263 
782.000000	 91.634555 
781.000000	 91.514218 
780.000000	 91.417064 
779.000000	 91.355586 
778.000000	 91.336603 
777.000000	 91.357850 
776.000000	 91.416249 
775.000000	 91.510661 
774.000000	 91.633436 
773.000000	 91.768350 
772.000000	 91.900639 
771.000000	 92.022408 
770.000000	 92.127276 
769.000000	 92.208285 
768.000000	 92.263951 
767.000000	 92.300132 
766.000000	 92.324058 
765.000000	 92.341669 
764.000000	 92.359933 
763.000000	 92.383377 
762.000000	 92.407063 
761.000000	 92.421212 
760.000000	 92.425199 
759.000000	 92.430373 
758.000000	 92.447535 
757.000000	 92.477652 
756.000000	 92.514813 
755.000000	 92.550994 
754.000000	 92.578502 
753.000000	 92.596422 
752.000000	 92.615313 
751.000000	 92.647698 
750.000000	 92.693100 
749.000000	 92.739567 
748.000000	 92.779583 
747.000000	 92.816466 
746.000000	 92.856081 
745.000000	 92.901757 
744.000000	 92.957465 
743.000000	 93.026236 
742.000000	 93.104117 
741.000000	 93.184165 
740.000000	 93.266469 
739.000000	 93.355294 
738.000000	 93.446775 
737.000000	 93.529351 
736.000000	 93.596949 
735.000000	 93.652685 
734.000000	 93.699819 
733.000000	 93.739269 
732.000000	 93.776295 
731.000000	 93.817874 
730.000000	 93.860694 
729.000000	 93.892210 
728.000000	 93.906812 
727.000000	 93.911647 
726.000000	 93.914363 
725.000000	 93.915590 
724.000000	 93.916687 
723.000000	 93.924483 
722.000000	 93.944025 
721.000000	 93.975204 
720.000000	 94.019215 
719.000000	 94.078119 
718.000000	 94.144382 
717.000000	 94.201413 
716.000000	 94.239050 
715.000000	 94.260801 
714.000000	 94.273805 
713.000000	 94.281025 
712.000000	 94.286520 
711.000000	 94.297103 
710.000000	 94.311962 
709.000000	 94.319249 
708.000000	 94.309214 
707.000000	 94.283442 
706.000000	 94.246277 
705.000000	 94.196195 
704.000000	 94.132373 
703.000000	 94.060827 
702.000000	 93.984762 
701.000000	 93.893675 
700.000000	 93.769504 
699.000000	 93.602635 
698.000000	 93.402089 
697.000000	 93.197044 
696.000000	 93.029237 
695.000000	 92.932621 
694.000000	 92.912947 
693.000000	 92.950662 
692.000000	 93.022731 
691.000000	 93.113869 
690.000000	 93.210720 
689.000000	 93.301350 
688.000000	 93.384572 
687.000000	 93.466220 
686.000000	 93.541481 
685.000000	 93.594669 
684.000000	 93.621452 
683.000000	 93.638085 
682.000000	 93.663317 
681.000000	 93.701513 
680.000000	 93.746055 
679.000000	 93.788037 
678.000000	 93.818740 
677.000000	 93.835658 
676.000000	 93.852258 
675.000000	 93.885885 
674.000000	 93.932852 
673.000000	 93.971569 
672.000000	 93.994006 
671.000000	 94.019177 
670.000000	 94.070124 
669.000000	 94.151097 
668.000000	 94.235406 
667.000000	 94.279828 
666.000000	 94.277060 
665.000000	 94.252129 
664.000000	 94.233066 
663.000000	 94.243623 
662.000000	 94.282588 
661.000000	 94.316694 
660.000000	 94.315400 
659.000000	 94.283012 
658.000000	 94.243578 
657.000000	 94.208609 
656.000000	 94.178402 
655.000000	 94.158615 
654.000000	 94.153288 
653.000000	 94.153393 
652.000000	 94.150764 
651.000000	 94.151227 
650.000000	 94.157716 

