4000.000000	99.214165 
3999.000000	99.212114 
3998.000000	99.209973 
3997.000000	99.208995 
3996.000000	99.209378 
3995.000000	99.210504 
3994.000000	99.211993 
3993.000000	99.214066 
3992.000000	99.216754 
3991.000000	99.219120 
3990.000000	99.219602 
3989.000000	99.217155 
3988.000000	99.212161 
3987.000000	99.206502 
3986.000000	99.202710 
3985.000000	99.202510 
3984.000000	99.205692 
3983.000000	99.210518 
3982.000000	99.215365 
3981.000000	99.219833 
3980.000000	99.224246 
3979.000000	99.228485 
3978.000000	99.231745 
3977.000000	99.233233 
3976.000000	99.232583 
3975.000000	99.229597 
3974.000000	99.224152 
3973.000000	99.216816 
3972.000000	99.209392 
3971.000000	99.204421 
3970.000000	99.203923 
3969.000000	99.207993 
3968.000000	99.214454 
3967.000000	99.220023 
3966.000000	99.222299 
3965.000000	99.221033 
3964.000000	99.217711 
3963.000000	99.214308 
3962.000000	99.212167 
3961.000000	99.211453 
3960.000000	99.211174 
3959.000000	99.210023 
3958.000000	99.208089 
3957.000000	99.207160 
3956.000000	99.208901 
3955.000000	99.212708 
3954.000000	99.216179 
3953.000000	99.217601 
3952.000000	99.217273 
3951.000000	99.216665 
3950.000000	99.216480 
3949.000000	99.216039 
3948.000000	99.214700 
3947.000000	99.213465 
3946.000000	99.214051 
3945.000000	99.216326 
3944.000000	99.217632 
3943.000000	99.215381 
3942.000000	99.210267 
3941.000000	99.205950 
3940.000000	99.204810 
3939.000000	99.205484 
3938.000000	99.205603 
3937.000000	99.204715 
3936.000000	99.204129 
3935.000000	99.204804 
3934.000000	99.206740 
3933.000000	99.209981 
3932.000000	99.214412 
3931.000000	99.219083 
3930.000000	99.222455 
3929.000000	99.223612 
3928.000000	99.223037 
3927.000000	99.221380 
3926.000000	99.218540 
3925.000000	99.214689 
3924.000000	99.211488 
3923.000000	99.210140 
3922.000000	99.208756 
3921.000000	99.204907 
3920.000000	99.199984 
3919.000000	99.197603 
3918.000000	99.198313 
3917.000000	99.199110 
3916.000000	99.198444 
3915.000000	99.198268 
3914.000000	99.200320 
3913.000000	99.203530 
3912.000000	99.206098 
3911.000000	99.206860 
3910.000000	99.205940 
3909.000000	99.204202 
3908.000000	99.203361 
3907.000000	99.204834 
3906.000000	99.208219 
3905.000000	99.211139 
3904.000000	99.211663 
3903.000000	99.211356 
3902.000000	99.212722 
3901.000000	99.213961 
3900.000000	99.210800 
3899.000000	99.203137 
3898.000000	99.195607 
3897.000000	99.191508 
3896.000000	99.190001 
3895.000000	99.190192 
3894.000000	99.194269 
3893.000000	99.202578 
3892.000000	99.209751 
3891.000000	99.210274 
3890.000000	99.208985 
3889.000000	99.213321 
3888.000000	99.220985 
3887.000000	99.224247 
3886.000000	99.219305 
3885.000000	99.210055 
3884.000000	99.205555 
3883.000000	99.207552 
3882.000000	99.208730 
3881.000000	99.204411 
3880.000000	99.196961 
3879.000000	99.193105 
3878.000000	99.197501 
3877.000000	99.206388 
3876.000000	99.212805 
3875.000000	99.213126 
3874.000000	99.208857 
3873.000000	99.205684 
3872.000000	99.205402 
3871.000000	99.202231 
3870.000000	99.192852 
3869.000000	99.186295 
3868.000000	99.194375 
3867.000000	99.211002 
3866.000000	99.219869 
3865.000000	99.217583 
3864.000000	99.213320 
3863.000000	99.213117 
3862.000000	99.214819 
3861.000000	99.213943 
3860.000000	99.209996 
3859.000000	99.202873 
3858.000000	99.191767 
3857.000000	99.178588 
3856.000000	99.171126 
3855.000000	99.177192 
3854.000000	99.188148 
3853.000000	99.185025 
3852.000000	99.178574 
3851.000000	99.188935 
3850.000000	99.205468 
3849.000000	99.214073 
3848.000000	99.216583 
3847.000000	99.219086 
3846.000000	99.223135 
3845.000000	99.226861 
3844.000000	99.228448 
3843.000000	99.227257 
3842.000000	99.224667 
3841.000000	99.221985 
3840.000000	99.219669 
3839.000000	99.217368 
3838.000000	99.214520 
3837.000000	99.211068 
3836.000000	99.208663 
3835.000000	99.208231 
3834.000000	99.208589 
3833.000000	99.208407 
3832.000000	99.207914 
3831.000000	99.208990 
3830.000000	99.213510 
3829.000000	99.220156 
3828.000000	99.224368 
3827.000000	99.222128 
3826.000000	99.215414 
3825.000000	99.211651 
3824.000000	99.216077 
3823.000000	99.226465 
3822.000000	99.234884 
3821.000000	99.232655 
3820.000000	99.225200 
3819.000000	99.225155 
3818.000000	99.228057 
3817.000000	99.223363 
3816.000000	99.211639 
3815.000000	99.202906 
3814.000000	99.204641 
3813.000000	99.209714 
3812.000000	99.207147 
3811.000000	99.199548 
3810.000000	99.197426 
3809.000000	99.204830 
3808.000000	99.214684 
3807.000000	99.217407 
3806.000000	99.214753 
3805.000000	99.216290 
3804.000000	99.221687 
3803.000000	99.222535 
3802.000000	99.214842 
3801.000000	99.201437 
3800.000000	99.194172 
3799.000000	99.198113 
3798.000000	99.202092 
3797.000000	99.199233 
3796.000000	99.194458 
3795.000000	99.194751 
3794.000000	99.200432 
3793.000000	99.206280 
3792.000000	99.209011 
3791.000000	99.209824 
3790.000000	99.210196 
3789.000000	99.210442 
3788.000000	99.211627 
3787.000000	99.215315 
3786.000000	99.220691 
3785.000000	99.224927 
3784.000000	99.227427 
3783.000000	99.230499 
3782.000000	99.234685 
3781.000000	99.236653 
3780.000000	99.233001 
3779.000000	99.224293 
3778.000000	99.215842 
3777.000000	99.211568 
3776.000000	99.209687 
3775.000000	99.207285 
3774.000000	99.205942 
3773.000000	99.208949 
3772.000000	99.215463 
3771.000000	99.219911 
3770.000000	99.218302 
3769.000000	99.213760 
3768.000000	99.212636 
3767.000000	99.215218 
3766.000000	99.216704 
3765.000000	99.215502 
3764.000000	99.215585 
3763.000000	99.220069 
3762.000000	99.226071 
3761.000000	99.229605 
3760.000000	99.231008 
3759.000000	99.231324 
3758.000000	99.230032 
3757.000000	99.227232 
3756.000000	99.224962 
3755.000000	99.224105 
3754.000000	99.223637 
3753.000000	99.224579 
3752.000000	99.229114 
3751.000000	99.232389 
3750.000000	99.225552 
3749.000000	99.211634 
3748.000000	99.201521 
3747.000000	99.197250 
3746.000000	99.193810 
3745.000000	99.187232 
3744.000000	99.177237 
3743.000000	99.177511 
3742.000000	99.194405 
3741.000000	99.208043 
3740.000000	99.207012 
3739.000000	99.201367 
3738.000000	99.202402 
3737.000000	99.209649 
3736.000000	99.216141 
3735.000000	99.218857 
3734.000000	99.218343 
3733.000000	99.213302 
3732.000000	99.204357 
3731.000000	99.198926 
3730.000000	99.202560 
3729.000000	99.210919 
3728.000000	99.216424 
3727.000000	99.218239 
3726.000000	99.221087 
3725.000000	99.227433 
3724.000000	99.233014 
3723.000000	99.232713 
3722.000000	99.227703 
3721.000000	99.223591 
3720.000000	99.224114 
3719.000000	99.227381 
3718.000000	99.228822 
3717.000000	99.225862 
3716.000000	99.219407 
3715.000000	99.211023 
3714.000000	99.201749 
3713.000000	99.193190 
3712.000000	99.185899 
3711.000000	99.179396 
3710.000000	99.175822 
3709.000000	99.176643 
3708.000000	99.178427 
3707.000000	99.176455 
3706.000000	99.169532 
3705.000000	99.160190 
3704.000000	99.151911 
3703.000000	99.146600 
3702.000000	99.143000 
3701.000000	99.138853 
3700.000000	99.134722 
3699.000000	99.131179 
3698.000000	99.125532 
3697.000000	99.115947 
3696.000000	99.105299 
3695.000000	99.098097 
3694.000000	99.095119 
3693.000000	99.094045 
3692.000000	99.093604 
3691.000000	99.092937 
3690.000000	99.088470 
3689.000000	99.076427 
3688.000000	99.061868 
3687.000000	99.056217 
3686.000000	99.061820 
3685.000000	99.069887 
3684.000000	99.074046 
3683.000000	99.076008 
3682.000000	99.078540 
3681.000000	99.078871 
3680.000000	99.071727 
3679.000000	99.057866 
3678.000000	99.042798 
3677.000000	99.030306 
3676.000000	99.018744 
3675.000000	99.007914 
3674.000000	99.009247 
3673.000000	99.025366 
3672.000000	99.040125 
3671.000000	99.045282 
3670.000000	99.044445 
3669.000000	99.041698 
3668.000000	99.040877 
3667.000000	99.040071 
3666.000000	99.035392 
3665.000000	99.029127 
3664.000000	99.025972 
3663.000000	99.026940 
3662.000000	99.029310 
3661.000000	99.030848 
3660.000000	99.032817 
3659.000000	99.038479 
3658.000000	99.047990 
3657.000000	99.056737 
3656.000000	99.060202 
3655.000000	99.062891 
3654.000000	99.071821 
3653.000000	99.085397 
3652.000000	99.098933 
3651.000000	99.110795 
3650.000000	99.116431 
3649.000000	99.108886 
3648.000000	99.092031 
3647.000000	99.078680 
3646.000000	99.075963 
3645.000000	99.081371 
3644.000000	99.089149 
3643.000000	99.095831 
3642.000000	99.101503 
3641.000000	99.107632 
3640.000000	99.115266 
3639.000000	99.124723 
3638.000000	99.136301 
3637.000000	99.149764 
3636.000000	99.161559 
3635.000000	99.165911 
3634.000000	99.160855 
3633.000000	99.151819 
3632.000000	99.146239 
3631.000000	99.147375 
3630.000000	99.153127 
3629.000000	99.154574 
3628.000000	99.147674 
3627.000000	99.143663 
3626.000000	99.146356 
3625.000000	99.148517 
3624.000000	99.149461 
3623.000000	99.153387 
3622.000000	99.160929 
3621.000000	99.168464 
3620.000000	99.172438 
3619.000000	99.172359 
3618.000000	99.172119 
3617.000000	99.176205 
3616.000000	99.183121 
3615.000000	99.187129 
3614.000000	99.184378 
3613.000000	99.175574 
3612.000000	99.164887 
3611.000000	99.156352 
3610.000000	99.151626 
3609.000000	99.151156 
3608.000000	99.154425 
3607.000000	99.159628 
3606.000000	99.164563 
3605.000000	99.167871 
3604.000000	99.170433 
3603.000000	99.174462 
3602.000000	99.180195 
3601.000000	99.185631 
3600.000000	99.189645 
3599.000000	99.193134 
3598.000000	99.196486 
3597.000000	99.199131 
3596.000000	99.199975 
3595.000000	99.198007 
3594.000000	99.193397 
3593.000000	99.189190 
3592.000000	99.189153 
3591.000000	99.194439 
3590.000000	99.202636 
3589.000000	99.208945 
3588.000000	99.208306 
3587.000000	99.200434 
3586.000000	99.192233 
3585.000000	99.189558 
3584.000000	99.190922 
3583.000000	99.192336 
3582.000000	99.191703 
3581.000000	99.188584 
3580.000000	99.183276 
3579.000000	99.177188 
3578.000000	99.172220 
3577.000000	99.169931 
3576.000000	99.170956 
3575.000000	99.174890 
3574.000000	99.180535 
3573.000000	99.186277 
3572.000000	99.190910 
3571.000000	99.194007 
3570.000000	99.195585 
3569.000000	99.195034 
3568.000000	99.190899 
3567.000000	99.183124 
3566.000000	99.176114 
3565.000000	99.175209 
3564.000000	99.179591 
3563.000000	99.184176 
3562.000000	99.185964 
3561.000000	99.185647 
3560.000000	99.185272 
3559.000000	99.185919 
3558.000000	99.187225 
3557.000000	99.188473 
3556.000000	99.189991 
3555.000000	99.192710 
3554.000000	99.196431 
3553.000000	99.199023 
3552.000000	99.198216 
3551.000000	99.193863 
3550.000000	99.187619 
3549.000000	99.181285 
3548.000000	99.176509 
3547.000000	99.174663 
3546.000000	99.175927 
3545.000000	99.179280 
3544.000000	99.183359 
3543.000000	99.186653 
3542.000000	99.187860 
3541.000000	99.186934 
3540.000000	99.185813 
3539.000000	99.186950 
3538.000000	99.190772 
3537.000000	99.194911 
3536.000000	99.196354 
3535.000000	99.194315 
3534.000000	99.190340 
3533.000000	99.186547 
3532.000000	99.184117 
3531.000000	99.183305 
3530.000000	99.183678 
3529.000000	99.184763 
3528.000000	99.186791 
3527.000000	99.190583 
3526.000000	99.196015 
3525.000000	99.200993 
3524.000000	99.202929 
3523.000000	99.201226 
3522.000000	99.197749 
3521.000000	99.194680 
3520.000000	99.192586 
3519.000000	99.190861 
3518.000000	99.189306 
3517.000000	99.188554 
3516.000000	99.189037 
3515.000000	99.190478 
3514.000000	99.192487 
3513.000000	99.194973 
3512.000000	99.197373 
3511.000000	99.198405 
3510.000000	99.197276 
3509.000000	99.195045 
3508.000000	99.193889 
3507.000000	99.194660 
3506.000000	99.195522 
3505.000000	99.193568 
3504.000000	99.187777 
3503.000000	99.180696 
3502.000000	99.177139 
3501.000000	99.180406 
3500.000000	99.189182 
3499.000000	99.198308 
3498.000000	99.202854 
3497.000000	99.201843 
3496.000000	99.198207 
3495.000000	99.195162 
3494.000000	99.193261 
3493.000000	99.191225 
3492.000000	99.188605 
3491.000000	99.186594 
3490.000000	99.186399 
3489.000000	99.187787 
3488.000000	99.189652 
3487.000000	99.191391 
3486.000000	99.193065 
3485.000000	99.194623 
3484.000000	99.195792 
3483.000000	99.196662 
3482.000000	99.197417 
3481.000000	99.197430 
3480.000000	99.195488 
3479.000000	99.191539 
3478.000000	99.187482 
3477.000000	99.185215 
3476.000000	99.184225 
3475.000000	99.182243 
3474.000000	99.178757 
3473.000000	99.176437 
3472.000000	99.178042 
3471.000000	99.182786 
3470.000000	99.187057 
3469.000000	99.188365 
3468.000000	99.187346 
3467.000000	99.185934 
3466.000000	99.184768 
3465.000000	99.182994 
3464.000000	99.179955 
3463.000000	99.176334 
3462.000000	99.173591 
3461.000000	99.172601 
3460.000000	99.172960 
3459.000000	99.173588 
3458.000000	99.173899 
3457.000000	99.174105 
3456.000000	99.174384 
3455.000000	99.174360 
3454.000000	99.173679 
3453.000000	99.172843 
3452.000000	99.172924 
3451.000000	99.174514 
3450.000000	99.177083 
3449.000000	99.179409 
3448.000000	99.180352 
3447.000000	99.179407 
3446.000000	99.177108 
3445.000000	99.175009 
3444.000000	99.174733 
3443.000000	99.176723 
3442.000000	99.179779 
3441.000000	99.182098 
3440.000000	99.182916 
3439.000000	99.182835 
3438.000000	99.182679 
3437.000000	99.182490 
3436.000000	99.181909 
3435.000000	99.181266 
3434.000000	99.181571 
3433.000000	99.183335 
3432.000000	99.185619 
3431.000000	99.186561 
3430.000000	99.184798 
3429.000000	99.180558 
3428.000000	99.175509 
3427.000000	99.171458 
3426.000000	99.169233 
3425.000000	99.168787 
3424.000000	99.170028 
3423.000000	99.172983 
3422.000000	99.177002 
3421.000000	99.180403 
3420.000000	99.181530 
3419.000000	99.180317 
3418.000000	99.178444 
3417.000000	99.177749 
3416.000000	99.178476 
3415.000000	99.179164 
3414.000000	99.178231 
3413.000000	99.175587 
3412.000000	99.172631 
3411.000000	99.170906 
3410.000000	99.171087 
3409.000000	99.173027 
3408.000000	99.176043 
3407.000000	99.178866 
3406.000000	99.179968 
3405.000000	99.178689 
3404.000000	99.176101 
3403.000000	99.174404 
3402.000000	99.175291 
3401.000000	99.178707 
3400.000000	99.182924 
3399.000000	99.185963 
3398.000000	99.187332 
3397.000000	99.188304 
3396.000000	99.190049 
3395.000000	99.191835 
3394.000000	99.191901 
3393.000000	99.189937 
3392.000000	99.187645 
3391.000000	99.186599 
3390.000000	99.186638 
3389.000000	99.186853 
3388.000000	99.187048 
3387.000000	99.187341 
3386.000000	99.187117 
3385.000000	99.185569 
3384.000000	99.183022 
3383.000000	99.180825 
3382.000000	99.179833 
3381.000000	99.179515 
3380.000000	99.178454 
3379.000000	99.175596 
3378.000000	99.171412 
3377.000000	99.168173 
3376.000000	99.168497 
3375.000000	99.173024 
3374.000000	99.179749 
3373.000000	99.185836 
3372.000000	99.189763 
3371.000000	99.191592 
3370.000000	99.192092 
3369.000000	99.192262 
3368.000000	99.193018 
3367.000000	99.194342 
3366.000000	99.194959 
3365.000000	99.193711 
3364.000000	99.191130 
3363.000000	99.188941 
3362.000000	99.188030 
3361.000000	99.187550 
3360.000000	99.186086 
3359.000000	99.183280 
3358.000000	99.180353 
3357.000000	99.179321 
3356.000000	99.181386 
3355.000000	99.185512 
3354.000000	99.188851 
3353.000000	99.189291 
3352.000000	99.187583 
3351.000000	99.186485 
3350.000000	99.187956 
3349.000000	99.191656 
3348.000000	99.195856 
3347.000000	99.198896 
3346.000000	99.199748 
3345.000000	99.198187 
3344.000000	99.194971 
3343.000000	99.191452 
3342.000000	99.188725 
3341.000000	99.187427 
3340.000000	99.188121 
3339.000000	99.190972 
3338.000000	99.194674 
3337.000000	99.196563 
3336.000000	99.194759 
3335.000000	99.190246 
3334.000000	99.186302 
3333.000000	99.185667 
3332.000000	99.188222 
3331.000000	99.191321 
3330.000000	99.192427 
3329.000000	99.191613 
3328.000000	99.191359 
3327.000000	99.193606 
3326.000000	99.197316 
3325.000000	99.199758 
3324.000000	99.200123 
3323.000000	99.200828 
3322.000000	99.204526 
3321.000000	99.210523 
3320.000000	99.215004 
3319.000000	99.214779 
3318.000000	99.210255 
3317.000000	99.204781 
3316.000000	99.201674 
3315.000000	99.201892 
3314.000000	99.203917 
3313.000000	99.205357 
3312.000000	99.204875 
3311.000000	99.203010 
3310.000000	99.201325 
3309.000000	99.200849 
3308.000000	99.201481 
3307.000000	99.202698 
3306.000000	99.204186 
3305.000000	99.205365 
3304.000000	99.204913 
3303.000000	99.201906 
3302.000000	99.197677 
3301.000000	99.195620 
3300.000000	99.198126 
3299.000000	99.203914 
3298.000000	99.209043 
3297.000000	99.210605 
3296.000000	99.208957 
3295.000000	99.206467 
3294.000000	99.205052 
3293.000000	99.205283 
3292.000000	99.206976 
3291.000000	99.209601 
3290.000000	99.212105 
3289.000000	99.213114 
3288.000000	99.211876 
3287.000000	99.209090 
3286.000000	99.206650 
3285.000000	99.206293 
3284.000000	99.208182 
3283.000000	99.210729 
3282.000000	99.212007 
3281.000000	99.211292 
3280.000000	99.209042 
3279.000000	99.205828 
3278.000000	99.202073 
3277.000000	99.198833 
3276.000000	99.197852 
3275.000000	99.200185 
3274.000000	99.204954 
3273.000000	99.209689 
3272.000000	99.211657 
3271.000000	99.209144 
3270.000000	99.202552 
3269.000000	99.194858 
3268.000000	99.190193 
3267.000000	99.190960 
3266.000000	99.196258 
3265.000000	99.203285 
3264.000000	99.209755 
3263.000000	99.214650 
3262.000000	99.217647 
3261.000000	99.218899 
3260.000000	99.219113 
3259.000000	99.219007 
3258.000000	99.218676 
3257.000000	99.217833 
3256.000000	99.216424 
3255.000000	99.214569 
3254.000000	99.212302 
3253.000000	99.210050 
3252.000000	99.208943 
3251.000000	99.209751 
3250.000000	99.211602 
3249.000000	99.212538 
3248.000000	99.211417 
3247.000000	99.208689 
3246.000000	99.205388 
3245.000000	99.202155 
3244.000000	99.199600 
3243.000000	99.199080 
3242.000000	99.202464 
3241.000000	99.210584 
3240.000000	99.221446 
3239.000000	99.230147 
3238.000000	99.231833 
3237.000000	99.225822 
3236.000000	99.216598 
3235.000000	99.209955 
3234.000000	99.208287 
3233.000000	99.210096 
3232.000000	99.213227 
3231.000000	99.216994 
3230.000000	99.221032 
3229.000000	99.223697 
3228.000000	99.222844 
3227.000000	99.217863 
3226.000000	99.210429 
3225.000000	99.203476 
3224.000000	99.199621 
3223.000000	99.199910 
3222.000000	99.203427 
3221.000000	99.208107 
3220.000000	99.212099 
3219.000000	99.214348 
3218.000000	99.214305 
3217.000000	99.211876 
3216.000000	99.208001 
3215.000000	99.204662 
3214.000000	99.203627 
3213.000000	99.205195 
3212.000000	99.208425 
3211.000000	99.212356 
3210.000000	99.216652 
3209.000000	99.221193 
3208.000000	99.225444 
3207.000000	99.228413 
3206.000000	99.229341 
3205.000000	99.228579 
3204.000000	99.227683 
3203.000000	99.228300 
3202.000000	99.230877 
3201.000000	99.234560 
3200.000000	99.238112 
3199.000000	99.240502 
3198.000000	99.240952 
3197.000000	99.239338 
3196.000000	99.236791 
3195.000000	99.235004 
3194.000000	99.234326 
3193.000000	99.233181 
3192.000000	99.230157 
3191.000000	99.226317 
3190.000000	99.224566 
3189.000000	99.226664 
3188.000000	99.231452 
3187.000000	99.236025 
3186.000000	99.238071 
3185.000000	99.236904 
3184.000000	99.233022 
3183.000000	99.227521 
3182.000000	99.221929 
3181.000000	99.217971 
3180.000000	99.216895 
3179.000000	99.218685 
3178.000000	99.221808 
3177.000000	99.223929 
3176.000000	99.223365 
3175.000000	99.220389 
3174.000000	99.217377 
3173.000000	99.217370 
3172.000000	99.221728 
3171.000000	99.228665 
3170.000000	99.234370 
3169.000000	99.236217 
3168.000000	99.235113 
3167.000000	99.234411 
3166.000000	99.236469 
3165.000000	99.240569 
3164.000000	99.244205 
3163.000000	99.245775 
3162.000000	99.245644 
3161.000000	99.245143 
3160.000000	99.245297 
3159.000000	99.246327 
3158.000000	99.247560 
3157.000000	99.247621 
3156.000000	99.245414 
3155.000000	99.241458 
3154.000000	99.238081 
3153.000000	99.237792 
3152.000000	99.241050 
3151.000000	99.245486 
3150.000000	99.247503 
3149.000000	99.245204 
3148.000000	99.240220 
3147.000000	99.236463 
3146.000000	99.236646 
3145.000000	99.239946 
3144.000000	99.243380 
3143.000000	99.245287 
3142.000000	99.246848 
3141.000000	99.250057 
3140.000000	99.254819 
3139.000000	99.258664 
3138.000000	99.259227 
3137.000000	99.256546 
3136.000000	99.252750 
3135.000000	99.249883 
3134.000000	99.248391 
3133.000000	99.247592 
3132.000000	99.247097 
3131.000000	99.247245 
3130.000000	99.248126 
3129.000000	99.248813 
3128.000000	99.248198 
3127.000000	99.246521 
3126.000000	99.245449 
3125.000000	99.246334 
3124.000000	99.248757 
3123.000000	99.251003 
3122.000000	99.251763 
3121.000000	99.251360 
3120.000000	99.251467 
3119.000000	99.253479 
3118.000000	99.256809 
3117.000000	99.258888 
3116.000000	99.257552 
3115.000000	99.253568 
3114.000000	99.250053 
3113.000000	99.249044 
3112.000000	99.249508 
3111.000000	99.249391 
3110.000000	99.248624 
3109.000000	99.248720 
3108.000000	99.249781 
3107.000000	99.249640 
3106.000000	99.246541 
3105.000000	99.241656 
3104.000000	99.238215 
3103.000000	99.238727 
3102.000000	99.243494 
3101.000000	99.250970 
3100.000000	99.258465 
3099.000000	99.262874 
3098.000000	99.262302 
3097.000000	99.257850 
3096.000000	99.253229 
3095.000000	99.251845 
3094.000000	99.254237 
3093.000000	99.258329 
3092.000000	99.261540 
3091.000000	99.262288 
3090.000000	99.260330 
3089.000000	99.256866 
3088.000000	99.254340 
3087.000000	99.254991 
3086.000000	99.258826 
3085.000000	99.263390 
3084.000000	99.266042 
3083.000000	99.266185 
3082.000000	99.264994 
3081.000000	99.263514 
3080.000000	99.261913 
3079.000000	99.260423 
3078.000000	99.259856 
3077.000000	99.260502 
3076.000000	99.261215 
3075.000000	99.260507 
3074.000000	99.258393 
3073.000000	99.256491 
3072.000000	99.256377 
3071.000000	99.258380 
3070.000000	99.261752 
3069.000000	99.265002 
3068.000000	99.265815 
3067.000000	99.261944 
3066.000000	99.253465 
3065.000000	99.243869 
3064.000000	99.237694 
3063.000000	99.236670 
3062.000000	99.238826 
3061.000000	99.241400 
3060.000000	99.243756 
3059.000000	99.246999 
3058.000000	99.251503 
3057.000000	99.255861 
3056.000000	99.258312 
3055.000000	99.258599 
3054.000000	99.258037 
3053.000000	99.257965 
3052.000000	99.258417 
3051.000000	99.258308 
3050.000000	99.256685 
3049.000000	99.253488 
3048.000000	99.249016 
3047.000000	99.243187 
3046.000000	99.236002 
3045.000000	99.228621 
3044.000000	99.223189 
3043.000000	99.221148 
3042.000000	99.222013 
3041.000000	99.223923 
3040.000000	99.225068 
3039.000000	99.224487 
3038.000000	99.222065 
3037.000000	99.218274 
3036.000000	99.213751 
3035.000000	99.208807 
3034.000000	99.203437 
3033.000000	99.197767 
3032.000000	99.191988 
3031.000000	99.185656 
3030.000000	99.177588 
3029.000000	99.166866 
3028.000000	99.153765 
3027.000000	99.139556 
3026.000000	99.125817 
3025.000000	99.114050 
3024.000000	99.105182 
3023.000000	99.098511 
3022.000000	99.091413 
3021.000000	99.081072 
3020.000000	99.066947 
3019.000000	99.051300 
3018.000000	99.037206 
3017.000000	99.026198 
3016.000000	99.017501 
3015.000000	99.008906 
3014.000000	98.998181 
3013.000000	98.984057 
3012.000000	98.966270 
3011.000000	98.945090 
3010.000000	98.921421 
3009.000000	98.897507 
3008.000000	98.876670 
3007.000000	98.861288 
3006.000000	98.850775 
3005.000000	98.841824 
3004.000000	98.830477 
3003.000000	98.813992 
3002.000000	98.791871 
3001.000000	98.766558 
3000.000000	98.742800 
2999.000000	98.724542 
2998.000000	98.711914 
2997.000000	98.702339 
2996.000000	98.694512 
2995.000000	98.688973 
2994.000000	98.683431 
2993.000000	98.670183 
2992.000000	98.642201 
2991.000000	98.602379 
2990.000000	98.564100 
2989.000000	98.540745 
2988.000000	98.535401 
2987.000000	98.541493 
2986.000000	98.551406 
2985.000000	98.562209 
2984.000000	98.573772 
2983.000000	98.584733 
2982.000000	98.592254 
2981.000000	98.594680 
2980.000000	98.593008 
2979.000000	98.589750 
2978.000000	98.587052 
2977.000000	98.585637 
2976.000000	98.584738 
2975.000000	98.582920 
2974.000000	98.579539 
2973.000000	98.575658 
2972.000000	98.573319 
2971.000000	98.573934 
2970.000000	98.577671 
2969.000000	98.584316 
2968.000000	98.594139 
2967.000000	98.607513 
2966.000000	98.623871 
2965.000000	98.641368 
2964.000000	98.657718 
2963.000000	98.671401 
2962.000000	98.682231 
2961.000000	98.690925 
2960.000000	98.698311 
2959.000000	98.705136 
2958.000000	98.712430 
2957.000000	98.721238 
2956.000000	98.731235 
2955.000000	98.740009 
2954.000000	98.745018 
2953.000000	98.746983 
2952.000000	98.750586 
2951.000000	98.760621 
2950.000000	98.777062 
2949.000000	98.794418 
2948.000000	98.806354 
2947.000000	98.810874 
2946.000000	98.811154 
2945.000000	98.811818 
2944.000000	98.814958 
2943.000000	98.819474 
2942.000000	98.823348 
2941.000000	98.825739 
2940.000000	98.826965 
2939.000000	98.827222 
2938.000000	98.826033 
2937.000000	98.823113 
2936.000000	98.819542 
2935.000000	98.817715 
2934.000000	98.819607 
2933.000000	98.824700 
2932.000000	98.829654 
2931.000000	98.830651 
2930.000000	98.826534 
2929.000000	98.819695 
2928.000000	98.813877 
2927.000000	98.811299 
2926.000000	98.811735 
2925.000000	98.813441 
2924.000000	98.814370 
2923.000000	98.813150 
2922.000000	98.809925 
2921.000000	98.806273 
2920.000000	98.803610 
2919.000000	98.801628 
2918.000000	98.798807 
2917.000000	98.794314 
2916.000000	98.788695 
2915.000000	98.782795 
2914.000000	98.776995 
2913.000000	98.771766 
2912.000000	98.767999 
2911.000000	98.766015 
2910.000000	98.764752 
2909.000000	98.762652 
2908.000000	98.759088 
2907.000000	98.754301 
2906.000000	98.748093 
2905.000000	98.739237 
2904.000000	98.726609 
2903.000000	98.711184 
2902.000000	98.697306 
2901.000000	98.691488 
2900.000000	98.698498 
2899.000000	98.717051 
2898.000000	98.739215 
2897.000000	98.755684 
2896.000000	98.762661 
2895.000000	98.763982 
2894.000000	98.766497 
2893.000000	98.773529 
2892.000000	98.782812 
2891.000000	98.789974 
2890.000000	98.793104 
2889.000000	98.793803 
2888.000000	98.794653 
2887.000000	98.796729 
2886.000000	98.799759 
2885.000000	98.803724 
2884.000000	98.809285 
2883.000000	98.816774 
2882.000000	98.825737 
2881.000000	98.835842 
2880.000000	98.847641 
2879.000000	98.861904 
2878.000000	98.878421 
2877.000000	98.895642 
2876.000000	98.911179 
2875.000000	98.922578 
2874.000000	98.928399 
2873.000000	98.929445 
2872.000000	98.928878 
2871.000000	98.930450 
2870.000000	98.936230 
2869.000000	98.945768 
2868.000000	98.957050 
2867.000000	98.968168 
2866.000000	98.978776 
2865.000000	98.990458 
2864.000000	99.005115 
2863.000000	99.022227 
2862.000000	99.038084 
2861.000000	99.048795 
2860.000000	99.054250 
2859.000000	99.058362 
2858.000000	99.065242 
2857.000000	99.075830 
2856.000000	99.088251 
2855.000000	99.100449 
2854.000000	99.111635 
2853.000000	99.121656 
2852.000000	99.130052 
2851.000000	99.136288 
2850.000000	99.140736 
2849.000000	99.144926 
2848.000000	99.150423 
2847.000000	99.157383 
2846.000000	99.164393 
2845.000000	99.169862 
2844.000000	99.173491 
2843.000000	99.176415 
2842.000000	99.180203 
2841.000000	99.185771 
2840.000000	99.192758 
2839.000000	99.199462 
2838.000000	99.203674 
2837.000000	99.204244 
2836.000000	99.202124 
2835.000000	99.199794 
2834.000000	99.199603 
2833.000000	99.202471 
2832.000000	99.207579 
2831.000000	99.212917 
2830.000000	99.216533 
2829.000000	99.218058 
2828.000000	99.219197 
2827.000000	99.222275 
2826.000000	99.227956 
2825.000000	99.234391 
2824.000000	99.238689 
2823.000000	99.239394 
2822.000000	99.237807 
2821.000000	99.236886 
2820.000000	99.238485 
2819.000000	99.241606 
2818.000000	99.243776 
2817.000000	99.244125 
2816.000000	99.244295 
2815.000000	99.246039 
2814.000000	99.248953 
2813.000000	99.251385 
2812.000000	99.252687 
2811.000000	99.253258 
2810.000000	99.252947 
2809.000000	99.251063 
2808.000000	99.248149 
2807.000000	99.246285 
2806.000000	99.246982 
2805.000000	99.249722 
2804.000000	99.253054 
2803.000000	99.256265 
2802.000000	99.259305 
2801.000000	99.261861 
2800.000000	99.263405 
2799.000000	99.263828 
2798.000000	99.263376 
2797.000000	99.262198 
2796.000000	99.260487 
2795.000000	99.258884 
2794.000000	99.258233 
2793.000000	99.258884 
2792.000000	99.260438 
2791.000000	99.262122 
2790.000000	99.263369 
2789.000000	99.264296 
2788.000000	99.265642 
2787.000000	99.267880 
2786.000000	99.270398 
2785.000000	99.272071 
2784.000000	99.272748 
2783.000000	99.273464 
2782.000000	99.274945 
2781.000000	99.276611 
2780.000000	99.277566 
2779.000000	99.277949 
2778.000000	99.278640 
2777.000000	99.280028 
2776.000000	99.281685 
2775.000000	99.282904 
2774.000000	99.282952 
2773.000000	99.281247 
2772.000000	99.278073 
2771.000000	99.275014 
2770.000000	99.273971 
2769.000000	99.275686 
2768.000000	99.279548 
2767.000000	99.284406 
2766.000000	99.288910 
2765.000000	99.291470 
2764.000000	99.291089 
2763.000000	99.288537 
2762.000000	99.285978 
2761.000000	99.285094 
2760.000000	99.285950 
2759.000000	99.287585 
2758.000000	99.289015 
2757.000000	99.289650 
2756.000000	99.289638 
2755.000000	99.290091 
2754.000000	99.292059 
2753.000000	99.294796 
2752.000000	99.295857 
2751.000000	99.293701 
2750.000000	99.289580 
2749.000000	99.286093 
2748.000000	99.284300 
2747.000000	99.283217 
2746.000000	99.281850 
2745.000000	99.280579 
2744.000000	99.280314 
2743.000000	99.281190 
2742.000000	99.282664 
2741.000000	99.284394 
2740.000000	99.286520 
2739.000000	99.289275 
2738.000000	99.292654 
2737.000000	99.296317 
2736.000000	99.299548 
2735.000000	99.301408 
2734.000000	99.301279 
2733.000000	99.299430 
2732.000000	99.297027 
2731.000000	99.295444 
2730.000000	99.295330 
2729.000000	99.296228 
2728.000000	99.297204 
2727.000000	99.297929 
2726.000000	99.298888 
2725.000000	99.300432 
2724.000000	99.302120 
2723.000000	99.303525 
2722.000000	99.305263 
2721.000000	99.308344 
2720.000000	99.312394 
2719.000000	99.315351 
2718.000000	99.315383 
2717.000000	99.312671 
2716.000000	99.309138 
2715.000000	99.306951 
2714.000000	99.307509 
2713.000000	99.310943 
2712.000000	99.315732 
2711.000000	99.319280 
2710.000000	99.319926 
2709.000000	99.318409 
2708.000000	99.316708 
2707.000000	99.315523 
2706.000000	99.313693 
2705.000000	99.310268 
2704.000000	99.306280 
2703.000000	99.303846 
2702.000000	99.303871 
2701.000000	99.305167 
2700.000000	99.305819 
2699.000000	99.305067 
2698.000000	99.303734 
2697.000000	99.303011 
2696.000000	99.303149 
2695.000000	99.303577 
2694.000000	99.304040 
2693.000000	99.304912 
2692.000000	99.306123 
2691.000000	99.306568 
2690.000000	99.305483 
2689.000000	99.304121 
2688.000000	99.304956 
2687.000000	99.308886 
2686.000000	99.313949 
2685.000000	99.317252 
2684.000000	99.317709 
2683.000000	99.316544 
2682.000000	99.315638 
2681.000000	99.315953 
2680.000000	99.317265 
2679.000000	99.318755 
2678.000000	99.319768 
2677.000000	99.320314 
2676.000000	99.320893 
2675.000000	99.321723 
2674.000000	99.322256 
2673.000000	99.321721 
2672.000000	99.320033 
2671.000000	99.317759 
2670.000000	99.315122 
2669.000000	99.311480 
2668.000000	99.306353 
2667.000000	99.300925 
2666.000000	99.297843 
2665.000000	99.298907 
2664.000000	99.303143 
2663.000000	99.307737 
2662.000000	99.310862 
2661.000000	99.312862 
2660.000000	99.314599 
2659.000000	99.315698 
2658.000000	99.315263 
2657.000000	99.313634 
2656.000000	99.312368 
2655.000000	99.312619 
2654.000000	99.314257 
2653.000000	99.316278 
2652.000000	99.317301 
2651.000000	99.316074 
2650.000000	99.312654 
2649.000000	99.308976 
2648.000000	99.307120 
2647.000000	99.307077 
2646.000000	99.307303 
2645.000000	99.307230 
2644.000000	99.307578 
2643.000000	99.308197 
2642.000000	99.307742 
2641.000000	99.306397 
2640.000000	99.306950 
2639.000000	99.311518 
2638.000000	99.318385 
2637.000000	99.323543 
2636.000000	99.324559 
2635.000000	99.321735 
2634.000000	99.316696 
2633.000000	99.311589 
2632.000000	99.308851 
2631.000000	99.309656 
2630.000000	99.312531 
2629.000000	99.314865 
2628.000000	99.315690 
2627.000000	99.315915 
2626.000000	99.316405 
2625.000000	99.317408 
2624.000000	99.319422 
2623.000000	99.322670 
2622.000000	99.325586 
2621.000000	99.325658 
2620.000000	99.322332 
2619.000000	99.317766 
2618.000000	99.314364 
2617.000000	99.312826 
2616.000000	99.312839 
2615.000000	99.314153 
2614.000000	99.316207 
2613.000000	99.317865 
2612.000000	99.318411 
2611.000000	99.318282 
2610.000000	99.318488 
2609.000000	99.319904 
2608.000000	99.323093 
2607.000000	99.327795 
2606.000000	99.332456 
2605.000000	99.335182 
2604.000000	99.335186 
2603.000000	99.332451 
2602.000000	99.326682 
2601.000000	99.318570 
2600.000000	99.311913 
2599.000000	99.311717 
2598.000000	99.318867 
2597.000000	99.328410 
2596.000000	99.334367 
2595.000000	99.334820 
2594.000000	99.331406 
2593.000000	99.326111 
2592.000000	99.320721 
2591.000000	99.317808 
2590.000000	99.319350 
2589.000000	99.324436 
2588.000000	99.330151 
2587.000000	99.334441 
2586.000000	99.336458 
2585.000000	99.334754 
2584.000000	99.327861 
2583.000000	99.317304 
2582.000000	99.307914 
2581.000000	99.303660 
2580.000000	99.304022 
2579.000000	99.305318 
2578.000000	99.304856 
2577.000000	99.303036 
2576.000000	99.302147 
2575.000000	99.304078 
2574.000000	99.308862 
2573.000000	99.314498 
2572.000000	99.318077 
2571.000000	99.317700 
2570.000000	99.313866 
2569.000000	99.309165 
2568.000000	99.306513 
2567.000000	99.307174 
2566.000000	99.310057 
2565.000000	99.312926 
2564.000000	99.314499 
2563.000000	99.315161 
2562.000000	99.315582 
2561.000000	99.315582 
2560.000000	99.315253 
2559.000000	99.316306 
2558.000000	99.320291 
2557.000000	99.325257 
2556.000000	99.326451 
2555.000000	99.321988 
2554.000000	99.316444 
2553.000000	99.316478 
2552.000000	99.323089 
2551.000000	99.330446 
2550.000000	99.332829 
2549.000000	99.330512 
2548.000000	99.327409 
2547.000000	99.324923 
2546.000000	99.320964 
2545.000000	99.314760 
2544.000000	99.309777 
2543.000000	99.310421 
2542.000000	99.317030 
2541.000000	99.325311 
2540.000000	99.330103 
2539.000000	99.328945 
2538.000000	99.322746 
2537.000000	99.314317 
2536.000000	99.306372 
2535.000000	99.300244 
2534.000000	99.296227 
2533.000000	99.294799 
2532.000000	99.296652 
2531.000000	99.301222 
2530.000000	99.306314 
2529.000000	99.310260 
2528.000000	99.313836 
2527.000000	99.318834 
2526.000000	99.325118 
2525.000000	99.330476 
2524.000000	99.333449 
2523.000000	99.334970 
2522.000000	99.336672 
2521.000000	99.338560 
2520.000000	99.339135 
2519.000000	99.337369 
2518.000000	99.334002 
2517.000000	99.331010 
2516.000000	99.330068 
2515.000000	99.331386 
2514.000000	99.333854 
2513.000000	99.336036 
2512.000000	99.336616 
2511.000000	99.334115 
2510.000000	99.327680 
2509.000000	99.319259 
2508.000000	99.313753 
2507.000000	99.314723 
2506.000000	99.319774 
2505.000000	99.322062 
2504.000000	99.317295 
2503.000000	99.308077 
2502.000000	99.300769 
2501.000000	99.299543 
2500.000000	99.304422 
2499.000000	99.313436 
2498.000000	99.324483 
2497.000000	99.335353 
2496.000000	99.343841 
2495.000000	99.348524 
2494.000000	99.348798 
2493.000000	99.344268 
2492.000000	99.335168 
2491.000000	99.323579 
2490.000000	99.313194 
2489.000000	99.306960 
2488.000000	99.304955 
2487.000000	99.304811 
2486.000000	99.304278 
2485.000000	99.303571 
2484.000000	99.305283 
2483.000000	99.311510 
2482.000000	99.320664 
2481.000000	99.327756 
2480.000000	99.328869 
2479.000000	99.325090 
2478.000000	99.320977 
2477.000000	99.319326 
2476.000000	99.318943 
2475.000000	99.317853 
2474.000000	99.316817 
2473.000000	99.318169 
2472.000000	99.322265 
2471.000000	99.326942 
2470.000000	99.330103 
2469.000000	99.331034 
2468.000000	99.329193 
2467.000000	99.323926 
2466.000000	99.316561 
2465.000000	99.311214 
2464.000000	99.311629 
2463.000000	99.317428 
2462.000000	99.324411 
2461.000000	99.328199 
2460.000000	99.326998 
2459.000000	99.321911 
2458.000000	99.316312 
2457.000000	99.314313 
2456.000000	99.317467 
2455.000000	99.322204 
2454.000000	99.322318 
2453.000000	99.315288 
2452.000000	99.305202 
2451.000000	99.298439 
2450.000000	99.297451 
2449.000000	99.299864 
2448.000000	99.302595 
2447.000000	99.304926 
2446.000000	99.307734 
2445.000000	99.311561 
2444.000000	99.316241 
2443.000000	99.321357 
2442.000000	99.326147 
2441.000000	99.329373 
2440.000000	99.330028 
2439.000000	99.328295 
2438.000000	99.325648 
2437.000000	99.323884 
2436.000000	99.323612 
2435.000000	99.323289 
2434.000000	99.320113 
2433.000000	99.312752 
2432.000000	99.303412 
2431.000000	99.296453 
2430.000000	99.294535 
2429.000000	99.296550 
2428.000000	99.299793 
2427.000000	99.303424 
2426.000000	99.308500 
2425.000000	99.314442 
2424.000000	99.317198 
2423.000000	99.312728 
2422.000000	99.302212 
2421.000000	99.292142 
2420.000000	99.288398 
2419.000000	99.291224 
2418.000000	99.296726 
2417.000000	99.301802 
2416.000000	99.305819 
2415.000000	99.308397 
2414.000000	99.308430 
2413.000000	99.306108 
2412.000000	99.303811 
2411.000000	99.303436 
2410.000000	99.303947 
2409.000000	99.302968 
2408.000000	99.300102 
2407.000000	99.297536 
2406.000000	99.297884 
2405.000000	99.302358 
2404.000000	99.310277 
2403.000000	99.319011 
2402.000000	99.324782 
2401.000000	99.325045 
2400.000000	99.320521 
2399.000000	99.314315 
2398.000000	99.309150 
2397.000000	99.306003 
2396.000000	99.304829 
2395.000000	99.305365 
2394.000000	99.307177 
2393.000000	99.309800 
2392.000000	99.312987 
2391.000000	99.316301 
2390.000000	99.318783 
2389.000000	99.319837 
2388.000000	99.320193 
2387.000000	99.320997 
2386.000000	99.322128 
2385.000000	99.322569 
2384.000000	99.322465 
2383.000000	99.323479 
2382.000000	99.326457 
2381.000000	99.329638 
2380.000000	99.329949 
2379.000000	99.325830 
2378.000000	99.318563 
2377.000000	99.311563 
2376.000000	99.308704 
2375.000000	99.312126 
2374.000000	99.320277 
2373.000000	99.328265 
2372.000000	99.331691 
2371.000000	99.330885 
2370.000000	99.330446 
2369.000000	99.333819 
2368.000000	99.338861 
2367.000000	99.339836 
2366.000000	99.334004 
2365.000000	99.325355 
2364.000000	99.320957 
2363.000000	99.323806 
2362.000000	99.330430 
2361.000000	99.335289 
2360.000000	99.335628 
2359.000000	99.332674 
2358.000000	99.329729 
2357.000000	99.329838 
2356.000000	99.334180 
2355.000000	99.340966 
2354.000000	99.347081 
2353.000000	99.350529 
2352.000000	99.351066 
2351.000000	99.348801 
2350.000000	99.342711 
2349.000000	99.332433 
2348.000000	99.320276 
2347.000000	99.311224 
2346.000000	99.309136 
2345.000000	99.312248 
2344.000000	99.315877 
2343.000000	99.318383 
2342.000000	99.322322 
2341.000000	99.329152 
2340.000000	99.336073 
2339.000000	99.339089 
2338.000000	99.337372 
2337.000000	99.334359 
2336.000000	99.334255 
2335.000000	99.338249 
2334.000000	99.343944 
2333.000000	99.347779 
2332.000000	99.347319 
2331.000000	99.342227 
2330.000000	99.333757 
2329.000000	99.325164 
2328.000000	99.320464 
2327.000000	99.321996 
2326.000000	99.328251 
2325.000000	99.334249 
2324.000000	99.336044 
2323.000000	99.334025 
2322.000000	99.332929 
2321.000000	99.336933 
2320.000000	99.345593 
2319.000000	99.354325 
2318.000000	99.358129 
2317.000000	99.355229 
2316.000000	99.347518 
2315.000000	99.339230 
2314.000000	99.334532 
2313.000000	99.335552 
2312.000000	99.341288 
2311.000000	99.348782 
2310.000000	99.355598 
2309.000000	99.360777 
2308.000000	99.363441 
2307.000000	99.361603 
2306.000000	99.354171 
2305.000000	99.343335 
2304.000000	99.333387 
2303.000000	99.326614 
2302.000000	99.322047 
2301.000000	99.318187 
2300.000000	99.314894 
2299.000000	99.311893 
2298.000000	99.307948 
2297.000000	99.303549 
2296.000000	99.302273 
2295.000000	99.306595 
2294.000000	99.313236 
2293.000000	99.315540 
2292.000000	99.310740 
2291.000000	99.302369 
2290.000000	99.295500 
2289.000000	99.291807 
2288.000000	99.290128 
2287.000000	99.289295 
2286.000000	99.288930 
2285.000000	99.288639 
2284.000000	99.287940 
2283.000000	99.286239 
2282.000000	99.282233 
2281.000000	99.274629 
2280.000000	99.264764 
2279.000000	99.257545 
2278.000000	99.257917 
2277.000000	99.266027 
2276.000000	99.276661 
2275.000000	99.283807 
2274.000000	99.285123 
2273.000000	99.281770 
2272.000000	99.274916 
2271.000000	99.264372 
2270.000000	99.251753 
2269.000000	99.243257 
2268.000000	99.245983 
2267.000000	99.260391 
2266.000000	99.278414 
2265.000000	99.290608 
2264.000000	99.293986 
2263.000000	99.292013 
2262.000000	99.289466 
2261.000000	99.289461 
2260.000000	99.292981 
2259.000000	99.297639 
2258.000000	99.298037 
2257.000000	99.291036 
2256.000000	99.280386 
2255.000000	99.272679 
2254.000000	99.268947 
2253.000000	99.264378 
2252.000000	99.257095 
2251.000000	99.252915 
2250.000000	99.258864 
2249.000000	99.274484 
2248.000000	99.292071 
2247.000000	99.304097 
2246.000000	99.308304 
2245.000000	99.306565 
2244.000000	99.300994 
2243.000000	99.291918 
2242.000000	99.279289 
2241.000000	99.265462 
2240.000000	99.255067 
2239.000000	99.250849 
2238.000000	99.250574 
2237.000000	99.249727 
2236.000000	99.246467 
2235.000000	99.241865 
2234.000000	99.236246 
2233.000000	99.228888 
2232.000000	99.221929 
2231.000000	99.221170 
2230.000000	99.230800 
2229.000000	99.248687 
2228.000000	99.268260 
2227.000000	99.283748 
2226.000000	99.292346 
2225.000000	99.292951 
2224.000000	99.285323 
2223.000000	99.271218 
2222.000000	99.255797 
2221.000000	99.246457 
2220.000000	99.247984 
2219.000000	99.257980 
2218.000000	99.268963 
2217.000000	99.276572 
2216.000000	99.283898 
2215.000000	99.295276 
2214.000000	99.307639 
2213.000000	99.311976 
2212.000000	99.303614 
2211.000000	99.288097 
2210.000000	99.276348 
2209.000000	99.275710 
2208.000000	99.284878 
2207.000000	99.295223 
2206.000000	99.297342 
2205.000000	99.288584 
2204.000000	99.274258 
2203.000000	99.260611 
2202.000000	99.248880 
2201.000000	99.237897 
2200.000000	99.228599 
2199.000000	99.221784 
2198.000000	99.214663 
2197.000000	99.205649 
2196.000000	99.200784 
2195.000000	99.208511 
2194.000000	99.227756 
2193.000000	99.247020 
2192.000000	99.256165 
2191.000000	99.253884 
2190.000000	99.243478 
2189.000000	99.228607 
2188.000000	99.215455 
2187.000000	99.212364 
2186.000000	99.222900 
2185.000000	99.242248 
2184.000000	99.262363 
2183.000000	99.277105 
2182.000000	99.281811 
2181.000000	99.274614 
2180.000000	99.261441 
2179.000000	99.253759 
2178.000000	99.257190 
2177.000000	99.265623 
2176.000000	99.268939 
2175.000000	99.263394 
2174.000000	99.252586 
2173.000000	99.242402 
2172.000000	99.237323 
2171.000000	99.237957 
2170.000000	99.240199 
2169.000000	99.240191 
2168.000000	99.240854 
2167.000000	99.248369 
2166.000000	99.260797 
2165.000000	99.266785 
2164.000000	99.259460 
2163.000000	99.246001 
2162.000000	99.239293 
2161.000000	99.244998 
2160.000000	99.259655 
2159.000000	99.275476 
2158.000000	99.283474 
2157.000000	99.279006 
2156.000000	99.268550 
2155.000000	99.264622 
2154.000000	99.271289 
2153.000000	99.280237 
2152.000000	99.282815 
2151.000000	99.279739 
2150.000000	99.276340 
2149.000000	99.275399 
2148.000000	99.278573 
2147.000000	99.287805 
2146.000000	99.299798 
2145.000000	99.305065 
2144.000000	99.298666 
2143.000000	99.287056 
2142.000000	99.279115 
2141.000000	99.275703 
2140.000000	99.273507 
2139.000000	99.273495 
2138.000000	99.277643 
2137.000000	99.281018 
2136.000000	99.276186 
2135.000000	99.264920 
2134.000000	99.258023 
2133.000000	99.262505 
2132.000000	99.274138 
2131.000000	99.283168 
2130.000000	99.283033 
2129.000000	99.273720 
2128.000000	99.260671 
2127.000000	99.250707 
2126.000000	99.246623 
2125.000000	99.246272 
2124.000000	99.248417 
2123.000000	99.256425 
2122.000000	99.271997 
2121.000000	99.287838 
2120.000000	99.293020 
2119.000000	99.285854 
2118.000000	99.275909 
2117.000000	99.272267 
2116.000000	99.274797 
2115.000000	99.278773 
2114.000000	99.282806 
2113.000000	99.288107 
2112.000000	99.293171 
2111.000000	99.294119 
2110.000000	99.289960 
2109.000000	99.284281 
2108.000000	99.281156 
2107.000000	99.280845 
2106.000000	99.279553 
2105.000000	99.272396 
2104.000000	99.257269 
2103.000000	99.237455 
2102.000000	99.220638 
2101.000000	99.213920 
2100.000000	99.218408 
2099.000000	99.228695 
2098.000000	99.238273 
2097.000000	99.245613 
2096.000000	99.253955 
2095.000000	99.263980 
2094.000000	99.268372 
2093.000000	99.257837 
2092.000000	99.233856 
2091.000000	99.211651 
2090.000000	99.206807 
2089.000000	99.219570 
2088.000000	99.235321 
2087.000000	99.240714 
2086.000000	99.235942 
2085.000000	99.230632 
2084.000000	99.231462 
2083.000000	99.236675 
2082.000000	99.241326 
2081.000000	99.244333 
2080.000000	99.248829 
2079.000000	99.256724 
2078.000000	99.265239 
2077.000000	99.270319 
2076.000000	99.272581 
2075.000000	99.277116 
2074.000000	99.286530 
2073.000000	99.296773 
2072.000000	99.301739 
2071.000000	99.300028 
2070.000000	99.294719 
2069.000000	99.288327 
2068.000000	99.281333 
2067.000000	99.274866 
2066.000000	99.271090 
2065.000000	99.270059 
2064.000000	99.269145 
2063.000000	99.267027 
2062.000000	99.266049 
2061.000000	99.269221 
2060.000000	99.276426 
2059.000000	99.284842 
2058.000000	99.291916 
2057.000000	99.296533 
2056.000000	99.297898 
2055.000000	99.294640 
2054.000000	99.285762 
2053.000000	99.272837 
2052.000000	99.260847 
2051.000000	99.255565 
2050.000000	99.258709 
2049.000000	99.265142 
2048.000000	99.266442 
2047.000000	99.258800 
2046.000000	99.246601 
2045.000000	99.237881 
2044.000000	99.237052 
2043.000000	99.241841 
2042.000000	99.246077 
2041.000000	99.245076 
2040.000000	99.239411 
2039.000000	99.234138 
2038.000000	99.234665 
2037.000000	99.243413 
2036.000000	99.259153 
2035.000000	99.277624 
2034.000000	99.292087 
2033.000000	99.295384 
2032.000000	99.284332 
2031.000000	99.262449 
2030.000000	99.237989 
2029.000000	99.219141 
2028.000000	99.209572 
2027.000000	99.207550 
2026.000000	99.209972 
2025.000000	99.217474 
2024.000000	99.233081 
2023.000000	99.253827 
2022.000000	99.266961 
2021.000000	99.260523 
2020.000000	99.238498 
2019.000000	99.219586 
2018.000000	99.218437 
2017.000000	99.231170 
2016.000000	99.241769 
2015.000000	99.239633 
2014.000000	99.226725 
2013.000000	99.211566 
2012.000000	99.201921 
2011.000000	99.202089 
2010.000000	99.213011 
2009.000000	99.232870 
2008.000000	99.257429 
2007.000000	99.279566 
2006.000000	99.290227 
2005.000000	99.284855 
2004.000000	99.269997 
2003.000000	99.258810 
2002.000000	99.257825 
2001.000000	99.261033 
2000.000000	99.258804 
1999.000000	99.249115 
1998.000000	99.237691 
1997.000000	99.230798 
1996.000000	99.231250 
1995.000000	99.239136 
1994.000000	99.252336 
1993.000000	99.266254 
1992.000000	99.276025 
1991.000000	99.279616 
1990.000000	99.277486 
1989.000000	99.271089 
1988.000000	99.263526 
1987.000000	99.258739 
1986.000000	99.257379 
1985.000000	99.255963 
1984.000000	99.252697 
1983.000000	99.251212 
1982.000000	99.254773 
1981.000000	99.259342 
1980.000000	99.257492 
1979.000000	99.247925 
1978.000000	99.236475 
1977.000000	99.227502 
1976.000000	99.219036 
1975.000000	99.208594 
1974.000000	99.200122 
1973.000000	99.202506 
1972.000000	99.221508 
1971.000000	99.252445 
1970.000000	99.279664 
1969.000000	99.285893 
1968.000000	99.267022 
1967.000000	99.237682 
1966.000000	99.217811 
1965.000000	99.214104 
1964.000000	99.218556 
1963.000000	99.222039 
1962.000000	99.222581 
1961.000000	99.221622 
1960.000000	99.219704 
1959.000000	99.218961 
1958.000000	99.224675 
1957.000000	99.239122 
1956.000000	99.256115 
1955.000000	99.266047 
1954.000000	99.265915 
1953.000000	99.261186 
1952.000000	99.257360 
1951.000000	99.253408 
1950.000000	99.245312 
1949.000000	99.233622 
1948.000000	99.224268 
1947.000000	99.220886 
1946.000000	99.218720 
1945.000000	99.209039 
1944.000000	99.190127 
1943.000000	99.172298 
1942.000000	99.169223 
1941.000000	99.183270 
1940.000000	99.202880 
1939.000000	99.215020 
1938.000000	99.217151 
1937.000000	99.217118 
1936.000000	99.222418 
1935.000000	99.231204 
1934.000000	99.236288 
1933.000000	99.236583 
1932.000000	99.239742 
1931.000000	99.251846 
1930.000000	99.267722 
1929.000000	99.275976 
1928.000000	99.272705 
1927.000000	99.264804 
1926.000000	99.260278 
1925.000000	99.259973 
1924.000000	99.260679 
1923.000000	99.262105 
1922.000000	99.266135 
1921.000000	99.271410 
1920.000000	99.272828 
1919.000000	99.266222 
1918.000000	99.252308 
1917.000000	99.236797 
1916.000000	99.226038 
1915.000000	99.221853 
1914.000000	99.221575 
1913.000000	99.222442 
1912.000000	99.224585 
1911.000000	99.229063 
1910.000000	99.233244 
1909.000000	99.232556 
1908.000000	99.228429 
1907.000000	99.228884 
1906.000000	99.239037 
1905.000000	99.253742 
1904.000000	99.262911 
1903.000000	99.262242 
1902.000000	99.255009 
1901.000000	99.246610 
1900.000000	99.240767 
1899.000000	99.238880 
1898.000000	99.240331 
1897.000000	99.243044 
1896.000000	99.245445 
1895.000000	99.247471 
1894.000000	99.248390 
1893.000000	99.246452 
1892.000000	99.242358 
1891.000000	99.240123 
1890.000000	99.241948 
1889.000000	99.244426 
1888.000000	99.243778 
1887.000000	99.241690 
1886.000000	99.242140 
1885.000000	99.245859 
1884.000000	99.250588 
1883.000000	99.254836 
1882.000000	99.258065 
1881.000000	99.259207 
1880.000000	99.258744 
1879.000000	99.260306 
1878.000000	99.267492 
1877.000000	99.279389 
1876.000000	99.290986 
1875.000000	99.297778 
1874.000000	99.297797 
1873.000000	99.290878 
1872.000000	99.279476 
1871.000000	99.269037 
1870.000000	99.264196 
1869.000000	99.263430 
1868.000000	99.261765 
1867.000000	99.258460 
1866.000000	99.255195 
1865.000000	99.250245 
1864.000000	99.240283 
1863.000000	99.226195 
1862.000000	99.214165 
1861.000000	99.210390 
1860.000000	99.216394 
1859.000000	99.229294 
1858.000000	99.243750 
1857.000000	99.253976 
1856.000000	99.257565 
1855.000000	99.257922 
1854.000000	99.260014 
1853.000000	99.263986 
1852.000000	99.266091 
1851.000000	99.264469 
1850.000000	99.262215 
1849.000000	99.264221 
1848.000000	99.271550 
1847.000000	99.280092 
1846.000000	99.284090 
1845.000000	99.281047 
1844.000000	99.274811 
1843.000000	99.272805 
1842.000000	99.276920 
1841.000000	99.281637 
1840.000000	99.281697 
1839.000000	99.276811 
1838.000000	99.270586 
1837.000000	99.266345 
1836.000000	99.265240 
1835.000000	99.267543 
1834.000000	99.272710 
1833.000000	99.278683 
1832.000000	99.282532 
1831.000000	99.281960 
1830.000000	99.277633 
1829.000000	99.273691 
1828.000000	99.273081 
1827.000000	99.274129 
1826.000000	99.274052 
1825.000000	99.272587 
1824.000000	99.271041 
1823.000000	99.269400 
1822.000000	99.265317 
1821.000000	99.257712 
1820.000000	99.250249 
1819.000000	99.249017 
1818.000000	99.255985 
1817.000000	99.265208 
1816.000000	99.269390 
1815.000000	99.268786 
1814.000000	99.268977 
1813.000000	99.272781 
1812.000000	99.277589 
1811.000000	99.281100 
1810.000000	99.284756 
1809.000000	99.288582 
1808.000000	99.289457 
1807.000000	99.286294 
1806.000000	99.282061 
1805.000000	99.279642 
1804.000000	99.278713 
1803.000000	99.276928 
1802.000000	99.271587 
1801.000000	99.261449 
1800.000000	99.249054 
1799.000000	99.241183 
1798.000000	99.243476 
1797.000000	99.254556 
1796.000000	99.268268 
1795.000000	99.279561 
1794.000000	99.286449 
1793.000000	99.287785 
1792.000000	99.282802 
1791.000000	99.275300 
1790.000000	99.270858 
1789.000000	99.269982 
1788.000000	99.270552 
1787.000000	99.272452 
1786.000000	99.276869 
1785.000000	99.282341 
1784.000000	99.285544 
1783.000000	99.285578 
1782.000000	99.283439 
1781.000000	99.280158 
1780.000000	99.275447 
1779.000000	99.269237 
1778.000000	99.263325 
1777.000000	99.259837 
1776.000000	99.259639 
1775.000000	99.260949 
1774.000000	99.261296 
1773.000000	99.260917 
1772.000000	99.261566 
1771.000000	99.263763 
1770.000000	99.266279 
1769.000000	99.266879 
1768.000000	99.264834 
1767.000000	99.262019 
1766.000000	99.260831 
1765.000000	99.261652 
1764.000000	99.262687 
1763.000000	99.262123 
1762.000000	99.259664 
1761.000000	99.257301 
1760.000000	99.256782 
1759.000000	99.258395 
1758.000000	99.262619 
1757.000000	99.270126 
1756.000000	99.278993 
1755.000000	99.284459 
1754.000000	99.284247 
1753.000000	99.281405 
1752.000000	99.280706 
1751.000000	99.281456 
1750.000000	99.279069 
1749.000000	99.273337 
1748.000000	99.269194 
1747.000000	99.269979 
1746.000000	99.274265 
1745.000000	99.279544 
1744.000000	99.283628 
1743.000000	99.284395 
1742.000000	99.281321 
1741.000000	99.276396 
1740.000000	99.272742 
1739.000000	99.272660 
1738.000000	99.275349 
1737.000000	99.277428 
1736.000000	99.277085 
1735.000000	99.277369 
1734.000000	99.278702 
1733.000000	99.278757 
1732.000000	99.278634 
1731.000000	99.278214 
1730.000000	99.276949 
1729.000000	99.275867 
1728.000000	99.275841 
1727.000000	99.276811 
1726.000000	99.278438 
1725.000000	99.281308 
1724.000000	99.284748 
1723.000000	99.287276 
1722.000000	99.288082 
1721.000000	99.286809 
1720.000000	99.284237 
1719.000000	99.283622 
1718.000000	99.286889 
1717.000000	99.288128 
1716.000000	99.282728 
1715.000000	99.276252 
1714.000000	99.274461 
1713.000000	99.276043 
1712.000000	99.277247 
1711.000000	99.277975 
1710.000000	99.280395 
1709.000000	99.284212 
1708.000000	99.287082 
1707.000000	99.288348 
1706.000000	99.289129 
1705.000000	99.287383 
1704.000000	99.280866 
1703.000000	99.271690 
1702.000000	99.265482 
1701.000000	99.266927 
1700.000000	99.268713 
1699.000000	99.266443 
1698.000000	99.265981 
1697.000000	99.266470 
1696.000000	99.264403 
1695.000000	99.261081 
1694.000000	99.260282 
1693.000000	99.261470 
1692.000000	99.261407 
1691.000000	99.261042 
1690.000000	99.262467 
1689.000000	99.265415 
1688.000000	99.268221 
1687.000000	99.269380 
1686.000000	99.270535 
1685.000000	99.274338 
1684.000000	99.275916 
1683.000000	99.273460 
1682.000000	99.270875 
1681.000000	99.267639 
1680.000000	99.264604 
1679.000000	99.263088 
1678.000000	99.261425 
1677.000000	99.259023 
1676.000000	99.258698 
1675.000000	99.261992 
1674.000000	99.266373 
1673.000000	99.270275 
1672.000000	99.273066 
1671.000000	99.274397 
1670.000000	99.272082 
1669.000000	99.265020 
1668.000000	99.258700 
1667.000000	99.256754 
1666.000000	99.256740 
1665.000000	99.256152 
1664.000000	99.255783 
1663.000000	99.257676 
1662.000000	99.260358 
1661.000000	99.261824 
1660.000000	99.263375 
1659.000000	99.266243 
1658.000000	99.268882 
1657.000000	99.268083 
1656.000000	99.262939 
1655.000000	99.255720 
1654.000000	99.253910 
1653.000000	99.254657 
1652.000000	99.255156 
1651.000000	99.261065 
1650.000000	99.267078 
1649.000000	99.269120 
1648.000000	99.269064 
1647.000000	99.265811 
1646.000000	99.260323 
1645.000000	99.258695 
1644.000000	99.263525 
1643.000000	99.271246 
1642.000000	99.276975 
1641.000000	99.277864 
1640.000000	99.274526 
1639.000000	99.269605 
1638.000000	99.265967 
1637.000000	99.266781 
1636.000000	99.272496 
1635.000000	99.277799 
1634.000000	99.279466 
1633.000000	99.277480 
1632.000000	99.271674 
1631.000000	99.264278 
1630.000000	99.258369 
1629.000000	99.255796 
1628.000000	99.257047 
1627.000000	99.260961 
1626.000000	99.264623 
1625.000000	99.265861 
1624.000000	99.265267 
1623.000000	99.264488 
1622.000000	99.264270 
1621.000000	99.265184 
1620.000000	99.267672 
1619.000000	99.271252 
1618.000000	99.274955 
1617.000000	99.276457 
1616.000000	99.276254 
1615.000000	99.277939 
1614.000000	99.281283 
1613.000000	99.284264 
1612.000000	99.287964 
1611.000000	99.293003 
1610.000000	99.295592 
1609.000000	99.292779 
1608.000000	99.288149 
1607.000000	99.286886 
1606.000000	99.288324 
1605.000000	99.289121 
1604.000000	99.288957 
1603.000000	99.289140 
1602.000000	99.289919 
1601.000000	99.291120 
1600.000000	99.293298 
1599.000000	99.296261 
1598.000000	99.298497 
1597.000000	99.299298 
1596.000000	99.299436 
1595.000000	99.299204 
1594.000000	99.297665 
1593.000000	99.295377 
1592.000000	99.295349 
1591.000000	99.299176 
1590.000000	99.304186 
1589.000000	99.307038 
1588.000000	99.308257 
1587.000000	99.310496 
1586.000000	99.313904 
1585.000000	99.316392 
1584.000000	99.317877 
1583.000000	99.319037 
1582.000000	99.318583 
1581.000000	99.315635 
1580.000000	99.311642 
1579.000000	99.307292 
1578.000000	99.301471 
1577.000000	99.294568 
1576.000000	99.289606 
1575.000000	99.289734 
1574.000000	99.293493 
1573.000000	99.297225 
1572.000000	99.300517 
1571.000000	99.305736 
1570.000000	99.311407 
1569.000000	99.313360 
1568.000000	99.312994 
1567.000000	99.312402 
1566.000000	99.310739 
1565.000000	99.308077 
1564.000000	99.306595 
1563.000000	99.305088 
1562.000000	99.301055 
1561.000000	99.293758 
1560.000000	99.292849 
1559.000000	99.294282 
1558.000000	99.289355 
1557.000000	99.289149 
1556.000000	99.294537 
1555.000000	99.298997 
1554.000000	99.300593 
1553.000000	99.299940 
1552.000000	99.299042 
1551.000000	99.298459 
1550.000000	99.299435 
1549.000000	99.302362 
1548.000000	99.305784 
1547.000000	99.306545 
1546.000000	99.301735 
1545.000000	99.291975 
1544.000000	99.282582 
1543.000000	99.280286 
1542.000000	99.287918 
1541.000000	99.300503 
1540.000000	99.305711 
1539.000000	99.301635 
1538.000000	99.298418 
1537.000000	99.298542 
1536.000000	99.298787 
1535.000000	99.299155 
1534.000000	99.298705 
1533.000000	99.294801 
1532.000000	99.289442 
1531.000000	99.287475 
1530.000000	99.289106 
1529.000000	99.290401 
1528.000000	99.288585 
1527.000000	99.285923 
1526.000000	99.286458 
1525.000000	99.290197 
1524.000000	99.294045 
1523.000000	99.297368 
1522.000000	99.301131 
1521.000000	99.301924 
1520.000000	99.297007 
1519.000000	99.288451 
1518.000000	99.279173 
1517.000000	99.272185 
1516.000000	99.269086 
1515.000000	99.269134 
1514.000000	99.270677 
1513.000000	99.272866 
1512.000000	99.274809 
1511.000000	99.274779 
1510.000000	99.272611 
1509.000000	99.269679 
1508.000000	99.269465 
1507.000000	99.271546 
1506.000000	99.271878 
1505.000000	99.270647 
1504.000000	99.269743 
1503.000000	99.269049 
1502.000000	99.269047 
1501.000000	99.269120 
1500.000000	99.266399 
1499.000000	99.259101 
1498.000000	99.250482 
1497.000000	99.245223 
1496.000000	99.243453 
1495.000000	99.244889 
1494.000000	99.250187 
1493.000000	99.257684 
1492.000000	99.264504 
1491.000000	99.268736 
1490.000000	99.269112 
1489.000000	99.264702 
1488.000000	99.256193 
1487.000000	99.247464 
1486.000000	99.241153 
1485.000000	99.235405 
1484.000000	99.229169 
1483.000000	99.224140 
1482.000000	99.222699 
1481.000000	99.224276 
1480.000000	99.225875 
1479.000000	99.226329 
1478.000000	99.226535 
1477.000000	99.225993 
1476.000000	99.222963 
1475.000000	99.219445 
1474.000000	99.219793 
1473.000000	99.223927 
1472.000000	99.226665 
1471.000000	99.226734 
1470.000000	99.226868 
1469.000000	99.226604 
1468.000000	99.223787 
1467.000000	99.219000 
1466.000000	99.215318 
1465.000000	99.214538 
1464.000000	99.215621 
1463.000000	99.216923 
1462.000000	99.217978 
1461.000000	99.217956 
1460.000000	99.215479 
1459.000000	99.208849 
1458.000000	99.197004 
1457.000000	99.180084 
1456.000000	99.163941 
1455.000000	99.155313 
1454.000000	99.153302 
1453.000000	99.155548 
1452.000000	99.161080 
1451.000000	99.167719 
1450.000000	99.173107 
1449.000000	99.175935 
1448.000000	99.175991 
1447.000000	99.175287 
1446.000000	99.176009 
1445.000000	99.178584 
1444.000000	99.181661 
1443.000000	99.183822 
1442.000000	99.185662 
1441.000000	99.187908 
1440.000000	99.189108 
1439.000000	99.187082 
1438.000000	99.183916 
1437.000000	99.183609 
1436.000000	99.185202 
1435.000000	99.184998 
1434.000000	99.182559 
1433.000000	99.179256 
1432.000000	99.176305 
1431.000000	99.173669 
1430.000000	99.170946 
1429.000000	99.168326 
1428.000000	99.165224 
1427.000000	99.161251 
1426.000000	99.156739 
1425.000000	99.153380 
1424.000000	99.151274 
1423.000000	99.146718 
1422.000000	99.136705 
1421.000000	99.121697 
1420.000000	99.104487 
1419.000000	99.087883 
1418.000000	99.075702 
1417.000000	99.068961 
1416.000000	99.062179 
1415.000000	99.050301 
1414.000000	99.033860 
1413.000000	99.017077 
1412.000000	99.002974 
1411.000000	98.990860 
1410.000000	98.979412 
1409.000000	98.968894 
1408.000000	98.959966 
1407.000000	98.953732 
1406.000000	98.951650 
1405.000000	98.955549 
1404.000000	98.966210 
1403.000000	98.981872 
1402.000000	99.000160 
1401.000000	99.019266 
1400.000000	99.036403 
1399.000000	99.046065 
1398.000000	99.042422 
1397.000000	99.021608 
1396.000000	98.984055 
1395.000000	98.942797 
1394.000000	98.922797 
1393.000000	98.939007 
1392.000000	98.980365 
1391.000000	99.023063 
1390.000000	99.050695 
1389.000000	99.060505 
1388.000000	99.057735 
1387.000000	99.048441 
1386.000000	99.037719 
1385.000000	99.029734 
1384.000000	99.025800 
1383.000000	99.023761 
1382.000000	99.021357 
1381.000000	99.019467 
1380.000000	99.021514 
1379.000000	99.029465 
1378.000000	99.041462 
1377.000000	99.053981 
1376.000000	99.065077 
1375.000000	99.074857 
1374.000000	99.084403 
1373.000000	99.095431 
1372.000000	99.108612 
1371.000000	99.122179 
1370.000000	99.133025 
1369.000000	99.139984 
1368.000000	99.144956 
1367.000000	99.150408 
1366.000000	99.157458 
1365.000000	99.166198 
1364.000000	99.176184 
1363.000000	99.185787 
1362.000000	99.192760 
1361.000000	99.196619 
1360.000000	99.199296 
1359.000000	99.203413 
1358.000000	99.210467 
1357.000000	99.219877 
1356.000000	99.229107 
1355.000000	99.235554 
1354.000000	99.239119 
1353.000000	99.241829 
1352.000000	99.244694 
1351.000000	99.247058 
1350.000000	99.248313 
1349.000000	99.249717 
1348.000000	99.252577 
1347.000000	99.255677 
1346.000000	99.257090 
1345.000000	99.257259 
1344.000000	99.257980 
1343.000000	99.259132 
1342.000000	99.259083 
1341.000000	99.258030 
1340.000000	99.258312 
1339.000000	99.260817 
1338.000000	99.263842 
1337.000000	99.266267 
1336.000000	99.268762 
1335.000000	99.271322 
1334.000000	99.272320 
1333.000000	99.270977 
1332.000000	99.268973 
1331.000000	99.268402 
1330.000000	99.269300 
1329.000000	99.270346 
1328.000000	99.270774 
1327.000000	99.270559 
1326.000000	99.269703 
1325.000000	99.268848 
1324.000000	99.269264 
1323.000000	99.271107 
1322.000000	99.272898 
1321.000000	99.273481 
1320.000000	99.273641 
1319.000000	99.274852 
1318.000000	99.277065 
1317.000000	99.278491 
1316.000000	99.277425 
1315.000000	99.273795 
1314.000000	99.269198 
1313.000000	99.265523 
1312.000000	99.263290 
1311.000000	99.261531 
1310.000000	99.259593 
1309.000000	99.258400 
1308.000000	99.259119 
1307.000000	99.261190 
1306.000000	99.262641 
1305.000000	99.262687 
1304.000000	99.262579 
1303.000000	99.263517 
1302.000000	99.264884 
1301.000000	99.265093 
1300.000000	99.263651 
1299.000000	99.261908 
1298.000000	99.262001 
1297.000000	99.264901 
1296.000000	99.269148 
1295.000000	99.271568 
1294.000000	99.269792 
1293.000000	99.264117 
1292.000000	99.256683 
1291.000000	99.249518 
1290.000000	99.243953 
1289.000000	99.241058 
1288.000000	99.241132 
1287.000000	99.242648 
1286.000000	99.243018 
1285.000000	99.240907 
1284.000000	99.236979 
1283.000000	99.232202 
1282.000000	99.226475 
1281.000000	99.219432 
1280.000000	99.211861 
1279.000000	99.205386 
1278.000000	99.200994 
1277.000000	99.198417 
1276.000000	99.196704 
1275.000000	99.194743 
1274.000000	99.191393 
1273.000000	99.185915 
1272.000000	99.178583 
1271.000000	99.170547 
1270.000000	99.162745 
1269.000000	99.155080 
1268.000000	99.146859 
1267.000000	99.137763 
1266.000000	99.128077 
1265.000000	99.118030 
1264.000000	99.107383 
1263.000000	99.095981 
1262.000000	99.084326 
1261.000000	99.073322 
1260.000000	99.063789 
1259.000000	99.056261 
1258.000000	99.050783 
1257.000000	99.046565 
1256.000000	99.042369 
1255.000000	99.037804 
1254.000000	99.033717 
1253.000000	99.030709 
1252.000000	99.028035 
1251.000000	99.025066 
1250.000000	99.023195 
1249.000000	99.024821 
1248.000000	99.030449 
1247.000000	99.037724 
1246.000000	99.042721 
1245.000000	99.040934 
1244.000000	99.028814 
1243.000000	99.008378 
1242.000000	98.990342 
1241.000000	98.987657 
1240.000000	99.002855 
1239.000000	99.024099 
1238.000000	99.036380 
1237.000000	99.034980 
1236.000000	99.025731 
1235.000000	99.015157 
1234.000000	99.004793 
1233.000000	98.993797 
1232.000000	98.982097 
1231.000000	98.969914 
1230.000000	98.957760 
1229.000000	98.948242 
1228.000000	98.945064 
1227.000000	98.948536 
1226.000000	98.954048 
1225.000000	98.956603 
1224.000000	98.955360 
1223.000000	98.952530 
1222.000000	98.949659 
1221.000000	98.946865 
1220.000000	98.944507 
1219.000000	98.943383 
1218.000000	98.943267 
1217.000000	98.942575 
1216.000000	98.939645 
1215.000000	98.933717 
1214.000000	98.924767 
1213.000000	98.913090 
1212.000000	98.899337 
1211.000000	98.884900 
1210.000000	98.871874 
1209.000000	98.861894 
1208.000000	98.854507 
1207.000000	98.847161 
1206.000000	98.837639 
1205.000000	98.826273 
1204.000000	98.814939 
1203.000000	98.804195 
1202.000000	98.792655 
1201.000000	98.779226 
1200.000000	98.764767 
1199.000000	98.751056 
1198.000000	98.738956 
1197.000000	98.727767 
1196.000000	98.715535 
1195.000000	98.699994 
1194.000000	98.680436 
1193.000000	98.659055 
1192.000000	98.639353 
1191.000000	98.622716 
1190.000000	98.607420 
1189.000000	98.591347 
1188.000000	98.574460 
1187.000000	98.558030 
1186.000000	98.542715 
1185.000000	98.528307 
1184.000000	98.514283 
1183.000000	98.499565 
1182.000000	98.482677 
1181.000000	98.463368 
1180.000000	98.443383 
1179.000000	98.424530 
1178.000000	98.406680 
1177.000000	98.388807 
1176.000000	98.371102 
1175.000000	98.354325 
1174.000000	98.337346 
1173.000000	98.317293 
1172.000000	98.292733 
1171.000000	98.265709 
1170.000000	98.240084 
1169.000000	98.218355 
1168.000000	98.200254 
1167.000000	98.184047 
1166.000000	98.169223 
1165.000000	98.158195 
1164.000000	98.154905 
1163.000000	98.161270 
1162.000000	98.175333 
1161.000000	98.193077 
1160.000000	98.210807 
1159.000000	98.224909 
1158.000000	98.230793 
1157.000000	98.224240 
1156.000000	98.204257 
1155.000000	98.174483 
1154.000000	98.142210 
1153.000000	98.115416 
1152.000000	98.098299 
1151.000000	98.087807 
1150.000000	98.075754 
1149.000000	98.056595 
1148.000000	98.032713 
1147.000000	98.010576 
1146.000000	97.992655 
1145.000000	97.975348 
1144.000000	97.954314 
1143.000000	97.929094 
1142.000000	97.902193 
1141.000000	97.876256 
1140.000000	97.853204 
1139.000000	97.833862 
1138.000000	97.816614 
1137.000000	97.797700 
1136.000000	97.774565 
1135.000000	97.748543 
1134.000000	97.723154 
1133.000000	97.700056 
1132.000000	97.677671 
1131.000000	97.653804 
1130.000000	97.628835 
1129.000000	97.605428 
1128.000000	97.584545 
1127.000000	97.562357 
1126.000000	97.532986 
1125.000000	97.495406 
1124.000000	97.456189 
1123.000000	97.423537 
1122.000000	97.399110 
1121.000000	97.377429 
1120.000000	97.352758 
1119.000000	97.324325 
1118.000000	97.294872 
1117.000000	97.266596 
1116.000000	97.239570 
1115.000000	97.212765 
1114.000000	97.185596 
1113.000000	97.158932 
1112.000000	97.134339 
1111.000000	97.111314 
1110.000000	97.085986 
1109.000000	97.054638 
1108.000000	97.018550 
1107.000000	96.983599 
1106.000000	96.954589 
1105.000000	96.931283 
1104.000000	96.910163 
1103.000000	96.888439 
1102.000000	96.865967 
1101.000000	96.844897 
1100.000000	96.827706 
1099.000000	96.815006 
1098.000000	96.804758 
1097.000000	96.794439 
1096.000000	96.783248 
1095.000000	96.770692 
1094.000000	96.754004 
1093.000000	96.729007 
1092.000000	96.693597 
1091.000000	96.649311 
1090.000000	96.600275 
1089.000000	96.551901 
1088.000000	96.509241 
1087.000000	96.473961 
1086.000000	96.443071 
1085.000000	96.412597 
1084.000000	96.381813 
1083.000000	96.351765 
1082.000000	96.321050 
1081.000000	96.286492 
1080.000000	96.247758 
1079.000000	96.208258 
1078.000000	96.171640 
1077.000000	96.140199 
1076.000000	96.116246 
1075.000000	96.101451 
1074.000000	96.094437 
1073.000000	96.091408 
1072.000000	96.087665 
1071.000000	96.074787 
1070.000000	96.039125 
1069.000000	95.971497 
1068.000000	95.881506 
1067.000000	95.797021 
1066.000000	95.744009 
1065.000000	95.727186 
1064.000000	95.730980 
1063.000000	95.734282 
1062.000000	95.721082 
1061.000000	95.682838 
1060.000000	95.619784 
1059.000000	95.542872 
1058.000000	95.469993 
1057.000000	95.415125 
1056.000000	95.379430 
1055.000000	95.352714 
1054.000000	95.323535 
1053.000000	95.288425 
1052.000000	95.251950 
1051.000000	95.218889 
1050.000000	95.188302 
1049.000000	95.155921 
1048.000000	95.119840 
1047.000000	95.082005 
1046.000000	95.046071 
1045.000000	95.015386 
1044.000000	94.990919 
1043.000000	94.969400 
1042.000000	94.945620 
1041.000000	94.918502 
1040.000000	94.893066 
1039.000000	94.875221 
1038.000000	94.867359 
1037.000000	94.870258 
1036.000000	94.884817 
1035.000000	94.908737 
1034.000000	94.935294 
1033.000000	94.958588 
1032.000000	94.976002 
1031.000000	94.983185 
1030.000000	94.974159 
1029.000000	94.953206 
1028.000000	94.940578 
1027.000000	94.955953 
1026.000000	94.996844 
1025.000000	95.041230 
1024.000000	95.070832 
1023.000000	95.084509 
1022.000000	95.090426 
1021.000000	95.094516 
1020.000000	95.098965 
1019.000000	95.104763 
1018.000000	95.111657 
1017.000000	95.119147 
1016.000000	95.129202 
1015.000000	95.144386 
1014.000000	95.162626 
1013.000000	95.178049 
1012.000000	95.187894 
1011.000000	95.194921 
1010.000000	95.202821 
1009.000000	95.213492 
1008.000000	95.229117 
1007.000000	95.251937 
1006.000000	95.280346 
1005.000000	95.309120 
1004.000000	95.335058 
1003.000000	95.359488 
1002.000000	95.384695 
1001.000000	95.411231 
1000.000000	95.439113 
999.000000	 95.468050 
998.000000	 95.495814 
997.000000	 95.520052 
996.000000	 95.542656 
995.000000	 95.568975 
994.000000	 95.601412 
993.000000	 95.636644 
992.000000	 95.670097 
991.000000	 95.700302 
990.000000	 95.727914 
989.000000	 95.753448 
988.000000	 95.777863 
987.000000	 95.803631 
986.000000	 95.833607 
985.000000	 95.869264 
984.000000	 95.910101 
983.000000	 95.953864 
982.000000	 95.997837 
981.000000	 96.041051 
980.000000	 96.084642 
979.000000	 96.129384 
978.000000	 96.174696 
977.000000	 96.221216 
976.000000	 96.271560 
975.000000	 96.325939 
974.000000	 96.379571 
973.000000	 96.428007 
972.000000	 96.473274 
971.000000	 96.521057 
970.000000	 96.573040 
969.000000	 96.625746 
968.000000	 96.676072 
967.000000	 96.724047 
966.000000	 96.770238 
965.000000	 96.813968 
964.000000	 96.854674 
963.000000	 96.892644 
962.000000	 96.928343 
961.000000	 96.962932 
960.000000	 96.998714 
959.000000	 97.036527 
958.000000	 97.073205 
957.000000	 97.104297 
956.000000	 97.129128 
955.000000	 97.151022 
954.000000	 97.173122 
953.000000	 97.196407 
952.000000	 97.221172 
951.000000	 97.247361 
950.000000	 97.272977 
949.000000	 97.294545 
948.000000	 97.309827 
947.000000	 97.319010 
946.000000	 97.323707 
945.000000	 97.326325 
944.000000	 97.329888 
943.000000	 97.336792 
942.000000	 97.347750 
941.000000	 97.362433 
940.000000	 97.379421 
939.000000	 97.394469 
938.000000	 97.401929 
937.000000	 97.401160 
936.000000	 97.399661 
935.000000	 97.406193 
934.000000	 97.421562 
933.000000	 97.439353 
932.000000	 97.454737 
931.000000	 97.468728 
930.000000	 97.483864 
929.000000	 97.499227 
928.000000	 97.510722 
927.000000	 97.514607 
926.000000	 97.511026 
925.000000	 97.505569 
924.000000	 97.506027 
923.000000	 97.515134 
922.000000	 97.527380 
921.000000	 97.535238 
920.000000	 97.537030 
919.000000	 97.536097 
918.000000	 97.534550 
917.000000	 97.531972 
916.000000	 97.528879 
915.000000	 97.526706 
914.000000	 97.524641 
913.000000	 97.520995 
912.000000	 97.518129 
911.000000	 97.521849 
910.000000	 97.535059 
909.000000	 97.555438 
908.000000	 97.579738 
907.000000	 97.606529 
906.000000	 97.634089 
905.000000	 97.659629 
904.000000	 97.682322 
903.000000	 97.704738 
902.000000	 97.730322 
901.000000	 97.760893 
900.000000	 97.795865 
899.000000	 97.831420 
898.000000	 97.861212 
897.000000	 97.881098 
896.000000	 97.892811 
895.000000	 97.900793 
894.000000	 97.907221 
893.000000	 97.913558 
892.000000	 97.924833 
891.000000	 97.946802 
890.000000	 97.978726 
889.000000	 98.013539 
888.000000	 98.045154 
887.000000	 98.071301 
886.000000	 98.090053 
885.000000	 98.099645 
884.000000	 98.102605 
883.000000	 98.104489 
882.000000	 98.106913 
881.000000	 98.107211 
880.000000	 98.106797 
879.000000	 98.113675 
878.000000	 98.132889 
877.000000	 98.159361 
876.000000	 98.184024 
875.000000	 98.202821 
874.000000	 98.216527 
873.000000	 98.226513 
872.000000	 98.234889 
871.000000	 98.245211 
870.000000	 98.259057 
869.000000	 98.274738 
868.000000	 98.291969 
867.000000	 98.313558 
866.000000	 98.339336 
865.000000	 98.363510 
864.000000	 98.383124 
863.000000	 98.404527 
862.000000	 98.434302 
861.000000	 98.466276 
860.000000	 98.485862 
859.000000	 98.487761 
858.000000	 98.482180 
857.000000	 98.481737 
856.000000	 98.489204 
855.000000	 98.501294 
854.000000	 98.517026 
853.000000	 98.535617 
852.000000	 98.550567 
851.000000	 98.554505 
850.000000	 98.550118 
849.000000	 98.549443 
848.000000	 98.560099 
847.000000	 98.576860 
846.000000	 98.589057 
845.000000	 98.592259 
844.000000	 98.589589 
843.000000	 98.585331 
842.000000	 98.581793 
841.000000	 98.580306 
840.000000	 98.580263 
839.000000	 98.577475 
838.000000	 98.568127 
837.000000	 98.555043 
836.000000	 98.545852 
835.000000	 98.543597 
834.000000	 98.543176 
833.000000	 98.539468 
832.000000	 98.534894 
831.000000	 98.534756 
830.000000	 98.537931 
829.000000	 98.537976 
828.000000	 98.533279 
827.000000	 98.530416 
826.000000	 98.535000 
825.000000	 98.543139 
824.000000	 98.545629 
823.000000	 98.539059 
822.000000	 98.529904 
821.000000	 98.527932 
820.000000	 98.537168 
819.000000	 98.552866 
818.000000	 98.566091 
817.000000	 98.571200 
816.000000	 98.568633 
815.000000	 98.560559 
814.000000	 98.545941 
813.000000	 98.521850 
812.000000	 98.487970 
811.000000	 98.446003 
810.000000	 98.394219 
809.000000	 98.326272 
808.000000	 98.237778 
807.000000	 98.132312 
806.000000	 98.018834 
805.000000	 97.904726 
804.000000	 97.794235 
803.000000	 97.692821 
802.000000	 97.609112 
801.000000	 97.550599 
800.000000	 97.518242 
799.000000	 97.506385 
798.000000	 97.508347 
797.000000	 97.521587 
796.000000	 97.545897 
795.000000	 97.577240 
794.000000	 97.607379 
793.000000	 97.631546 
792.000000	 97.652903 
791.000000	 97.676175 
790.000000	 97.699369 
789.000000	 97.714990 
788.000000	 97.716884 
787.000000	 97.702325 
786.000000	 97.670289 
785.000000	 97.623185 
784.000000	 97.569767 
783.000000	 97.521331 
782.000000	 97.483793 
781.000000	 97.456282 
780.000000	 97.436932 
779.000000	 97.426123 
778.000000	 97.424505 
777.000000	 97.432399 
776.000000	 97.451469 
775.000000	 97.482576 
774.000000	 97.521477 
773.000000	 97.560953 
772.000000	 97.597988 
771.000000	 97.635094 
770.000000	 97.673910 
769.000000	 97.711004 
768.000000	 97.740850 
767.000000	 97.760254 
766.000000	 97.769909 
765.000000	 97.774798 
764.000000	 97.782713 
763.000000	 97.798079 
762.000000	 97.816175 
761.000000	 97.827111 
760.000000	 97.827024 
759.000000	 97.822632 
758.000000	 97.823823 
757.000000	 97.834098 
756.000000	 97.848615 
755.000000	 97.858755 
754.000000	 97.858615 
753.000000	 97.850618 
752.000000	 97.845590 
751.000000	 97.854289 
750.000000	 97.877206 
749.000000	 97.904222 
748.000000	 97.924547 
747.000000	 97.935300 
746.000000	 97.941434 
745.000000	 97.950287 
744.000000	 97.966009 
743.000000	 97.986626 
742.000000	 98.006796 
741.000000	 98.025427 
740.000000	 98.048428 
739.000000	 98.080118 
738.000000	 98.113720 
737.000000	 98.135496 
736.000000	 98.138011 
735.000000	 98.125592 
734.000000	 98.108299 
733.000000	 98.095769 
732.000000	 98.095758 
731.000000	 98.110914 
730.000000	 98.134372 
729.000000	 98.154181 
728.000000	 98.164907 
727.000000	 98.170681 
726.000000	 98.175613 
725.000000	 98.177114 
724.000000	 98.171578 
723.000000	 98.161776 
722.000000	 98.155093 
721.000000	 98.157695 
720.000000	 98.172364 
719.000000	 98.197576 
718.000000	 98.225790 
717.000000	 98.246435 
716.000000	 98.253631 
715.000000	 98.249544 
714.000000	 98.239980 
713.000000	 98.230335 
712.000000	 98.226601 
711.000000	 98.234160 
710.000000	 98.251240 
709.000000	 98.267209 
708.000000	 98.271252 
707.000000	 98.260547 
706.000000	 98.237821 
705.000000	 98.205716 
704.000000	 98.168300 
703.000000	 98.133865 
702.000000	 98.109267 
701.000000	 98.091298 
700.000000	 98.067772 
699.000000	 98.028676 
698.000000	 97.975643 
697.000000	 97.921407 
696.000000	 97.880908 
695.000000	 97.861401 
694.000000	 97.860335 
693.000000	 97.872554 
692.000000	 97.896510 
691.000000	 97.930829 
690.000000	 97.968350 
689.000000	 98.000069 
688.000000	 98.023896 
687.000000	 98.042486 
686.000000	 98.053551 
685.000000	 98.051689 
684.000000	 98.040786 
683.000000	 98.035136 
682.000000	 98.045099 
681.000000	 98.068048 
680.000000	 98.094334 
679.000000	 98.114892 
678.000000	 98.122268 
677.000000	 98.114450 
676.000000	 98.103144 
675.000000	 98.106341 
674.000000	 98.125908 
673.000000	 98.142677 
672.000000	 98.141247 
671.000000	 98.131622 
670.000000	 98.140404 
669.000000	 98.187003 
668.000000	 98.249305 
667.000000	 98.270496 
666.000000	 98.238981 
665.000000	 98.185479 
664.000000	 98.143813 
663.000000	 98.142946 
662.000000	 98.184293 
661.000000	 98.229365 
660.000000	 98.236080 
659.000000	 98.200837 
658.000000	 98.153912 
657.000000	 98.121953 
656.000000	 98.110296 
655.000000	 98.113713 
654.000000	 98.123536 
653.000000	 98.128258 
652.000000	 98.123586 
651.000000	 98.119759 
650.000000	 98.127102 

