4000.000000	99.746806 
3999.000000	99.746157 
3998.000000	99.747728 
3997.000000	99.750920 
3996.000000	99.752774 
3995.000000	99.751311 
3994.000000	99.748005 
3993.000000	99.746474 
3992.000000	99.748563 
3991.000000	99.751979 
3990.000000	99.752220 
3989.000000	99.746758 
3988.000000	99.737295 
3987.000000	99.728275 
3986.000000	99.723642 
3985.000000	99.724777 
3984.000000	99.730469 
3983.000000	99.738273 
3982.000000	99.746106 
3981.000000	99.753059 
3980.000000	99.759077 
3979.000000	99.764066 
3978.000000	99.767535 
3977.000000	99.768897 
3976.000000	99.767737 
3975.000000	99.763765 
3974.000000	99.757070 
3973.000000	99.748931 
3972.000000	99.742169 
3971.000000	99.739950 
3970.000000	99.743597 
3969.000000	99.751204 
3968.000000	99.758462 
3967.000000	99.761293 
3966.000000	99.758473 
3965.000000	99.752504 
3964.000000	99.747924 
3963.000000	99.748142 
3962.000000	99.752918 
3961.000000	99.758566 
3960.000000	99.760833 
3959.000000	99.758077 
3958.000000	99.752286 
3957.000000	99.747253 
3956.000000	99.745598 
3955.000000	99.746998 
3954.000000	99.748884 
3953.000000	99.748757 
3952.000000	99.745997 
3951.000000	99.741998 
3950.000000	99.738844 
3949.000000	99.737681 
3948.000000	99.738051 
3947.000000	99.738715 
3946.000000	99.739029 
3945.000000	99.739284 
3944.000000	99.739750 
3943.000000	99.739953 
3942.000000	99.739324 
3941.000000	99.738230 
3940.000000	99.737616 
3939.000000	99.737637 
3938.000000	99.737236 
3937.000000	99.735381 
3936.000000	99.732416 
3935.000000	99.729921 
3934.000000	99.729368 
3933.000000	99.731233 
3932.000000	99.735065 
3931.000000	99.739802 
3930.000000	99.743867 
3929.000000	99.745361 
3928.000000	99.742970 
3927.000000	99.737114 
3926.000000	99.730259 
3925.000000	99.725799 
3924.000000	99.725744 
3923.000000	99.729142 
3922.000000	99.732858 
3921.000000	99.734257 
3920.000000	99.733421 
3919.000000	99.732655 
3918.000000	99.733551 
3917.000000	99.735020 
3916.000000	99.734991 
3915.000000	99.733605 
3914.000000	99.733275 
3913.000000	99.735575 
3912.000000	99.739058 
3911.000000	99.740625 
3910.000000	99.738847 
3909.000000	99.735639 
3908.000000	99.734315 
3907.000000	99.736469 
3906.000000	99.740305 
3905.000000	99.741928 
3904.000000	99.738822 
3903.000000	99.732608 
3902.000000	99.728056 
3901.000000	99.728814 
3900.000000	99.734113 
3899.000000	99.739421 
3898.000000	99.740213 
3897.000000	99.735191 
3896.000000	99.726482 
3895.000000	99.718140 
3894.000000	99.714695 
3893.000000	99.718727 
3892.000000	99.727704 
3891.000000	99.735106 
3890.000000	99.737143 
3889.000000	99.736384 
3888.000000	99.737339 
3887.000000	99.740799 
3886.000000	99.743114 
3885.000000	99.740678 
3884.000000	99.735145 
3883.000000	99.731578 
3882.000000	99.732156 
3881.000000	99.734594 
3880.000000	99.735527 
3879.000000	99.734415 
3878.000000	99.734209 
3877.000000	99.737486 
3876.000000	99.742673 
3875.000000	99.745224 
3874.000000	99.742718 
3873.000000	99.737987 
3872.000000	99.735721 
3871.000000	99.736570 
3870.000000	99.736451 
3869.000000	99.732486 
3868.000000	99.727804 
3867.000000	99.727515 
3866.000000	99.732295 
3865.000000	99.739120 
3864.000000	99.745755 
3863.000000	99.751853 
3862.000000	99.756295 
3861.000000	99.755716 
3860.000000	99.747618 
3859.000000	99.733719 
3858.000000	99.718678 
3857.000000	99.707167 
3856.000000	99.702230 
3855.000000	99.704686 
3854.000000	99.710627 
3853.000000	99.713167 
3852.000000	99.713717 
3851.000000	99.719981 
3850.000000	99.731844 
3849.000000	99.742480 
3848.000000	99.747281 
3847.000000	99.746827 
3846.000000	99.744502 
3845.000000	99.743376 
3844.000000	99.744527 
3843.000000	99.746985 
3842.000000	99.749068 
3841.000000	99.750103 
3840.000000	99.750872 
3839.000000	99.752217 
3838.000000	99.753088 
3837.000000	99.751404 
3836.000000	99.746819 
3835.000000	99.741422 
3834.000000	99.737578 
3833.000000	99.736397 
3832.000000	99.737863 
3831.000000	99.741188 
3830.000000	99.745440 
3829.000000	99.749747 
3828.000000	99.752608 
3827.000000	99.752067 
3826.000000	99.747533 
3825.000000	99.741174 
3824.000000	99.736854 
3823.000000	99.737323 
3822.000000	99.741352 
3821.000000	99.744014 
3820.000000	99.743023 
3819.000000	99.742100 
3818.000000	99.744458 
3817.000000	99.748255 
3816.000000	99.748865 
3815.000000	99.743939 
3814.000000	99.736784 
3813.000000	99.731670 
3812.000000	99.727713 
3811.000000	99.721403 
3810.000000	99.712762 
3809.000000	99.706192 
3808.000000	99.705515 
3807.000000	99.709110 
3806.000000	99.712389 
3805.000000	99.714701 
3804.000000	99.719086 
3803.000000	99.726561 
3802.000000	99.733555 
3801.000000	99.734503 
3800.000000	99.729031 
3799.000000	99.723472 
3798.000000	99.722376 
3797.000000	99.724361 
3796.000000	99.726029 
3795.000000	99.726248 
3794.000000	99.726660 
3793.000000	99.728812 
3792.000000	99.732039 
3791.000000	99.734331 
3790.000000	99.734493 
3789.000000	99.733103 
3788.000000	99.732109 
3787.000000	99.733892 
3786.000000	99.739838 
3785.000000	99.748924 
3784.000000	99.758119 
3783.000000	99.764578 
3782.000000	99.767262 
3781.000000	99.766348 
3780.000000	99.761941 
3779.000000	99.754417 
3778.000000	99.745823 
3777.000000	99.739421 
3776.000000	99.737105 
3775.000000	99.737974 
3774.000000	99.739585 
3773.000000	99.740246 
3772.000000	99.739452 
3771.000000	99.736568 
3770.000000	99.730717 
3769.000000	99.723039 
3768.000000	99.717675 
3767.000000	99.718581 
3766.000000	99.725744 
3765.000000	99.735570 
3764.000000	99.744601 
3763.000000	99.751952 
3762.000000	99.757907 
3761.000000	99.761692 
3760.000000	99.761971 
3759.000000	99.758723 
3758.000000	99.753680 
3757.000000	99.748793 
3756.000000	99.744723 
3755.000000	99.741334 
3754.000000	99.738533 
3753.000000	99.736852 
3752.000000	99.737036 
3751.000000	99.737582 
3750.000000	99.734948 
3749.000000	99.728091 
3748.000000	99.720198 
3747.000000	99.715228 
3746.000000	99.713811 
3745.000000	99.712375 
3744.000000	99.706041 
3743.000000	99.697101 
3742.000000	99.695485 
3741.000000	99.703323 
3740.000000	99.711364 
3739.000000	99.712156 
3738.000000	99.706943 
3737.000000	99.702436 
3736.000000	99.704265 
3735.000000	99.713171 
3734.000000	99.725584 
3733.000000	99.735951 
3732.000000	99.739860 
3731.000000	99.736600 
3730.000000	99.729169 
3729.000000	99.721734 
3728.000000	99.717797 
3727.000000	99.720260 
3726.000000	99.730037 
3725.000000	99.744116 
3724.000000	99.756486 
3723.000000	99.761674 
3722.000000	99.758886 
3721.000000	99.752788 
3720.000000	99.749195 
3719.000000	99.749540 
3718.000000	99.749849 
3717.000000	99.745119 
3716.000000	99.733753 
3715.000000	99.718038 
3714.000000	99.701605 
3713.000000	99.687814 
3712.000000	99.679982 
3711.000000	99.680958 
3710.000000	99.690396 
3709.000000	99.702554 
3708.000000	99.709462 
3707.000000	99.706916 
3706.000000	99.696865 
3705.000000	99.685695 
3704.000000	99.680231 
3703.000000	99.683379 
3702.000000	99.691872 
3701.000000	99.699096 
3700.000000	99.701268 
3699.000000	99.699372 
3698.000000	99.696028 
3697.000000	99.692851 
3696.000000	99.690729 
3695.000000	99.690687 
3694.000000	99.692914 
3693.000000	99.695515 
3692.000000	99.696153 
3691.000000	99.695263 
3690.000000	99.695859 
3689.000000	99.698915 
3688.000000	99.701297 
3687.000000	99.700933 
3686.000000	99.700014 
3685.000000	99.700486 
3684.000000	99.700894 
3683.000000	99.699524 
3682.000000	99.696937 
3681.000000	99.694200 
3680.000000	99.690369 
3679.000000	99.683699 
3678.000000	99.675282 
3677.000000	99.669613 
3676.000000	99.668973 
3675.000000	99.668189 
3674.000000	99.662362 
3673.000000	99.654169 
3672.000000	99.648377 
3671.000000	99.646915 
3670.000000	99.647987 
3669.000000	99.647949 
3668.000000	99.646176 
3667.000000	99.644367 
3666.000000	99.642741 
3665.000000	99.640273 
3664.000000	99.636662 
3663.000000	99.632910 
3662.000000	99.630024 
3661.000000	99.627898 
3660.000000	99.625560 
3659.000000	99.621982 
3658.000000	99.616055 
3657.000000	99.606535 
3656.000000	99.593693 
3655.000000	99.581169 
3654.000000	99.574098 
3653.000000	99.573997 
3652.000000	99.577136 
3651.000000	99.577684 
3650.000000	99.572057 
3649.000000	99.562321 
3648.000000	99.554351 
3647.000000	99.550772 
3646.000000	99.550012 
3645.000000	99.550981 
3644.000000	99.553792 
3643.000000	99.557809 
3642.000000	99.561036 
3641.000000	99.561633 
3640.000000	99.559770 
3639.000000	99.557481 
3638.000000	99.556282 
3637.000000	99.555394 
3636.000000	99.552281 
3635.000000	99.544731 
3634.000000	99.533027 
3633.000000	99.520373 
3632.000000	99.511078 
3631.000000	99.507526 
3630.000000	99.507557 
3629.000000	99.504275 
3628.000000	99.494095 
3627.000000	99.484372 
3626.000000	99.484370 
3625.000000	99.494279 
3624.000000	99.506472 
3623.000000	99.512444 
3622.000000	99.508437 
3621.000000	99.497229 
3620.000000	99.486239 
3619.000000	99.482471 
3618.000000	99.487887 
3617.000000	99.499836 
3616.000000	99.514255 
3615.000000	99.527118 
3614.000000	99.534349 
3613.000000	99.533159 
3612.000000	99.524796 
3611.000000	99.515066 
3610.000000	99.511128 
3609.000000	99.516630 
3608.000000	99.528919 
3607.000000	99.541673 
3606.000000	99.550133 
3605.000000	99.553411 
3604.000000	99.553344 
3603.000000	99.552681 
3602.000000	99.553796 
3601.000000	99.558035 
3600.000000	99.565560 
3599.000000	99.575451 
3598.000000	99.585972 
3597.000000	99.594677 
3596.000000	99.598849 
3595.000000	99.597000 
3594.000000	99.590895 
3593.000000	99.585424 
3592.000000	99.585413 
3591.000000	99.591920 
3590.000000	99.600979 
3589.000000	99.605677 
3588.000000	99.601150 
3587.000000	99.589497 
3586.000000	99.578025 
3585.000000	99.571943 
3584.000000	99.571125 
3583.000000	99.572523 
3582.000000	99.573267 
3581.000000	99.572491 
3580.000000	99.571114 
3579.000000	99.570197 
3578.000000	99.569994 
3577.000000	99.570376 
3576.000000	99.571528 
3575.000000	99.573614 
3574.000000	99.575995 
3573.000000	99.577321 
3572.000000	99.576526 
3571.000000	99.573362 
3570.000000	99.567903 
3569.000000	99.560590 
3568.000000	99.553642 
3567.000000	99.551612 
3566.000000	99.557828 
3565.000000	99.569781 
3564.000000	99.580487 
3563.000000	99.584462 
3562.000000	99.581306 
3561.000000	99.574812 
3560.000000	99.569312 
3559.000000	99.566402 
3558.000000	99.564955 
3557.000000	99.563476 
3556.000000	99.561820 
3555.000000	99.561065 
3554.000000	99.562203 
3553.000000	99.564784 
3552.000000	99.566525 
3551.000000	99.564794 
3550.000000	99.558969 
3549.000000	99.551436 
3548.000000	99.546181 
3547.000000	99.546105 
3546.000000	99.551087 
3545.000000	99.558294 
3544.000000	99.564303 
3543.000000	99.567082 
3542.000000	99.566627 
3541.000000	99.564511 
3540.000000	99.562958 
3539.000000	99.563537 
3538.000000	99.565809 
3537.000000	99.567139 
3536.000000	99.564596 
3535.000000	99.557813 
3534.000000	99.549869 
3533.000000	99.544950 
3532.000000	99.544800 
3531.000000	99.547239 
3530.000000	99.548129 
3529.000000	99.545117 
3528.000000	99.539782 
3527.000000	99.536277 
3526.000000	99.537796 
3525.000000	99.544190 
3524.000000	99.552514 
3523.000000	99.559561 
3522.000000	99.563916 
3521.000000	99.565875 
3520.000000	99.566030 
3519.000000	99.564361 
3518.000000	99.560574 
3517.000000	99.554991 
3516.000000	99.549056 
3515.000000	99.544954 
3514.000000	99.544411 
3513.000000	99.547432 
3512.000000	99.552182 
3511.000000	99.556266 
3510.000000	99.558263 
3509.000000	99.558046 
3508.000000	99.556204 
3507.000000	99.553603 
3506.000000	99.550923 
3505.000000	99.547659 
3504.000000	99.542107 
3503.000000	99.533957 
3502.000000	99.526865 
3501.000000	99.526349 
3500.000000	99.534035 
3499.000000	99.545100 
3498.000000	99.552417 
3497.000000	99.553106 
3496.000000	99.550457 
3495.000000	99.549531 
3494.000000	99.552001 
3493.000000	99.555433 
3492.000000	99.556391 
3491.000000	99.553524 
3490.000000	99.548402 
3489.000000	99.544063 
3488.000000	99.542437 
3487.000000	99.542744 
3486.000000	99.542519 
3485.000000	99.540284 
3484.000000	99.536926 
3483.000000	99.534450 
3482.000000	99.533703 
3481.000000	99.533646 
3480.000000	99.532835 
3479.000000	99.531326 
3478.000000	99.530787 
3477.000000	99.532540 
3476.000000	99.535557 
3475.000000	99.536763 
3474.000000	99.533771 
3473.000000	99.527192 
3472.000000	99.520073 
3471.000000	99.515384 
3470.000000	99.514212 
3469.000000	99.515803 
3468.000000	99.518376 
3467.000000	99.520018 
3466.000000	99.519777 
3465.000000	99.518437 
3464.000000	99.517846 
3463.000000	99.519020 
3462.000000	99.520964 
3461.000000	99.521585 
3460.000000	99.519720 
3459.000000	99.516254 
3458.000000	99.513340 
3457.000000	99.512421 
3456.000000	99.512840 
3455.000000	99.512507 
3454.000000	99.510228 
3453.000000	99.507227 
3452.000000	99.506085 
3451.000000	99.508385 
3450.000000	99.513564 
3449.000000	99.519453 
3448.000000	99.523247 
3447.000000	99.522583 
3446.000000	99.517209 
3445.000000	99.509943 
3444.000000	99.504959 
3443.000000	99.504406 
3442.000000	99.506916 
3441.000000	99.509684 
3440.000000	99.511299 
3439.000000	99.511794 
3438.000000	99.510748 
3437.000000	99.506864 
3436.000000	99.499893 
3435.000000	99.492144 
3434.000000	99.487400 
3433.000000	99.488255 
3432.000000	99.494397 
3431.000000	99.502904 
3430.000000	99.509716 
3429.000000	99.511314 
3428.000000	99.506349 
3427.000000	99.496707 
3426.000000	99.486992 
3425.000000	99.482091 
3424.000000	99.484209 
3423.000000	99.491600 
3422.000000	99.499810 
3421.000000	99.504331 
3420.000000	99.502957 
3419.000000	99.496766 
3418.000000	99.489225 
3417.000000	99.483648 
3416.000000	99.480836 
3415.000000	99.479331 
3414.000000	99.478103 
3413.000000	99.478172 
3412.000000	99.480793 
3411.000000	99.484946 
3410.000000	99.488240 
3409.000000	99.490066 
3408.000000	99.492128 
3407.000000	99.495324 
3406.000000	99.497614 
3405.000000	99.496211 
3404.000000	99.491189 
3403.000000	99.485879 
3402.000000	99.483896 
3401.000000	99.486239 
3400.000000	99.490876 
3399.000000	99.494517 
3398.000000	99.495246 
3397.000000	99.494133 
3396.000000	99.494119 
3395.000000	99.496929 
3394.000000	99.501350 
3393.000000	99.504615 
3392.000000	99.504806 
3391.000000	99.501740 
3390.000000	99.496542 
3389.000000	99.491302 
3388.000000	99.488266 
3387.000000	99.488034 
3386.000000	99.488794 
3385.000000	99.488435 
3384.000000	99.487259 
3383.000000	99.487437 
3382.000000	99.489738 
3381.000000	99.492018 
3380.000000	99.491386 
3379.000000	99.487229 
3378.000000	99.481834 
3377.000000	99.478517 
3376.000000	99.479284 
3375.000000	99.483650 
3374.000000	99.489229 
3373.000000	99.493517 
3372.000000	99.495349 
3371.000000	99.494925 
3370.000000	99.493170 
3369.000000	99.491551 
3368.000000	99.491792 
3367.000000	99.494628 
3366.000000	99.498746 
3365.000000	99.501745 
3364.000000	99.502273 
3363.000000	99.500711 
3362.000000	99.497919 
3361.000000	99.494090 
3360.000000	99.488943 
3359.000000	99.482499 
3358.000000	99.475647 
3357.000000	99.470401 
3356.000000	99.469236 
3355.000000	99.473173 
3354.000000	99.480368 
3353.000000	99.487343 
3352.000000	99.491745 
3351.000000	99.493515 
3350.000000	99.493804 
3349.000000	99.493821 
3348.000000	99.494608 
3347.000000	99.496448 
3346.000000	99.497952 
3345.000000	99.496843 
3344.000000	99.492367 
3343.000000	99.486238 
3342.000000	99.480767 
3341.000000	99.476917 
3340.000000	99.474759 
3339.000000	99.474760 
3338.000000	99.477486 
3337.000000	99.482370 
3336.000000	99.487671 
3335.000000	99.491696 
3334.000000	99.493896 
3333.000000	99.495243 
3332.000000	99.497721 
3331.000000	99.502599 
3330.000000	99.508796 
3329.000000	99.513756 
3328.000000	99.516333 
3327.000000	99.517606 
3326.000000	99.518164 
3325.000000	99.516345 
3324.000000	99.511060 
3323.000000	99.505266 
3322.000000	99.503997 
3321.000000	99.508517 
3320.000000	99.514322 
3319.000000	99.515788 
3318.000000	99.511670 
3317.000000	99.505348 
3316.000000	99.500840 
3315.000000	99.499625 
3314.000000	99.500693 
3313.000000	99.502473 
3312.000000	99.504403 
3311.000000	99.506906 
3310.000000	99.509992 
3309.000000	99.512420 
3308.000000	99.513058 
3307.000000	99.512900 
3306.000000	99.514432 
3305.000000	99.518248 
3304.000000	99.521345 
3303.000000	99.520043 
3302.000000	99.514396 
3301.000000	99.508604 
3300.000000	99.506676 
3299.000000	99.508405 
3298.000000	99.510045 
3297.000000	99.508577 
3296.000000	99.504789 
3295.000000	99.502153 
3294.000000	99.503204 
3293.000000	99.507390 
3292.000000	99.512199 
3291.000000	99.515689 
3290.000000	99.517561 
3289.000000	99.518335 
3288.000000	99.518475 
3287.000000	99.518495 
3286.000000	99.519156 
3285.000000	99.520923 
3284.000000	99.523431 
3283.000000	99.525799 
3282.000000	99.527231 
3281.000000	99.526977 
3280.000000	99.524148 
3279.000000	99.518472 
3278.000000	99.511492 
3277.000000	99.506291 
3276.000000	99.505190 
3275.000000	99.507626 
3274.000000	99.510706 
3273.000000	99.511908 
3272.000000	99.510847 
3271.000000	99.508459 
3270.000000	99.505443 
3269.000000	99.502402 
3268.000000	99.501017 
3267.000000	99.503532 
3266.000000	99.510232 
3265.000000	99.518217 
3264.000000	99.523871 
3263.000000	99.526623 
3262.000000	99.529396 
3261.000000	99.534988 
3260.000000	99.542524 
3259.000000	99.547938 
3258.000000	99.547781 
3257.000000	99.542341 
3256.000000	99.535294 
3255.000000	99.530790 
3254.000000	99.530736 
3253.000000	99.534161 
3252.000000	99.538520 
3251.000000	99.541521 
3250.000000	99.542253 
3249.000000	99.541199 
3248.000000	99.539391 
3247.000000	99.537413 
3246.000000	99.535234 
3245.000000	99.533144 
3244.000000	99.532730 
3243.000000	99.536435 
3242.000000	99.545543 
3241.000000	99.558189 
3240.000000	99.569288 
3239.000000	99.573090 
3238.000000	99.567087 
3237.000000	99.554217 
3236.000000	99.540879 
3235.000000	99.532022 
3234.000000	99.528173 
3233.000000	99.527413 
3232.000000	99.529156 
3231.000000	99.534410 
3230.000000	99.542587 
3229.000000	99.550211 
3228.000000	99.553863 
3227.000000	99.553081 
3226.000000	99.549338 
3225.000000	99.543515 
3224.000000	99.536099 
3223.000000	99.529013 
3222.000000	99.525183 
3221.000000	99.526029 
3220.000000	99.530600 
3219.000000	99.537045 
3218.000000	99.543478 
3217.000000	99.547550 
3216.000000	99.547314 
3215.000000	99.543634 
3214.000000	99.540385 
3213.000000	99.541012 
3212.000000	99.545711 
3211.000000	99.552884 
3210.000000	99.562031 
3209.000000	99.573197 
3208.000000	99.583907 
3207.000000	99.589047 
3206.000000	99.585256 
3205.000000	99.574813 
3204.000000	99.564101 
3203.000000	99.558345 
3202.000000	99.558565 
3201.000000	99.563203 
3200.000000	99.570734 
3199.000000	99.579345 
3198.000000	99.585497 
3197.000000	99.585772 
3196.000000	99.580938 
3195.000000	99.575921 
3194.000000	99.574075 
3193.000000	99.573131 
3192.000000	99.569166 
3191.000000	99.563569 
3190.000000	99.562940 
3189.000000	99.571392 
3188.000000	99.585196 
3187.000000	99.595958 
3186.000000	99.597321 
3185.000000	99.588155 
3184.000000	99.572017 
3183.000000	99.555628 
3182.000000	99.545894 
3181.000000	99.545279 
3180.000000	99.550023 
3179.000000	99.554508 
3178.000000	99.556863 
3177.000000	99.558692 
3176.000000	99.560499 
3175.000000	99.560614 
3174.000000	99.558839 
3173.000000	99.557987 
3172.000000	99.560314 
3171.000000	99.564628 
3170.000000	99.568836 
3169.000000	99.573662 
3168.000000	99.581349 
3167.000000	99.591249 
3166.000000	99.599189 
3165.000000	99.601723 
3164.000000	99.599428 
3163.000000	99.595436 
3162.000000	99.592111 
3161.000000	99.590091 
3160.000000	99.589414 
3159.000000	99.589875 
3158.000000	99.590311 
3157.000000	99.588965 
3156.000000	99.585332 
3155.000000	99.581010 
3154.000000	99.578024 
3153.000000	99.576683 
3152.000000	99.575815 
3151.000000	99.574906 
3150.000000	99.575057 
3149.000000	99.577577 
3148.000000	99.582356 
3147.000000	99.587938 
3146.000000	99.592401 
3145.000000	99.593759 
3144.000000	99.590623 
3143.000000	99.583892 
3142.000000	99.577554 
3141.000000	99.576282 
3140.000000	99.581413 
3139.000000	99.589655 
3138.000000	99.596053 
3137.000000	99.597951 
3136.000000	99.596153 
3135.000000	99.593209 
3134.000000	99.591335 
3133.000000	99.591501 
3132.000000	99.593572 
3131.000000	99.596820 
3130.000000	99.600354 
3129.000000	99.603229 
3128.000000	99.604559 
3127.000000	99.604109 
3126.000000	99.602927 
3125.000000	99.602797 
3124.000000	99.604523 
3123.000000	99.606914 
3122.000000	99.608002 
3121.000000	99.607353 
3120.000000	99.606718 
3119.000000	99.608053 
3118.000000	99.611117 
3117.000000	99.613553 
3116.000000	99.613451 
3115.000000	99.611265 
3114.000000	99.608684 
3113.000000	99.606107 
3112.000000	99.602220 
3111.000000	99.596216 
3110.000000	99.589411 
3109.000000	99.583960 
3108.000000	99.580727 
3107.000000	99.579305 
3106.000000	99.579619 
3105.000000	99.582295 
3104.000000	99.587369 
3103.000000	99.593696 
3102.000000	99.600007 
3101.000000	99.605870 
3100.000000	99.611360 
3099.000000	99.616362 
3098.000000	99.620416 
3097.000000	99.622690 
3096.000000	99.622115 
3095.000000	99.618521 
3094.000000	99.613944 
3093.000000	99.611596 
3092.000000	99.612573 
3091.000000	99.614211 
3090.000000	99.612841 
3089.000000	99.608096 
3088.000000	99.603543 
3087.000000	99.602916 
3086.000000	99.606323 
3085.000000	99.610354 
3084.000000	99.611491 
3083.000000	99.609166 
3082.000000	99.605787 
3081.000000	99.604077 
3080.000000	99.604515 
3079.000000	99.605490 
3078.000000	99.605598 
3077.000000	99.605070 
3076.000000	99.604738 
3075.000000	99.604574 
3074.000000	99.604204 
3073.000000	99.604417 
3072.000000	99.606960 
3071.000000	99.612506 
3070.000000	99.619418 
3069.000000	99.624774 
3068.000000	99.626272 
3067.000000	99.623337 
3066.000000	99.617248 
3065.000000	99.610757 
3064.000000	99.606981 
3063.000000	99.607805 
3062.000000	99.612990 
3061.000000	99.620751 
3060.000000	99.629000 
3059.000000	99.636034 
3058.000000	99.640533 
3057.000000	99.641675 
3056.000000	99.639773 
3055.000000	99.636685 
3054.000000	99.634993 
3053.000000	99.636139 
3052.000000	99.639281 
3051.000000	99.642343 
3050.000000	99.644121 
3049.000000	99.644661 
3048.000000	99.643448 
3047.000000	99.638579 
3046.000000	99.629121 
3045.000000	99.617795 
3044.000000	99.609675 
3043.000000	99.607730 
3042.000000	99.610542 
3041.000000	99.614635 
3040.000000	99.617953 
3039.000000	99.620502 
3038.000000	99.622754 
3037.000000	99.624733 
3036.000000	99.626357 
3035.000000	99.627731 
3034.000000	99.629054 
3033.000000	99.630769 
3032.000000	99.633606 
3031.000000	99.637845 
3030.000000	99.642443 
3029.000000	99.645321 
3028.000000	99.644678 
3027.000000	99.640255 
3026.000000	99.633903 
3025.000000	99.628990 
3024.000000	99.628231 
3023.000000	99.631163 
3022.000000	99.634245 
3021.000000	99.634379 
3020.000000	99.632162 
3019.000000	99.631020 
3018.000000	99.633454 
3017.000000	99.639015 
3016.000000	99.645539 
3015.000000	99.650911 
3014.000000	99.653405 
3013.000000	99.651762 
3012.000000	99.646019 
3011.000000	99.637890 
3010.000000	99.629885 
3009.000000	99.624444 
3008.000000	99.623803 
3007.000000	99.629278 
3006.000000	99.639583 
3005.000000	99.650368 
3004.000000	99.656644 
3003.000000	99.656080 
3002.000000	99.650004 
3001.000000	99.641936 
3000.000000	99.635668 
2999.000000	99.633836 
2998.000000	99.636782 
2997.000000	99.642480 
2996.000000	99.648322 
2995.000000	99.653172 
2994.000000	99.657181 
2993.000000	99.659841 
2992.000000	99.659535 
2991.000000	99.655619 
2990.000000	99.650047 
2989.000000	99.645844 
2988.000000	99.644117 
2987.000000	99.643517 
2986.000000	99.642743 
2985.000000	99.642594 
2984.000000	99.644723 
2983.000000	99.648780 
2982.000000	99.651975 
2981.000000	99.651993 
2980.000000	99.649711 
2979.000000	99.648128 
2978.000000	99.648876 
2977.000000	99.650930 
2976.000000	99.652911 
2975.000000	99.655249 
2974.000000	99.658806 
2973.000000	99.662121 
2972.000000	99.661814 
2971.000000	99.656264 
2970.000000	99.647919 
2969.000000	99.641297 
2968.000000	99.639167 
2967.000000	99.640962 
2966.000000	99.644245 
2965.000000	99.647067 
2964.000000	99.649284 
2963.000000	99.652241 
2962.000000	99.656947 
2961.000000	99.662072 
2960.000000	99.664182 
2959.000000	99.660906 
2958.000000	99.653918 
2957.000000	99.647716 
2956.000000	99.644871 
2955.000000	99.643228 
2954.000000	99.638804 
2953.000000	99.631383 
2952.000000	99.626081 
2951.000000	99.628583 
2950.000000	99.639092 
2949.000000	99.651601 
2948.000000	99.659133 
2947.000000	99.659259 
2946.000000	99.654817 
2945.000000	99.650453 
2944.000000	99.649280 
2943.000000	99.651963 
2942.000000	99.657260 
2941.000000	99.662752 
2940.000000	99.665827 
2939.000000	99.664932 
2938.000000	99.660253 
2937.000000	99.653539 
2936.000000	99.647658 
2935.000000	99.645642 
2934.000000	99.648667 
2933.000000	99.654403 
2932.000000	99.658355 
2931.000000	99.657655 
2930.000000	99.653035 
2929.000000	99.646798 
2928.000000	99.640162 
2927.000000	99.633714 
2926.000000	99.629290 
2925.000000	99.629264 
2924.000000	99.633961 
2923.000000	99.641253 
2922.000000	99.648714 
2921.000000	99.654786 
2920.000000	99.657954 
2919.000000	99.656978 
2918.000000	99.652857 
2917.000000	99.648927 
2916.000000	99.647707 
2915.000000	99.648676 
2914.000000	99.650237 
2913.000000	99.652563 
2912.000000	99.656763 
2911.000000	99.661952 
2910.000000	99.665299 
2909.000000	99.665153 
2908.000000	99.662451 
2907.000000	99.658749 
2906.000000	99.654725 
2905.000000	99.651491 
2904.000000	99.651558 
2903.000000	99.656441 
2902.000000	99.663881 
2901.000000	99.669352 
2900.000000	99.670615 
2899.000000	99.669510 
2898.000000	99.668891 
2897.000000	99.669210 
2896.000000	99.669121 
2895.000000	99.668410 
2894.000000	99.668633 
2893.000000	99.670720 
2892.000000	99.673238 
2891.000000	99.673774 
2890.000000	99.671484 
2889.000000	99.667771 
2888.000000	99.664883 
2887.000000	99.664423 
2886.000000	99.666763 
2885.000000	99.670835 
2884.000000	99.674315 
2883.000000	99.674893 
2882.000000	99.672024 
2881.000000	99.667383 
2880.000000	99.663467 
2879.000000	99.661934 
2878.000000	99.663074 
2877.000000	99.665936 
2876.000000	99.668468 
2875.000000	99.668339 
2874.000000	99.664695 
2873.000000	99.659270 
2872.000000	99.655271 
2871.000000	99.655036 
2870.000000	99.658833 
2869.000000	99.665282 
2868.000000	99.672187 
2867.000000	99.677303 
2866.000000	99.679448 
2865.000000	99.679347 
2864.000000	99.678751 
2863.000000	99.678385 
2862.000000	99.677281 
2861.000000	99.674513 
2860.000000	99.671052 
2859.000000	99.669302 
2858.000000	99.670919 
2857.000000	99.675382 
2856.000000	99.680334 
2855.000000	99.682965 
2854.000000	99.681376 
2853.000000	99.675495 
2852.000000	99.667157 
2851.000000	99.659342 
2850.000000	99.655121 
2849.000000	99.656714 
2848.000000	99.664439 
2847.000000	99.675597 
2846.000000	99.684594 
2845.000000	99.685737 
2844.000000	99.677664 
2843.000000	99.665403 
2842.000000	99.657070 
2841.000000	99.657326 
2840.000000	99.663829 
2839.000000	99.670282 
2838.000000	99.672366 
2837.000000	99.670036 
2836.000000	99.665144 
2835.000000	99.659369 
2834.000000	99.655077 
2833.000000	99.655494 
2832.000000	99.661357 
2831.000000	99.668499 
2830.000000	99.671601 
2829.000000	99.670450 
2828.000000	99.670138 
2827.000000	99.674393 
2826.000000	99.681011 
2825.000000	99.685010 
2824.000000	99.684296 
2823.000000	99.680645 
2822.000000	99.676716 
2821.000000	99.674367 
2820.000000	99.674959 
2819.000000	99.678832 
2818.000000	99.684283 
2817.000000	99.688729 
2816.000000	99.691110 
2815.000000	99.691911 
2814.000000	99.691027 
2813.000000	99.687463 
2812.000000	99.681541 
2811.000000	99.675580 
2810.000000	99.671437 
2809.000000	99.668821 
2808.000000	99.667148 
2807.000000	99.667694 
2806.000000	99.671920 
2805.000000	99.678126 
2804.000000	99.681815 
2803.000000	99.680187 
2802.000000	99.675201 
2801.000000	99.671345 
2800.000000	99.671168 
2799.000000	99.673937 
2798.000000	99.677994 
2797.000000	99.682648 
2796.000000	99.687207 
2795.000000	99.689747 
2794.000000	99.688498 
2793.000000	99.684000 
2792.000000	99.678475 
2791.000000	99.673500 
2790.000000	99.670024 
2789.000000	99.670453 
2788.000000	99.677721 
2787.000000	99.690798 
2786.000000	99.703385 
2785.000000	99.709524 
2784.000000	99.709297 
2783.000000	99.706575 
2782.000000	99.702639 
2781.000000	99.695578 
2780.000000	99.685852 
2779.000000	99.678357 
2778.000000	99.677162 
2777.000000	99.680865 
2776.000000	99.685012 
2775.000000	99.687008 
2774.000000	99.686729 
2773.000000	99.684471 
2772.000000	99.681015 
2771.000000	99.678481 
2770.000000	99.678477 
2769.000000	99.680063 
2768.000000	99.681831 
2767.000000	99.684987 
2766.000000	99.691335 
2765.000000	99.698596 
2764.000000	99.701427 
2763.000000	99.698179 
2762.000000	99.693660 
2761.000000	99.693409 
2760.000000	99.697525 
2759.000000	99.702134 
2758.000000	99.704989 
2757.000000	99.706994 
2756.000000	99.709265 
2755.000000	99.711461 
2754.000000	99.712996 
2753.000000	99.713710 
2752.000000	99.713074 
2751.000000	99.710608 
2750.000000	99.707483 
2749.000000	99.705824 
2748.000000	99.705530 
2747.000000	99.703484 
2746.000000	99.697382 
2745.000000	99.689330 
2744.000000	99.684004 
2743.000000	99.683684 
2742.000000	99.686553 
2741.000000	99.689640 
2740.000000	99.691701 
2739.000000	99.692845 
2738.000000	99.693150 
2737.000000	99.693028 
2736.000000	99.693852 
2735.000000	99.696461 
2734.000000	99.699307 
2733.000000	99.699823 
2732.000000	99.697926 
2731.000000	99.696554 
2730.000000	99.698010 
2729.000000	99.701235 
2728.000000	99.703899 
2727.000000	99.705705 
2726.000000	99.707617 
2725.000000	99.708758 
2724.000000	99.706989 
2723.000000	99.703063 
2722.000000	99.701408 
2721.000000	99.705041 
2720.000000	99.711387 
2719.000000	99.715075 
2718.000000	99.713689 
2717.000000	99.708864 
2716.000000	99.703155 
2715.000000	99.698691 
2714.000000	99.698303 
2713.000000	99.704031 
2712.000000	99.713102 
2711.000000	99.718478 
2710.000000	99.715993 
2709.000000	99.709318 
2708.000000	99.705476 
2707.000000	99.706721 
2706.000000	99.709377 
2705.000000	99.709758 
2704.000000	99.707988 
2703.000000	99.705761 
2702.000000	99.703541 
2701.000000	99.701349 
2700.000000	99.699921 
2699.000000	99.699215 
2698.000000	99.697449 
2697.000000	99.693662 
2696.000000	99.690157 
2695.000000	99.690318 
2694.000000	99.694474 
2693.000000	99.699726 
2692.000000	99.703445 
2691.000000	99.705095 
2690.000000	99.704919 
2689.000000	99.703265 
2688.000000	99.701906 
2687.000000	99.703654 
2686.000000	99.708862 
2685.000000	99.713525 
2684.000000	99.712927 
2683.000000	99.706970 
2682.000000	99.700268 
2681.000000	99.696817 
2680.000000	99.696125 
2679.000000	99.695187 
2678.000000	99.692835 
2677.000000	99.690629 
2676.000000	99.690065 
2675.000000	99.690810 
2674.000000	99.692107 
2673.000000	99.694221 
2672.000000	99.697182 
2671.000000	99.699236 
2670.000000	99.698423 
2669.000000	99.695545 
2668.000000	99.693703 
2667.000000	99.694609 
2666.000000	99.697055 
2665.000000	99.699508 
2664.000000	99.702134 
2663.000000	99.704949 
2662.000000	99.706045 
2661.000000	99.704032 
2660.000000	99.700996 
2659.000000	99.700170 
2658.000000	99.701083 
2657.000000	99.700100 
2656.000000	99.696177 
2655.000000	99.692913 
2654.000000	99.693394 
2653.000000	99.695686 
2652.000000	99.695898 
2651.000000	99.693899 
2650.000000	99.693085 
2649.000000	99.695026 
2648.000000	99.697109 
2647.000000	99.696028 
2646.000000	99.691937 
2645.000000	99.688490 
2644.000000	99.689472 
2643.000000	99.695322 
2642.000000	99.702097 
2641.000000	99.704258 
2640.000000	99.699826 
2639.000000	99.692676 
2638.000000	99.688489 
2637.000000	99.688539 
2636.000000	99.688881 
2635.000000	99.685734 
2634.000000	99.679878 
2633.000000	99.675134 
2632.000000	99.674167 
2631.000000	99.676984 
2630.000000	99.682286 
2629.000000	99.688450 
2628.000000	99.693520 
2627.000000	99.696146 
2626.000000	99.697357 
2625.000000	99.700329 
2624.000000	99.706985 
2623.000000	99.714797 
2622.000000	99.718345 
2621.000000	99.715142 
2620.000000	99.709156 
2619.000000	99.706875 
2618.000000	99.709689 
2617.000000	99.711986 
2616.000000	99.707796 
2615.000000	99.697802 
2614.000000	99.688265 
2613.000000	99.684347 
2612.000000	99.686456 
2611.000000	99.692073 
2610.000000	99.698207 
2609.000000	99.701991 
2608.000000	99.702128 
2607.000000	99.701235 
2606.000000	99.704386 
2605.000000	99.713243 
2604.000000	99.723054 
2603.000000	99.727487 
2602.000000	99.725371 
2601.000000	99.720633 
2600.000000	99.716589 
2599.000000	99.713059 
2598.000000	99.709148 
2597.000000	99.705659 
2596.000000	99.702968 
2595.000000	99.698743 
2594.000000	99.690677 
2593.000000	99.681264 
2592.000000	99.677357 
2591.000000	99.683942 
2590.000000	99.699450 
2589.000000	99.717707 
2588.000000	99.732890 
2587.000000	99.741463 
2586.000000	99.741201 
2585.000000	99.731724 
2584.000000	99.716601 
2583.000000	99.702433 
2582.000000	99.694039 
2581.000000	99.691307 
2580.000000	99.691361 
2579.000000	99.692272 
2578.000000	99.693576 
2577.000000	99.694977 
2576.000000	99.696716 
2575.000000	99.700203 
2574.000000	99.706017 
2573.000000	99.711869 
2572.000000	99.714844 
2571.000000	99.715269 
2570.000000	99.715768 
2569.000000	99.716530 
2568.000000	99.714563 
2567.000000	99.708529 
2566.000000	99.701637 
2565.000000	99.698214 
2564.000000	99.699418 
2563.000000	99.703657 
2562.000000	99.708948 
2561.000000	99.713074 
2560.000000	99.713800 
2559.000000	99.711700 
2558.000000	99.711265 
2557.000000	99.716189 
2556.000000	99.724297 
2555.000000	99.729968 
2554.000000	99.731024 
2553.000000	99.730187 
2552.000000	99.729924 
2551.000000	99.729439 
2550.000000	99.727748 
2549.000000	99.726362 
2548.000000	99.726829 
2547.000000	99.727951 
2546.000000	99.727787 
2545.000000	99.726739 
2544.000000	99.726211 
2543.000000	99.725614 
2542.000000	99.723598 
2541.000000	99.721637 
2540.000000	99.723132 
2539.000000	99.728279 
2538.000000	99.732385 
2537.000000	99.730544 
2536.000000	99.722386 
2535.000000	99.711535 
2534.000000	99.702679 
2533.000000	99.700479 
2532.000000	99.708472 
2531.000000	99.725457 
2530.000000	99.743724 
2529.000000	99.754451 
2528.000000	99.755832 
2527.000000	99.753567 
2526.000000	99.752784 
2525.000000	99.752248 
2524.000000	99.748048 
2523.000000	99.740379 
2522.000000	99.733786 
2521.000000	99.731824 
2520.000000	99.734111 
2519.000000	99.738229 
2518.000000	99.741868 
2517.000000	99.742971 
2516.000000	99.740428 
2515.000000	99.735793 
2514.000000	99.732458 
2513.000000	99.731759 
2512.000000	99.731080 
2511.000000	99.727234 
2510.000000	99.721036 
2509.000000	99.717226 
2508.000000	99.719801 
2507.000000	99.727908 
2506.000000	99.735942 
2505.000000	99.737410 
2504.000000	99.729710 
2503.000000	99.716462 
2502.000000	99.705270 
2501.000000	99.702408 
2500.000000	99.708923 
2499.000000	99.721306 
2498.000000	99.735249 
2497.000000	99.748425 
2496.000000	99.760146 
2495.000000	99.769093 
2494.000000	99.772170 
2493.000000	99.766567 
2492.000000	99.753513 
2491.000000	99.739145 
2490.000000	99.730192 
2489.000000	99.728469 
2488.000000	99.730251 
2487.000000	99.730835 
2486.000000	99.728688 
2485.000000	99.725600 
2484.000000	99.724541 
2483.000000	99.727650 
2482.000000	99.734453 
2481.000000	99.741145 
2480.000000	99.743107 
2479.000000	99.739085 
2478.000000	99.731876 
2477.000000	99.724752 
2476.000000	99.719227 
2475.000000	99.716800 
2474.000000	99.719605 
2473.000000	99.726852 
2472.000000	99.733178 
2471.000000	99.734154 
2470.000000	99.732023 
2469.000000	99.732162 
2468.000000	99.734543 
2467.000000	99.733326 
2466.000000	99.725819 
2465.000000	99.717451 
2464.000000	99.715284 
2463.000000	99.719661 
2462.000000	99.725248 
2461.000000	99.728230 
2460.000000	99.729135 
2459.000000	99.729688 
2458.000000	99.730334 
2457.000000	99.730986 
2456.000000	99.731455 
2455.000000	99.730528 
2454.000000	99.726801 
2453.000000	99.721218 
2452.000000	99.716885 
2451.000000	99.715476 
2450.000000	99.715558 
2449.000000	99.715535 
2448.000000	99.716357 
2447.000000	99.719377 
2446.000000	99.722970 
2445.000000	99.724049 
2444.000000	99.722816 
2443.000000	99.723217 
2442.000000	99.727666 
2441.000000	99.733423 
2440.000000	99.735913 
2439.000000	99.734148 
2438.000000	99.730874 
2437.000000	99.728397 
2436.000000	99.726773 
2435.000000	99.725700 
2434.000000	99.725155 
2433.000000	99.723413 
2432.000000	99.717493 
2431.000000	99.707684 
2430.000000	99.699497 
2429.000000	99.698473 
2428.000000	99.704296 
2427.000000	99.712488 
2426.000000	99.720370 
2425.000000	99.727660 
2424.000000	99.731941 
2423.000000	99.728668 
2422.000000	99.717648 
2421.000000	99.705684 
2420.000000	99.699599 
2419.000000	99.699195 
2418.000000	99.700266 
2417.000000	99.702180 
2416.000000	99.707874 
2415.000000	99.717094 
2414.000000	99.724762 
2413.000000	99.727366 
2412.000000	99.726770 
2411.000000	99.725264 
2410.000000	99.720580 
2409.000000	99.710015 
2408.000000	99.697681 
2407.000000	99.692602 
2406.000000	99.698612 
2405.000000	99.709507 
2404.000000	99.715903 
2403.000000	99.714524 
2402.000000	99.708928 
2401.000000	99.703462 
2400.000000	99.699567 
2399.000000	99.697102 
2398.000000	99.695852 
2397.000000	99.694929 
2396.000000	99.693345 
2395.000000	99.692726 
2394.000000	99.697391 
2393.000000	99.709337 
2392.000000	99.724157 
2391.000000	99.734436 
2390.000000	99.737150 
2389.000000	99.735727 
2388.000000	99.734946 
2387.000000	99.736459 
2386.000000	99.740089 
2385.000000	99.746440 
2384.000000	99.755513 
2383.000000	99.764356 
2382.000000	99.769281 
2381.000000	99.770226 
2380.000000	99.769943 
2379.000000	99.768292 
2378.000000	99.760712 
2377.000000	99.744886 
2376.000000	99.726652 
2375.000000	99.715599 
2374.000000	99.715254 
2373.000000	99.721052 
2372.000000	99.728267 
2371.000000	99.737463 
2370.000000	99.749780 
2369.000000	99.760646 
2368.000000	99.762668 
2367.000000	99.753923 
2366.000000	99.740216 
2365.000000	99.729418 
2364.000000	99.725720 
2363.000000	99.728516 
2362.000000	99.734226 
2361.000000	99.737902 
2360.000000	99.736410 
2359.000000	99.732204 
2358.000000	99.730323 
2357.000000	99.731979 
2356.000000	99.732720 
2355.000000	99.727578 
2354.000000	99.717572 
2353.000000	99.707516 
2352.000000	99.701366 
2351.000000	99.699994 
2350.000000	99.703513 
2349.000000	99.713035 
2348.000000	99.727242 
2347.000000	99.740853 
2346.000000	99.746303 
2345.000000	99.740603 
2344.000000	99.729613 
2343.000000	99.721316 
2342.000000	99.719648 
2341.000000	99.722115 
2340.000000	99.725487 
2339.000000	99.728162 
2338.000000	99.729244 
2337.000000	99.728572 
2336.000000	99.726448 
2335.000000	99.723679 
2334.000000	99.720303 
2333.000000	99.717194 
2332.000000	99.715635 
2331.000000	99.716373 
2330.000000	99.716926 
2329.000000	99.716436 
2328.000000	99.716470 
2327.000000	99.721233 
2326.000000	99.729581 
2325.000000	99.735398 
2324.000000	99.733906 
2323.000000	99.728203 
2322.000000	99.726960 
2321.000000	99.733766 
2320.000000	99.744069 
2319.000000	99.751513 
2318.000000	99.754444 
2317.000000	99.754901 
2316.000000	99.753277 
2315.000000	99.749295 
2314.000000	99.743378 
2313.000000	99.738235 
2312.000000	99.735758 
2311.000000	99.738590 
2310.000000	99.748675 
2309.000000	99.765010 
2308.000000	99.779407 
2307.000000	99.782289 
2306.000000	99.771112 
2305.000000	99.753634 
2304.000000	99.739099 
2303.000000	99.730588 
2302.000000	99.725442 
2301.000000	99.721954 
2300.000000	99.720498 
2299.000000	99.721098 
2298.000000	99.721788 
2297.000000	99.721922 
2296.000000	99.722875 
2295.000000	99.725733 
2294.000000	99.728318 
2293.000000	99.727635 
2292.000000	99.724106 
2291.000000	99.722773 
2290.000000	99.728469 
2289.000000	99.739890 
2288.000000	99.749494 
2287.000000	99.750752 
2286.000000	99.745129 
2285.000000	99.739532 
2284.000000	99.736882 
2283.000000	99.732030 
2282.000000	99.719228 
2281.000000	99.700745 
2280.000000	99.685095 
2279.000000	99.678009 
2278.000000	99.678835 
2277.000000	99.684534 
2276.000000	99.692936 
2275.000000	99.701592 
2274.000000	99.707116 
2273.000000	99.707418 
2272.000000	99.702652 
2271.000000	99.694185 
2270.000000	99.685595 
2269.000000	99.684594 
2268.000000	99.698864 
2267.000000	99.727041 
2266.000000	99.756234 
2265.000000	99.771546 
2264.000000	99.767739 
2263.000000	99.751369 
2262.000000	99.734258 
2261.000000	99.725901 
2260.000000	99.728528 
2259.000000	99.736388 
2258.000000	99.741465 
2257.000000	99.741661 
2256.000000	99.741667 
2255.000000	99.744453 
2254.000000	99.745420 
2253.000000	99.738551 
2252.000000	99.726280 
2251.000000	99.719344 
2250.000000	99.726845 
2249.000000	99.748132 
2248.000000	99.772908 
2247.000000	99.787695 
2246.000000	99.784333 
2245.000000	99.765996 
2244.000000	99.744857 
2243.000000	99.731733 
2242.000000	99.728182 
2241.000000	99.728773 
2240.000000	99.728072 
2239.000000	99.723333 
2238.000000	99.713518 
2237.000000	99.700025 
2236.000000	99.687329 
2235.000000	99.679342 
2234.000000	99.675601 
2233.000000	99.673477 
2232.000000	99.672785 
2231.000000	99.675286 
2230.000000	99.681376 
2229.000000	99.691135 
2228.000000	99.707303 
2227.000000	99.731851 
2226.000000	99.758784 
2225.000000	99.775155 
2224.000000	99.772384 
2223.000000	99.754970 
2222.000000	99.736887 
2221.000000	99.730568 
2220.000000	99.738897 
2219.000000	99.755305 
2218.000000	99.770284 
2217.000000	99.778363 
2216.000000	99.779432 
2215.000000	99.774508 
2214.000000	99.763651 
2213.000000	99.749637 
2212.000000	99.739790 
2211.000000	99.740146 
2210.000000	99.749512 
2209.000000	99.762272 
2208.000000	99.774721 
2207.000000	99.785097 
2206.000000	99.790095 
2205.000000	99.786738 
2204.000000	99.776810 
2203.000000	99.765088 
2202.000000	99.754408 
2201.000000	99.746002 
2200.000000	99.741658 
2199.000000	99.740245 
2198.000000	99.735185 
2197.000000	99.722765 
2196.000000	99.711356 
2195.000000	99.714176 
2194.000000	99.732812 
2193.000000	99.755366 
2192.000000	99.771009 
2191.000000	99.777901 
2190.000000	99.775919 
2189.000000	99.762861 
2188.000000	99.743305 
2187.000000	99.732388 
2186.000000	99.742787 
2185.000000	99.771154 
2184.000000	99.801534 
2183.000000	99.818490 
2182.000000	99.814379 
2181.000000	99.791408 
2180.000000	99.762734 
2179.000000	99.745901 
2178.000000	99.748326 
2177.000000	99.760706 
2176.000000	99.768063 
2175.000000	99.764515 
2174.000000	99.753924 
2173.000000	99.740756 
2172.000000	99.726372 
2171.000000	99.712631 
2170.000000	99.704505 
2169.000000	99.708537 
2168.000000	99.728524 
2167.000000	99.759705 
2166.000000	99.787291 
2165.000000	99.797226 
2164.000000	99.792067 
2163.000000	99.790375 
2162.000000	99.806675 
2161.000000	99.836977 
2160.000000	99.866133 
2159.000000	99.882479 
2158.000000	99.881515 
2157.000000	99.864815 
2156.000000	99.842512 
2155.000000	99.828674 
2154.000000	99.827182 
2153.000000	99.827261 
2152.000000	99.817937 
2151.000000	99.801858 
2150.000000	99.789961 
2149.000000	99.788290 
2148.000000	99.795724 
2147.000000	99.809109 
2146.000000	99.823225 
2145.000000	99.829707 
2144.000000	99.823798 
2143.000000	99.809929 
2142.000000	99.795285 
2141.000000	99.781590 
2140.000000	99.768869 
2139.000000	99.762679 
2138.000000	99.768863 
2137.000000	99.782454 
2136.000000	99.790202 
2135.000000	99.785708 
2134.000000	99.776278 
2133.000000	99.773454 
2132.000000	99.780669 
2131.000000	99.790493 
2130.000000	99.790706 
2129.000000	99.774109 
2128.000000	99.746332 
2127.000000	99.722928 
2126.000000	99.715391 
2125.000000	99.721207 
2124.000000	99.730501 
2123.000000	99.739300 
2122.000000	99.750215 
2121.000000	99.762220 
2120.000000	99.768272 
2119.000000	99.764906 
2118.000000	99.757491 
2117.000000	99.752783 
2116.000000	99.751113 
2115.000000	99.749530 
2114.000000	99.748735 
2113.000000	99.752325 
2112.000000	99.760589 
2111.000000	99.768533 
2110.000000	99.769843 
2109.000000	99.761522 
2108.000000	99.745860 
2107.000000	99.729197 
2106.000000	99.717765 
2105.000000	99.713454 
2104.000000	99.713853 
2103.000000	99.716014 
2102.000000	99.718352 
2101.000000	99.719147 
2100.000000	99.716245 
2099.000000	99.709655 
2098.000000	99.702672 
2097.000000	99.699295 
2096.000000	99.701101 
2095.000000	99.706263 
2094.000000	99.710360 
2093.000000	99.709619 
2092.000000	99.705993 
2091.000000	99.707364 
2090.000000	99.718588 
2089.000000	99.732833 
2088.000000	99.736831 
2087.000000	99.725866 
2086.000000	99.709000 
2085.000000	99.698047 
2084.000000	99.695750 
2083.000000	99.697187 
2082.000000	99.698349 
2081.000000	99.699134 
2080.000000	99.700700 
2079.000000	99.704180 
2078.000000	99.711041 
2077.000000	99.721639 
2076.000000	99.733942 
2075.000000	99.745385 
2074.000000	99.754582 
2073.000000	99.760060 
2072.000000	99.759787 
2071.000000	99.753842 
2070.000000	99.745482 
2069.000000	99.737720 
2068.000000	99.730861 
2067.000000	99.725024 
2066.000000	99.722277 
2065.000000	99.723926 
2064.000000	99.728684 
2063.000000	99.736578 
2062.000000	99.751301 
2061.000000	99.774361 
2060.000000	99.798915 
2059.000000	99.813794 
2058.000000	99.813054 
2057.000000	99.799182 
2056.000000	99.779095 
2055.000000	99.760638 
2054.000000	99.751124 
2053.000000	99.753867 
2052.000000	99.765329 
2051.000000	99.778877 
2050.000000	99.790932 
2049.000000	99.800466 
2048.000000	99.803899 
2047.000000	99.796384 
2046.000000	99.779880 
2045.000000	99.764551 
2044.000000	99.758492 
2043.000000	99.759125 
2042.000000	99.758105 
2041.000000	99.752867 
2040.000000	99.750359 
2039.000000	99.759292 
2038.000000	99.780397 
2037.000000	99.804449 
2036.000000	99.820098 
2035.000000	99.824386 
2034.000000	99.824323 
2033.000000	99.826748 
2032.000000	99.828780 
2031.000000	99.822302 
2030.000000	99.806476 
2029.000000	99.790001 
2028.000000	99.779288 
2027.000000	99.770483 
2026.000000	99.758594 
2025.000000	99.750017 
2024.000000	99.757349 
2023.000000	99.780462 
2022.000000	99.800225 
2021.000000	99.796664 
2020.000000	99.771508 
2019.000000	99.747198 
2018.000000	99.743252 
2017.000000	99.756897 
2016.000000	99.768817 
2015.000000	99.766066 
2014.000000	99.754442 
2013.000000	99.748814 
2012.000000	99.755582 
2011.000000	99.767118 
2010.000000	99.773233 
2009.000000	99.775186 
2008.000000	99.784458 
2007.000000	99.806293 
2006.000000	99.829333 
2005.000000	99.837392 
2004.000000	99.829323 
2003.000000	99.818937 
2002.000000	99.815200 
2001.000000	99.810911 
2000.000000	99.794933 
1999.000000	99.769614 
1998.000000	99.748975 
1997.000000	99.743023 
1996.000000	99.750633 
1995.000000	99.766345 
1994.000000	99.785384 
1993.000000	99.800166 
1992.000000	99.800545 
1991.000000	99.783613 
1990.000000	99.758691 
1989.000000	99.738655 
1988.000000	99.729821 
1987.000000	99.731151 
1986.000000	99.737975 
1985.000000	99.744003 
1984.000000	99.744534 
1983.000000	99.741356 
1982.000000	99.740672 
1981.000000	99.742828 
1980.000000	99.738923 
1979.000000	99.723412 
1978.000000	99.705999 
1977.000000	99.702674 
1976.000000	99.715765 
1975.000000	99.732958 
1974.000000	99.746203 
1973.000000	99.761388 
1972.000000	99.786966 
1971.000000	99.820295 
1970.000000	99.849204 
1969.000000	99.863254 
1968.000000	99.860593 
1967.000000	99.846199 
1966.000000	99.826437 
1965.000000	99.805453 
1964.000000	99.785315 
1963.000000	99.768315 
1962.000000	99.757441 
1961.000000	99.753459 
1960.000000	99.753348 
1959.000000	99.753897 
1958.000000	99.755367 
1957.000000	99.759082 
1956.000000	99.763010 
1955.000000	99.763166 
1954.000000	99.758702 
1953.000000	99.752255 
1952.000000	99.745366 
1951.000000	99.737244 
1950.000000	99.729168 
1949.000000	99.725873 
1948.000000	99.729986 
1947.000000	99.737149 
1946.000000	99.738978 
1945.000000	99.730288 
1944.000000	99.712761 
1943.000000	99.693097 
1942.000000	99.678389 
1941.000000	99.671645 
1940.000000	99.671433 
1939.000000	99.676395 
1938.000000	99.688490 
1937.000000	99.709294 
1936.000000	99.733451 
1935.000000	99.749478 
1934.000000	99.749735 
1933.000000	99.738880 
1932.000000	99.729981 
1931.000000	99.731447 
1930.000000	99.739343 
1929.000000	99.742212 
1928.000000	99.733012 
1927.000000	99.715911 
1926.000000	99.701403 
1925.000000	99.696124 
1924.000000	99.697737 
1923.000000	99.700326 
1922.000000	99.702511 
1921.000000	99.707114 
1920.000000	99.713908 
1919.000000	99.717667 
1918.000000	99.714569 
1917.000000	99.707567 
1916.000000	99.701569 
1915.000000	99.696285 
1914.000000	99.689000 
1913.000000	99.681424 
1912.000000	99.678496 
1911.000000	99.680789 
1910.000000	99.682600 
1909.000000	99.679487 
1908.000000	99.674966 
1907.000000	99.676189 
1906.000000	99.684707 
1905.000000	99.694549 
1904.000000	99.698082 
1903.000000	99.692954 
1902.000000	99.683255 
1901.000000	99.675477 
1900.000000	99.673741 
1899.000000	99.677635 
1898.000000	99.683474 
1897.000000	99.687263 
1896.000000	99.686417 
1895.000000	99.680443 
1894.000000	99.671652 
1893.000000	99.665065 
1892.000000	99.665595 
1891.000000	99.673896 
1890.000000	99.684727 
1889.000000	99.691082 
1888.000000	99.691375 
1887.000000	99.689754 
1886.000000	99.689864 
1885.000000	99.691956 
1884.000000	99.695132 
1883.000000	99.699529 
1882.000000	99.704847 
1881.000000	99.708247 
1880.000000	99.706665 
1879.000000	99.701212 
1878.000000	99.697346 
1877.000000	99.699758 
1876.000000	99.706987 
1875.000000	99.712080 
1874.000000	99.709081 
1873.000000	99.698182 
1872.000000	99.684340 
1871.000000	99.672353 
1870.000000	99.664931 
1869.000000	99.664022 
1868.000000	99.670463 
1867.000000	99.681049 
1866.000000	99.688186 
1865.000000	99.685104 
1864.000000	99.671753 
1863.000000	99.654805 
1862.000000	99.642185 
1861.000000	99.638210 
1860.000000	99.642845 
1859.000000	99.653203 
1858.000000	99.664627 
1857.000000	99.672509 
1856.000000	99.675765 
1855.000000	99.677771 
1854.000000	99.682020 
1853.000000	99.687490 
1852.000000	99.690121 
1851.000000	99.688460 
1850.000000	99.685468 
1849.000000	99.685930 
1848.000000	99.692342 
1847.000000	99.703063 
1846.000000	99.712955 
1845.000000	99.715831 
1844.000000	99.709757 
1843.000000	99.700998 
1842.000000	99.697468 
1841.000000	99.699750 
1840.000000	99.703032 
1839.000000	99.703328 
1838.000000	99.700253 
1837.000000	99.695809 
1836.000000	99.691237 
1835.000000	99.686800 
1834.000000	99.683821 
1833.000000	99.684917 
1832.000000	99.691488 
1831.000000	99.701011 
1830.000000	99.707377 
1829.000000	99.706707 
1828.000000	99.700697 
1827.000000	99.691956 
1826.000000	99.682077 
1825.000000	99.674662 
1824.000000	99.673735 
1823.000000	99.677929 
1822.000000	99.680556 
1821.000000	99.677215 
1820.000000	99.671169 
1819.000000	99.669139 
1818.000000	99.673106 
1817.000000	99.678976 
1816.000000	99.682810 
1815.000000	99.685340 
1814.000000	99.688704 
1813.000000	99.692470 
1812.000000	99.695181 
1811.000000	99.697413 
1810.000000	99.701299 
1809.000000	99.706635 
1808.000000	99.710142 
1807.000000	99.708991 
1806.000000	99.703009 
1805.000000	99.694408 
1804.000000	99.686965 
1803.000000	99.684216 
1802.000000	99.685980 
1801.000000	99.687219 
1800.000000	99.683802 
1799.000000	99.677995 
1798.000000	99.675408 
1797.000000	99.677809 
1796.000000	99.682469 
1795.000000	99.686778 
1794.000000	99.690310 
1793.000000	99.692754 
1792.000000	99.693015 
1791.000000	99.691662 
1790.000000	99.690845 
1789.000000	99.690148 
1788.000000	99.687937 
1787.000000	99.685669 
1786.000000	99.687278 
1785.000000	99.693393 
1784.000000	99.698983 
1783.000000	99.699535 
1782.000000	99.695975 
1781.000000	99.692202 
1780.000000	99.690661 
1779.000000	99.690267 
1778.000000	99.689032 
1777.000000	99.685451 
1776.000000	99.678587 
1775.000000	99.668576 
1774.000000	99.657949 
1773.000000	99.652644 
1772.000000	99.657294 
1771.000000	99.668416 
1770.000000	99.678001 
1769.000000	99.681513 
1768.000000	99.680225 
1767.000000	99.678600 
1766.000000	99.679608 
1765.000000	99.682522 
1764.000000	99.685228 
1763.000000	99.686886 
1762.000000	99.687788 
1761.000000	99.688039 
1760.000000	99.687735 
1759.000000	99.687063 
1758.000000	99.687186 
1757.000000	99.688836 
1756.000000	99.690746 
1755.000000	99.690868 
1754.000000	99.688865 
1753.000000	99.686983 
1752.000000	99.688346 
1751.000000	99.692451 
1750.000000	99.694664 
1749.000000	99.692540 
1748.000000	99.688006 
1747.000000	99.684277 
1746.000000	99.682128 
1745.000000	99.680372 
1744.000000	99.678551 
1743.000000	99.677579 
1742.000000	99.679096 
1741.000000	99.684033 
1740.000000	99.691404 
1739.000000	99.698481 
1738.000000	99.703551 
1737.000000	99.706217 
1736.000000	99.705794 
1735.000000	99.701175 
1734.000000	99.691385 
1733.000000	99.680818 
1732.000000	99.677905 
1731.000000	99.683024 
1730.000000	99.690522 
1729.000000	99.694239 
1728.000000	99.691334 
1727.000000	99.684727 
1726.000000	99.679625 
1725.000000	99.678795 
1724.000000	99.680507 
1723.000000	99.680904 
1722.000000	99.678878 
1721.000000	99.675749 
1720.000000	99.672294 
1719.000000	99.667994 
1718.000000	99.662404 
1717.000000	99.657107 
1716.000000	99.655199 
1715.000000	99.657264 
1714.000000	99.661073 
1713.000000	99.664502 
1712.000000	99.666432 
1711.000000	99.666921 
1710.000000	99.666682 
1709.000000	99.666367 
1708.000000	99.666574 
1707.000000	99.667248 
1706.000000	99.666586 
1705.000000	99.662459 
1704.000000	99.656241 
1703.000000	99.651983 
1702.000000	99.652500 
1701.000000	99.657707 
1700.000000	99.660958 
1699.000000	99.659602 
1698.000000	99.659973 
1697.000000	99.662526 
1696.000000	99.662763 
1695.000000	99.657660 
1694.000000	99.650456 
1693.000000	99.644489 
1692.000000	99.639612 
1691.000000	99.636233 
1690.000000	99.634947 
1689.000000	99.634684 
1688.000000	99.634251 
1687.000000	99.633424 
1686.000000	99.632333 
1685.000000	99.631073 
1684.000000	99.627284 
1683.000000	99.622462 
1682.000000	99.621535 
1681.000000	99.621880 
1680.000000	99.620545 
1679.000000	99.617911 
1678.000000	99.614617 
1677.000000	99.610521 
1676.000000	99.606085 
1675.000000	99.602717 
1674.000000	99.601506 
1673.000000	99.602220 
1672.000000	99.603547 
1671.000000	99.605081 
1670.000000	99.607077 
1669.000000	99.607895 
1668.000000	99.606492 
1667.000000	99.603326 
1666.000000	99.598673 
1665.000000	99.593480 
1664.000000	99.589928 
1663.000000	99.589861 
1662.000000	99.592500 
1661.000000	99.595208 
1660.000000	99.596741 
1659.000000	99.597016 
1658.000000	99.595698 
1657.000000	99.591940 
1656.000000	99.585809 
1655.000000	99.578887 
1654.000000	99.574068 
1653.000000	99.569853 
1652.000000	99.565869 
1651.000000	99.568382 
1650.000000	99.573627 
1649.000000	99.577076 
1648.000000	99.577621 
1647.000000	99.574972 
1646.000000	99.571522 
1645.000000	99.571179 
1644.000000	99.572795 
1643.000000	99.573156 
1642.000000	99.571762 
1641.000000	99.569314 
1640.000000	99.566482 
1639.000000	99.564165 
1638.000000	99.564206 
1637.000000	99.568553 
1636.000000	99.575786 
1635.000000	99.581351 
1634.000000	99.584493 
1633.000000	99.586421 
1632.000000	99.585241 
1631.000000	99.580233 
1630.000000	99.573647 
1629.000000	99.568885 
1628.000000	99.567396 
1627.000000	99.567869 
1626.000000	99.568583 
1625.000000	99.569288 
1624.000000	99.570912 
1623.000000	99.573587 
1622.000000	99.576567 
1621.000000	99.579308 
1620.000000	99.581449 
1619.000000	99.582697 
1618.000000	99.583597 
1617.000000	99.584960 
1616.000000	99.587278 
1615.000000	99.591447 
1614.000000	99.597035 
1613.000000	99.602375 
1612.000000	99.606445 
1611.000000	99.608597 
1610.000000	99.608280 
1609.000000	99.606375 
1608.000000	99.605676 
1607.000000	99.608484 
1606.000000	99.613980 
1605.000000	99.619097 
1604.000000	99.622129 
1603.000000	99.623658 
1602.000000	99.624965 
1601.000000	99.626089 
1600.000000	99.625716 
1599.000000	99.623113 
1598.000000	99.619730 
1597.000000	99.618549 
1596.000000	99.621450 
1595.000000	99.627463 
1594.000000	99.633795 
1593.000000	99.638378 
1592.000000	99.641185 
1591.000000	99.643337 
1590.000000	99.645751 
1589.000000	99.648703 
1588.000000	99.652191 
1587.000000	99.655997 
1586.000000	99.659484 
1585.000000	99.661659 
1584.000000	99.662166 
1583.000000	99.661686 
1582.000000	99.660726 
1581.000000	99.659274 
1580.000000	99.657088 
1579.000000	99.654229 
1578.000000	99.651471 
1577.000000	99.650634 
1576.000000	99.651907 
1575.000000	99.653413 
1574.000000	99.654187 
1573.000000	99.653955 
1572.000000	99.653631 
1571.000000	99.655350 
1570.000000	99.659922 
1569.000000	99.664848 
1568.000000	99.667683 
1567.000000	99.667632 
1566.000000	99.664852 
1565.000000	99.661277 
1564.000000	99.659127 
1563.000000	99.658672 
1562.000000	99.658986 
1561.000000	99.660194 
1560.000000	99.664533 
1559.000000	99.665694 
1558.000000	99.657368 
1557.000000	99.652349 
1556.000000	99.653861 
1555.000000	99.657659 
1554.000000	99.661422 
1553.000000	99.663069 
1552.000000	99.661737 
1551.000000	99.657555 
1550.000000	99.653139 
1549.000000	99.652285 
1548.000000	99.655343 
1547.000000	99.657985 
1546.000000	99.655012 
1545.000000	99.645638 
1544.000000	99.634623 
1543.000000	99.628323 
1542.000000	99.630222 
1541.000000	99.640896 
1540.000000	99.654675 
1539.000000	99.662486 
1538.000000	99.663794 
1537.000000	99.663145 
1536.000000	99.663585 
1535.000000	99.666896 
1534.000000	99.670772 
1533.000000	99.670122 
1532.000000	99.665955 
1531.000000	99.663062 
1530.000000	99.662295 
1529.000000	99.661652 
1528.000000	99.659808 
1527.000000	99.657717 
1526.000000	99.656938 
1525.000000	99.657783 
1524.000000	99.660602 
1523.000000	99.667322 
1522.000000	99.679115 
1521.000000	99.690120 
1520.000000	99.692630 
1519.000000	99.686143 
1518.000000	99.674048 
1517.000000	99.661617 
1516.000000	99.654083 
1515.000000	99.652829 
1514.000000	99.655459 
1513.000000	99.659852 
1512.000000	99.665629 
1511.000000	99.671393 
1510.000000	99.674981 
1509.000000	99.675584 
1508.000000	99.675764 
1507.000000	99.677834 
1506.000000	99.679774 
1505.000000	99.680169 
1504.000000	99.679101 
1503.000000	99.677709 
1502.000000	99.678355 
1501.000000	99.681546 
1500.000000	99.685077 
1499.000000	99.686856 
1498.000000	99.687124 
1497.000000	99.687080 
1496.000000	99.686231 
1495.000000	99.684488 
1494.000000	99.683384 
1493.000000	99.683404 
1492.000000	99.683612 
1491.000000	99.682901 
1490.000000	99.681549 
1489.000000	99.681765 
1488.000000	99.684658 
1487.000000	99.687881 
1486.000000	99.688670 
1485.000000	99.686483 
1484.000000	99.683744 
1483.000000	99.683487 
1482.000000	99.685838 
1481.000000	99.688146 
1480.000000	99.688059 
1479.000000	99.686011 
1478.000000	99.683233 
1477.000000	99.679624 
1476.000000	99.674350 
1475.000000	99.668573 
1474.000000	99.665189 
1473.000000	99.665357 
1472.000000	99.667549 
1471.000000	99.670357 
1470.000000	99.673231 
1469.000000	99.674595 
1468.000000	99.673242 
1467.000000	99.669937 
1466.000000	99.666923 
1465.000000	99.665076 
1464.000000	99.663259 
1463.000000	99.660934 
1462.000000	99.659263 
1461.000000	99.659456 
1460.000000	99.661493 
1459.000000	99.664070 
1458.000000	99.664917 
1457.000000	99.661526 
1456.000000	99.655126 
1455.000000	99.650453 
1454.000000	99.649044 
1453.000000	99.651710 
1452.000000	99.659059 
1451.000000	99.667651 
1450.000000	99.671436 
1449.000000	99.666925 
1448.000000	99.656359 
1447.000000	99.646462 
1446.000000	99.642524 
1445.000000	99.644579 
1444.000000	99.649824 
1443.000000	99.654917 
1442.000000	99.657857 
1441.000000	99.658476 
1440.000000	99.657701 
1439.000000	99.656324 
1438.000000	99.655228 
1437.000000	99.655127 
1436.000000	99.655147 
1435.000000	99.654197 
1434.000000	99.651640 
1433.000000	99.647429 
1432.000000	99.642814 
1431.000000	99.639214 
1430.000000	99.636767 
1429.000000	99.635263 
1428.000000	99.634873 
1427.000000	99.635709 
1426.000000	99.636773 
1425.000000	99.636632 
1424.000000	99.635438 
1423.000000	99.634742 
1422.000000	99.635829 
1421.000000	99.638399 
1420.000000	99.641246 
1419.000000	99.642838 
1418.000000	99.643483 
1417.000000	99.645001 
1416.000000	99.646223 
1415.000000	99.644802 
1414.000000	99.641115 
1413.000000	99.638225 
1412.000000	99.638855 
1411.000000	99.642387 
1410.000000	99.645681 
1409.000000	99.646651 
1408.000000	99.645757 
1407.000000	99.644984 
1406.000000	99.645862 
1405.000000	99.648271 
1404.000000	99.651554 
1403.000000	99.655580 
1402.000000	99.660573 
1401.000000	99.666192 
1400.000000	99.671304 
1399.000000	99.674844 
1398.000000	99.676992 
1397.000000	99.678006 
1396.000000	99.676452 
1395.000000	99.671852 
1394.000000	99.667862 
1393.000000	99.669324 
1392.000000	99.676104 
1391.000000	99.683136 
1390.000000	99.685864 
1389.000000	99.683508 
1388.000000	99.678572 
1387.000000	99.674549 
1386.000000	99.673956 
1385.000000	99.677195 
1384.000000	99.682823 
1383.000000	99.688633 
1382.000000	99.692939 
1381.000000	99.695312 
1380.000000	99.696042 
1379.000000	99.695346 
1378.000000	99.693281 
1377.000000	99.690146 
1376.000000	99.686426 
1375.000000	99.682862 
1374.000000	99.680823 
1373.000000	99.682157 
1372.000000	99.687403 
1371.000000	99.694524 
1370.000000	99.699987 
1369.000000	99.700857 
1368.000000	99.696830 
1367.000000	99.690315 
1366.000000	99.684859 
1365.000000	99.683399 
1364.000000	99.686924 
1363.000000	99.693102 
1362.000000	99.697311 
1361.000000	99.697155 
1360.000000	99.694772 
1359.000000	99.694049 
1358.000000	99.696661 
1357.000000	99.700606 
1356.000000	99.702323 
1355.000000	99.700410 
1354.000000	99.696973 
1353.000000	99.694928 
1352.000000	99.694478 
1351.000000	99.693632 
1350.000000	99.691563 
1349.000000	99.690018 
1348.000000	99.691033 
1347.000000	99.693848 
1346.000000	99.695762 
1345.000000	99.695294 
1344.000000	99.693254 
1343.000000	99.691035 
1342.000000	99.689681 
1341.000000	99.690586 
1340.000000	99.694881 
1339.000000	99.701009 
1338.000000	99.705229 
1337.000000	99.706028 
1336.000000	99.705884 
1335.000000	99.707535 
1334.000000	99.710240 
1333.000000	99.711105 
1332.000000	99.709007 
1331.000000	99.705460 
1330.000000	99.702129 
1329.000000	99.699512 
1328.000000	99.697988 
1327.000000	99.698082 
1326.000000	99.699172 
1325.000000	99.699784 
1324.000000	99.699804 
1323.000000	99.700595 
1322.000000	99.702548 
1321.000000	99.704060 
1320.000000	99.703744 
1319.000000	99.702153 
1318.000000	99.700375 
1317.000000	99.698299 
1316.000000	99.695680 
1315.000000	99.693724 
1314.000000	99.693856 
1313.000000	99.695447 
1312.000000	99.696263 
1311.000000	99.695092 
1310.000000	99.692635 
1309.000000	99.690032 
1308.000000	99.687602 
1307.000000	99.685050 
1306.000000	99.682011 
1305.000000	99.678550 
1304.000000	99.675858 
1303.000000	99.675901 
1302.000000	99.679315 
1301.000000	99.683822 
1300.000000	99.685995 
1299.000000	99.684862 
1298.000000	99.682949 
1297.000000	99.683435 
1296.000000	99.686865 
1295.000000	99.690792 
1294.000000	99.691929 
1293.000000	99.688426 
1292.000000	99.680804 
1291.000000	99.671538 
1290.000000	99.663793 
1289.000000	99.659948 
1288.000000	99.660468 
1287.000000	99.663379 
1286.000000	99.665011 
1285.000000	99.662525 
1284.000000	99.656388 
1283.000000	99.649807 
1282.000000	99.645339 
1281.000000	99.642777 
1280.000000	99.640742 
1279.000000	99.638851 
1278.000000	99.637113 
1277.000000	99.634590 
1276.000000	99.630579 
1275.000000	99.626320 
1274.000000	99.623464 
1273.000000	99.621409 
1272.000000	99.618370 
1271.000000	99.614945 
1270.000000	99.613959 
1269.000000	99.616136 
1268.000000	99.618391 
1267.000000	99.617623 
1266.000000	99.614398 
1265.000000	99.611564 
1264.000000	99.610562 
1263.000000	99.610498 
1262.000000	99.609783 
1261.000000	99.607362 
1260.000000	99.603041 
1259.000000	99.597657 
1258.000000	99.592381 
1257.000000	99.587326 
1256.000000	99.581818 
1255.000000	99.576617 
1254.000000	99.574433 
1253.000000	99.576862 
1252.000000	99.581573 
1251.000000	99.583820 
1250.000000	99.580604 
1249.000000	99.572785 
1248.000000	99.563802 
1247.000000	99.556987 
1246.000000	99.553174 
1245.000000	99.549853 
1244.000000	99.543420 
1243.000000	99.533338 
1242.000000	99.523355 
1241.000000	99.517458 
1240.000000	99.515423 
1239.000000	99.513590 
1238.000000	99.509206 
1237.000000	99.502413 
1236.000000	99.494461 
1235.000000	99.485988 
1234.000000	99.477372 
1233.000000	99.469058 
1232.000000	99.460746 
1231.000000	99.451213 
1230.000000	99.439720 
1229.000000	99.427093 
1228.000000	99.414953 
1227.000000	99.404192 
1226.000000	99.394331 
1225.000000	99.383909 
1224.000000	99.371309 
1223.000000	99.355548 
1222.000000	99.336694 
1221.000000	99.315820 
1220.000000	99.294779 
1219.000000	99.275650 
1218.000000	99.259281 
1217.000000	99.243861 
1216.000000	99.225676 
1215.000000	99.201990 
1214.000000	99.172901 
1213.000000	99.140126 
1212.000000	99.105085 
1211.000000	99.069250 
1210.000000	99.035406 
1209.000000	99.006512 
1208.000000	98.982698 
1207.000000	98.960367 
1206.000000	98.935237 
1205.000000	98.906268 
1204.000000	98.876261 
1203.000000	98.848796 
1202.000000	98.824895 
1201.000000	98.802567 
1200.000000	98.779079 
1199.000000	98.753316 
1198.000000	98.726263 
1197.000000	98.699630 
1196.000000	98.673947 
1195.000000	98.647728 
1194.000000	98.618723 
1193.000000	98.586305 
1192.000000	98.552173 
1191.000000	98.518124 
1190.000000	98.483853 
1189.000000	98.448321 
1188.000000	98.412923 
1187.000000	98.381218 
1186.000000	98.354724 
1185.000000	98.330581 
1184.000000	98.304424 
1183.000000	98.274456 
1182.000000	98.241959 
1181.000000	98.209103 
1180.000000	98.177217 
1179.000000	98.146008 
1178.000000	98.113411 
1177.000000	98.077286 
1176.000000	98.038052 
1175.000000	97.998229 
1174.000000	97.958358 
1173.000000	97.915463 
1172.000000	97.867591 
1171.000000	97.818153 
1170.000000	97.772948 
1169.000000	97.733535 
1168.000000	97.696392 
1167.000000	97.658807 
1166.000000	97.623478 
1165.000000	97.596796 
1164.000000	97.583998 
1163.000000	97.586175 
1162.000000	97.600390 
1161.000000	97.621820 
1160.000000	97.645837 
1159.000000	97.668053 
1158.000000	97.682866 
1157.000000	97.683734 
1156.000000	97.666740 
1155.000000	97.634346 
1154.000000	97.594609 
1153.000000	97.555637 
1152.000000	97.520541 
1151.000000	97.487303 
1150.000000	97.452622 
1149.000000	97.415608 
1148.000000	97.378233 
1147.000000	97.342849 
1146.000000	97.309556 
1145.000000	97.275911 
1144.000000	97.238719 
1143.000000	97.196057 
1142.000000	97.148694 
1141.000000	97.100594 
1140.000000	97.057226 
1139.000000	97.021409 
1138.000000	96.990280 
1137.000000	96.957426 
1136.000000	96.918280 
1135.000000	96.872816 
1134.000000	96.823760 
1133.000000	96.773833 
1132.000000	96.724701 
1131.000000	96.676793 
1130.000000	96.629590 
1129.000000	96.582938 
1128.000000	96.537538 
1127.000000	96.492789 
1126.000000	96.445452 
1125.000000	96.393236 
1124.000000	96.339124 
1123.000000	96.288789 
1122.000000	96.243447 
1121.000000	96.198640 
1120.000000	96.150941 
1119.000000	96.102474 
1118.000000	96.057198 
1117.000000	96.015446 
1116.000000	95.974038 
1115.000000	95.930002 
1114.000000	95.883049 
1113.000000	95.836035 
1112.000000	95.793477 
1111.000000	95.757451 
1110.000000	95.724395 
1109.000000	95.688420 
1108.000000	95.648203 
1107.000000	95.607986 
1106.000000	95.571291 
1105.000000	95.536525 
1104.000000	95.499768 
1103.000000	95.459238 
1102.000000	95.416099 
1101.000000	95.373316 
1100.000000	95.334507 
1099.000000	95.301688 
1098.000000	95.273289 
1097.000000	95.245965 
1096.000000	95.218106 
1095.000000	95.189471 
1094.000000	95.158738 
1093.000000	95.124788 
1092.000000	95.089547 
1091.000000	95.055895 
1090.000000	95.023475 
1089.000000	94.990550 
1088.000000	94.959037 
1087.000000	94.932856 
1086.000000	94.911735 
1085.000000	94.891915 
1084.000000	94.872853 
1083.000000	94.857416 
1082.000000	94.844723 
1081.000000	94.828548 
1080.000000	94.804270 
1079.000000	94.772487 
1078.000000	94.735011 
1077.000000	94.693120 
1076.000000	94.651326 
1075.000000	94.616454 
1074.000000	94.589279 
1073.000000	94.561401 
1072.000000	94.523193 
1071.000000	94.471289 
1070.000000	94.407123 
1069.000000	94.333372 
1068.000000	94.254495 
1067.000000	94.175958 
1066.000000	94.099146 
1065.000000	94.020376 
1064.000000	93.937549 
1063.000000	93.853977 
1062.000000	93.773160 
1061.000000	93.693876 
1060.000000	93.613395 
1059.000000	93.531924 
1058.000000	93.451141 
1057.000000	93.371719 
1056.000000	93.294629 
1055.000000	93.221199 
1054.000000	93.149202 
1053.000000	93.072324 
1052.000000	92.986412 
1051.000000	92.893353 
1050.000000	92.796419 
1049.000000	92.695516 
1048.000000	92.589954 
1047.000000	92.482161 
1046.000000	92.375610 
1045.000000	92.271431 
1044.000000	92.168097 
1043.000000	92.062129 
1042.000000	91.949927 
1041.000000	91.832795 
1040.000000	91.719281 
1039.000000	91.617920 
1038.000000	91.528299 
1037.000000	91.444228 
1036.000000	91.364081 
1035.000000	91.291197 
1034.000000	91.225407 
1033.000000	91.162734 
1032.000000	91.104022 
1031.000000	91.055481 
1030.000000	91.019082 
1029.000000	90.990079 
1028.000000	90.965528 
1027.000000	90.947194 
1026.000000	90.933746 
1025.000000	90.918052 
1024.000000	90.895904 
1023.000000	90.871439 
1022.000000	90.850830 
1021.000000	90.835387 
1020.000000	90.822662 
1019.000000	90.809385 
1018.000000	90.792038 
1017.000000	90.769696 
1016.000000	90.747184 
1015.000000	90.730252 
1014.000000	90.717113 
1013.000000	90.700094 
1012.000000	90.675787 
1011.000000	90.648035 
1010.000000	90.621453 
1009.000000	90.598362 
1008.000000	90.581563 
1007.000000	90.572789 
1006.000000	90.568107 
1005.000000	90.562102 
1004.000000	90.557096 
1003.000000	90.561206 
1002.000000	90.576898 
1001.000000	90.598506 
1000.000000	90.621103 
999.000000	 90.644394 
998.000000	 90.667932 
997.000000	 90.690789 
996.000000	 90.716661 
995.000000	 90.751051 
994.000000	 90.791920 
993.000000	 90.830696 
992.000000	 90.863756 
991.000000	 90.895344 
990.000000	 90.928377 
989.000000	 90.960930 
988.000000	 90.993969 
987.000000	 91.034344 
986.000000	 91.086694 
985.000000	 91.148687 
984.000000	 91.216590 
983.000000	 91.289352 
982.000000	 91.365402 
981.000000	 91.442050 
980.000000	 91.520441 
979.000000	 91.605601 
978.000000	 91.699824 
977.000000	 91.800830 
976.000000	 91.906659 
975.000000	 92.016340 
974.000000	 92.125593 
973.000000	 92.229002 
972.000000	 92.328012 
971.000000	 92.430636 
970.000000	 92.541428 
969.000000	 92.656711 
968.000000	 92.770547 
967.000000	 92.880179 
966.000000	 92.985089 
965.000000	 93.086221 
964.000000	 93.186906 
963.000000	 93.289493 
962.000000	 93.390669 
961.000000	 93.485002 
960.000000	 93.572601 
959.000000	 93.657510 
958.000000	 93.739295 
957.000000	 93.813372 
956.000000	 93.880058 
955.000000	 93.945783 
954.000000	 94.013489 
953.000000	 94.078640 
952.000000	 94.137059 
951.000000	 94.190167 
950.000000	 94.239607 
949.000000	 94.282942 
948.000000	 94.318508 
947.000000	 94.349488 
946.000000	 94.379338 
945.000000	 94.407380 
944.000000	 94.432599 
943.000000	 94.458074 
942.000000	 94.487630 
941.000000	 94.520201 
940.000000	 94.550240 
939.000000	 94.572381 
938.000000	 94.585317 
937.000000	 94.593919 
936.000000	 94.607675 
935.000000	 94.632958 
934.000000	 94.665875 
933.000000	 94.696708 
932.000000	 94.721799 
931.000000	 94.746179 
930.000000	 94.773912 
929.000000	 94.801920 
928.000000	 94.825549 
927.000000	 94.844753 
926.000000	 94.861972 
925.000000	 94.878669 
924.000000	 94.896798 
923.000000	 94.918865 
922.000000	 94.943152 
921.000000	 94.962946 
920.000000	 94.973680 
919.000000	 94.977144 
918.000000	 94.976353 
917.000000	 94.971246 
916.000000	 94.963152 
915.000000	 94.958606 
914.000000	 94.963363 
913.000000	 94.975972 
912.000000	 94.992705 
911.000000	 95.016627 
910.000000	 95.056484 
909.000000	 95.117329 
908.000000	 95.195950 
907.000000	 95.284370 
906.000000	 95.374348 
905.000000	 95.459632 
904.000000	 95.537916 
903.000000	 95.611985 
902.000000	 95.687293 
901.000000	 95.767318 
900.000000	 95.851293 
899.000000	 95.935618 
898.000000	 96.016345 
897.000000	 96.090588 
896.000000	 96.156800 
895.000000	 96.214937 
894.000000	 96.266914 
893.000000	 96.316203 
892.000000	 96.365810 
891.000000	 96.416640 
890.000000	 96.468812 
889.000000	 96.523898 
888.000000	 96.583343 
887.000000	 96.644457 
886.000000	 96.701495 
885.000000	 96.752410 
884.000000	 96.801100 
883.000000	 96.850305 
882.000000	 96.895713 
881.000000	 96.931037 
880.000000	 96.956473 
879.000000	 96.978090 
878.000000	 97.001102 
877.000000	 97.028172 
876.000000	 97.061760 
875.000000	 97.101814 
874.000000	 97.142390 
873.000000	 97.177544 
872.000000	 97.210659 
871.000000	 97.251207 
870.000000	 97.301510 
869.000000	 97.353427 
868.000000	 97.399830 
867.000000	 97.442386 
866.000000	 97.484532 
865.000000	 97.522885 
864.000000	 97.551480 
863.000000	 97.571479 
862.000000	 97.590794 
861.000000	 97.614854 
860.000000	 97.642448 
859.000000	 97.670355 
858.000000	 97.697238 
857.000000	 97.721797 
856.000000	 97.741513 
855.000000	 97.756553 
854.000000	 97.772596 
853.000000	 97.795608 
852.000000	 97.823503 
851.000000	 97.846129 
850.000000	 97.855429 
849.000000	 97.854170 
848.000000	 97.852641 
847.000000	 97.857669 
846.000000	 97.866897 
845.000000	 97.873260 
844.000000	 97.872233 
843.000000	 97.864188 
842.000000	 97.852656 
841.000000	 97.841623 
840.000000	 97.831736 
839.000000	 97.817272 
838.000000	 97.790006 
837.000000	 97.749640 
836.000000	 97.708224 
835.000000	 97.680023 
834.000000	 97.667958 
833.000000	 97.664319 
832.000000	 97.663648 
831.000000	 97.668077 
830.000000	 97.678407 
829.000000	 97.687186 
828.000000	 97.686400 
827.000000	 97.678438 
826.000000	 97.672947 
825.000000	 97.673798 
824.000000	 97.675370 
823.000000	 97.672603 
822.000000	 97.669120 
821.000000	 97.672396 
820.000000	 97.684108 
819.000000	 97.698052 
818.000000	 97.706307 
817.000000	 97.705668 
816.000000	 97.697936 
815.000000	 97.684967 
814.000000	 97.664894 
813.000000	 97.633475 
812.000000	 97.587266 
811.000000	 97.523103 
810.000000	 97.434910 
809.000000	 97.314618 
808.000000	 97.159169 
807.000000	 96.976224 
806.000000	 96.780805 
805.000000	 96.586058 
804.000000	 96.398872 
803.000000	 96.223520 
802.000000	 96.066060 
801.000000	 95.933734 
800.000000	 95.831497 
799.000000	 95.761067 
798.000000	 95.724132 
797.000000	 95.724229 
796.000000	 95.760798 
795.000000	 95.820584 
794.000000	 95.881743 
793.000000	 95.931612 
792.000000	 95.975541 
791.000000	 96.022954 
790.000000	 96.069826 
789.000000	 96.101859 
788.000000	 96.110839 
787.000000	 96.099380 
786.000000	 96.071520 
785.000000	 96.027368 
784.000000	 95.967523 
783.000000	 95.895703 
782.000000	 95.816191 
781.000000	 95.735211 
780.000000	 95.665626 
779.000000	 95.623168 
778.000000	 95.615470 
777.000000	 95.639439 
776.000000	 95.688754 
775.000000	 95.756330 
774.000000	 95.829905 
773.000000	 95.895924 
772.000000	 95.952037 
771.000000	 96.008538 
770.000000	 96.072961 
769.000000	 96.138189 
768.000000	 96.189272 
767.000000	 96.217723 
766.000000	 96.226637 
765.000000	 96.226404 
764.000000	 96.228393 
763.000000	 96.238509 
762.000000	 96.252972 
761.000000	 96.263102 
760.000000	 96.266860 
759.000000	 96.273046 
758.000000	 96.291977 
757.000000	 96.324211 
756.000000	 96.359154 
755.000000	 96.381693 
754.000000	 96.380784 
753.000000	 96.357540 
752.000000	 96.327654 
751.000000	 96.312131 
750.000000	 96.321779 
749.000000	 96.351285 
748.000000	 96.388716 
747.000000	 96.427811 
746.000000	 96.470362 
745.000000	 96.520090 
744.000000	 96.576271 
743.000000	 96.632236 
742.000000	 96.680539 
741.000000	 96.721207 
740.000000	 96.762831 
739.000000	 96.812380 
738.000000	 96.865766 
737.000000	 96.911578 
736.000000	 96.941368 
735.000000	 96.952888 
734.000000	 96.948686 
733.000000	 96.939155 
732.000000	 96.943217 
731.000000	 96.974543 
730.000000	 97.024872 
729.000000	 97.069314 
728.000000	 97.090422 
727.000000	 97.090524 
726.000000	 97.080950 
725.000000	 97.069502 
724.000000	 97.061565 
723.000000	 97.063369 
722.000000	 97.077160 
721.000000	 97.098717 
720.000000	 97.124715 
719.000000	 97.157342 
718.000000	 97.197144 
717.000000	 97.236734 
716.000000	 97.266124 
715.000000	 97.279982 
714.000000	 97.277341 
713.000000	 97.260596 
712.000000	 97.239123 
711.000000	 97.227269 
710.000000	 97.231236 
709.000000	 97.240945 
708.000000	 97.240391 
707.000000	 97.223675 
706.000000	 97.197083 
705.000000	 97.169304 
704.000000	 97.144334 
703.000000	 97.119877 
702.000000	 97.086725 
701.000000	 97.032287 
700.000000	 96.950458 
699.000000	 96.847943 
698.000000	 96.738788 
697.000000	 96.635464 
696.000000	 96.548038 
695.000000	 96.487516 
694.000000	 96.464116 
693.000000	 96.482282 
692.000000	 96.537817 
691.000000	 96.616926 
690.000000	 96.698851 
689.000000	 96.765926 
688.000000	 96.814027 
687.000000	 96.848826 
686.000000	 96.871052 
685.000000	 96.873723 
684.000000	 96.856999 
683.000000	 96.837276 
682.000000	 96.836054 
681.000000	 96.863030 
680.000000	 96.910221 
679.000000	 96.957449 
678.000000	 96.984904 
677.000000	 96.989246 
676.000000	 96.988780 
675.000000	 97.002586 
674.000000	 97.025406 
673.000000	 97.035819 
672.000000	 97.028685 
671.000000	 97.024572 
670.000000	 97.044966 
669.000000	 97.088399 
668.000000	 97.119269 
667.000000	 97.112965 
666.000000	 97.093874 
665.000000	 97.079446 
664.000000	 97.070226 
663.000000	 97.075822 
662.000000	 97.100146 
661.000000	 97.125648 
660.000000	 97.127394 
659.000000	 97.099853 
658.000000	 97.058449 
657.000000	 97.021585 
656.000000	 97.002094 
655.000000	 97.007082 
654.000000	 97.029873 
653.000000	 97.050604 
652.000000	 97.059252 
651.000000	 97.069711 
650.000000	 97.097065 

