4000.000000	99.326195 
3999.000000	99.325599 
3998.000000	99.324993 
3997.000000	99.324643 
3996.000000	99.324592 
3995.000000	99.324706 
3994.000000	99.324896 
3993.000000	99.325208 
3992.000000	99.325647 
3991.000000	99.326015 
3990.000000	99.325987 
3989.000000	99.325332 
3988.000000	99.324105 
3987.000000	99.322703 
3986.000000	99.321693 
3985.000000	99.321488 
3984.000000	99.322077 
3983.000000	99.323084 
3982.000000	99.324119 
3981.000000	99.325075 
3980.000000	99.326014 
3979.000000	99.326893 
3978.000000	99.327499 
3977.000000	99.327637 
3976.000000	99.327237 
3975.000000	99.326304 
3974.000000	99.324878 
3973.000000	99.323147 
3972.000000	99.321514 
3971.000000	99.320456 
3970.000000	99.320283 
3969.000000	99.320950 
3968.000000	99.322036 
3967.000000	99.322934 
3966.000000	99.323227 
3965.000000	99.322878 
3964.000000	99.322150 
3963.000000	99.321399 
3962.000000	99.320869 
3961.000000	99.320592 
3960.000000	99.320391 
3959.000000	99.320027 
3958.000000	99.319515 
3957.000000	99.319184 
3956.000000	99.319342 
3955.000000	99.319891 
3954.000000	99.320386 
3953.000000	99.320496 
3952.000000	99.320266 
3951.000000	99.319971 
3950.000000	99.319751 
3949.000000	99.319472 
3948.000000	99.319007 
3947.000000	99.318559 
3946.000000	99.318482 
3945.000000	99.318755 
3944.000000	99.318831 
3943.000000	99.318161 
3942.000000	99.316867 
3941.000000	99.315718 
3940.000000	99.315232 
3939.000000	99.315135 
3938.000000	99.314916 
3937.000000	99.314469 
3936.000000	99.314090 
3935.000000	99.314012 
3934.000000	99.314258 
3933.000000	99.314847 
3932.000000	99.315764 
3931.000000	99.316776 
3930.000000	99.317483 
3929.000000	99.317605 
3928.000000	99.317250 
3927.000000	99.316587 
3926.000000	99.315615 
3925.000000	99.314438 
3924.000000	99.313463 
3923.000000	99.312935 
3922.000000	99.312423 
3921.000000	99.311465 
3920.000000	99.310397 
3919.000000	99.309866 
3918.000000	99.309885 
3917.000000	99.309915 
3916.000000	99.309736 
3915.000000	99.309636 
3914.000000	99.309793 
3913.000000	99.310026 
3912.000000	99.310129 
3911.000000	99.310025 
3910.000000	99.309784 
3909.000000	99.309521 
3908.000000	99.309348 
3907.000000	99.309283 
3906.000000	99.309251 
3905.000000	99.309167 
3904.000000	99.309019 
3903.000000	99.308864 
3902.000000	99.308729 
3901.000000	99.308586 
3900.000000	99.308428 
3899.000000	99.308266 
3898.000000	99.308101 
3897.000000	99.307933 
3896.000000	99.307768 
3895.000000	99.307608 
3894.000000	99.307451 
3893.000000	99.307295 
3892.000000	99.307138 
3891.000000	99.306981 
3890.000000	99.306824 
3889.000000	99.306674 
3888.000000	99.306531 
3887.000000	99.306389 
3886.000000	99.306248 
3885.000000	99.306115 
3884.000000	99.305997 
3883.000000	99.305896 
3882.000000	99.305808 
3881.000000	99.305728 
3880.000000	99.305657 
3879.000000	99.305602 
3878.000000	99.305564 
3877.000000	99.305535 
3876.000000	99.305503 
3875.000000	99.305460 
3874.000000	99.305407 
3873.000000	99.305348 
3872.000000	99.305289 
3871.000000	99.305233 
3870.000000	99.305188 
3869.000000	99.305165 
3868.000000	99.305169 
3867.000000	99.305197 
3866.000000	99.305229 
3865.000000	99.305250 
3864.000000	99.305265 
3863.000000	99.305294 
3862.000000	99.305339 
3861.000000	99.305377 
3860.000000	99.305394 
3859.000000	99.305379 
3858.000000	99.305306 
3857.000000	99.305191 
3856.000000	99.305163 
3855.000000	99.305363 
3854.000000	99.305690 
3853.000000	99.305807 
3852.000000	99.305889 
3851.000000	99.306248 
3850.000000	99.306739 
3849.000000	99.307114 
3848.000000	99.307389 
3847.000000	99.307663 
3846.000000	99.307963 
3845.000000	99.308250 
3844.000000	99.308484 
3843.000000	99.308642 
3842.000000	99.308750 
3841.000000	99.308835 
3840.000000	99.308911 
3839.000000	99.308976 
3838.000000	99.309025 
3837.000000	99.309058 
3836.000000	99.309095 
3835.000000	99.309145 
3834.000000	99.309197 
3833.000000	99.309246 
3832.000000	99.309298 
3831.000000	99.309360 
3830.000000	99.309431 
3829.000000	99.309496 
3828.000000	99.309539 
3827.000000	99.309556 
3826.000000	99.309560 
3825.000000	99.309564 
3824.000000	99.309575 
3823.000000	99.309595 
3822.000000	99.309615 
3821.000000	99.309621 
3820.000000	99.309609 
3819.000000	99.309583 
3818.000000	99.309544 
3817.000000	99.309485 
3816.000000	99.309408 
3815.000000	99.309323 
3814.000000	99.309234 
3813.000000	99.309138 
3812.000000	99.309026 
3811.000000	99.308905 
3810.000000	99.308784 
3809.000000	99.308664 
3808.000000	99.308538 
3807.000000	99.308401 
3806.000000	99.308259 
3805.000000	99.308118 
3804.000000	99.307983 
3803.000000	99.307850 
3802.000000	99.307723 
3801.000000	99.307612 
3800.000000	99.307531 
3799.000000	99.307487 
3798.000000	99.307467 
3797.000000	99.307460 
3796.000000	99.307457 
3795.000000	99.307483 
3794.000000	99.307570 
3793.000000	99.307703 
3792.000000	99.307839 
3791.000000	99.307962 
3790.000000	99.308075 
3789.000000	99.308179 
3788.000000	99.308295 
3787.000000	99.308484 
3786.000000	99.308761 
3785.000000	99.309034 
3784.000000	99.309254 
3783.000000	99.309505 
3782.000000	99.309813 
3781.000000	99.309951 
3780.000000	99.309685 
3779.000000	99.309048 
3778.000000	99.308402 
3777.000000	99.308033 
3776.000000	99.307833 
3775.000000	99.307602 
3774.000000	99.307456 
3773.000000	99.307637 
3772.000000	99.308072 
3771.000000	99.308340 
3770.000000	99.308164 
3769.000000	99.307775 
3768.000000	99.307627 
3767.000000	99.307744 
3766.000000	99.307788 
3765.000000	99.307634 
3764.000000	99.307584 
3763.000000	99.307931 
3762.000000	99.308480 
3761.000000	99.308867 
3760.000000	99.309081 
3759.000000	99.309189 
3758.000000	99.309085 
3757.000000	99.308724 
3756.000000	99.308361 
3755.000000	99.308154 
3754.000000	99.307967 
3753.000000	99.307986 
3752.000000	99.308633 
3751.000000	99.309068 
3750.000000	99.307551 
3749.000000	99.304454 
3748.000000	99.301927 
3747.000000	99.300519 
3746.000000	99.299238 
3745.000000	99.297180 
3744.000000	99.294243 
3743.000000	99.293716 
3742.000000	99.297354 
3741.000000	99.300394 
3740.000000	99.299673 
3739.000000	99.297619 
3738.000000	99.297378 
3737.000000	99.299017 
3736.000000	99.300552 
3735.000000	99.300977 
3734.000000	99.300348 
3733.000000	99.298116 
3732.000000	99.294358 
3731.000000	99.291675 
3730.000000	99.292268 
3729.000000	99.294758 
3728.000000	99.296265 
3727.000000	99.296351 
3726.000000	99.296879 
3725.000000	99.298935 
3724.000000	99.300721 
3723.000000	99.299917 
3722.000000	99.296901 
3721.000000	99.294171 
3720.000000	99.293507 
3719.000000	99.294100 
3718.000000	99.293810 
3717.000000	99.291349 
3716.000000	99.287075 
3715.000000	99.281761 
3714.000000	99.275915 
3713.000000	99.270340 
3712.000000	99.265337 
3711.000000	99.260682 
3710.000000	99.257441 
3709.000000	99.256353 
3708.000000	99.255729 
3707.000000	99.253217 
3706.000000	99.248211 
3705.000000	99.241957 
3704.000000	99.236190 
3703.000000	99.231884 
3702.000000	99.228419 
3701.000000	99.224654 
3700.000000	99.220876 
3699.000000	99.217387 
3698.000000	99.212809 
3697.000000	99.206202 
3696.000000	99.199062 
3695.000000	99.193727 
3694.000000	99.190600 
3693.000000	99.188490 
3692.000000	99.186755 
3691.000000	99.184943 
3690.000000	99.181229 
3689.000000	99.173736 
3688.000000	99.165094 
3687.000000	99.160999 
3686.000000	99.162499 
3685.000000	99.165228 
3684.000000	99.166042 
3683.000000	99.165802 
3682.000000	99.165872 
3681.000000	99.164913 
3680.000000	99.160397 
3679.000000	99.152707 
3678.000000	99.144512 
3677.000000	99.137662 
3676.000000	99.131384 
3675.000000	99.125609 
3674.000000	99.125757 
3673.000000	99.133030 
3672.000000	99.139755 
3671.000000	99.141943 
3670.000000	99.141329 
3669.000000	99.139874 
3668.000000	99.139419 
3667.000000	99.139049 
3666.000000	99.136903 
3665.000000	99.134094 
3664.000000	99.132882 
3663.000000	99.133744 
3662.000000	99.135379 
3661.000000	99.136723 
3660.000000	99.138371 
3659.000000	99.141807 
3658.000000	99.147039 
3657.000000	99.151927 
3656.000000	99.154461 
3655.000000	99.156701 
3654.000000	99.161666 
3653.000000	99.168552 
3652.000000	99.175298 
3651.000000	99.181215 
3650.000000	99.184504 
3649.000000	99.182542 
3648.000000	99.177012 
3647.000000	99.173034 
3646.000000	99.173308 
3645.000000	99.176756 
3644.000000	99.181125 
3643.000000	99.185070 
3642.000000	99.188627 
3641.000000	99.192349 
3640.000000	99.196612 
3639.000000	99.201510 
3638.000000	99.207117 
3637.000000	99.213292 
3636.000000	99.218723 
3635.000000	99.221459 
3634.000000	99.220988 
3633.000000	99.219265 
3632.000000	99.218774 
3631.000000	99.220473 
3630.000000	99.223585 
3629.000000	99.225326 
3628.000000	99.224556 
3627.000000	99.224707 
3626.000000	99.226830 
3625.000000	99.228772 
3624.000000	99.230350 
3623.000000	99.232719 
3622.000000	99.236003 
3621.000000	99.239202 
3620.000000	99.241397 
3619.000000	99.242487 
3618.000000	99.243494 
3617.000000	99.245590 
3616.000000	99.248396 
3615.000000	99.250404 
3614.000000	99.250576 
3613.000000	99.249037 
3612.000000	99.246863 
3611.000000	99.245170 
3610.000000	99.244463 
3609.000000	99.244921 
3608.000000	99.246461 
3607.000000	99.248607 
3606.000000	99.250701 
3605.000000	99.252306 
3604.000000	99.253668 
3603.000000	99.255434 
3602.000000	99.257649 
3601.000000	99.259721 
3600.000000	99.261326 
3599.000000	99.262728 
3598.000000	99.264032 
3597.000000	99.265074 
3596.000000	99.265560 
3595.000000	99.265247 
3594.000000	99.264237 
3593.000000	99.263370 
3592.000000	99.263602 
3591.000000	99.265176 
3590.000000	99.267445 
3589.000000	99.269168 
3588.000000	99.269114 
3587.000000	99.267276 
3586.000000	99.265359 
3585.000000	99.264786 
3584.000000	99.265162 
3583.000000	99.265517 
3582.000000	99.265373 
3581.000000	99.264651 
3580.000000	99.263446 
3579.000000	99.262102 
3578.000000	99.261053 
3577.000000	99.260625 
3576.000000	99.260917 
3575.000000	99.261795 
3574.000000	99.262974 
3573.000000	99.264109 
3572.000000	99.264976 
3571.000000	99.265514 
3570.000000	99.265744 
3569.000000	99.265587 
3568.000000	99.264851 
3567.000000	99.263593 
3566.000000	99.262534 
3565.000000	99.262408 
3564.000000	99.263020 
3563.000000	99.263632 
3562.000000	99.263834 
3561.000000	99.263744 
3560.000000	99.263644 
3559.000000	99.263672 
3558.000000	99.263776 
3557.000000	99.263866 
3556.000000	99.263983 
3555.000000	99.264234 
3554.000000	99.264592 
3553.000000	99.264821 
3552.000000	99.264678 
3551.000000	99.264154 
3550.000000	99.263421 
3549.000000	99.262686 
3548.000000	99.262147 
3547.000000	99.261953 
3546.000000	99.262112 
3545.000000	99.262506 
3544.000000	99.262979 
3543.000000	99.263363 
3542.000000	99.263532 
3541.000000	99.263504 
3540.000000	99.263479 
3539.000000	99.263661 
3538.000000	99.264052 
3537.000000	99.264440 
3536.000000	99.264603 
3535.000000	99.264513 
3534.000000	99.264294 
3533.000000	99.264089 
3532.000000	99.263972 
3531.000000	99.263958 
3530.000000	99.264022 
3529.000000	99.264137 
3528.000000	99.264314 
3527.000000	99.264598 
3526.000000	99.264977 
3525.000000	99.265321 
3524.000000	99.265476 
3523.000000	99.265409 
3522.000000	99.265225 
3521.000000	99.265061 
3520.000000	99.264949 
3519.000000	99.264855 
3518.000000	99.264771 
3517.000000	99.264724 
3516.000000	99.264725 
3515.000000	99.264755 
3514.000000	99.264793 
3513.000000	99.264832 
3512.000000	99.264850 
3511.000000	99.264808 
3510.000000	99.264693 
3509.000000	99.264547 
3508.000000	99.264433 
3507.000000	99.264363 
3506.000000	99.264281 
3505.000000	99.264120 
3504.000000	99.263863 
3503.000000	99.263565 
3502.000000	99.263330 
3501.000000	99.263231 
3500.000000	99.263267 
3499.000000	99.263337 
3498.000000	99.263304 
3497.000000	99.263104 
3496.000000	99.262780 
3495.000000	99.262437 
3494.000000	99.262111 
3493.000000	99.261758 
3492.000000	99.261358 
3491.000000	99.260970 
3490.000000	99.260669 
3489.000000	99.260461 
3488.000000	99.260290 
3487.000000	99.260119 
3486.000000	99.259950 
3485.000000	99.259777 
3484.000000	99.259577 
3483.000000	99.259350 
3482.000000	99.259112 
3481.000000	99.258799 
3480.000000	99.258289 
3479.000000	99.257561 
3478.000000	99.256799 
3477.000000	99.256206 
3476.000000	99.255742 
3475.000000	99.255161 
3474.000000	99.254388 
3473.000000	99.253742 
3472.000000	99.253589 
3471.000000	99.253885 
3470.000000	99.254177 
3469.000000	99.254091 
3468.000000	99.253664 
3467.000000	99.253157 
3466.000000	99.252671 
3465.000000	99.252052 
3464.000000	99.251149 
3463.000000	99.250065 
3462.000000	99.249118 
3461.000000	99.248543 
3460.000000	99.248291 
3459.000000	99.248137 
3458.000000	99.247942 
3457.000000	99.247745 
3456.000000	99.247584 
3455.000000	99.247372 
3454.000000	99.247017 
3453.000000	99.246640 
3452.000000	99.246500 
3451.000000	99.246723 
3450.000000	99.247168 
3449.000000	99.247541 
3448.000000	99.247586 
3447.000000	99.247211 
3446.000000	99.246553 
3445.000000	99.245961 
3444.000000	99.245769 
3443.000000	99.246043 
3442.000000	99.246523 
3441.000000	99.246848 
3440.000000	99.246881 
3439.000000	99.246749 
3438.000000	99.246616 
3437.000000	99.246490 
3436.000000	99.246299 
3435.000000	99.246105 
3434.000000	99.246097 
3433.000000	99.246375 
3432.000000	99.246753 
3431.000000	99.246871 
3430.000000	99.246468 
3429.000000	99.245584 
3428.000000	99.244545 
3427.000000	99.243708 
3426.000000	99.243243 
3425.000000	99.243140 
3424.000000	99.243376 
3423.000000	99.243938 
3422.000000	99.244690 
3421.000000	99.245311 
3420.000000	99.245512 
3419.000000	99.245287 
3418.000000	99.244929 
3417.000000	99.244775 
3416.000000	99.244881 
3415.000000	99.244986 
3414.000000	99.244777 
3413.000000	99.244219 
3412.000000	99.243579 
3411.000000	99.243180 
3410.000000	99.243183 
3409.000000	99.243584 
3408.000000	99.244253 
3407.000000	99.244912 
3406.000000	99.245198 
3405.000000	99.244929 
3404.000000	99.244329 
3403.000000	99.243930 
3402.000000	99.244173 
3401.000000	99.245086 
3400.000000	99.246251 
3399.000000	99.247137 
3398.000000	99.247585 
3397.000000	99.247928 
3396.000000	99.248492 
3395.000000	99.249067 
3394.000000	99.249139 
3393.000000	99.248601 
3392.000000	99.247949 
3391.000000	99.247659 
3390.000000	99.247691 
3389.000000	99.247777 
3388.000000	99.247861 
3387.000000	99.247975 
3386.000000	99.247936 
3385.000000	99.247505 
3384.000000	99.246778 
3383.000000	99.246155 
3382.000000	99.245889 
3381.000000	99.245822 
3380.000000	99.245542 
3379.000000	99.244752 
3378.000000	99.243613 
3377.000000	99.242804 
3376.000000	99.243042 
3375.000000	99.244437 
3374.000000	99.246388 
3373.000000	99.248103 
3372.000000	99.249199 
3371.000000	99.249727 
3370.000000	99.249905 
3369.000000	99.249991 
3368.000000	99.250206 
3367.000000	99.250533 
3366.000000	99.250679 
3365.000000	99.250410 
3364.000000	99.249881 
3363.000000	99.249476 
3362.000000	99.249357 
3361.000000	99.249341 
3360.000000	99.249171 
3359.000000	99.248810 
3358.000000	99.248488 
3357.000000	99.248514 
3356.000000	99.249003 
3355.000000	99.249744 
3354.000000	99.250332 
3353.000000	99.250546 
3352.000000	99.250530 
3351.000000	99.250610 
3350.000000	99.250962 
3349.000000	99.251516 
3348.000000	99.252088 
3347.000000	99.252527 
3346.000000	99.252764 
3345.000000	99.252810 
3344.000000	99.252752 
3343.000000	99.252703 
3342.000000	99.252740 
3341.000000	99.252891 
3340.000000	99.253166 
3339.000000	99.253543 
3338.000000	99.253934 
3337.000000	99.254226 
3336.000000	99.254381 
3335.000000	99.254460 
3334.000000	99.254574 
3333.000000	99.254790 
3332.000000	99.255092 
3331.000000	99.255408 
3330.000000	99.255677 
3329.000000	99.255908 
3328.000000	99.256162 
3327.000000	99.256476 
3326.000000	99.256819 
3325.000000	99.257136 
3324.000000	99.257418 
3323.000000	99.257709 
3322.000000	99.258051 
3321.000000	99.258426 
3320.000000	99.258753 
3319.000000	99.258975 
3318.000000	99.259110 
3317.000000	99.259227 
3316.000000	99.259377 
3315.000000	99.259559 
3314.000000	99.259749 
3313.000000	99.259920 
3312.000000	99.260065 
3311.000000	99.260193 
3310.000000	99.260311 
3309.000000	99.260423 
3308.000000	99.260526 
3307.000000	99.260623 
3306.000000	99.260716 
3305.000000	99.260806 
3304.000000	99.260893 
3303.000000	99.260979 
3302.000000	99.261068 
3301.000000	99.261170 
3300.000000	99.261298 
3299.000000	99.261452 
3298.000000	99.261613 
3297.000000	99.261752 
3296.000000	99.261856 
3295.000000	99.261936 
3294.000000	99.262015 
3293.000000	99.262111 
3292.000000	99.262230 
3291.000000	99.262368 
3290.000000	99.262503 
3289.000000	99.262596 
3288.000000	99.262617 
3287.000000	99.262572 
3286.000000	99.262510 
3285.000000	99.262495 
3284.000000	99.262553 
3283.000000	99.262644 
3282.000000	99.262690 
3281.000000	99.262648 
3280.000000	99.262528 
3279.000000	99.262352 
3278.000000	99.262139 
3277.000000	99.261951 
3276.000000	99.261900 
3275.000000	99.262058 
3274.000000	99.262383 
3273.000000	99.262725 
3272.000000	99.262904 
3271.000000	99.262795 
3270.000000	99.262392 
3269.000000	99.261883 
3268.000000	99.261587 
3267.000000	99.261704 
3266.000000	99.262191 
3265.000000	99.262836 
3264.000000	99.263450 
3263.000000	99.263951 
3262.000000	99.264302 
3261.000000	99.264502 
3260.000000	99.264599 
3259.000000	99.264652 
3258.000000	99.264667 
3257.000000	99.264617 
3256.000000	99.264504 
3255.000000	99.264343 
3254.000000	99.264143 
3253.000000	99.263942 
3252.000000	99.263841 
3251.000000	99.263906 
3250.000000	99.264064 
3249.000000	99.264151 
3248.000000	99.264068 
3247.000000	99.263854 
3246.000000	99.263598 
3245.000000	99.263361 
3244.000000	99.263202 
3243.000000	99.263244 
3242.000000	99.263646 
3241.000000	99.264485 
3240.000000	99.265608 
3239.000000	99.266577 
3238.000000	99.266931 
3237.000000	99.266543 
3236.000000	99.265769 
3235.000000	99.265197 
3234.000000	99.265124 
3233.000000	99.265444 
3232.000000	99.265948 
3231.000000	99.266569 
3230.000000	99.267269 
3229.000000	99.267817 
3228.000000	99.267873 
3227.000000	99.267291 
3226.000000	99.266259 
3225.000000	99.265213 
3224.000000	99.264612 
3223.000000	99.264697 
3222.000000	99.265382 
3221.000000	99.266335 
3220.000000	99.267214 
3219.000000	99.267793 
3218.000000	99.267925 
3217.000000	99.267543 
3216.000000	99.266800 
3215.000000	99.266123 
3214.000000	99.265954 
3213.000000	99.266421 
3212.000000	99.267350 
3211.000000	99.268518 
3210.000000	99.269833 
3209.000000	99.271264 
3208.000000	99.272660 
3207.000000	99.273740 
3206.000000	99.274265 
3205.000000	99.274302 
3204.000000	99.274286 
3203.000000	99.274713 
3202.000000	99.275749 
3201.000000	99.277159 
3200.000000	99.278555 
3199.000000	99.279582 
3198.000000	99.279955 
3197.000000	99.279617 
3196.000000	99.278931 
3195.000000	99.278469 
3194.000000	99.278367 
3193.000000	99.278112 
3192.000000	99.277251 
3191.000000	99.276158 
3190.000000	99.275765 
3189.000000	99.276577 
3188.000000	99.278187 
3187.000000	99.279686 
3186.000000	99.280401 
3185.000000	99.280168 
3184.000000	99.279175 
3183.000000	99.277769 
3182.000000	99.276395 
3181.000000	99.275527 
3180.000000	99.275476 
3179.000000	99.276192 
3178.000000	99.277245 
3177.000000	99.278030 
3176.000000	99.278147 
3175.000000	99.277712 
3174.000000	99.277334 
3173.000000	99.277694 
3172.000000	99.279004 
3171.000000	99.280797 
3170.000000	99.282242 
3169.000000	99.282860 
3168.000000	99.282898 
3167.000000	99.283022 
3166.000000	99.283645 
3165.000000	99.284605 
3164.000000	99.285447 
3163.000000	99.285914 
3162.000000	99.286095 
3161.000000	99.286217 
3160.000000	99.286439 
3159.000000	99.286779 
3158.000000	99.287130 
3157.000000	99.287323 
3156.000000	99.287264 
3155.000000	99.287056 
3154.000000	99.286967 
3153.000000	99.287217 
3152.000000	99.287800 
3151.000000	99.288466 
3150.000000	99.288897 
3149.000000	99.288957 
3148.000000	99.288803 
3147.000000	99.288759 
3146.000000	99.289029 
3145.000000	99.289537 
3144.000000	99.290047 
3143.000000	99.290434 
3142.000000	99.290794 
3141.000000	99.291272 
3140.000000	99.291842 
3139.000000	99.292309 
3138.000000	99.292515 
3137.000000	99.292490 
3136.000000	99.292403 
3135.000000	99.292384 
3134.000000	99.292449 
3133.000000	99.292551 
3132.000000	99.292666 
3131.000000	99.292801 
3130.000000	99.292951 
3129.000000	99.293079 
3128.000000	99.293153 
3127.000000	99.293193 
3126.000000	99.293260 
3125.000000	99.293394 
3124.000000	99.293576 
3123.000000	99.293750 
3122.000000	99.293879 
3121.000000	99.293974 
3120.000000	99.294085 
3119.000000	99.294254 
3118.000000	99.294464 
3117.000000	99.294638 
3116.000000	99.294703 
3115.000000	99.294672 
3114.000000	99.294644 
3113.000000	99.294697 
3112.000000	99.294804 
3111.000000	99.294891 
3110.000000	99.294952 
3109.000000	99.295051 
3108.000000	99.295196 
3107.000000	99.295284 
3106.000000	99.295221 
3105.000000	99.295060 
3104.000000	99.294975 
3103.000000	99.295096 
3102.000000	99.295424 
3101.000000	99.295864 
3100.000000	99.296281 
3099.000000	99.296551 
3098.000000	99.296604 
3097.000000	99.296464 
3096.000000	99.296269 
3095.000000	99.296216 
3094.000000	99.296434 
3093.000000	99.296897 
3092.000000	99.297419 
3091.000000	99.297733 
3090.000000	99.297609 
3089.000000	99.297052 
3088.000000	99.296495 
3087.000000	99.296610 
3086.000000	99.297678 
3085.000000	99.299168 
3084.000000	99.300213 
3083.000000	99.300441 
3082.000000	99.300126 
3081.000000	99.299611 
3080.000000	99.298953 
3079.000000	99.298254 
3078.000000	99.297936 
3077.000000	99.298225 
3076.000000	99.298574 
3075.000000	99.298124 
3074.000000	99.296784 
3073.000000	99.295476 
3072.000000	99.295240 
3071.000000	99.296397 
3070.000000	99.298545 
3069.000000	99.300698 
3068.000000	99.301196 
3067.000000	99.298314 
3066.000000	99.291922 
3065.000000	99.284476 
3064.000000	99.279410 
3063.000000	99.278186 
3062.000000	99.279437 
3061.000000	99.281071 
3060.000000	99.282583 
3059.000000	99.284851 
3058.000000	99.288193 
3057.000000	99.291473 
3056.000000	99.293215 
3055.000000	99.293160 
3054.000000	99.292375 
3053.000000	99.291978 
3052.000000	99.292002 
3051.000000	99.291523 
3050.000000	99.289720 
3049.000000	99.286529 
3048.000000	99.282202 
3047.000000	99.276667 
3046.000000	99.269918 
3045.000000	99.262949 
3044.000000	99.257616 
3043.000000	99.255176 
3042.000000	99.255211 
3041.000000	99.256109 
3040.000000	99.256305 
3039.000000	99.254976 
3038.000000	99.252021 
3037.000000	99.247846 
3036.000000	99.242976 
3035.000000	99.237619 
3034.000000	99.231781 
3033.000000	99.225629 
3032.000000	99.219284 
3031.000000	99.212316 
3030.000000	99.203786 
3029.000000	99.193020 
3028.000000	99.180296 
3027.000000	99.166684 
3026.000000	99.153478 
3025.000000	99.141896 
3024.000000	99.132666 
3023.000000	99.125189 
3022.000000	99.117320 
3021.000000	99.106789 
3020.000000	99.093184 
3019.000000	99.078346 
3018.000000	99.064753 
3017.000000	99.053624 
3016.000000	99.044324 
3015.000000	99.035082 
3014.000000	99.024123 
3013.000000	99.010451 
3012.000000	98.993870 
3011.000000	98.974603 
3010.000000	98.953376 
3009.000000	98.931971 
3008.000000	98.913025 
3007.000000	98.898416 
3006.000000	98.887681 
3005.000000	98.878208 
3004.000000	98.866866 
3003.000000	98.851486 
3002.000000	98.831674 
3001.000000	98.809366 
3000.000000	98.788331 
2999.000000	98.771698 
2998.000000	98.759579 
2997.000000	98.749944 
2996.000000	98.741764 
2995.000000	98.735471 
2994.000000	98.729248 
2993.000000	98.716969 
2992.000000	98.693000 
2991.000000	98.659615 
2990.000000	98.627509 
2989.000000	98.607286 
2988.000000	98.601401 
2987.000000	98.604776 
2986.000000	98.611413 
2985.000000	98.618951 
2984.000000	98.627264 
2983.000000	98.635235 
2982.000000	98.640541 
2981.000000	98.641813 
2980.000000	98.639839 
2979.000000	98.636650 
2978.000000	98.633991 
2977.000000	98.632456 
2976.000000	98.631419 
2975.000000	98.629700 
2974.000000	98.626770 
2973.000000	98.623497 
2972.000000	98.621561 
2971.000000	98.622127 
2970.000000	98.625338 
2969.000000	98.631023 
2968.000000	98.639402 
2967.000000	98.650781 
2966.000000	98.664689 
2965.000000	98.679601 
2964.000000	98.693615 
2963.000000	98.705464 
2962.000000	98.714986 
2961.000000	98.722769 
2960.000000	98.729493 
2959.000000	98.735774 
2958.000000	98.742462 
2957.000000	98.750423 
2956.000000	98.759382 
2955.000000	98.767331 
2954.000000	98.772154 
2953.000000	98.774442 
2952.000000	98.778092 
2951.000000	98.787117 
2950.000000	98.801503 
2949.000000	98.816630 
2948.000000	98.827205 
2947.000000	98.831574 
2946.000000	98.832308 
2945.000000	98.833267 
2944.000000	98.836237 
2943.000000	98.840288 
2942.000000	98.843730 
2941.000000	98.845904 
2940.000000	98.847088 
2939.000000	98.847427 
2938.000000	98.846550 
2937.000000	98.844260 
2936.000000	98.841454 
2935.000000	98.840062 
2934.000000	98.841647 
2933.000000	98.845746 
2932.000000	98.849679 
2931.000000	98.850450 
2930.000000	98.847197 
2929.000000	98.841820 
2928.000000	98.837252 
2927.000000	98.835210 
2926.000000	98.835499 
2925.000000	98.836751 
2924.000000	98.837377 
2923.000000	98.836321 
2922.000000	98.833700 
2921.000000	98.830739 
2920.000000	98.828536 
2919.000000	98.826856 
2918.000000	98.824528 
2917.000000	98.820920 
2916.000000	98.816458 
2915.000000	98.811802 
2914.000000	98.807244 
2913.000000	98.803148 
2912.000000	98.800199 
2911.000000	98.798637 
2910.000000	98.797651 
2909.000000	98.796058 
2908.000000	98.793392 
2907.000000	98.789848 
2906.000000	98.785286 
2905.000000	98.778797 
2904.000000	98.769565 
2903.000000	98.758360 
2902.000000	98.748470 
2901.000000	98.744707 
2900.000000	98.750485 
2899.000000	98.764836 
2898.000000	98.781925 
2897.000000	98.794817 
2896.000000	98.800687 
2895.000000	98.802411 
2894.000000	98.805082 
2893.000000	98.811157 
2892.000000	98.818964 
2891.000000	98.825256 
2890.000000	98.828607 
2889.000000	98.830202 
2888.000000	98.831967 
2887.000000	98.834704 
2886.000000	98.838210 
2885.000000	98.842473 
2884.000000	98.847986 
2883.000000	98.854995 
2882.000000	98.863158 
2881.000000	98.872224 
2880.000000	98.882597 
2879.000000	98.894836 
2878.000000	98.908774 
2877.000000	98.923252 
2876.000000	98.936499 
2875.000000	98.946704 
2874.000000	98.952815 
2873.000000	98.955426 
2872.000000	98.956866 
2871.000000	98.959903 
2870.000000	98.966058 
2869.000000	98.975002 
2868.000000	98.985251 
2867.000000	98.995395 
2866.000000	99.005177 
2865.000000	99.015764 
2864.000000	99.028569 
2863.000000	99.043214 
2862.000000	99.056941 
2861.000000	99.066850 
2860.000000	99.072836 
2859.000000	99.077784 
2858.000000	99.084781 
2857.000000	99.094556 
2856.000000	99.105714 
2855.000000	99.116708 
2854.000000	99.126913 
2853.000000	99.136180 
2852.000000	99.144163 
2851.000000	99.150451 
2850.000000	99.155319 
2849.000000	99.159944 
2848.000000	99.165536 
2847.000000	99.172218 
2846.000000	99.178899 
2845.000000	99.184351 
2844.000000	99.188343 
2843.000000	99.191752 
2842.000000	99.195793 
2841.000000	99.201179 
2840.000000	99.207628 
2839.000000	99.213818 
2838.000000	99.218044 
2837.000000	99.219422 
2836.000000	99.218677 
2835.000000	99.217726 
2834.000000	99.218400 
2833.000000	99.221417 
2832.000000	99.226141 
2831.000000	99.231006 
2830.000000	99.234499 
2829.000000	99.236341 
2828.000000	99.237854 
2827.000000	99.240836 
2826.000000	99.245794 
2825.000000	99.251291 
2824.000000	99.255106 
2823.000000	99.256141 
2822.000000	99.255397 
2821.000000	99.255142 
2820.000000	99.256792 
2819.000000	99.259574 
2818.000000	99.261599 
2817.000000	99.262221 
2816.000000	99.262695 
2815.000000	99.264328 
2814.000000	99.266795 
2813.000000	99.268865 
2812.000000	99.270076 
2811.000000	99.270740 
2810.000000	99.270770 
2809.000000	99.269718 
2808.000000	99.268007 
2807.000000	99.267082 
2806.000000	99.267916 
2805.000000	99.270082 
2804.000000	99.272580 
2803.000000	99.274935 
2802.000000	99.277115 
2801.000000	99.278937 
2800.000000	99.280111 
2799.000000	99.280616 
2798.000000	99.280636 
2797.000000	99.280296 
2796.000000	99.279734 
2795.000000	99.279300 
2794.000000	99.279407 
2793.000000	99.280176 
2792.000000	99.281365 
2791.000000	99.282586 
2790.000000	99.283585 
2789.000000	99.284426 
2788.000000	99.285420 
2787.000000	99.286723 
2786.000000	99.288065 
2785.000000	99.289044 
2784.000000	99.289646 
2783.000000	99.290250 
2782.000000	99.291081 
2781.000000	99.291942 
2780.000000	99.292577 
2779.000000	99.293048 
2778.000000	99.293602 
2777.000000	99.294332 
2776.000000	99.295117 
2775.000000	99.295773 
2774.000000	99.296130 
2773.000000	99.296060 
2772.000000	99.295649 
2771.000000	99.295281 
2770.000000	99.295393 
2769.000000	99.296148 
2768.000000	99.297421 
2767.000000	99.298957 
2766.000000	99.300434 
2765.000000	99.301441 
2764.000000	99.301697 
2763.000000	99.301364 
2762.000000	99.300996 
2761.000000	99.301054 
2760.000000	99.301577 
2759.000000	99.302320 
2758.000000	99.303015 
2757.000000	99.303485 
2756.000000	99.303760 
2755.000000	99.304166 
2754.000000	99.305025 
2753.000000	99.306126 
2752.000000	99.306728 
2751.000000	99.306340 
2750.000000	99.305294 
2749.000000	99.304392 
2748.000000	99.303998 
2747.000000	99.303819 
2746.000000	99.303531 
2745.000000	99.303272 
2744.000000	99.303371 
2743.000000	99.303888 
2742.000000	99.304637 
2741.000000	99.305493 
2740.000000	99.306497 
2739.000000	99.307724 
2738.000000	99.309168 
2737.000000	99.310706 
2736.000000	99.312084 
2735.000000	99.312975 
2734.000000	99.313161 
2733.000000	99.312734 
2732.000000	99.312099 
2731.000000	99.311747 
2730.000000	99.311916 
2729.000000	99.312446 
2728.000000	99.313006 
2727.000000	99.313477 
2726.000000	99.314032 
2725.000000	99.314792 
2724.000000	99.315598 
2723.000000	99.316299 
2722.000000	99.317113 
2721.000000	99.318392 
2720.000000	99.319995 
2719.000000	99.321200 
2718.000000	99.321387 
2717.000000	99.320630 
2716.000000	99.319592 
2715.000000	99.319019 
2714.000000	99.319386 
2713.000000	99.320747 
2712.000000	99.322589 
2711.000000	99.324002 
2710.000000	99.324396 
2709.000000	99.324002 
2708.000000	99.323504 
2707.000000	99.323166 
2706.000000	99.322591 
2705.000000	99.321461 
2704.000000	99.320141 
2703.000000	99.319361 
2702.000000	99.319420 
2701.000000	99.319908 
2700.000000	99.320169 
2699.000000	99.319939 
2698.000000	99.319501 
2697.000000	99.319268 
2696.000000	99.319332 
2695.000000	99.319498 
2694.000000	99.319683 
2693.000000	99.320015 
2692.000000	99.320468 
2691.000000	99.320655 
2690.000000	99.320315 
2689.000000	99.319884 
2688.000000	99.320199 
2687.000000	99.321554 
2686.000000	99.323287 
2685.000000	99.324420 
2684.000000	99.324582 
2683.000000	99.324177 
2682.000000	99.323844 
2681.000000	99.323922 
2680.000000	99.324341 
2679.000000	99.324811 
2678.000000	99.325100 
2677.000000	99.325215 
2676.000000	99.325331 
2675.000000	99.325511 
2674.000000	99.325564 
2673.000000	99.325252 
2672.000000	99.324574 
2671.000000	99.323730 
2670.000000	99.322814 
2669.000000	99.321664 
2668.000000	99.320176 
2667.000000	99.318709 
2666.000000	99.317949 
2665.000000	99.318273 
2664.000000	99.319367 
2663.000000	99.320505 
2662.000000	99.321245 
2661.000000	99.321693 
2660.000000	99.322051 
2659.000000	99.322247 
2658.000000	99.322128 
2657.000000	99.321794 
2656.000000	99.321550 
2655.000000	99.321578 
2654.000000	99.321822 
2653.000000	99.322099 
2652.000000	99.322199 
2651.000000	99.321971 
2650.000000	99.321467 
2649.000000	99.320973 
2648.000000	99.320747 
2647.000000	99.320761 
2646.000000	99.320817 
2645.000000	99.320851 
2644.000000	99.320943 
2643.000000	99.321072 
2642.000000	99.321108 
2641.000000	99.321097 
2640.000000	99.321271 
2639.000000	99.321723 
2638.000000	99.322262 
2637.000000	99.322624 
2636.000000	99.322734 
2635.000000	99.322669 
2634.000000	99.322534 
2633.000000	99.322439 
2632.000000	99.322472 
2631.000000	99.322649 
2630.000000	99.322899 
2629.000000	99.323138 
2628.000000	99.323342 
2627.000000	99.323538 
2626.000000	99.323749 
2625.000000	99.323973 
2624.000000	99.324217 
2623.000000	99.324479 
2622.000000	99.324713 
2621.000000	99.324844 
2620.000000	99.324845 
2619.000000	99.324769 
2618.000000	99.324701 
2617.000000	99.324682 
2616.000000	99.324720 
2615.000000	99.324823 
2614.000000	99.324975 
2613.000000	99.325116 
2612.000000	99.325197 
2611.000000	99.325235 
2610.000000	99.325285 
2609.000000	99.325402 
2608.000000	99.325631 
2607.000000	99.325962 
2606.000000	99.326291 
2605.000000	99.326476 
2604.000000	99.326447 
2603.000000	99.326200 
2602.000000	99.325724 
2601.000000	99.325073 
2600.000000	99.324519 
2599.000000	99.324401 
2598.000000	99.324808 
2597.000000	99.325426 
2596.000000	99.325796 
2595.000000	99.325731 
2594.000000	99.325337 
2593.000000	99.324771 
2592.000000	99.324189 
2591.000000	99.323808 
2590.000000	99.323800 
2589.000000	99.324108 
2588.000000	99.324486 
2587.000000	99.324737 
2586.000000	99.324754 
2585.000000	99.324390 
2584.000000	99.323526 
2583.000000	99.322316 
2582.000000	99.321223 
2581.000000	99.320622 
2580.000000	99.320467 
2579.000000	99.320421 
2578.000000	99.320232 
2577.000000	99.319938 
2576.000000	99.319734 
2575.000000	99.319769 
2574.000000	99.320030 
2573.000000	99.320349 
2572.000000	99.320488 
2571.000000	99.320295 
2570.000000	99.319803 
2569.000000	99.319229 
2568.000000	99.318834 
2567.000000	99.318745 
2566.000000	99.318880 
2565.000000	99.319040 
2564.000000	99.319103 
2563.000000	99.319102 
2562.000000	99.319100 
2561.000000	99.319077 
2560.000000	99.319037 
2559.000000	99.319164 
2558.000000	99.319654 
2557.000000	99.320303 
2556.000000	99.320513 
2555.000000	99.319994 
2554.000000	99.319295 
2553.000000	99.319339 
2552.000000	99.320364 
2551.000000	99.321593 
2550.000000	99.322109 
2549.000000	99.321854 
2548.000000	99.321415 
2547.000000	99.321037 
2546.000000	99.320367 
2545.000000	99.319262 
2544.000000	99.318342 
2543.000000	99.318447 
2542.000000	99.319723 
2541.000000	99.321413 
2540.000000	99.322472 
2539.000000	99.322323 
2538.000000	99.321044 
2537.000000	99.319161 
2536.000000	99.317260 
2535.000000	99.315689 
2534.000000	99.314582 
2533.000000	99.314130 
2532.000000	99.314574 
2531.000000	99.315804 
2530.000000	99.317229 
2529.000000	99.318377 
2528.000000	99.319446 
2527.000000	99.320929 
2526.000000	99.322793 
2525.000000	99.324409 
2524.000000	99.325350 
2523.000000	99.325864 
2522.000000	99.326418 
2521.000000	99.327014 
2520.000000	99.327215 
2519.000000	99.326727 
2518.000000	99.325772 
2517.000000	99.324926 
2516.000000	99.324667 
2515.000000	99.325045 
2514.000000	99.325733 
2513.000000	99.326320 
2512.000000	99.326442 
2511.000000	99.325709 
2510.000000	99.323922 
2509.000000	99.321646 
2508.000000	99.320196 
2507.000000	99.320459 
2506.000000	99.321767 
2505.000000	99.322347 
2504.000000	99.321144 
2503.000000	99.318842 
2502.000000	99.317058 
2501.000000	99.316816 
2500.000000	99.318097 
2499.000000	99.320385 
2498.000000	99.323125 
2497.000000	99.325758 
2496.000000	99.327733 
2495.000000	99.328717 
2494.000000	99.328613 
2493.000000	99.327413 
2492.000000	99.325283 
2491.000000	99.322752 
2490.000000	99.320588 
2489.000000	99.319308 
2488.000000	99.318858 
2487.000000	99.318764 
2486.000000	99.318615 
2485.000000	99.318461 
2484.000000	99.318727 
2483.000000	99.319684 
2482.000000	99.321009 
2481.000000	99.321936 
2480.000000	99.321973 
2479.000000	99.321352 
2478.000000	99.320721 
2477.000000	99.320440 
2476.000000	99.320337 
2475.000000	99.320156 
2474.000000	99.319987 
2473.000000	99.320102 
2472.000000	99.320520 
2471.000000	99.320978 
2470.000000	99.321241 
2469.000000	99.321238 
2468.000000	99.320923 
2467.000000	99.320245 
2466.000000	99.319367 
2465.000000	99.318732 
2464.000000	99.318685 
2463.000000	99.319134 
2462.000000	99.319651 
2461.000000	99.319823 
2460.000000	99.319525 
2459.000000	99.318880 
2458.000000	99.318189 
2457.000000	99.317798 
2456.000000	99.317824 
2455.000000	99.317972 
2454.000000	99.317738 
2453.000000	99.316912 
2452.000000	99.315798 
2451.000000	99.314935 
2450.000000	99.314578 
2449.000000	99.314575 
2448.000000	99.314650 
2447.000000	99.314718 
2446.000000	99.314864 
2445.000000	99.315147 
2444.000000	99.315558 
2443.000000	99.316054 
2442.000000	99.316541 
2441.000000	99.316848 
2440.000000	99.316810 
2439.000000	99.316428 
2438.000000	99.315890 
2437.000000	99.315446 
2436.000000	99.315189 
2435.000000	99.314914 
2434.000000	99.314253 
2433.000000	99.313045 
2432.000000	99.311590 
2431.000000	99.310470 
2430.000000	99.310031 
2429.000000	99.310133 
2428.000000	99.310420 
2427.000000	99.310776 
2426.000000	99.311327 
2425.000000	99.311991 
2424.000000	99.312260 
2423.000000	99.311646 
2422.000000	99.310268 
2421.000000	99.308945 
2420.000000	99.308440 
2419.000000	99.308802 
2418.000000	99.309557 
2417.000000	99.310282 
2416.000000	99.310881 
2415.000000	99.311304 
2414.000000	99.311422 
2413.000000	99.311275 
2412.000000	99.311163 
2411.000000	99.311310 
2410.000000	99.311586 
2409.000000	99.311731 
2408.000000	99.311722 
2407.000000	99.311793 
2406.000000	99.312170 
2405.000000	99.312886 
2404.000000	99.313813 
2403.000000	99.314712 
2402.000000	99.315332 
2401.000000	99.315587 
2400.000000	99.315603 
2399.000000	99.315601 
2398.000000	99.315727 
2397.000000	99.316001 
2396.000000	99.316393 
2395.000000	99.316873 
2394.000000	99.317416 
2393.000000	99.317999 
2392.000000	99.318613 
2391.000000	99.319237 
2390.000000	99.319841 
2389.000000	99.320408 
2388.000000	99.320947 
2387.000000	99.321477 
2386.000000	99.321997 
2385.000000	99.322492 
2384.000000	99.322964 
2383.000000	99.323451 
2382.000000	99.323981 
2381.000000	99.324517 
2380.000000	99.324983 
2379.000000	99.325341 
2378.000000	99.325616 
2377.000000	99.325890 
2376.000000	99.326257 
2375.000000	99.326777 
2374.000000	99.327433 
2373.000000	99.328106 
2372.000000	99.328663 
2371.000000	99.329090 
2370.000000	99.329507 
2369.000000	99.330026 
2368.000000	99.330587 
2367.000000	99.330997 
2366.000000	99.331147 
2365.000000	99.331159 
2364.000000	99.331298 
2363.000000	99.331705 
2362.000000	99.332290 
2361.000000	99.332827 
2360.000000	99.333168 
2359.000000	99.333333 
2358.000000	99.333474 
2357.000000	99.333787 
2356.000000	99.334393 
2355.000000	99.335210 
2354.000000	99.336013 
2353.000000	99.336621 
2352.000000	99.336982 
2351.000000	99.337078 
2350.000000	99.336771 
2349.000000	99.335935 
2348.000000	99.334708 
2347.000000	99.333651 
2346.000000	99.333376 
2345.000000	99.333841 
2344.000000	99.334464 
2343.000000	99.334976 
2342.000000	99.335762 
2341.000000	99.337086 
2340.000000	99.338494 
2339.000000	99.339250 
2338.000000	99.339123 
2337.000000	99.338702 
2336.000000	99.338815 
2335.000000	99.339762 
2334.000000	99.341091 
2333.000000	99.342037 
2332.000000	99.342026 
2331.000000	99.340925 
2330.000000	99.338961 
2329.000000	99.336866 
2328.000000	99.335615 
2327.000000	99.335838 
2326.000000	99.337263 
2325.000000	99.338683 
2324.000000	99.339042 
2323.000000	99.338370 
2322.000000	99.337905 
2321.000000	99.338840 
2320.000000	99.341140 
2319.000000	99.343528 
2318.000000	99.344496 
2317.000000	99.343408 
2316.000000	99.340748 
2315.000000	99.337804 
2314.000000	99.335916 
2313.000000	99.335822 
2312.000000	99.337269 
2311.000000	99.339326 
2310.000000	99.341149 
2309.000000	99.342383 
2308.000000	99.342687 
2307.000000	99.341353 
2306.000000	99.338066 
2305.000000	99.333644 
2304.000000	99.329558 
2303.000000	99.326546 
2302.000000	99.324267 
2301.000000	99.322227 
2300.000000	99.320375 
2299.000000	99.318622 
2298.000000	99.316598 
2297.000000	99.314462 
2296.000000	99.313252 
2295.000000	99.313627 
2294.000000	99.314602 
2293.000000	99.314300 
2292.000000	99.312022 
2291.000000	99.308812 
2290.000000	99.306067 
2289.000000	99.304214 
2288.000000	99.302921 
2287.000000	99.301867 
2286.000000	99.300947 
2285.000000	99.300056 
2284.000000	99.299074 
2283.000000	99.297855 
2282.000000	99.296102 
2281.000000	99.293534 
2280.000000	99.290504 
2279.000000	99.288171 
2278.000000	99.287608 
2277.000000	99.288756 
2276.000000	99.290405 
2275.000000	99.291246 
2274.000000	99.290821 
2273.000000	99.289402 
2272.000000	99.287234 
2271.000000	99.284277 
2270.000000	99.280904 
2269.000000	99.278494 
2268.000000	99.278544 
2267.000000	99.281136 
2266.000000	99.284575 
2265.000000	99.286826 
2264.000000	99.287232 
2263.000000	99.286479 
2262.000000	99.285590 
2261.000000	99.285274 
2260.000000	99.285776 
2259.000000	99.286561 
2258.000000	99.286371 
2257.000000	99.284454 
2256.000000	99.281650 
2255.000000	99.279526 
2254.000000	99.278359 
2253.000000	99.276986 
2252.000000	99.274934 
2251.000000	99.273675 
2250.000000	99.275011 
2249.000000	99.278919 
2248.000000	99.283474 
2247.000000	99.286669 
2246.000000	99.287824 
2245.000000	99.287347 
2244.000000	99.285761 
2243.000000	99.283147 
2242.000000	99.279489 
2241.000000	99.275430 
2240.000000	99.272263 
2239.000000	99.270783 
2238.000000	99.270410 
2237.000000	99.269863 
2236.000000	99.268593 
2235.000000	99.266922 
2234.000000	99.264968 
2233.000000	99.262536 
2232.000000	99.260295 
2231.000000	99.259986 
2230.000000	99.262800 
2229.000000	99.268040 
2228.000000	99.273695 
2227.000000	99.278055 
2226.000000	99.280345 
2225.000000	99.280279 
2224.000000	99.277841 
2223.000000	99.273601 
2222.000000	99.269058 
2221.000000	99.266293 
2220.000000	99.266566 
2219.000000	99.269162 
2218.000000	99.272011 
2217.000000	99.273918 
2216.000000	99.275721 
2215.000000	99.278563 
2214.000000	99.281573 
2213.000000	99.282371 
2212.000000	99.279826 
2211.000000	99.275444 
2210.000000	99.272074 
2209.000000	99.271534 
2208.000000	99.273411 
2207.000000	99.275478 
2206.000000	99.275444 
2205.000000	99.272789 
2204.000000	99.268872 
2203.000000	99.265225 
2202.000000	99.262142 
2201.000000	99.259354 
2200.000000	99.257075 
2199.000000	99.255463 
2198.000000	99.253927 
2197.000000	99.252196 
2196.000000	99.251486 
2195.000000	99.253191 
2194.000000	99.256781 
2193.000000	99.260062 
2192.000000	99.261463 
2191.000000	99.261067 
2190.000000	99.259587 
2189.000000	99.257666 
2188.000000	99.256176 
2187.000000	99.256090 
2186.000000	99.257616 
2185.000000	99.260004 
2184.000000	99.262273 
2183.000000	99.263809 
2182.000000	99.264295 
2181.000000	99.263754 
2180.000000	99.262840 
2179.000000	99.262483 
2178.000000	99.262953 
2177.000000	99.263686 
2176.000000	99.264036 
2175.000000	99.263919 
2174.000000	99.263658 
2173.000000	99.263574 
2172.000000	99.263810 
2171.000000	99.264296 
2170.000000	99.264857 
2169.000000	99.265401 
2168.000000	99.265984 
2167.000000	99.266645 
2166.000000	99.267300 
2165.000000	99.267875 
2164.000000	99.268423 
2163.000000	99.269020 
2162.000000	99.269685 
2161.000000	99.270396 
2160.000000	99.271136 
2159.000000	99.271883 
2158.000000	99.272612 
2157.000000	99.273312 
2156.000000	99.273984 
2155.000000	99.274638 
2154.000000	99.275279 
2153.000000	99.275895 
2152.000000	99.276475 
2151.000000	99.277019 
2150.000000	99.277539 
2149.000000	99.278048 
2148.000000	99.278548 
2147.000000	99.279030 
2146.000000	99.279472 
2145.000000	99.279841 
2144.000000	99.280121 
2143.000000	99.280311 
2142.000000	99.280427 
2141.000000	99.280497 
2140.000000	99.280535 
2139.000000	99.280567 
2138.000000	99.280628 
2137.000000	99.280692 
2136.000000	99.280632 
2135.000000	99.280411 
2134.000000	99.280202 
2133.000000	99.280198 
2132.000000	99.280396 
2131.000000	99.280567 
2130.000000	99.280445 
2129.000000	99.279898 
2128.000000	99.279036 
2127.000000	99.278161 
2126.000000	99.277500 
2125.000000	99.277030 
2124.000000	99.276742 
2123.000000	99.276944 
2122.000000	99.277882 
2121.000000	99.279013 
2120.000000	99.279284 
2119.000000	99.278340 
2118.000000	99.276978 
2117.000000	99.276209 
2116.000000	99.276141 
2115.000000	99.276299 
2114.000000	99.276525 
2113.000000	99.276979 
2112.000000	99.277448 
2111.000000	99.277340 
2110.000000	99.276447 
2109.000000	99.275266 
2108.000000	99.274436 
2107.000000	99.274029 
2106.000000	99.273450 
2105.000000	99.271891 
2104.000000	99.268964 
2103.000000	99.265173 
2102.000000	99.261844 
2101.000000	99.260275 
2100.000000	99.260744 
2099.000000	99.262369 
2098.000000	99.263969 
2097.000000	99.265234 
2096.000000	99.266744 
2095.000000	99.268618 
2094.000000	99.269468 
2093.000000	99.267473 
2092.000000	99.262751 
2091.000000	99.258229 
2090.000000	99.257117 
2089.000000	99.259678 
2088.000000	99.263068 
2087.000000	99.264341 
2086.000000	99.263396 
2085.000000	99.262303 
2084.000000	99.262609 
2083.000000	99.263976 
2082.000000	99.265255 
2081.000000	99.266168 
2080.000000	99.267474 
2079.000000	99.269667 
2078.000000	99.272075 
2077.000000	99.273661 
2076.000000	99.274553 
2075.000000	99.276055 
2074.000000	99.278851 
2073.000000	99.281860 
2072.000000	99.283436 
2071.000000	99.283184 
2070.000000	99.281924 
2069.000000	99.280352 
2068.000000	99.278611 
2067.000000	99.277001 
2066.000000	99.276088 
2065.000000	99.275882 
2064.000000	99.275703 
2063.000000	99.275224 
2062.000000	99.275037 
2061.000000	99.275838 
2060.000000	99.277508 
2059.000000	99.279313 
2058.000000	99.280641 
2057.000000	99.281255 
2056.000000	99.281062 
2055.000000	99.279885 
2054.000000	99.277659 
2053.000000	99.274811 
2052.000000	99.272293 
2051.000000	99.271020 
2050.000000	99.271104 
2049.000000	99.271601 
2048.000000	99.271283 
2047.000000	99.269781 
2046.000000	99.267814 
2045.000000	99.266387 
2044.000000	99.265921 
2043.000000	99.266044 
2042.000000	99.266054 
2041.000000	99.265520 
2040.000000	99.264567 
2039.000000	99.263686 
2038.000000	99.263303 
2037.000000	99.263532 
2036.000000	99.264202 
2035.000000	99.264957 
2034.000000	99.265320 
2033.000000	99.264877 
2032.000000	99.263541 
2031.000000	99.261634 
2030.000000	99.259698 
2029.000000	99.258194 
2028.000000	99.257290 
2027.000000	99.256873 
2026.000000	99.256765 
2025.000000	99.256958 
2024.000000	99.257530 
2023.000000	99.258283 
2022.000000	99.258651 
2021.000000	99.258223 
2020.000000	99.257193 
2019.000000	99.256307 
2018.000000	99.256125 
2017.000000	99.256513 
2016.000000	99.256846 
2015.000000	99.256661 
2014.000000	99.255996 
2013.000000	99.255214 
2012.000000	99.254736 
2011.000000	99.254852 
2010.000000	99.255605 
2009.000000	99.256859 
2008.000000	99.258351 
2007.000000	99.259673 
2006.000000	99.260375 
2005.000000	99.260257 
2004.000000	99.259646 
2003.000000	99.259195 
2002.000000	99.259197 
2001.000000	99.259354 
2000.000000	99.259239 
1999.000000	99.258793 
1998.000000	99.258289 
1997.000000	99.258002 
1996.000000	99.258036 
1995.000000	99.258383 
1994.000000	99.258952 
1993.000000	99.259549 
1992.000000	99.259968 
1991.000000	99.260117 
1990.000000	99.260007 
1989.000000	99.259701 
1988.000000	99.259332 
1987.000000	99.259047 
1986.000000	99.258851 
1985.000000	99.258596 
1984.000000	99.258211 
1983.000000	99.257831 
1982.000000	99.257598 
1981.000000	99.257380 
1980.000000	99.256875 
1979.000000	99.256002 
1978.000000	99.255010 
1977.000000	99.254117 
1976.000000	99.253244 
1975.000000	99.252296 
1974.000000	99.251491 
1973.000000	99.251247 
1972.000000	99.251783 
1971.000000	99.252852 
1970.000000	99.253739 
1969.000000	99.253713 
1968.000000	99.252528 
1967.000000	99.250673 
1966.000000	99.249143 
1965.000000	99.248428 
1964.000000	99.248250 
1963.000000	99.248110 
1962.000000	99.247847 
1961.000000	99.247521 
1960.000000	99.247143 
1959.000000	99.246886 
1958.000000	99.247274 
1957.000000	99.248642 
1956.000000	99.250465 
1955.000000	99.251665 
1954.000000	99.251735 
1953.000000	99.251172 
1952.000000	99.250638 
1951.000000	99.250023 
1950.000000	99.248755 
1949.000000	99.246863 
1948.000000	99.245229 
1947.000000	99.244491 
1946.000000	99.243963 
1945.000000	99.242139 
1944.000000	99.238566 
1943.000000	99.235070 
1942.000000	99.234305 
1941.000000	99.236942 
1940.000000	99.240917 
1939.000000	99.243559 
1938.000000	99.244234 
1937.000000	99.244497 
1936.000000	99.245940 
1935.000000	99.248216 
1934.000000	99.249737 
1933.000000	99.250194 
1932.000000	99.251321 
1931.000000	99.254656 
1930.000000	99.259075 
1929.000000	99.261686 
1928.000000	99.261335 
1927.000000	99.259647 
1926.000000	99.258745 
1925.000000	99.258941 
1924.000000	99.259399 
1923.000000	99.260023 
1922.000000	99.261309 
1921.000000	99.262871 
1920.000000	99.263331 
1919.000000	99.261643 
1918.000000	99.258077 
1917.000000	99.254173 
1916.000000	99.251573 
1915.000000	99.250715 
1914.000000	99.250900 
1913.000000	99.251418 
1912.000000	99.252302 
1911.000000	99.253796 
1910.000000	99.255218 
1909.000000	99.255464 
1908.000000	99.254923 
1907.000000	99.255504 
1906.000000	99.258323 
1905.000000	99.262130 
1904.000000	99.264610 
1903.000000	99.264828 
1902.000000	99.263505 
1901.000000	99.261845 
1900.000000	99.260697 
1899.000000	99.260427 
1898.000000	99.260938 
1897.000000	99.261762 
1896.000000	99.262528 
1895.000000	99.263217 
1894.000000	99.263621 
1893.000000	99.263235 
1892.000000	99.262213 
1891.000000	99.261688 
1890.000000	99.262339 
1889.000000	99.263217 
1888.000000	99.263189 
1887.000000	99.262734 
1886.000000	99.263075 
1885.000000	99.264468 
1884.000000	99.266221 
1883.000000	99.267867 
1882.000000	99.269221 
1881.000000	99.269922 
1880.000000	99.270103 
1879.000000	99.270961 
1878.000000	99.273744 
1877.000000	99.278212 
1876.000000	99.282645 
1875.000000	99.285416 
1874.000000	99.285777 
1873.000000	99.283620 
1872.000000	99.279808 
1871.000000	99.276305 
1870.000000	99.274772 
1869.000000	99.274670 
1868.000000	99.274239 
1867.000000	99.273212 
1866.000000	99.272189 
1865.000000	99.270553 
1864.000000	99.267107 
1863.000000	99.262180 
1862.000000	99.258057 
1861.000000	99.256997 
1860.000000	99.259495 
1859.000000	99.264437 
1858.000000	99.269849 
1857.000000	99.273687 
1856.000000	99.275209 
1855.000000	99.275640 
1854.000000	99.276629 
1853.000000	99.278193 
1852.000000	99.279139 
1851.000000	99.278936 
1850.000000	99.278572 
1849.000000	99.279484 
1848.000000	99.281903 
1847.000000	99.284578 
1846.000000	99.285898 
1845.000000	99.285261 
1844.000000	99.283789 
1843.000000	99.283470 
1842.000000	99.284711 
1841.000000	99.286023 
1840.000000	99.286119 
1839.000000	99.285036 
1838.000000	99.283703 
1837.000000	99.282898 
1836.000000	99.282827 
1835.000000	99.283476 
1834.000000	99.284648 
1833.000000	99.285890 
1832.000000	99.286671 
1831.000000	99.286665 
1830.000000	99.286068 
1829.000000	99.285592 
1828.000000	99.285671 
1827.000000	99.286003 
1826.000000	99.286166 
1825.000000	99.286145 
1824.000000	99.286131 
1823.000000	99.286122 
1822.000000	99.285835 
1821.000000	99.285181 
1820.000000	99.284614 
1819.000000	99.284740 
1818.000000	99.285670 
1817.000000	99.286782 
1816.000000	99.287337 
1815.000000	99.287364 
1814.000000	99.287463 
1813.000000	99.287971 
1812.000000	99.288612 
1811.000000	99.289109 
1810.000000	99.289625 
1809.000000	99.290155 
1808.000000	99.290288 
1807.000000	99.289864 
1806.000000	99.289261 
1805.000000	99.288872 
1804.000000	99.288666 
1803.000000	99.288337 
1802.000000	99.287529 
1801.000000	99.286059 
1800.000000	99.284264 
1799.000000	99.283102 
1798.000000	99.283339 
1797.000000	99.284835 
1796.000000	99.286758 
1795.000000	99.288378 
1794.000000	99.289402 
1793.000000	99.289641 
1792.000000	99.288946 
1791.000000	99.287840 
1790.000000	99.287165 
1789.000000	99.287021 
1788.000000	99.287106 
1787.000000	99.287414 
1786.000000	99.288146 
1785.000000	99.289078 
1784.000000	99.289652 
1783.000000	99.289693 
1782.000000	99.289344 
1781.000000	99.288776 
1780.000000	99.287943 
1779.000000	99.286838 
1778.000000	99.285775 
1777.000000	99.285128 
1776.000000	99.285060 
1775.000000	99.285270 
1774.000000	99.285319 
1773.000000	99.285254 
1772.000000	99.285388 
1771.000000	99.285805 
1770.000000	99.286283 
1769.000000	99.286431 
1768.000000	99.286132 
1767.000000	99.285721 
1766.000000	99.285611 
1765.000000	99.285865 
1764.000000	99.286178 
1763.000000	99.286240 
1762.000000	99.286003 
1761.000000	99.285811 
1760.000000	99.285966 
1759.000000	99.286518 
1758.000000	99.287501 
1757.000000	99.288956 
1756.000000	99.290532 
1755.000000	99.291509 
1754.000000	99.291640 
1753.000000	99.291412 
1752.000000	99.291476 
1751.000000	99.291719 
1750.000000	99.291607 
1749.000000	99.291187 
1748.000000	99.291008 
1747.000000	99.291351 
1746.000000	99.292013 
1745.000000	99.292723 
1744.000000	99.293270 
1743.000000	99.293511 
1742.000000	99.293470 
1741.000000	99.293337 
1740.000000	99.293328 
1739.000000	99.293553 
1738.000000	99.293932 
1737.000000	99.294263 
1736.000000	99.294450 
1735.000000	99.294657 
1734.000000	99.294901 
1733.000000	99.295060 
1732.000000	99.295194 
1731.000000	99.295296 
1730.000000	99.295342 
1729.000000	99.295383 
1728.000000	99.295466 
1727.000000	99.295594 
1726.000000	99.295752 
1725.000000	99.295970 
1724.000000	99.296211 
1723.000000	99.296386 
1722.000000	99.296441 
1721.000000	99.296351 
1720.000000	99.296160 
1719.000000	99.296055 
1718.000000	99.296152 
1717.000000	99.296108 
1716.000000	99.295652 
1715.000000	99.295083 
1714.000000	99.294782 
1713.000000	99.294707 
1712.000000	99.294618 
1711.000000	99.294500 
1710.000000	99.294521 
1709.000000	99.294668 
1708.000000	99.294742 
1707.000000	99.294663 
1706.000000	99.294509 
1705.000000	99.294083 
1704.000000	99.293184 
1703.000000	99.292015 
1702.000000	99.291115 
1701.000000	99.290930 
1700.000000	99.290802 
1699.000000	99.290276 
1698.000000	99.289938 
1697.000000	99.289706 
1696.000000	99.289200 
1695.000000	99.288557 
1694.000000	99.288192 
1693.000000	99.288055 
1692.000000	99.287799 
1691.000000	99.287530 
1690.000000	99.287463 
1689.000000	99.287550 
1688.000000	99.287610 
1687.000000	99.287496 
1686.000000	99.287370 
1685.000000	99.287452 
1684.000000	99.287322 
1683.000000	99.286879 
1682.000000	99.286453 
1681.000000	99.286014 
1680.000000	99.285624 
1679.000000	99.285358 
1678.000000	99.285114 
1677.000000	99.284871 
1676.000000	99.284754 
1675.000000	99.284786 
1674.000000	99.284839 
1673.000000	99.284852 
1672.000000	99.284809 
1671.000000	99.284713 
1670.000000	99.284548 
1669.000000	99.284330 
1668.000000	99.284153 
1667.000000	99.284052 
1666.000000	99.283992 
1665.000000	99.283944 
1664.000000	99.283919 
1663.000000	99.283931 
1662.000000	99.283968 
1661.000000	99.284014 
1660.000000	99.284076 
1659.000000	99.284156 
1658.000000	99.284239 
1657.000000	99.284303 
1656.000000	99.284347 
1655.000000	99.284391 
1654.000000	99.284489 
1653.000000	99.284632 
1652.000000	99.284802 
1651.000000	99.285031 
1650.000000	99.285275 
1649.000000	99.285502 
1648.000000	99.285722 
1647.000000	99.285924 
1646.000000	99.286114 
1645.000000	99.286349 
1644.000000	99.286667 
1643.000000	99.287050 
1642.000000	99.287442 
1641.000000	99.287789 
1640.000000	99.288074 
1639.000000	99.288325 
1638.000000	99.288596 
1637.000000	99.288975 
1636.000000	99.289516 
1635.000000	99.290093 
1634.000000	99.290576 
1633.000000	99.290917 
1632.000000	99.291061 
1631.000000	99.291068 
1630.000000	99.291094 
1629.000000	99.291292 
1628.000000	99.291762 
1627.000000	99.292489 
1626.000000	99.293268 
1625.000000	99.293887 
1624.000000	99.294351 
1623.000000	99.294792 
1622.000000	99.295291 
1621.000000	99.295935 
1620.000000	99.296804 
1619.000000	99.297865 
1618.000000	99.298994 
1617.000000	99.299829 
1616.000000	99.300400 
1615.000000	99.301282 
1614.000000	99.302483 
1613.000000	99.303663 
1612.000000	99.305021 
1611.000000	99.306694 
1610.000000	99.307916 
1609.000000	99.307981 
1608.000000	99.307541 
1607.000000	99.307806 
1606.000000	99.308719 
1605.000000	99.309477 
1604.000000	99.309963 
1603.000000	99.310524 
1602.000000	99.311247 
1601.000000	99.312093 
1600.000000	99.313248 
1599.000000	99.314668 
1598.000000	99.315862 
1597.000000	99.316582 
1596.000000	99.317067 
1595.000000	99.317410 
1594.000000	99.317286 
1593.000000	99.316887 
1592.000000	99.317252 
1591.000000	99.318945 
1590.000000	99.321054 
1589.000000	99.322401 
1588.000000	99.323155 
1587.000000	99.324232 
1586.000000	99.325648 
1585.000000	99.326636 
1584.000000	99.327203 
1583.000000	99.327590 
1582.000000	99.327411 
1581.000000	99.326537 
1580.000000	99.325480 
1579.000000	99.324463 
1578.000000	99.323241 
1577.000000	99.321952 
1576.000000	99.321231 
1575.000000	99.321571 
1574.000000	99.322536 
1573.000000	99.323400 
1572.000000	99.324095 
1571.000000	99.324970 
1570.000000	99.325768 
1569.000000	99.325980 
1568.000000	99.325874 
1567.000000	99.325729 
1566.000000	99.325483 
1565.000000	99.325184 
1564.000000	99.325004 
1563.000000	99.324838 
1562.000000	99.324564 
1561.000000	99.324201 
1560.000000	99.324144 
1559.000000	99.324151 
1558.000000	99.323965 
1557.000000	99.323905 
1556.000000	99.323918 
1555.000000	99.323862 
1554.000000	99.323736 
1553.000000	99.323571 
1552.000000	99.323393 
1551.000000	99.323202 
1550.000000	99.322997 
1549.000000	99.322773 
1548.000000	99.322528 
1547.000000	99.322263 
1546.000000	99.321977 
1545.000000	99.321676 
1544.000000	99.321372 
1543.000000	99.321076 
1542.000000	99.320792 
1541.000000	99.320510 
1540.000000	99.320211 
1539.000000	99.319887 
1538.000000	99.319541 
1537.000000	99.319173 
1536.000000	99.318784 
1535.000000	99.318376 
1534.000000	99.317947 
1533.000000	99.317497 
1532.000000	99.317031 
1531.000000	99.316552 
1530.000000	99.316063 
1529.000000	99.315562 
1528.000000	99.315036 
1527.000000	99.314484 
1526.000000	99.313935 
1525.000000	99.313422 
1524.000000	99.312932 
1523.000000	99.312453 
1522.000000	99.312002 
1521.000000	99.311453 
1520.000000	99.310650 
1519.000000	99.309607 
1518.000000	99.308428 
1517.000000	99.307272 
1516.000000	99.306267 
1515.000000	99.305429 
1514.000000	99.304696 
1513.000000	99.304027 
1512.000000	99.303364 
1511.000000	99.302552 
1510.000000	99.301539 
1509.000000	99.300419 
1508.000000	99.299559 
1507.000000	99.298974 
1506.000000	99.298207 
1505.000000	99.297242 
1504.000000	99.296316 
1503.000000	99.295418 
1502.000000	99.294627 
1501.000000	99.293844 
1500.000000	99.292545 
1499.000000	99.290369 
1498.000000	99.287862 
1497.000000	99.285901 
1496.000000	99.284556 
1495.000000	99.283827 
1494.000000	99.283957 
1493.000000	99.284708 
1492.000000	99.285463 
1491.000000	99.285703 
1490.000000	99.285011 
1489.000000	99.283048 
1488.000000	99.279897 
1487.000000	99.276571 
1486.000000	99.273831 
1485.000000	99.271192 
1484.000000	99.268358 
1483.000000	99.265828 
1482.000000	99.264350 
1481.000000	99.263827 
1480.000000	99.263372 
1479.000000	99.262601 
1478.000000	99.261795 
1477.000000	99.260771 
1476.000000	99.258848 
1475.000000	99.256696 
1474.000000	99.256043 
1473.000000	99.257037 
1472.000000	99.257601 
1471.000000	99.257089 
1470.000000	99.256651 
1469.000000	99.256064 
1468.000000	99.254226 
1467.000000	99.251318 
1466.000000	99.248890 
1465.000000	99.247976 
1464.000000	99.248113 
1463.000000	99.248424 
1462.000000	99.248634 
1461.000000	99.248229 
1460.000000	99.246345 
1459.000000	99.241889 
1458.000000	99.234103 
1457.000000	99.222944 
1456.000000	99.212030 
1455.000000	99.205684 
1454.000000	99.203498 
1453.000000	99.204108 
1452.000000	99.206987 
1451.000000	99.210749 
1450.000000	99.213792 
1449.000000	99.215166 
1448.000000	99.214647 
1447.000000	99.213606 
1446.000000	99.213625 
1445.000000	99.215061 
1444.000000	99.216937 
1443.000000	99.218182 
1442.000000	99.219212 
1441.000000	99.220542 
1440.000000	99.220996 
1439.000000	99.218874 
1438.000000	99.215837 
1437.000000	99.214897 
1436.000000	99.215108 
1435.000000	99.213702 
1434.000000	99.210600 
1433.000000	99.206873 
1432.000000	99.203365 
1431.000000	99.200050 
1430.000000	99.196671 
1429.000000	99.193370 
1428.000000	99.189757 
1427.000000	99.185595 
1426.000000	99.181114 
1425.000000	99.177378 
1424.000000	99.174416 
1423.000000	99.169952 
1422.000000	99.162246 
1421.000000	99.151686 
1420.000000	99.139998 
1419.000000	99.128844 
1418.000000	99.120398 
1417.000000	99.115166 
1416.000000	99.109976 
1415.000000	99.101999 
1414.000000	99.091600 
1413.000000	99.081175 
1412.000000	99.072400 
1411.000000	99.064881 
1410.000000	99.057902 
1409.000000	99.051619 
1408.000000	99.046400 
1407.000000	99.042827 
1406.000000	99.041626 
1405.000000	99.043649 
1404.000000	99.049143 
1403.000000	99.057058 
1402.000000	99.066096 
1401.000000	99.075309 
1400.000000	99.083365 
1399.000000	99.087796 
1398.000000	99.086177 
1397.000000	99.077080 
1396.000000	99.060966 
1395.000000	99.043805 
1394.000000	99.036310 
1393.000000	99.044285 
1392.000000	99.062963 
1391.000000	99.082256 
1390.000000	99.095176 
1389.000000	99.100653 
1388.000000	99.100920 
1387.000000	99.098500 
1386.000000	99.095533 
1385.000000	99.093792 
1384.000000	99.093860 
1383.000000	99.094828 
1382.000000	99.095728 
1381.000000	99.096945 
1380.000000	99.099995 
1379.000000	99.105768 
1378.000000	99.113466 
1377.000000	99.121523 
1376.000000	99.129052 
1375.000000	99.136082 
1374.000000	99.143080 
1373.000000	99.150809 
1372.000000	99.159569 
1371.000000	99.168558 
1370.000000	99.176353 
1369.000000	99.182402 
1368.000000	99.187549 
1367.000000	99.192918 
1366.000000	99.199042 
1365.000000	99.205998 
1364.000000	99.213622 
1363.000000	99.221163 
1362.000000	99.227488 
1361.000000	99.232255 
1360.000000	99.236373 
1359.000000	99.241252 
1358.000000	99.247854 
1357.000000	99.256034 
1356.000000	99.264375 
1355.000000	99.271148 
1354.000000	99.276066 
1353.000000	99.280401 
1352.000000	99.284883 
1351.000000	99.288763 
1350.000000	99.291263 
1349.000000	99.293615 
1348.000000	99.297090 
1347.000000	99.300619 
1346.000000	99.302555 
1345.000000	99.303337 
1344.000000	99.304532 
1343.000000	99.306060 
1342.000000	99.306565 
1341.000000	99.306211 
1340.000000	99.306947 
1339.000000	99.309514 
1338.000000	99.312492 
1337.000000	99.314938 
1336.000000	99.317400 
1335.000000	99.319882 
1334.000000	99.321058 
1333.000000	99.320298 
1332.000000	99.318981 
1331.000000	99.318824 
1330.000000	99.319847 
1329.000000	99.320969 
1328.000000	99.321571 
1327.000000	99.321634 
1326.000000	99.321167 
1325.000000	99.320693 
1324.000000	99.321225 
1323.000000	99.322876 
1322.000000	99.324467 
1321.000000	99.325100 
1320.000000	99.325410 
1319.000000	99.326565 
1318.000000	99.328527 
1317.000000	99.329912 
1316.000000	99.329416 
1315.000000	99.326996 
1314.000000	99.323876 
1313.000000	99.321492 
1312.000000	99.320218 
1311.000000	99.319303 
1310.000000	99.318241 
1309.000000	99.317729 
1308.000000	99.318650 
1307.000000	99.320577 
1306.000000	99.322015 
1305.000000	99.322368 
1304.000000	99.322584 
1303.000000	99.323579 
1302.000000	99.324887 
1301.000000	99.325304 
1300.000000	99.324459 
1299.000000	99.323400 
1298.000000	99.323799 
1297.000000	99.326450 
1296.000000	99.330259 
1295.000000	99.332775 
1294.000000	99.332154 
1293.000000	99.328574 
1292.000000	99.323636 
1291.000000	99.318900 
1290.000000	99.315420 
1289.000000	99.314051 
1288.000000	99.315026 
1287.000000	99.317089 
1286.000000	99.318161 
1285.000000	99.317216 
1284.000000	99.314701 
1283.000000	99.311334 
1282.000000	99.307185 
1281.000000	99.302063 
1280.000000	99.296575 
1279.000000	99.291950 
1278.000000	99.288863 
1277.000000	99.287040 
1276.000000	99.285756 
1275.000000	99.284233 
1274.000000	99.281730 
1273.000000	99.277819 
1272.000000	99.272742 
1271.000000	99.267266 
1270.000000	99.261981 
1269.000000	99.256830 
1268.000000	99.251407 
1267.000000	99.245549 
1266.000000	99.239446 
1265.000000	99.233240 
1264.000000	99.226810 
1263.000000	99.220086 
1262.000000	99.213348 
1261.000000	99.207060 
1260.000000	99.201614 
1259.000000	99.197236 
1258.000000	99.193906 
1257.000000	99.191200 
1256.000000	99.188505 
1255.000000	99.185638 
1254.000000	99.183005 
1253.000000	99.180882 
1252.000000	99.178916 
1251.000000	99.176816 
1250.000000	99.175217 
1249.000000	99.175192 
1248.000000	99.176953 
1247.000000	99.179435 
1246.000000	99.180877 
1245.000000	99.179254 
1244.000000	99.172932 
1243.000000	99.162715 
1242.000000	99.153465 
1241.000000	99.151242 
1240.000000	99.157605 
1239.000000	99.167347 
1238.000000	99.173112 
1237.000000	99.172203 
1236.000000	99.167171 
1235.000000	99.161240 
1234.000000	99.155225 
1233.000000	99.148669 
1232.000000	99.141523 
1231.000000	99.133903 
1230.000000	99.126109 
1229.000000	99.119737 
1228.000000	99.117165 
1227.000000	99.118790 
1226.000000	99.121870 
1225.000000	99.123206 
1224.000000	99.122144 
1223.000000	99.120046 
1222.000000	99.117917 
1221.000000	99.115833 
1220.000000	99.114049 
1219.000000	99.113139 
1218.000000	99.112973 
1217.000000	99.112420 
1216.000000	99.110245 
1215.000000	99.105832 
1214.000000	99.099101 
1213.000000	99.090219 
1212.000000	99.079633 
1211.000000	99.068376 
1210.000000	99.058078 
1209.000000	99.050070 
1208.000000	99.044063 
1207.000000	99.038063 
1206.000000	99.030261 
1205.000000	99.020889 
1204.000000	99.011473 
1203.000000	99.002494 
1202.000000	98.992791 
1201.000000	98.981421 
1200.000000	98.969076 
1199.000000	98.957232 
1198.000000	98.946590 
1197.000000	98.936606 
1196.000000	98.925698 
1195.000000	98.911957 
1194.000000	98.894838 
1193.000000	98.876252 
1192.000000	98.859109 
1191.000000	98.844512 
1190.000000	98.831021 
1189.000000	98.816900 
1188.000000	98.802124 
1187.000000	98.787720 
1186.000000	98.774203 
1185.000000	98.761394 
1184.000000	98.748872 
1183.000000	98.735781 
1182.000000	98.720964 
1181.000000	98.704240 
1180.000000	98.686991 
1179.000000	98.670633 
1178.000000	98.655058 
1177.000000	98.639459 
1176.000000	98.623986 
1175.000000	98.609225 
1174.000000	98.594300 
1173.000000	98.576989 
1172.000000	98.556195 
1171.000000	98.533503 
1170.000000	98.511901 
1169.000000	98.493316 
1168.000000	98.477545 
1167.000000	98.463244 
1166.000000	98.450020 
1165.000000	98.439710 
1164.000000	98.435281 
1163.000000	98.438157 
1162.000000	98.446850 
1161.000000	98.458303 
1160.000000	98.469696 
1159.000000	98.478266 
1158.000000	98.480532 
1157.000000	98.473319 
1156.000000	98.455862 
1155.000000	98.430849 
1154.000000	98.403802 
1153.000000	98.380866 
1152.000000	98.365309 
1151.000000	98.354794 
1150.000000	98.343017 
1149.000000	98.325696 
1148.000000	98.304641 
1147.000000	98.284847 
1146.000000	98.268239 
1145.000000	98.252030 
1144.000000	98.232862 
1143.000000	98.210379 
1142.000000	98.186520 
1141.000000	98.163341 
1140.000000	98.142338 
1139.000000	98.124150 
1138.000000	98.107523 
1137.000000	98.089551 
1136.000000	98.068269 
1135.000000	98.044702 
1134.000000	98.021565 
1133.000000	98.000139 
1132.000000	97.979203 
1131.000000	97.957068 
1130.000000	97.934023 
1129.000000	97.912099 
1128.000000	97.892019 
1127.000000	97.870871 
1126.000000	97.844251 
1125.000000	97.811437 
1124.000000	97.777381 
1123.000000	97.748226 
1122.000000	97.725175 
1121.000000	97.704112 
1120.000000	97.680752 
1119.000000	97.654538 
1118.000000	97.627532 
1117.000000	97.601373 
1116.000000	97.576115 
1115.000000	97.551003 
1114.000000	97.525619 
1113.000000	97.500615 
1112.000000	97.477111 
1111.000000	97.454669 
1110.000000	97.430542 
1109.000000	97.402302 
1108.000000	97.371105 
1107.000000	97.340980 
1106.000000	97.314772 
1105.000000	97.292009 
1104.000000	97.270381 
1103.000000	97.248191 
1102.000000	97.225363 
1101.000000	97.203064 
1100.000000	97.182510 
1099.000000	97.163866 
1098.000000	97.146014 
1097.000000	97.127744 
1096.000000	97.108741 
1095.000000	97.088842 
1094.000000	97.066829 
1093.000000	97.040874 
1092.000000	97.010119 
1091.000000	96.975315 
1090.000000	96.938326 
1089.000000	96.901568 
1088.000000	96.867313 
1087.000000	96.836362 
1086.000000	96.807398 
1085.000000	96.778577 
1084.000000	96.749547 
1083.000000	96.720840 
1082.000000	96.691740 
1081.000000	96.660486 
1080.000000	96.626729 
1079.000000	96.592269 
1078.000000	96.559244 
1077.000000	96.529173 
1076.000000	96.503674 
1075.000000	96.484034 
1074.000000	96.469633 
1073.000000	96.458189 
1072.000000	96.446681 
1071.000000	96.429532 
1070.000000	96.397522 
1069.000000	96.344093 
1068.000000	96.275060 
1067.000000	96.209053 
1066.000000	96.164113 
1065.000000	96.144131 
1064.000000	96.138974 
1063.000000	96.134054 
1062.000000	96.117831 
1061.000000	96.083779 
1060.000000	96.031535 
1059.000000	95.968664 
1058.000000	95.908272 
1057.000000	95.860983 
1056.000000	95.828047 
1055.000000	95.802063 
1054.000000	95.774374 
1053.000000	95.742230 
1052.000000	95.709107 
1051.000000	95.678754 
1050.000000	95.650485 
1049.000000	95.620932 
1048.000000	95.588539 
1047.000000	95.554833 
1046.000000	95.522760 
1045.000000	95.495076 
1044.000000	95.472631 
1043.000000	95.452809 
1042.000000	95.431347 
1041.000000	95.407339 
1040.000000	95.384925 
1039.000000	95.369015 
1038.000000	95.361638 
1037.000000	95.363482 
1036.000000	95.375331 
1035.000000	95.395307 
1034.000000	95.417803 
1033.000000	95.437846 
1032.000000	95.453198 
1031.000000	95.460140 
1030.000000	95.453559 
1029.000000	95.437018 
1028.000000	95.427643 
1027.000000	95.442114 
1026.000000	95.478500 
1025.000000	95.518206 
1024.000000	95.545565 
1023.000000	95.559511 
1022.000000	95.566973 
1021.000000	95.572997 
1020.000000	95.579450 
1019.000000	95.587208 
1018.000000	95.596073 
1017.000000	95.605611 
1016.000000	95.617507 
1015.000000	95.633978 
1014.000000	95.653247 
1013.000000	95.670212 
1012.000000	95.682458 
1011.000000	95.692377 
1010.000000	95.703174 
1009.000000	95.716490 
1008.000000	95.734214 
1007.000000	95.758281 
1006.000000	95.787304 
1005.000000	95.816748 
1004.000000	95.843824 
1003.000000	95.869670 
1002.000000	95.896271 
1001.000000	95.924098 
1000.000000	95.953163 
999.000000	 95.983211 
998.000000	 96.012280 
997.000000	 96.038275 
996.000000	 96.062837 
995.000000	 96.090690 
994.000000	 96.124002 
993.000000	 96.159872 
992.000000	 96.194214 
991.000000	 96.225674 
990.000000	 96.254803 
989.000000	 96.282044 
988.000000	 96.308264 
987.000000	 96.335733 
986.000000	 96.367072 
985.000000	 96.403741 
984.000000	 96.445435 
983.000000	 96.490012 
982.000000	 96.534851 
981.000000	 96.579075 
980.000000	 96.623730 
979.000000	 96.669493 
978.000000	 96.715807 
977.000000	 96.763265 
976.000000	 96.814302 
975.000000	 96.869108 
974.000000	 96.923212 
973.000000	 96.972452 
972.000000	 97.018720 
971.000000	 97.067332 
970.000000	 97.119858 
969.000000	 97.173033 
968.000000	 97.223953 
967.000000	 97.272642 
966.000000	 97.319614 
965.000000	 97.364235 
964.000000	 97.405976 
963.000000	 97.445108 
962.000000	 97.482071 
961.000000	 97.517946 
960.000000	 97.554877 
959.000000	 97.593637 
958.000000	 97.631272 
957.000000	 97.663664 
956.000000	 97.690203 
955.000000	 97.713963 
954.000000	 97.737845 
953.000000	 97.762741 
952.000000	 97.788918 
951.000000	 97.816323 
950.000000	 97.843117 
949.000000	 97.866114 
948.000000	 97.883289 
947.000000	 97.894837 
946.000000	 97.902254 
945.000000	 97.907749 
944.000000	 97.914089 
943.000000	 97.923453 
942.000000	 97.936478 
941.000000	 97.952840 
940.000000	 97.971226 
939.000000	 97.987794 
938.000000	 97.997499 
937.000000	 97.999819 
936.000000	 98.001504 
935.000000	 98.010384 
934.000000	 98.027121 
933.000000	 98.045948 
932.000000	 98.062575 
931.000000	 98.077918 
930.000000	 98.094217 
929.000000	 98.110655 
928.000000	 98.123656 
927.000000	 98.130016 
926.000000	 98.129946 
925.000000	 98.128345 
924.000000	 98.131929 
923.000000	 98.142972 
922.000000	 98.156693 
921.000000	 98.166680 
920.000000	 98.171576 
919.000000	 98.174262 
918.000000	 98.176542 
917.000000	 98.178087 
916.000000	 98.179342 
915.000000	 98.181503 
914.000000	 98.183903 
913.000000	 98.185181 
912.000000	 98.187283 
911.000000	 98.194862 
910.000000	 98.210141 
909.000000	 98.231175 
908.000000	 98.255315 
907.000000	 98.281382 
906.000000	 98.307987 
905.000000	 98.332951 
904.000000	 98.355655 
903.000000	 98.378120 
902.000000	 98.402977 
901.000000	 98.431515 
900.000000	 98.463200 
899.000000	 98.495125 
898.000000	 98.522605 
897.000000	 98.542720 
896.000000	 98.556880 
895.000000	 98.568395 
894.000000	 98.578875 
893.000000	 98.589382 
892.000000	 98.603497 
891.000000	 98.625237 
890.000000	 98.653985 
889.000000	 98.684698 
888.000000	 98.713091 
887.000000	 98.737604 
886.000000	 98.756939 
885.000000	 98.769898 
884.000000	 98.778241 
883.000000	 98.785838 
882.000000	 98.793811 
881.000000	 98.800298 
880.000000	 98.806282 
879.000000	 98.817311 
878.000000	 98.836873 
877.000000	 98.861460 
876.000000	 98.884771 
875.000000	 98.903962 
874.000000	 98.919548 
873.000000	 98.932457 
872.000000	 98.944150 
871.000000	 98.957124 
870.000000	 98.972514 
869.000000	 98.989146 
868.000000	 99.006838 
867.000000	 99.027657 
866.000000	 99.051561 
865.000000	 99.074365 
864.000000	 99.093854 
863.000000	 99.114702 
862.000000	 99.141952 
861.000000	 99.171066 
860.000000	 99.190905 
859.000000	 99.197112 
858.000000	 99.197208 
857.000000	 99.201064 
856.000000	 99.211068 
855.000000	 99.224730 
854.000000	 99.241349 
853.000000	 99.260340 
852.000000	 99.276280 
851.000000	 99.282861 
850.000000	 99.282174 
849.000000	 99.284406 
848.000000	 99.296180 
847.000000	 99.313124 
846.000000	 99.326089 
845.000000	 99.331205 
844.000000	 99.331096 
843.000000	 99.329473 
842.000000	 99.328387 
841.000000	 99.329045 
840.000000	 99.330932 
839.000000	 99.330378 
838.000000	 99.324024 
837.000000	 99.314304 
836.000000	 99.307893 
835.000000	 99.307478 
834.000000	 99.308587 
833.000000	 99.306720 
832.000000	 99.304001 
831.000000	 99.305106 
830.000000	 99.309045 
829.000000	 99.310126 
828.000000	 99.306926 
827.000000	 99.305255 
826.000000	 99.310073 
825.000000	 99.317935 
824.000000	 99.320716 
823.000000	 99.315419 
822.000000	 99.307754 
821.000000	 99.306347 
820.000000	 99.314759 
819.000000	 99.328791 
818.000000	 99.340549 
817.000000	 99.345051 
816.000000	 99.342684 
815.000000	 99.335369 
814.000000	 99.322197 
813.000000	 99.300607 
812.000000	 99.270346 
811.000000	 99.232938 
810.000000	 99.186904 
809.000000	 99.126751 
808.000000	 99.048702 
807.000000	 98.955895 
806.000000	 98.856164 
805.000000	 98.755986 
804.000000	 98.659093 
803.000000	 98.570269 
802.000000	 98.497016 
801.000000	 98.445784 
800.000000	 98.417389 
799.000000	 98.406959 
798.000000	 98.408722 
797.000000	 98.420477 
796.000000	 98.442021 
795.000000	 98.469808 
794.000000	 98.496638 
793.000000	 98.518336 
792.000000	 98.537640 
791.000000	 98.558645 
790.000000	 98.579610 
789.000000	 98.594029 
788.000000	 98.596596 
787.000000	 98.584997 
786.000000	 98.558383 
785.000000	 98.518865 
784.000000	 98.474038 
783.000000	 98.433673 
782.000000	 98.402874 
781.000000	 98.380892 
780.000000	 98.366137 
779.000000	 98.358959 
778.000000	 98.359911 
777.000000	 98.369224 
776.000000	 98.388256 
775.000000	 98.417687 
774.000000	 98.453847 
773.000000	 98.490529 
772.000000	 98.525138 
771.000000	 98.559800 
770.000000	 98.595883 
769.000000	 98.630476 
768.000000	 98.658954 
767.000000	 98.678701 
766.000000	 98.690365 
765.000000	 98.698149 
764.000000	 98.708525 
763.000000	 98.725083 
762.000000	 98.743851 
761.000000	 98.756759 
760.000000	 98.760808 
759.000000	 98.761557 
758.000000	 98.766932 
757.000000	 98.779564 
756.000000	 98.795486 
755.000000	 98.807992 
754.000000	 98.812706 
753.000000	 98.811667 
752.000000	 98.813090 
751.000000	 98.824847 
750.000000	 98.847065 
749.000000	 98.872162 
748.000000	 98.892261 
747.000000	 98.905389 
746.000000	 98.915220 
745.000000	 98.927023 
744.000000	 98.943658 
743.000000	 98.963597 
742.000000	 98.983026 
741.000000	 99.001178 
740.000000	 99.022038 
739.000000	 99.048375 
738.000000	 99.075588 
737.000000	 99.094808 
736.000000	 99.101504 
735.000000	 99.098512 
734.000000	 99.092198 
733.000000	 99.088759 
732.000000	 99.093364 
731.000000	 99.108001 
730.000000	 99.128301 
729.000000	 99.146207 
728.000000	 99.157865 
727.000000	 99.165987 
726.000000	 99.173390 
725.000000	 99.178221 
724.000000	 99.177885 
723.000000	 99.174318 
722.000000	 99.172819 
721.000000	 99.177891 
720.000000	 99.191641 
719.000000	 99.213066 
718.000000	 99.236701 
717.000000	 99.254783 
716.000000	 99.262971 
715.000000	 99.262758 
714.000000	 99.258369 
713.000000	 99.253765 
712.000000	 99.253343 
711.000000	 99.261143 
710.000000	 99.275787 
709.000000	 99.289240 
708.000000	 99.293684 
707.000000	 99.287321 
706.000000	 99.272215 
705.000000	 99.250453 
704.000000	 99.225233 
703.000000	 99.202512 
702.000000	 99.187033 
701.000000	 99.176423 
700.000000	 99.162267 
699.000000	 99.137953 
698.000000	 99.104888 
697.000000	 99.071789 
696.000000	 99.048452 
695.000000	 99.039296 
694.000000	 99.042353 
693.000000	 99.054044 
692.000000	 99.073037 
691.000000	 99.098087 
690.000000	 99.124530 
689.000000	 99.146889 
688.000000	 99.164086 
687.000000	 99.177855 
686.000000	 99.187102 
685.000000	 99.189182 
684.000000	 99.186615 
683.000000	 99.187087 
682.000000	 99.195562 
681.000000	 99.210189 
680.000000	 99.225917 
679.000000	 99.238390 
678.000000	 99.244438 
677.000000	 99.243606 
676.000000	 99.241462 
675.000000	 99.245689 
674.000000	 99.256566 
673.000000	 99.265925 
672.000000	 99.267930 
671.000000	 99.266940 
670.000000	 99.272936 
669.000000	 99.292276 
668.000000	 99.316083 
667.000000	 99.324884 
666.000000	 99.316304 
665.000000	 99.301159 
664.000000	 99.290615 
663.000000	 99.293222 
662.000000	 99.308604 
661.000000	 99.324680 
660.000000	 99.329226 
659.000000	 99.321745 
658.000000	 99.311092 
657.000000	 99.305037 
656.000000	 99.304886 
655.000000	 99.308885 
654.000000	 99.314462 
653.000000	 99.318591 
652.000000	 99.320388 
651.000000	 99.322424 
650.000000	 99.327002 

