4000.000000	98.999445 
3999.000000	98.998543 
3998.000000	98.996291 
3997.000000	98.994723 
3996.000000	98.994860 
3995.000000	98.996392 
3994.000000	98.998606 
3993.000000	99.001157 
3992.000000	99.003738 
3991.000000	99.005465 
3990.000000	99.005101 
3989.000000	99.002005 
3988.000000	98.996840 
3987.000000	98.991480 
3986.000000	98.988143 
3985.000000	98.988137 
3984.000000	98.991029 
3983.000000	98.995184 
3982.000000	98.999225 
3981.000000	99.002809 
3980.000000	99.006046 
3979.000000	99.008706 
3978.000000	99.010441 
3977.000000	99.011368 
3976.000000	99.011660 
3975.000000	99.010701 
3974.000000	99.007390 
3973.000000	99.001641 
3972.000000	98.995172 
3971.000000	98.990641 
3970.000000	98.990200 
3969.000000	98.994227 
3968.000000	99.000909 
3967.000000	99.006952 
3966.000000	99.009453 
3965.000000	99.007676 
3964.000000	99.003386 
3963.000000	98.999687 
3962.000000	98.999134 
3961.000000	99.002080 
3960.000000	99.006135 
3959.000000	99.007751 
3958.000000	99.005560 
3957.000000	99.001691 
3956.000000	98.999594 
3955.000000	99.000605 
3954.000000	99.003284 
3953.000000	99.005408 
3952.000000	99.005565 
3951.000000	99.003411 
3950.000000	98.999139 
3949.000000	98.993454 
3948.000000	98.988008 
3947.000000	98.985304 
3946.000000	98.987086 
3945.000000	98.992569 
3944.000000	98.998500 
3943.000000	99.001348 
3942.000000	98.999945 
3941.000000	98.996139 
3940.000000	98.992338 
3939.000000	98.989397 
3938.000000	98.987610 
3937.000000	98.987265 
3936.000000	98.988116 
3935.000000	98.988984 
3934.000000	98.989356 
3933.000000	98.990661 
3932.000000	98.994273 
3931.000000	98.999276 
3930.000000	99.003092 
3929.000000	99.004163 
3928.000000	99.002955 
3927.000000	98.999872 
3926.000000	98.994548 
3925.000000	98.987999 
3924.000000	98.983500 
3923.000000	98.982856 
3922.000000	98.983409 
3921.000000	98.981972 
3920.000000	98.979795 
3919.000000	98.980204 
3918.000000	98.983232 
3917.000000	98.986023 
3916.000000	98.987744 
3915.000000	98.990124 
3914.000000	98.993351 
3913.000000	98.995268 
3912.000000	98.994747 
3911.000000	98.992045 
3910.000000	98.988174 
3909.000000	98.983731 
3908.000000	98.980035 
3907.000000	98.978566 
3906.000000	98.979694 
3905.000000	98.981962 
3904.000000	98.983755 
3903.000000	98.985643 
3902.000000	98.988581 
3901.000000	98.990317 
3900.000000	98.987869 
3899.000000	98.982475 
3898.000000	98.977979 
3897.000000	98.975465 
3896.000000	98.972824 
3895.000000	98.969944 
3894.000000	98.971170 
3893.000000	98.978922 
3892.000000	98.988695 
3891.000000	98.993801 
3890.000000	98.996803 
3889.000000	99.002342 
3888.000000	99.007005 
3887.000000	99.005291 
3886.000000	98.997634 
3885.000000	98.989987 
3884.000000	98.988660 
3883.000000	98.990640 
3882.000000	98.987969 
3881.000000	98.979786 
3880.000000	98.971669 
3879.000000	98.969284 
3878.000000	98.973658 
3877.000000	98.979155 
3876.000000	98.980673 
3875.000000	98.978129 
3874.000000	98.975544 
3873.000000	98.977782 
3872.000000	98.982566 
3871.000000	98.980609 
3870.000000	98.968845 
3869.000000	98.959193 
3868.000000	98.964828 
3867.000000	98.978599 
3866.000000	98.985108 
3865.000000	98.983801 
3864.000000	98.983806 
3863.000000	98.987227 
3862.000000	98.988755 
3861.000000	98.984566 
3860.000000	98.976833 
3859.000000	98.966810 
3858.000000	98.954011 
3857.000000	98.940226 
3856.000000	98.933299 
3855.000000	98.941135 
3854.000000	98.954861 
3853.000000	98.955073 
3852.000000	98.952485 
3851.000000	98.965501 
3850.000000	98.982800 
3849.000000	98.992173 
3848.000000	98.995466 
3847.000000	98.996389 
3846.000000	98.995135 
3845.000000	98.992095 
3844.000000	98.989528 
3843.000000	98.988926 
3842.000000	98.989795 
3841.000000	98.989343 
3840.000000	98.986894 
3839.000000	98.985083 
3838.000000	98.986207 
3837.000000	98.988716 
3836.000000	98.990512 
3835.000000	98.990579 
3834.000000	98.988727 
3833.000000	98.985878 
3832.000000	98.984135 
3831.000000	98.985445 
3830.000000	98.989947 
3829.000000	98.994700 
3828.000000	98.995473 
3827.000000	98.990477 
3826.000000	98.983949 
3825.000000	98.982730 
3824.000000	98.988830 
3823.000000	98.997676 
3822.000000	99.002261 
3821.000000	98.996688 
3820.000000	98.988340 
3819.000000	98.988016 
3818.000000	98.989194 
3817.000000	98.983598 
3816.000000	98.974770 
3815.000000	98.972047 
3814.000000	98.978457 
3813.000000	98.983935 
3812.000000	98.979751 
3811.000000	98.972003 
3810.000000	98.971139 
3809.000000	98.978468 
3808.000000	98.985258 
3807.000000	98.983885 
3806.000000	98.979186 
3805.000000	98.980493 
3804.000000	98.984941 
3803.000000	98.984174 
3802.000000	98.976773 
3801.000000	98.966632 
3800.000000	98.963393 
3799.000000	98.968396 
3798.000000	98.970485 
3797.000000	98.966401 
3796.000000	98.963222 
3795.000000	98.966989 
3794.000000	98.975844 
3793.000000	98.984211 
3792.000000	98.990013 
3791.000000	98.994594 
3790.000000	98.997645 
3789.000000	98.998095 
3788.000000	98.997676 
3787.000000	98.999904 
3786.000000	99.005012 
3785.000000	99.009608 
3784.000000	99.011826 
3783.000000	99.013076 
3782.000000	99.014026 
3781.000000	99.013054 
3780.000000	99.009066 
3779.000000	99.003182 
3778.000000	98.998678 
3777.000000	98.996628 
3776.000000	98.994478 
3775.000000	98.990842 
3774.000000	98.988765 
3773.000000	98.990852 
3772.000000	98.994705 
3771.000000	98.995190 
3770.000000	98.990968 
3769.000000	98.986534 
3768.000000	98.986655 
3767.000000	98.989463 
3766.000000	98.990325 
3765.000000	98.989281 
3764.000000	98.990654 
3763.000000	98.995885 
3762.000000	99.000817 
3761.000000	99.002913 
3760.000000	99.004918 
3759.000000	99.007323 
3758.000000	99.006659 
3757.000000	99.001672 
3756.000000	98.996068 
3755.000000	98.993002 
3754.000000	98.992741 
3753.000000	98.996247 
3752.000000	99.003659 
3751.000000	99.006125 
3750.000000	98.993037 
3749.000000	98.971426 
3748.000000	98.957122 
3747.000000	98.952574 
3746.000000	98.951273 
3745.000000	98.948736 
3744.000000	98.943811 
3743.000000	98.947915 
3742.000000	98.963680 
3741.000000	98.971695 
3740.000000	98.966444 
3739.000000	98.961148 
3738.000000	98.964989 
3737.000000	98.974156 
3736.000000	98.982407 
3735.000000	98.989911 
3734.000000	98.996627 
3733.000000	98.997243 
3732.000000	98.990725 
3731.000000	98.985626 
3730.000000	98.987963 
3729.000000	98.992830 
3728.000000	98.993515 
3727.000000	98.992069 
3726.000000	98.995031 
3725.000000	99.003222 
3724.000000	99.009212 
3723.000000	99.007321 
3722.000000	99.000293 
3721.000000	98.994760 
3720.000000	98.994323 
3719.000000	98.996346 
3718.000000	98.995889 
3717.000000	98.990628 
3716.000000	98.981823 
3715.000000	98.971214 
3714.000000	98.960468 
3713.000000	98.952125 
3712.000000	98.946667 
3711.000000	98.942118 
3710.000000	98.939422 
3709.000000	98.940346 
3708.000000	98.942989 
3707.000000	98.943875 
3706.000000	98.941437 
3705.000000	98.936223 
3704.000000	98.929668 
3703.000000	98.923502 
3702.000000	98.918511 
3701.000000	98.914902 
3700.000000	98.913915 
3699.000000	98.914623 
3698.000000	98.912550 
3697.000000	98.905624 
3696.000000	98.897085 
3695.000000	98.890547 
3694.000000	98.885135 
3693.000000	98.878580 
3692.000000	98.872286 
3691.000000	98.869062 
3690.000000	98.867290 
3689.000000	98.861416 
3688.000000	98.852577 
3687.000000	98.849562 
3686.000000	98.854361 
3685.000000	98.859389 
3684.000000	98.860212 
3683.000000	98.859331 
3682.000000	98.858553 
3681.000000	98.854262 
3680.000000	98.842621 
3679.000000	98.827085 
3678.000000	98.813472 
3677.000000	98.803924 
3676.000000	98.795805 
3675.000000	98.788912 
3674.000000	98.793191 
3673.000000	98.807659 
3672.000000	98.815685 
3671.000000	98.813918 
3670.000000	98.810622 
3669.000000	98.809026 
3668.000000	98.808408 
3667.000000	98.805264 
3666.000000	98.798479 
3665.000000	98.792607 
3664.000000	98.791728 
3663.000000	98.794775 
3662.000000	98.797988 
3661.000000	98.799480 
3660.000000	98.800536 
3659.000000	98.803191 
3658.000000	98.806435 
3657.000000	98.806738 
3656.000000	98.802267 
3655.000000	98.798700 
3654.000000	98.800847 
3653.000000	98.805055 
3652.000000	98.808482 
3651.000000	98.814239 
3650.000000	98.820223 
3649.000000	98.816328 
3648.000000	98.802116 
3647.000000	98.790584 
3646.000000	98.791121 
3645.000000	98.801102 
3644.000000	98.813101 
3643.000000	98.822838 
3642.000000	98.830708 
3641.000000	98.837619 
3640.000000	98.842832 
3639.000000	98.845952 
3638.000000	98.849531 
3637.000000	98.856777 
3636.000000	98.865643 
3635.000000	98.869623 
3634.000000	98.865658 
3633.000000	98.858339 
3632.000000	98.853424 
3631.000000	98.852245 
3630.000000	98.852941 
3629.000000	98.849629 
3628.000000	98.841068 
3627.000000	98.837589 
3626.000000	98.840658 
3625.000000	98.843218 
3624.000000	98.845211 
3623.000000	98.849585 
3622.000000	98.855001 
3621.000000	98.857815 
3620.000000	98.857240 
3619.000000	98.855327 
3618.000000	98.855442 
3617.000000	98.859633 
3616.000000	98.864973 
3615.000000	98.866573 
3614.000000	98.862862 
3613.000000	98.856440 
3612.000000	98.851412 
3611.000000	98.849979 
3610.000000	98.851902 
3609.000000	98.856900 
3608.000000	98.864491 
3607.000000	98.872720 
3606.000000	98.879018 
3605.000000	98.882079 
3604.000000	98.883259 
3603.000000	98.885131 
3602.000000	98.888440 
3601.000000	98.892767 
3600.000000	98.898933 
3599.000000	98.907680 
3598.000000	98.916356 
3597.000000	98.920995 
3596.000000	98.919411 
3595.000000	98.912952 
3594.000000	98.905381 
3593.000000	98.901172 
3592.000000	98.902449 
3591.000000	98.908165 
3590.000000	98.915694 
3589.000000	98.922446 
3588.000000	98.925158 
3587.000000	98.921696 
3586.000000	98.914895 
3585.000000	98.909209 
3584.000000	98.905889 
3583.000000	98.904446 
3582.000000	98.904043 
3581.000000	98.903410 
3580.000000	98.901200 
3579.000000	98.897055 
3578.000000	98.891377 
3577.000000	98.885711 
3576.000000	98.882576 
3575.000000	98.883793 
3574.000000	98.888622 
3573.000000	98.893982 
3572.000000	98.897144 
3571.000000	98.897413 
3570.000000	98.895488 
3569.000000	98.892011 
3568.000000	98.887533 
3567.000000	98.883456 
3566.000000	98.882777 
3565.000000	98.887179 
3564.000000	98.893519 
3563.000000	98.897401 
3562.000000	98.898029 
3561.000000	98.897753 
3560.000000	98.898689 
3559.000000	98.900555 
3558.000000	98.901295 
3557.000000	98.899461 
3556.000000	98.896205 
3555.000000	98.894117 
3554.000000	98.894450 
3553.000000	98.895901 
3552.000000	98.896573 
3551.000000	98.895994 
3550.000000	98.894346 
3549.000000	98.891292 
3548.000000	98.887331 
3547.000000	98.884653 
3546.000000	98.885140 
3545.000000	98.888275 
3544.000000	98.891747 
3543.000000	98.893476 
3542.000000	98.893047 
3541.000000	98.891589 
3540.000000	98.891033 
3539.000000	98.892806 
3538.000000	98.896785 
3537.000000	98.901077 
3536.000000	98.902912 
3535.000000	98.900463 
3534.000000	98.893993 
3533.000000	98.886148 
3532.000000	98.880562 
3531.000000	98.879740 
3530.000000	98.883225 
3529.000000	98.888490 
3528.000000	98.893563 
3527.000000	98.898239 
3526.000000	98.902426 
3525.000000	98.904694 
3524.000000	98.903578 
3523.000000	98.899655 
3522.000000	98.895417 
3521.000000	98.892957 
3520.000000	98.892347 
3519.000000	98.892252 
3518.000000	98.891599 
3517.000000	98.890525 
3516.000000	98.889944 
3515.000000	98.890852 
3514.000000	98.893784 
3513.000000	98.898319 
3512.000000	98.902656 
3511.000000	98.904509 
3510.000000	98.902889 
3509.000000	98.899196 
3508.000000	98.896008 
3507.000000	98.894537 
3506.000000	98.893335 
3505.000000	98.889925 
3504.000000	98.883574 
3503.000000	98.876845 
3502.000000	98.874463 
3501.000000	98.879813 
3500.000000	98.891655 
3499.000000	98.904175 
3498.000000	98.910806 
3497.000000	98.909028 
3496.000000	98.901929 
3495.000000	98.894822 
3494.000000	98.890537 
3493.000000	98.888126 
3492.000000	98.885273 
3491.000000	98.881047 
3490.000000	98.876537 
3489.000000	98.873783 
3488.000000	98.874416 
3487.000000	98.878648 
3486.000000	98.884937 
3485.000000	98.890834 
3484.000000	98.894470 
3483.000000	98.895324 
3482.000000	98.893556 
3481.000000	98.889350 
3480.000000	98.883454 
3479.000000	98.878059 
3478.000000	98.876021 
3477.000000	98.878428 
3476.000000	98.883145 
3475.000000	98.886392 
3474.000000	98.886256 
3473.000000	98.884145 
3472.000000	98.882560 
3471.000000	98.882256 
3470.000000	98.882280 
3469.000000	98.882051 
3468.000000	98.882066 
3467.000000	98.882363 
3466.000000	98.881494 
3465.000000	98.877986 
3464.000000	98.872555 
3463.000000	98.867965 
3462.000000	98.866266 
3461.000000	98.866713 
3460.000000	98.866940 
3459.000000	98.865933 
3458.000000	98.865125 
3457.000000	98.866228 
3456.000000	98.868657 
3455.000000	98.869990 
3454.000000	98.868816 
3453.000000	98.866517 
3452.000000	98.865796 
3451.000000	98.867911 
3450.000000	98.871472 
3449.000000	98.873937 
3448.000000	98.873823 
3447.000000	98.871540 
3446.000000	98.868525 
3445.000000	98.865974 
3444.000000	98.864328 
3443.000000	98.863530 
3442.000000	98.863274 
3441.000000	98.863197 
3440.000000	98.863251 
3439.000000	98.863740 
3438.000000	98.864683 
3437.000000	98.865231 
3436.000000	98.864256 
3435.000000	98.861926 
3434.000000	98.860152 
3433.000000	98.861028 
3432.000000	98.864501 
3431.000000	98.867870 
3430.000000	98.867847 
3429.000000	98.863513 
3428.000000	98.857190 
3427.000000	98.852217 
3426.000000	98.850093 
3425.000000	98.849974 
3424.000000	98.850419 
3423.000000	98.850856 
3422.000000	98.851430 
3421.000000	98.852240 
3420.000000	98.853213 
3419.000000	98.854354 
3418.000000	98.855651 
3417.000000	98.856758 
3416.000000	98.857020 
3415.000000	98.855924 
3414.000000	98.853661 
3413.000000	98.851317 
3412.000000	98.850315 
3411.000000	98.851375 
3410.000000	98.853990 
3409.000000	98.856914 
3408.000000	98.858904 
3407.000000	98.858916 
3406.000000	98.856346 
3405.000000	98.851859 
3404.000000	98.847806 
3403.000000	98.846996 
3402.000000	98.850499 
3401.000000	98.856653 
3400.000000	98.862247 
3399.000000	98.864893 
3398.000000	98.864638 
3397.000000	98.863423 
3396.000000	98.862820 
3395.000000	98.862539 
3394.000000	98.861525 
3393.000000	98.859958 
3392.000000	98.859107 
3391.000000	98.859173 
3390.000000	98.858615 
3389.000000	98.856356 
3388.000000	98.853660 
3387.000000	98.852736 
3386.000000	98.853960 
3385.000000	98.855439 
3384.000000	98.855238 
3383.000000	98.853266 
3382.000000	98.850927 
3381.000000	98.849511 
3380.000000	98.849007 
3379.000000	98.848323 
3378.000000	98.846840 
3377.000000	98.845810 
3376.000000	98.847576 
3375.000000	98.853032 
3374.000000	98.860397 
3373.000000	98.866776 
3372.000000	98.870379 
3371.000000	98.870875 
3370.000000	98.868665 
3369.000000	98.864910 
3368.000000	98.861641 
3367.000000	98.860366 
3366.000000	98.860471 
3365.000000	98.860061 
3364.000000	98.858572 
3363.000000	98.857528 
3362.000000	98.858356 
3361.000000	98.860292 
3360.000000	98.861070 
3359.000000	98.859316 
3358.000000	98.855999 
3357.000000	98.853743 
3356.000000	98.854702 
3355.000000	98.858548 
3354.000000	98.862525 
3353.000000	98.864012 
3352.000000	98.863151 
3351.000000	98.862516 
3350.000000	98.864279 
3349.000000	98.868276 
3348.000000	98.872817 
3347.000000	98.876429 
3346.000000	98.878473 
3345.000000	98.879012 
3344.000000	98.878675 
3343.000000	98.878031 
3342.000000	98.876606 
3341.000000	98.873294 
3340.000000	98.868421 
3339.000000	98.864537 
3338.000000	98.863874 
3337.000000	98.865306 
3336.000000	98.865290 
3335.000000	98.862268 
3334.000000	98.858919 
3333.000000	98.859212 
3332.000000	98.863845 
3331.000000	98.869519 
3330.000000	98.872709 
3329.000000	98.873392 
3328.000000	98.874578 
3327.000000	98.878319 
3326.000000	98.882939 
3325.000000	98.884895 
3324.000000	98.883220 
3323.000000	98.881176 
3322.000000	98.882672 
3321.000000	98.887371 
3320.000000	98.890342 
3319.000000	98.887059 
3318.000000	98.878324 
3317.000000	98.869738 
3316.000000	98.866558 
3315.000000	98.869457 
3314.000000	98.874934 
3313.000000	98.879051 
3312.000000	98.880435 
3311.000000	98.880281 
3310.000000	98.880287 
3309.000000	98.880943 
3308.000000	98.881620 
3307.000000	98.881759 
3306.000000	98.881472 
3305.000000	98.880951 
3304.000000	98.879808 
3303.000000	98.877603 
3302.000000	98.875008 
3301.000000	98.873872 
3300.000000	98.875762 
3299.000000	98.880506 
3298.000000	98.886182 
3297.000000	98.890368 
3296.000000	98.891554 
3295.000000	98.890039 
3294.000000	98.887864 
3293.000000	98.887425 
3292.000000	98.889468 
3291.000000	98.892470 
3290.000000	98.894315 
3289.000000	98.894350 
3288.000000	98.893504 
3287.000000	98.892746 
3286.000000	98.892076 
3285.000000	98.891036 
3284.000000	98.889612 
3283.000000	98.888391 
3282.000000	98.888081 
3281.000000	98.888779 
3280.000000	98.889475 
3279.000000	98.888654 
3278.000000	98.885967 
3277.000000	98.883046 
3276.000000	98.882025 
3275.000000	98.883372 
3274.000000	98.885766 
3273.000000	98.887704 
3272.000000	98.888266 
3271.000000	98.886710 
3270.000000	98.882896 
3269.000000	98.878557 
3268.000000	98.876807 
3267.000000	98.879507 
3266.000000	98.885719 
3265.000000	98.893174 
3264.000000	98.900309 
3263.000000	98.906287 
3262.000000	98.910263 
3261.000000	98.911756 
3260.000000	98.911223 
3259.000000	98.909417 
3258.000000	98.906615 
3257.000000	98.903058 
3256.000000	98.899595 
3255.000000	98.897165 
3254.000000	98.896132 
3253.000000	98.896745 
3252.000000	98.899319 
3251.000000	98.902991 
3250.000000	98.905177 
3249.000000	98.903848 
3248.000000	98.900104 
3247.000000	98.897077 
3246.000000	98.896215 
3245.000000	98.896038 
3244.000000	98.894916 
3243.000000	98.893870 
3242.000000	98.895767 
3241.000000	98.902217 
3240.000000	98.911587 
3239.000000	98.919738 
3238.000000	98.922794 
3237.000000	98.919927 
3236.000000	98.913866 
3235.000000	98.908374 
3234.000000	98.905214 
3233.000000	98.903925 
3232.000000	98.903976 
3231.000000	98.905811 
3230.000000	98.909370 
3229.000000	98.912698 
3228.000000	98.913027 
3227.000000	98.909086 
3226.000000	98.902095 
3225.000000	98.894979 
3224.000000	98.890784 
3223.000000	98.890939 
3222.000000	98.894213 
3221.000000	98.897741 
3220.000000	98.899769 
3219.000000	98.901148 
3218.000000	98.903490 
3217.000000	98.906289 
3216.000000	98.907104 
3215.000000	98.904866 
3214.000000	98.901904 
3213.000000	98.901799 
3212.000000	98.905700 
3211.000000	98.911565 
3210.000000	98.916729 
3209.000000	98.920215 
3208.000000	98.922386 
3207.000000	98.923388 
3206.000000	98.922949 
3205.000000	98.921468 
3204.000000	98.920289 
3203.000000	98.920489 
3202.000000	98.921918 
3201.000000	98.923722 
3200.000000	98.925401 
3199.000000	98.926969 
3198.000000	98.928506 
3197.000000	98.930227 
3196.000000	98.932827 
3195.000000	98.936844 
3194.000000	98.941257 
3193.000000	98.943422 
3192.000000	98.941324 
3191.000000	98.936053 
3190.000000	98.931430 
3189.000000	98.930641 
3188.000000	98.933331 
3187.000000	98.936298 
3186.000000	98.936925 
3185.000000	98.935362 
3184.000000	98.933337 
3183.000000	98.931721 
3182.000000	98.930005 
3181.000000	98.927791 
3180.000000	98.925906 
3179.000000	98.925717 
3178.000000	98.927660 
3177.000000	98.930446 
3176.000000	98.931564 
3175.000000	98.929090 
3174.000000	98.923979 
3173.000000	98.920444 
3172.000000	98.922622 
3171.000000	98.930110 
3170.000000	98.937762 
3169.000000	98.940846 
3168.000000	98.939711 
3167.000000	98.938482 
3166.000000	98.940001 
3165.000000	98.943419 
3164.000000	98.946375 
3163.000000	98.947834 
3162.000000	98.948337 
3161.000000	98.948725 
3160.000000	98.949466 
3159.000000	98.950565 
3158.000000	98.951438 
3157.000000	98.951272 
3156.000000	98.949959 
3155.000000	98.948433 
3154.000000	98.947921 
3153.000000	98.949113 
3152.000000	98.951817 
3151.000000	98.954650 
3150.000000	98.955234 
3149.000000	98.952080 
3148.000000	98.946824 
3147.000000	98.943492 
3146.000000	98.944640 
3145.000000	98.948867 
3144.000000	98.952863 
3143.000000	98.955087 
3142.000000	98.956390 
3141.000000	98.957768 
3140.000000	98.958957 
3139.000000	98.959366 
3138.000000	98.959237 
3137.000000	98.959371 
3136.000000	98.960137 
3135.000000	98.961067 
3134.000000	98.961268 
3133.000000	98.960314 
3132.000000	98.958963 
3131.000000	98.958637 
3130.000000	98.959730 
3129.000000	98.960883 
3128.000000	98.960779 
3127.000000	98.960238 
3126.000000	98.961253 
3125.000000	98.963898 
3124.000000	98.965596 
3123.000000	98.964090 
3122.000000	98.960291 
3121.000000	98.957517 
3120.000000	98.958378 
3119.000000	98.962654 
3118.000000	98.967521 
3117.000000	98.969490 
3116.000000	98.967010 
3115.000000	98.961956 
3114.000000	98.958024 
3113.000000	98.957058 
3112.000000	98.957495 
3111.000000	98.956985 
3110.000000	98.955557 
3109.000000	98.955057 
3108.000000	98.956095 
3107.000000	98.957135 
3106.000000	98.956657 
3105.000000	98.955037 
3104.000000	98.954021 
3103.000000	98.955296 
3102.000000	98.959776 
3101.000000	98.966997 
3100.000000	98.974351 
3099.000000	98.977949 
3098.000000	98.975869 
3097.000000	98.970587 
3096.000000	98.967063 
3095.000000	98.968062 
3094.000000	98.972107 
3093.000000	98.976089 
3092.000000	98.978552 
3091.000000	98.979722 
3090.000000	98.979601 
3089.000000	98.977845 
3088.000000	98.975460 
3087.000000	98.974869 
3086.000000	98.977341 
3085.000000	98.981110 
3084.000000	98.983073 
3083.000000	98.982032 
3082.000000	98.979581 
3081.000000	98.977995 
3080.000000	98.978048 
3079.000000	98.978913 
3078.000000	98.979330 
3077.000000	98.978406 
3076.000000	98.975847 
3075.000000	98.972216 
3074.000000	98.968909 
3073.000000	98.967484 
3072.000000	98.968854 
3071.000000	98.972996 
3070.000000	98.978908 
3069.000000	98.984392 
3068.000000	98.986412 
3067.000000	98.982970 
3066.000000	98.975343 
3065.000000	98.967912 
3064.000000	98.964825 
3063.000000	98.966540 
3062.000000	98.969984 
3061.000000	98.972064 
3060.000000	98.972589 
3059.000000	98.973656 
3058.000000	98.976714 
3057.000000	98.980797 
3056.000000	98.983568 
3055.000000	98.983735 
3054.000000	98.982156 
3053.000000	98.980705 
3052.000000	98.980392 
3051.000000	98.980801 
3050.000000	98.981142 
3049.000000	98.981203 
3048.000000	98.980860 
3047.000000	98.979185 
3046.000000	98.975057 
3045.000000	98.968846 
3044.000000	98.962661 
3043.000000	98.958420 
3042.000000	98.956125 
3041.000000	98.954412 
3040.000000	98.952418 
3039.000000	98.950515 
3038.000000	98.949427 
3037.000000	98.949233 
3036.000000	98.949237 
3035.000000	98.948378 
3034.000000	98.945787 
3033.000000	98.941329 
3032.000000	98.935629 
3031.000000	98.929335 
3030.000000	98.922322 
3029.000000	98.913904 
3028.000000	98.903889 
3027.000000	98.893207 
3026.000000	98.883314 
3025.000000	98.874996 
3024.000000	98.867783 
3023.000000	98.860442 
3022.000000	98.851969 
3021.000000	98.842162 
3020.000000	98.831476 
3019.000000	98.820633 
3018.000000	98.810528 
3017.000000	98.802079 
3016.000000	98.795412 
3015.000000	98.789079 
3014.000000	98.780763 
3013.000000	98.769143 
3012.000000	98.754620 
3011.000000	98.738071 
3010.000000	98.719816 
3009.000000	98.700519 
3008.000000	98.682329 
3007.000000	98.667809 
3006.000000	98.657595 
3005.000000	98.649717 
3004.000000	98.641101 
3003.000000	98.629239 
3002.000000	98.613097 
3001.000000	98.594039 
3000.000000	98.576016 
2999.000000	98.563188 
2998.000000	98.556442 
2997.000000	98.553062 
2996.000000	98.550091 
2995.000000	98.546345 
2994.000000	98.539980 
2993.000000	98.526287 
2992.000000	98.501374 
2991.000000	98.468453 
2990.000000	98.437932 
2989.000000	98.419421 
2988.000000	98.414370 
2987.000000	98.417352 
2986.000000	98.423068 
2985.000000	98.430212 
2984.000000	98.439100 
2983.000000	98.448224 
2982.000000	98.454611 
2981.000000	98.456697 
2980.000000	98.455632 
2979.000000	98.453799 
2978.000000	98.452760 
2977.000000	98.452609 
2976.000000	98.452573 
2975.000000	98.451788 
2974.000000	98.449827 
2973.000000	98.447086 
2972.000000	98.444897 
2971.000000	98.445005 
2970.000000	98.448568 
2969.000000	98.455456 
2968.000000	98.464635 
2967.000000	98.475234 
2966.000000	98.487079 
2965.000000	98.500066 
2964.000000	98.513401 
2963.000000	98.525939 
2962.000000	98.537188 
2961.000000	98.547412 
2960.000000	98.556679 
2959.000000	98.564509 
2958.000000	98.570937 
2957.000000	98.577254 
2956.000000	98.584640 
2955.000000	98.592113 
2954.000000	98.597003 
2953.000000	98.598323 
2952.000000	98.599161 
2951.000000	98.604582 
2950.000000	98.616625 
2949.000000	98.631789 
2948.000000	98.643896 
2947.000000	98.649332 
2946.000000	98.649371 
2945.000000	98.647839 
2944.000000	98.647559 
2943.000000	98.649247 
2942.000000	98.652632 
2941.000000	98.657117 
2940.000000	98.661264 
2939.000000	98.663062 
2938.000000	98.661790 
2937.000000	98.659304 
2936.000000	98.658712 
2935.000000	98.661725 
2934.000000	98.667580 
2933.000000	98.674159 
2932.000000	98.679440 
2931.000000	98.682005 
2930.000000	98.681139 
2929.000000	98.677100 
2928.000000	98.671186 
2927.000000	98.665219 
2926.000000	98.660775 
2925.000000	98.658560 
2924.000000	98.658134 
2923.000000	98.658326 
2922.000000	98.658191 
2921.000000	98.657468 
2920.000000	98.655917 
2919.000000	98.652795 
2918.000000	98.647705 
2917.000000	98.641637 
2916.000000	98.636200 
2915.000000	98.631871 
2914.000000	98.627949 
2913.000000	98.624285 
2912.000000	98.621780 
2911.000000	98.620567 
2910.000000	98.618922 
2909.000000	98.615143 
2908.000000	98.609809 
2907.000000	98.604825 
2906.000000	98.600404 
2905.000000	98.594251 
2904.000000	98.584282 
2903.000000	98.571633 
2902.000000	98.560811 
2901.000000	98.556999 
2900.000000	98.562822 
2899.000000	98.576515 
2898.000000	98.592579 
2897.000000	98.605260 
2896.000000	98.612399 
2895.000000	98.616348 
2894.000000	98.620975 
2893.000000	98.627748 
2892.000000	98.634763 
2891.000000	98.639187 
2890.000000	98.640197 
2889.000000	98.639560 
2888.000000	98.639706 
2887.000000	98.641616 
2886.000000	98.644632 
2885.000000	98.647965 
2884.000000	98.651879 
2883.000000	98.657275 
2882.000000	98.664611 
2881.000000	98.673676 
2880.000000	98.684228 
2879.000000	98.696292 
2878.000000	98.709647 
2877.000000	98.723247 
2876.000000	98.735246 
2875.000000	98.743696 
2874.000000	98.747684 
2873.000000	98.748373 
2872.000000	98.748817 
2871.000000	98.752009 
2870.000000	98.758711 
2869.000000	98.767282 
2868.000000	98.775692 
2867.000000	98.783461 
2866.000000	98.791744 
2865.000000	98.802057 
2864.000000	98.814981 
2863.000000	98.829416 
2862.000000	98.842702 
2861.000000	98.852216 
2860.000000	98.857886 
2859.000000	98.863002 
2858.000000	98.871513 
2857.000000	98.884145 
2856.000000	98.897618 
2855.000000	98.908018 
2854.000000	98.914341 
2853.000000	98.918372 
2852.000000	98.921885 
2851.000000	98.925061 
2850.000000	98.927569 
2849.000000	98.929891 
2848.000000	98.932866 
2847.000000	98.936609 
2846.000000	98.940618 
2845.000000	98.944554 
2844.000000	98.948254 
2843.000000	98.951449 
2842.000000	98.954298 
2841.000000	98.957827 
2840.000000	98.962721 
2839.000000	98.967696 
2838.000000	98.970191 
2837.000000	98.969080 
2836.000000	98.965920 
2835.000000	98.963405 
2834.000000	98.963462 
2833.000000	98.966858 
2832.000000	98.973129 
2831.000000	98.980147 
2830.000000	98.985154 
2829.000000	98.987497 
2828.000000	98.989489 
2827.000000	98.993236 
2826.000000	98.997387 
2825.000000	98.998618 
2824.000000	98.996084 
2823.000000	98.992858 
2822.000000	98.992765 
2821.000000	98.996929 
2820.000000	99.003541 
2819.000000	99.009768 
2818.000000	99.013554 
2817.000000	99.014592 
2816.000000	99.014216 
2815.000000	99.013864 
2814.000000	99.013528 
2813.000000	99.012277 
2812.000000	99.010157 
2811.000000	99.008479 
2810.000000	99.008028 
2809.000000	99.008182 
2808.000000	99.008313 
2807.000000	99.008977 
2806.000000	99.010842 
2805.000000	99.013244 
2804.000000	99.014867 
2803.000000	99.015520 
2802.000000	99.016306 
2801.000000	99.017996 
2800.000000	99.019909 
2799.000000	99.020656 
2798.000000	99.019794 
2797.000000	99.018551 
2796.000000	99.018723 
2795.000000	99.020700 
2794.000000	99.022803 
2793.000000	99.022974 
2792.000000	99.020920 
2791.000000	99.018122 
2790.000000	99.016115 
2789.000000	99.015660 
2788.000000	99.017326 
2787.000000	99.021413 
2786.000000	99.026816 
2785.000000	99.031199 
2784.000000	99.033166 
2783.000000	99.033487 
2782.000000	99.033577 
2781.000000	99.033662 
2780.000000	99.033324 
2779.000000	99.032903 
2778.000000	99.033119 
2777.000000	99.033768 
2776.000000	99.033956 
2775.000000	99.033395 
2774.000000	99.032447 
2773.000000	99.031098 
2772.000000	99.029037 
2771.000000	99.026874 
2770.000000	99.026321 
2769.000000	99.028700 
2768.000000	99.033649 
2767.000000	99.039338 
2766.000000	99.043582 
2765.000000	99.045033 
2764.000000	99.043987 
2763.000000	99.042147 
2762.000000	99.041157 
2761.000000	99.041409 
2760.000000	99.042507 
2759.000000	99.044281 
2758.000000	99.046646 
2757.000000	99.048952 
2756.000000	99.050558 
2755.000000	99.051777 
2754.000000	99.053165 
2753.000000	99.054004 
2752.000000	99.052832 
2751.000000	99.049701 
2750.000000	99.046553 
2749.000000	99.044805 
2748.000000	99.043654 
2747.000000	99.041509 
2746.000000	99.038152 
2745.000000	99.034697 
2744.000000	99.032248 
2743.000000	99.031610 
2742.000000	99.033629 
2741.000000	99.038505 
2740.000000	99.044819 
2739.000000	99.050263 
2738.000000	99.053594 
2737.000000	99.055360 
2736.000000	99.056663 
2735.000000	99.057815 
2734.000000	99.058360 
2733.000000	99.057894 
2732.000000	99.056507 
2731.000000	99.054626 
2730.000000	99.052774 
2729.000000	99.051625 
2728.000000	99.052138 
2727.000000	99.055040 
2726.000000	99.059645 
2725.000000	99.063544 
2724.000000	99.064518 
2723.000000	99.063030 
2722.000000	99.061834 
2721.000000	99.062647 
2720.000000	99.064119 
2719.000000	99.063852 
2718.000000	99.061486 
2717.000000	99.058708 
2716.000000	99.057121 
2715.000000	99.057580 
2714.000000	99.060950 
2713.000000	99.067243 
2712.000000	99.073760 
2711.000000	99.076296 
2710.000000	99.073538 
2709.000000	99.068905 
2708.000000	99.066721 
2707.000000	99.067569 
2706.000000	99.068842 
2705.000000	99.068985 
2704.000000	99.069210 
2703.000000	99.070985 
2702.000000	99.073627 
2701.000000	99.075219 
2700.000000	99.074926 
2699.000000	99.073496 
2698.000000	99.071880 
2697.000000	99.070155 
2696.000000	99.067982 
2695.000000	99.065802 
2694.000000	99.065032 
2693.000000	99.066459 
2692.000000	99.068505 
2691.000000	99.068255 
2690.000000	99.065132 
2689.000000	99.062651 
2688.000000	99.064887 
2687.000000	99.071378 
2686.000000	99.077178 
2685.000000	99.078281 
2684.000000	99.075465 
2683.000000	99.072202 
2682.000000	99.070454 
2681.000000	99.069871 
2680.000000	99.069695 
2679.000000	99.069595 
2678.000000	99.069214 
2677.000000	99.068652 
2676.000000	99.069126 
2675.000000	99.071456 
2674.000000	99.074051 
2673.000000	99.074225 
2672.000000	99.071730 
2671.000000	99.069031 
2670.000000	99.067501 
2669.000000	99.065378 
2668.000000	99.060890 
2667.000000	99.055676 
2666.000000	99.053170 
2665.000000	99.054571 
2664.000000	99.058354 
2663.000000	99.063108 
2662.000000	99.068651 
2661.000000	99.074307 
2660.000000	99.078285 
2659.000000	99.079494 
2658.000000	99.078443 
2657.000000	99.075823 
2656.000000	99.071895 
2655.000000	99.068005 
2654.000000	99.066589 
2653.000000	99.067921 
2652.000000	99.068416 
2651.000000	99.064483 
2650.000000	99.057366 
2649.000000	99.051860 
2648.000000	99.050522 
2647.000000	99.051580 
2646.000000	99.052691 
2645.000000	99.054118 
2644.000000	99.056915 
2643.000000	99.060135 
2642.000000	99.061809 
2641.000000	99.061672 
2640.000000	99.061219 
2639.000000	99.061661 
2638.000000	99.063195 
2637.000000	99.065729 
2636.000000	99.068873 
2635.000000	99.071399 
2634.000000	99.072033 
2633.000000	99.070880 
2632.000000	99.069287 
2631.000000	99.068463 
2630.000000	99.068842 
2629.000000	99.070251 
2628.000000	99.071834 
2627.000000	99.072477 
2626.000000	99.072356 
2625.000000	99.073226 
2624.000000	99.075828 
2623.000000	99.077891 
2622.000000	99.076629 
2621.000000	99.072646 
2620.000000	99.069087 
2619.000000	99.067245 
2618.000000	99.065612 
2617.000000	99.063414 
2616.000000	99.062114 
2615.000000	99.062465 
2614.000000	99.062967 
2613.000000	99.062922 
2612.000000	99.064448 
2611.000000	99.069266 
2610.000000	99.075418 
2609.000000	99.079602 
2608.000000	99.081324 
2607.000000	99.082457 
2606.000000	99.084041 
2605.000000	99.085922 
2604.000000	99.088301 
2603.000000	99.090819 
2602.000000	99.091003 
2601.000000	99.086650 
2600.000000	99.079596 
2599.000000	99.074435 
2598.000000	99.073529 
2597.000000	99.075558 
2596.000000	99.078410 
2595.000000	99.080518 
2594.000000	99.079786 
2593.000000	99.075059 
2592.000000	99.069527 
2591.000000	99.069030 
2590.000000	99.075273 
2589.000000	99.083485 
2588.000000	99.088287 
2587.000000	99.089027 
2586.000000	99.087626 
2585.000000	99.084447 
2584.000000	99.079258 
2583.000000	99.073966 
2582.000000	99.070995 
2581.000000	99.070052 
2580.000000	99.069109 
2579.000000	99.067537 
2578.000000	99.066008 
2577.000000	99.064677 
2576.000000	99.064104 
2575.000000	99.066619 
2574.000000	99.073575 
2573.000000	99.081913 
2572.000000	99.086608 
2571.000000	99.086266 
2570.000000	99.083460 
2569.000000	99.080225 
2568.000000	99.076805 
2567.000000	99.074755 
2566.000000	99.076913 
2565.000000	99.082802 
2564.000000	99.087562 
2563.000000	99.087495 
2562.000000	99.084071 
2561.000000	99.080769 
2560.000000	99.078723 
2559.000000	99.077536 
2558.000000	99.077567 
2557.000000	99.078468 
2556.000000	99.077646 
2555.000000	99.073631 
2554.000000	99.069674 
2553.000000	99.070531 
2552.000000	99.076158 
2551.000000	99.081801 
2550.000000	99.084254 
2549.000000	99.084815 
2548.000000	99.085482 
2547.000000	99.085223 
2546.000000	99.081753 
2545.000000	99.075358 
2544.000000	99.069447 
2543.000000	99.067861 
2542.000000	99.071981 
2541.000000	99.079539 
2540.000000	99.086099 
2539.000000	99.088612 
2538.000000	99.087280 
2537.000000	99.083045 
2536.000000	99.074681 
2535.000000	99.061338 
2534.000000	99.047570 
2533.000000	99.041732 
2532.000000	99.047428 
2531.000000	99.059350 
2530.000000	99.069787 
2529.000000	99.076850 
2528.000000	99.083547 
2527.000000	99.090818 
2526.000000	99.095591 
2525.000000	99.095726 
2524.000000	99.093565 
2523.000000	99.093253 
2522.000000	99.096248 
2521.000000	99.100457 
2520.000000	99.102898 
2519.000000	99.102612 
2518.000000	99.101249 
2517.000000	99.100654 
2516.000000	99.099978 
2515.000000	99.096607 
2514.000000	99.090661 
2513.000000	99.086187 
2512.000000	99.085618 
2511.000000	99.085139 
2510.000000	99.079370 
2509.000000	99.069917 
2508.000000	99.064832 
2507.000000	99.068723 
2506.000000	99.077151 
2505.000000	99.082335 
2504.000000	99.081122 
2503.000000	99.075388 
2502.000000	99.068060 
2501.000000	99.062023 
2500.000000	99.060684 
2499.000000	99.065851 
2498.000000	99.075605 
2497.000000	99.086535 
2496.000000	99.096884 
2495.000000	99.105079 
2494.000000	99.107017 
2493.000000	99.099072 
2492.000000	99.083993 
2491.000000	99.070209 
2490.000000	99.063959 
2489.000000	99.064196 
2488.000000	99.065933 
2487.000000	99.066316 
2486.000000	99.066319 
2485.000000	99.068412 
2484.000000	99.073870 
2483.000000	99.081209 
2482.000000	99.086478 
2481.000000	99.086414 
2480.000000	99.081956 
2479.000000	99.077262 
2478.000000	99.074793 
2477.000000	99.073161 
2476.000000	99.070625 
2475.000000	99.068547 
2474.000000	99.069642 
2473.000000	99.074287 
2472.000000	99.080433 
2471.000000	99.086158 
2470.000000	99.090376 
2469.000000	99.091754 
2468.000000	99.089085 
2467.000000	99.082943 
2466.000000	99.075691 
2465.000000	99.069904 
2464.000000	99.067564 
2463.000000	99.069776 
2462.000000	99.075290 
2461.000000	99.079709 
2460.000000	99.078747 
2459.000000	99.073207 
2458.000000	99.068964 
2457.000000	99.070910 
2456.000000	99.078041 
2455.000000	99.085269 
2454.000000	99.088576 
2453.000000	99.087204 
2452.000000	99.082446 
2451.000000	99.076613 
2450.000000	99.072695 
2449.000000	99.072646 
2448.000000	99.075280 
2447.000000	99.077349 
2446.000000	99.077400 
2445.000000	99.077413 
2444.000000	99.079996 
2443.000000	99.085076 
2442.000000	99.090131 
2441.000000	99.092736 
2440.000000	99.091971 
2439.000000	99.088347 
2438.000000	99.083748 
2437.000000	99.080859 
2436.000000	99.080933 
2435.000000	99.081843 
2434.000000	99.079623 
2433.000000	99.072578 
2432.000000	99.063275 
2431.000000	99.056165 
2430.000000	99.053840 
2429.000000	99.055863 
2428.000000	99.060501 
2427.000000	99.066662 
2426.000000	99.073708 
2425.000000	99.079594 
2424.000000	99.080332 
2423.000000	99.073085 
2422.000000	99.060424 
2421.000000	99.049963 
2420.000000	99.047985 
2419.000000	99.053898 
2418.000000	99.062169 
2417.000000	99.068577 
2416.000000	99.072391 
2415.000000	99.073353 
2414.000000	99.070293 
2413.000000	99.064022 
2412.000000	99.058628 
2411.000000	99.057608 
2410.000000	99.060272 
2409.000000	99.063757 
2408.000000	99.066984 
2407.000000	99.070584 
2406.000000	99.074353 
2405.000000	99.077324 
2404.000000	99.079549 
2403.000000	99.081295 
2402.000000	99.080930 
2401.000000	99.076222 
2400.000000	99.067903 
2399.000000	99.059684 
2398.000000	99.054343 
2397.000000	99.051839 
2396.000000	99.051623 
2395.000000	99.054357 
2394.000000	99.060105 
2393.000000	99.066692 
2392.000000	99.071634 
2391.000000	99.074793 
2390.000000	99.077748 
2389.000000	99.081226 
2388.000000	99.084435 
2387.000000	99.086577 
2386.000000	99.087804 
2385.000000	99.088586 
2384.000000	99.088959 
2383.000000	99.088852 
2382.000000	99.088933 
2381.000000	99.090633 
2380.000000	99.094613 
2379.000000	99.098869 
2378.000000	99.099354 
2377.000000	99.094072 
2376.000000	99.086408 
2375.000000	99.082624 
2374.000000	99.085365 
2373.000000	99.091282 
2372.000000	99.096289 
2371.000000	99.101231 
2370.000000	99.109895 
2369.000000	99.122288 
2368.000000	99.132534 
2367.000000	99.134078 
2366.000000	99.125830 
2365.000000	99.113369 
2364.000000	99.104751 
2363.000000	99.104263 
2362.000000	99.109640 
2361.000000	99.114581 
2360.000000	99.114548 
2359.000000	99.111638 
2358.000000	99.111717 
2357.000000	99.118097 
2356.000000	99.128519 
2355.000000	99.137861 
2354.000000	99.143047 
2353.000000	99.143244 
2352.000000	99.139452 
2351.000000	99.133003 
2350.000000	99.124500 
2349.000000	99.115440 
2348.000000	99.108709 
2347.000000	99.107891 
2346.000000	99.111907 
2345.000000	99.114786 
2344.000000	99.112976 
2343.000000	99.109296 
2342.000000	99.109438 
2341.000000	99.113714 
2340.000000	99.117606 
2339.000000	99.117214 
2338.000000	99.113261 
2337.000000	99.109030 
2336.000000	99.106983 
2335.000000	99.107819 
2334.000000	99.111401 
2333.000000	99.115677 
2332.000000	99.116828 
2331.000000	99.111833 
2330.000000	99.101407 
2329.000000	99.090706 
2328.000000	99.084035 
2327.000000	99.083014 
2326.000000	99.085134 
2325.000000	99.086458 
2324.000000	99.084619 
2323.000000	99.080825 
2322.000000	99.079703 
2321.000000	99.083848 
2320.000000	99.091218 
2319.000000	99.096822 
2318.000000	99.098279 
2317.000000	99.097286 
2316.000000	99.096265 
2315.000000	99.095418 
2314.000000	99.093548 
2313.000000	99.091403 
2312.000000	99.091502 
2311.000000	99.095805 
2310.000000	99.103281 
2309.000000	99.110898 
2308.000000	99.115138 
2307.000000	99.113780 
2306.000000	99.106903 
2305.000000	99.097133 
2304.000000	99.087541 
2303.000000	99.079005 
2302.000000	99.070454 
2301.000000	99.061896 
2300.000000	99.055334 
2299.000000	99.052104 
2298.000000	99.050661 
2297.000000	99.049138 
2296.000000	99.048029 
2295.000000	99.048733 
2294.000000	99.049699 
2293.000000	99.047581 
2292.000000	99.041988 
2291.000000	99.036814 
2290.000000	99.035298 
2289.000000	99.035945 
2288.000000	99.034879 
2287.000000	99.030887 
2286.000000	99.026380 
2285.000000	99.023949 
2284.000000	99.023660 
2283.000000	99.023391 
2282.000000	99.020763 
2281.000000	99.014983 
2280.000000	99.008358 
2279.000000	99.005779 
2278.000000	99.011212 
2277.000000	99.023665 
2276.000000	99.037343 
2275.000000	99.046400 
2274.000000	99.048837 
2273.000000	99.045436 
2272.000000	99.036342 
2271.000000	99.021197 
2270.000000	99.003162 
2269.000000	98.990378 
2268.000000	98.990435 
2267.000000	99.003144 
2266.000000	99.020342 
2265.000000	99.033225 
2264.000000	99.038756 
2263.000000	99.039420 
2262.000000	99.039497 
2261.000000	99.042678 
2260.000000	99.050345 
2259.000000	99.059418 
2258.000000	99.063578 
2257.000000	99.059342 
2256.000000	99.050031 
2255.000000	99.041106 
2254.000000	99.033237 
2253.000000	99.023808 
2252.000000	99.014458 
2251.000000	99.011948 
2250.000000	99.019836 
2249.000000	99.033115 
2248.000000	99.043573 
2247.000000	99.047759 
2246.000000	99.046956 
2245.000000	99.041897 
2244.000000	99.031642 
2243.000000	99.017436 
2242.000000	99.004091 
2241.000000	98.995949 
2240.000000	98.992822 
2239.000000	98.991122 
2238.000000	98.988163 
2237.000000	98.984074 
2236.000000	98.979643 
2235.000000	98.973682 
2234.000000	98.964028 
2233.000000	98.951485 
2232.000000	98.941738 
2231.000000	98.942126 
2230.000000	98.956134 
2229.000000	98.980705 
2228.000000	99.008121 
2227.000000	99.030112 
2226.000000	99.041221 
2225.000000	99.040359 
2224.000000	99.030290 
2223.000000	99.015631 
2222.000000	99.001277 
2221.000000	98.991493 
2220.000000	98.988101 
2219.000000	98.989048 
2218.000000	98.991157 
2217.000000	98.995457 
2216.000000	99.007060 
2215.000000	99.027127 
2214.000000	99.047070 
2213.000000	99.054541 
2212.000000	99.045388 
2211.000000	99.027517 
2210.000000	99.013605 
2209.000000	99.011807 
2208.000000	99.021448 
2207.000000	99.034038 
2206.000000	99.038818 
2205.000000	99.030718 
2204.000000	99.013794 
2203.000000	98.995619 
2202.000000	98.979987 
2201.000000	98.967349 
2200.000000	98.959346 
2199.000000	98.957801 
2198.000000	98.960050 
2197.000000	98.960659 
2196.000000	98.958887 
2195.000000	98.960287 
2194.000000	98.969382 
2193.000000	98.983703 
2192.000000	98.995756 
2191.000000	98.998250 
2190.000000	98.987831 
2189.000000	98.968195 
2188.000000	98.950309 
2187.000000	98.945455 
2186.000000	98.956477 
2185.000000	98.977575 
2184.000000	99.001263 
2183.000000	99.021463 
2182.000000	99.031593 
2181.000000	99.027597 
2180.000000	99.014674 
2179.000000	99.003983 
2178.000000	99.000135 
2177.000000	98.997205 
2176.000000	98.988885 
2175.000000	98.976863 
2174.000000	98.966134 
2173.000000	98.957598 
2172.000000	98.949557 
2171.000000	98.942599 
2170.000000	98.939159 
2169.000000	98.940877 
2168.000000	98.948528 
2167.000000	98.961206 
2166.000000	98.973423 
2165.000000	98.977192 
2164.000000	98.970206 
2163.000000	98.958673 
2162.000000	98.950386 
2161.000000	98.949463 
2160.000000	98.958204 
2159.000000	98.976241 
2158.000000	98.994953 
2157.000000	99.002520 
2156.000000	98.999238 
2155.000000	98.998098 
2154.000000	99.006321 
2153.000000	99.015149 
2152.000000	99.012867 
2151.000000	99.001376 
2150.000000	98.993494 
2149.000000	98.998112 
2148.000000	99.013368 
2147.000000	99.030860 
2146.000000	99.041237 
2145.000000	99.039021 
2144.000000	99.027809 
2143.000000	99.018604 
2142.000000	99.018802 
2141.000000	99.024856 
2140.000000	99.028737 
2139.000000	99.028004 
2138.000000	99.025155 
2137.000000	99.021017 
2136.000000	99.015087 
2135.000000	99.010544 
2134.000000	99.012581 
2133.000000	99.021333 
2132.000000	99.030520 
2131.000000	99.033264 
2130.000000	99.026929 
2129.000000	99.013999 
2128.000000	99.001088 
2127.000000	98.995101 
2126.000000	98.997223 
2125.000000	99.002032 
2124.000000	99.005189 
2123.000000	99.009345 
2122.000000	99.018264 
2121.000000	99.027733 
2120.000000	99.028704 
2119.000000	99.019369 
2118.000000	99.008135 
2117.000000	99.003131 
2116.000000	99.003737 
2115.000000	99.004961 
2114.000000	99.005788 
2113.000000	99.009091 
2112.000000	99.015424 
2111.000000	99.020876 
2110.000000	99.021132 
2109.000000	99.015492 
2108.000000	99.006718 
2107.000000	98.997965 
2106.000000	98.989998 
2105.000000	98.981056 
2104.000000	98.969863 
2103.000000	98.958899 
2102.000000	98.953479 
2101.000000	98.956619 
2100.000000	98.965351 
2099.000000	98.973182 
2098.000000	98.976488 
2097.000000	98.977973 
2096.000000	98.982956 
2095.000000	98.991648 
2094.000000	98.996408 
2093.000000	98.989306 
2092.000000	98.972689 
2091.000000	98.959191 
2090.000000	98.959250 
2089.000000	98.969988 
2088.000000	98.978659 
2087.000000	98.976336 
2086.000000	98.965790 
2085.000000	98.956744 
2084.000000	98.956282 
2083.000000	98.964110 
2082.000000	98.974564 
2081.000000	98.981582 
2080.000000	98.982908 
2079.000000	98.980906 
2078.000000	98.979960 
2077.000000	98.983467 
2076.000000	98.992613 
2075.000000	99.005770 
2074.000000	99.017968 
2073.000000	99.023447 
2072.000000	99.020856 
2071.000000	99.014422 
2070.000000	99.008428 
2069.000000	99.002648 
2068.000000	98.995279 
2067.000000	98.987607 
2066.000000	98.982114 
2065.000000	98.977780 
2064.000000	98.971948 
2063.000000	98.966411 
2062.000000	98.966869 
2061.000000	98.975412 
2060.000000	98.987198 
2059.000000	98.995882 
2058.000000	98.999555 
2057.000000	99.000151 
2056.000000	98.999451 
2055.000000	98.996989 
2054.000000	98.990658 
2053.000000	98.979371 
2052.000000	98.966464 
2051.000000	98.959598 
2050.000000	98.964168 
2049.000000	98.975393 
2048.000000	98.980181 
2047.000000	98.970086 
2046.000000	98.950282 
2045.000000	98.934115 
2044.000000	98.931134 
2043.000000	98.941132 
2042.000000	98.956521 
2041.000000	98.968161 
2040.000000	98.971317 
2039.000000	98.968190 
2038.000000	98.964275 
2037.000000	98.962593 
2036.000000	98.962718 
2035.000000	98.964383 
2034.000000	98.968362 
2033.000000	98.972709 
2032.000000	98.971966 
2031.000000	98.962780 
2030.000000	98.948455 
2029.000000	98.935825 
2028.000000	98.928309 
2027.000000	98.924062 
2026.000000	98.920827 
2025.000000	98.920643 
2024.000000	98.927556 
2023.000000	98.940303 
2022.000000	98.949673 
2021.000000	98.946595 
2020.000000	98.933700 
2019.000000	98.924951 
2018.000000	98.931156 
2017.000000	98.947679 
2016.000000	98.959669 
2015.000000	98.957966 
2014.000000	98.945455 
2013.000000	98.930330 
2012.000000	98.918819 
2011.000000	98.914285 
2010.000000	98.918773 
2009.000000	98.932523 
2008.000000	98.952718 
2007.000000	98.973610 
2006.000000	98.987824 
2005.000000	98.990161 
2004.000000	98.982476 
2003.000000	98.972998 
2002.000000	98.968646 
2001.000000	98.968534 
2000.000000	98.966935 
1999.000000	98.960522 
1998.000000	98.950912 
1997.000000	98.942529 
1996.000000	98.940424 
1995.000000	98.948507 
1994.000000	98.965939 
1993.000000	98.984345 
1992.000000	98.991923 
1991.000000	98.983193 
1990.000000	98.963409 
1989.000000	98.943622 
1988.000000	98.933262 
1987.000000	98.935209 
1986.000000	98.944549 
1985.000000	98.952866 
1984.000000	98.956235 
1983.000000	98.958139 
1982.000000	98.962557 
1981.000000	98.966107 
1980.000000	98.961291 
1979.000000	98.946399 
1978.000000	98.928549 
1977.000000	98.916383 
1976.000000	98.912285 
1975.000000	98.913168 
1974.000000	98.916073 
1973.000000	98.921764 
1972.000000	98.934390 
1971.000000	98.956768 
1970.000000	98.983510 
1969.000000	99.000599 
1968.000000	98.996825 
1967.000000	98.976453 
1966.000000	98.955530 
1965.000000	98.944584 
1964.000000	98.940675 
1963.000000	98.937182 
1962.000000	98.934179 
1961.000000	98.935750 
1960.000000	98.941911 
1959.000000	98.948403 
1958.000000	98.952855 
1957.000000	98.956479 
1956.000000	98.960366 
1955.000000	98.963810 
1954.000000	98.966074 
1953.000000	98.966696 
1952.000000	98.963228 
1951.000000	98.952739 
1950.000000	98.937400 
1949.000000	98.925890 
1948.000000	98.926428 
1947.000000	98.937368 
1946.000000	98.946370 
1945.000000	98.941095 
1944.000000	98.921661 
1943.000000	98.902296 
1942.000000	98.898413 
1941.000000	98.910930 
1940.000000	98.926444 
1939.000000	98.932785 
1938.000000	98.931093 
1937.000000	98.932681 
1936.000000	98.945019 
1935.000000	98.962656 
1934.000000	98.973979 
1933.000000	98.975287 
1932.000000	98.974150 
1931.000000	98.979110 
1930.000000	98.989062 
1929.000000	98.995493 
1928.000000	98.994178 
1927.000000	98.989159 
1926.000000	98.986512 
1925.000000	98.987261 
1924.000000	98.988453 
1923.000000	98.988874 
1922.000000	98.989640 
1921.000000	98.990339 
1920.000000	98.987153 
1919.000000	98.975753 
1918.000000	98.956259 
1917.000000	98.935929 
1916.000000	98.924674 
1915.000000	98.926361 
1914.000000	98.936414 
1913.000000	98.947433 
1912.000000	98.955548 
1911.000000	98.961418 
1910.000000	98.965104 
1909.000000	98.964604 
1908.000000	98.961471 
1907.000000	98.961324 
1906.000000	98.967157 
1905.000000	98.974478 
1904.000000	98.976582 
1903.000000	98.972893 
1902.000000	98.967282 
1901.000000	98.962171 
1900.000000	98.958213 
1899.000000	98.956582 
1898.000000	98.958714 
1897.000000	98.964082 
1896.000000	98.970714 
1895.000000	98.977336 
1894.000000	98.982120 
1893.000000	98.982281 
1892.000000	98.977754 
1891.000000	98.972837 
1890.000000	98.970947 
1889.000000	98.969656 
1888.000000	98.965456 
1887.000000	98.960349 
1886.000000	98.959045 
1885.000000	98.962790 
1884.000000	98.969116 
1883.000000	98.976137 
1882.000000	98.982748 
1881.000000	98.986329 
1880.000000	98.985648 
1879.000000	98.984341 
1878.000000	98.988137 
1877.000000	98.998195 
1876.000000	99.009151 
1875.000000	99.014894 
1874.000000	99.013376 
1873.000000	99.005684 
1872.000000	98.994536 
1871.000000	98.984060 
1870.000000	98.977876 
1869.000000	98.975284 
1868.000000	98.973499 
1867.000000	98.974072 
1866.000000	98.980092 
1865.000000	98.989167 
1864.000000	98.993968 
1863.000000	98.988795 
1862.000000	98.974768 
1861.000000	98.959182 
1860.000000	98.950962 
1859.000000	98.955171 
1858.000000	98.968921 
1857.000000	98.982920 
1856.000000	98.989912 
1855.000000	98.991320 
1854.000000	98.992826 
1853.000000	98.995149 
1852.000000	98.994996 
1851.000000	98.991626 
1850.000000	98.989495 
1849.000000	98.993709 
1848.000000	99.003542 
1847.000000	99.012928 
1846.000000	99.015910 
1845.000000	99.011578 
1844.000000	99.004801 
1843.000000	99.002677 
1842.000000	99.006879 
1841.000000	99.012001 
1840.000000	99.012780 
1839.000000	99.008157 
1838.000000	99.001030 
1837.000000	98.995244 
1836.000000	98.993117 
1835.000000	98.995050 
1834.000000	98.998960 
1833.000000	99.001536 
1832.000000	99.000917 
1831.000000	98.997185 
1830.000000	98.992314 
1829.000000	98.989979 
1828.000000	98.991982 
1827.000000	98.995716 
1826.000000	98.997796 
1825.000000	98.997713 
1824.000000	98.996869 
1823.000000	98.995875 
1822.000000	98.992882 
1821.000000	98.986702 
1820.000000	98.980672 
1819.000000	98.980584 
1818.000000	98.988597 
1817.000000	98.998787 
1816.000000	99.003356 
1815.000000	99.002508 
1814.000000	99.002028 
1813.000000	99.004958 
1812.000000	99.008743 
1811.000000	99.011607 
1810.000000	99.016408 
1809.000000	99.023296 
1808.000000	99.026871 
1807.000000	99.023136 
1806.000000	99.013626 
1805.000000	99.002176 
1804.000000	98.991843 
1803.000000	98.985477 
1802.000000	98.984079 
1801.000000	98.985214 
1800.000000	98.984856 
1799.000000	98.983373 
1798.000000	98.985354 
1797.000000	98.992007 
1796.000000	98.999992 
1795.000000	99.006102 
1794.000000	99.009443 
1793.000000	99.009784 
1792.000000	99.006024 
1791.000000	99.000687 
1790.000000	98.998691 
1789.000000	98.999892 
1788.000000	99.001348 
1787.000000	99.002730 
1786.000000	99.005894 
1785.000000	99.010173 
1784.000000	99.012336 
1783.000000	99.011345 
1782.000000	99.007355 
1781.000000	99.001403 
1780.000000	98.994669 
1779.000000	98.989124 
1778.000000	98.988027 
1777.000000	98.992437 
1776.000000	99.000182 
1775.000000	99.005679 
1774.000000	99.004012 
1773.000000	98.996760 
1772.000000	98.990636 
1771.000000	98.990449 
1770.000000	98.995043 
1769.000000	98.999720 
1768.000000	99.001658 
1767.000000	99.001772 
1766.000000	99.002055 
1765.000000	99.002876 
1764.000000	99.002685 
1763.000000	99.001168 
1762.000000	98.999850 
1761.000000	99.000754 
1760.000000	99.002666 
1759.000000	99.002821 
1758.000000	99.001786 
1757.000000	99.003399 
1756.000000	99.009477 
1755.000000	99.015332 
1754.000000	99.015948 
1753.000000	99.012504 
1752.000000	99.010201 
1751.000000	99.009341 
1750.000000	99.006458 
1749.000000	99.001868 
1748.000000	98.999692 
1747.000000	99.001677 
1746.000000	99.004961 
1745.000000	99.008204 
1744.000000	99.011818 
1743.000000	99.015186 
1742.000000	99.017273 
1741.000000	99.018039 
1740.000000	99.017724 
1739.000000	99.017236 
1738.000000	99.017422 
1737.000000	99.016854 
1736.000000	99.013879 
1735.000000	99.011748 
1734.000000	99.010500 
1733.000000	99.008284 
1732.000000	99.007205 
1731.000000	99.005495 
1730.000000	99.001445 
1729.000000	98.997314 
1728.000000	98.995927 
1727.000000	98.997601 
1726.000000	99.000431 
1725.000000	99.004002 
1724.000000	99.007240 
1723.000000	99.009029 
1722.000000	99.009871 
1721.000000	99.010028 
1720.000000	99.009478 
1719.000000	99.009661 
1718.000000	99.011002 
1717.000000	99.008663 
1716.000000	99.001645 
1715.000000	98.997626 
1714.000000	99.001161 
1713.000000	99.007388 
1712.000000	99.009124 
1711.000000	99.005887 
1710.000000	99.002108 
1709.000000	99.000155 
1708.000000	98.999103 
1707.000000	98.997865 
1706.000000	98.997847 
1705.000000	98.998295 
1704.000000	98.996827 
1703.000000	98.992657 
1702.000000	98.987842 
1701.000000	98.986757 
1700.000000	98.984956 
1699.000000	98.982744 
1698.000000	98.985943 
1697.000000	98.988734 
1696.000000	98.984591 
1695.000000	98.976276 
1694.000000	98.971525 
1693.000000	98.970693 
1692.000000	98.968999 
1691.000000	98.967460 
1690.000000	98.968643 
1689.000000	98.971348 
1688.000000	98.973362 
1687.000000	98.972641 
1686.000000	98.970909 
1685.000000	98.972014 
1684.000000	98.970760 
1683.000000	98.966843 
1682.000000	98.965277 
1681.000000	98.963398 
1680.000000	98.961415 
1679.000000	98.960761 
1678.000000	98.958500 
1677.000000	98.953007 
1676.000000	98.947666 
1675.000000	98.946203 
1674.000000	98.947895 
1673.000000	98.951766 
1672.000000	98.956025 
1671.000000	98.959407 
1670.000000	98.959244 
1669.000000	98.953495 
1668.000000	98.947826 
1667.000000	98.945656 
1666.000000	98.943345 
1665.000000	98.938364 
1664.000000	98.933076 
1663.000000	98.931995 
1662.000000	98.934065 
1661.000000	98.935773 
1660.000000	98.937444 
1659.000000	98.940165 
1658.000000	98.942891 
1657.000000	98.943045 
1656.000000	98.940195 
1655.000000	98.935106 
1654.000000	98.934327 
1653.000000	98.930814 
1652.000000	98.924366 
1651.000000	98.928148 
1650.000000	98.933765 
1649.000000	98.933298 
1648.000000	98.930111 
1647.000000	98.925548 
1646.000000	98.920901 
1645.000000	98.919884 
1644.000000	98.923109 
1643.000000	98.928003 
1642.000000	98.932169 
1641.000000	98.934651 
1640.000000	98.935716 
1639.000000	98.935082 
1638.000000	98.932943 
1637.000000	98.932236 
1636.000000	98.935906 
1635.000000	98.940448 
1634.000000	98.942936 
1633.000000	98.942482 
1632.000000	98.937897 
1631.000000	98.931709 
1630.000000	98.926665 
1629.000000	98.923596 
1628.000000	98.923159 
1627.000000	98.925919 
1626.000000	98.929370 
1625.000000	98.930282 
1624.000000	98.929304 
1623.000000	98.929790 
1622.000000	98.932853 
1621.000000	98.936671 
1620.000000	98.939404 
1619.000000	98.940131 
1618.000000	98.939964 
1617.000000	98.939332 
1616.000000	98.940019 
1615.000000	98.944901 
1614.000000	98.951365 
1613.000000	98.955500 
1612.000000	98.958855 
1611.000000	98.964081 
1610.000000	98.968431 
1609.000000	98.968326 
1608.000000	98.966112 
1607.000000	98.966344 
1606.000000	98.968076 
1605.000000	98.968716 
1604.000000	98.969633 
1603.000000	98.972489 
1602.000000	98.976102 
1601.000000	98.978886 
1600.000000	98.981834 
1599.000000	98.986102 
1598.000000	98.990348 
1597.000000	98.992861 
1596.000000	98.993759 
1595.000000	98.993918 
1594.000000	98.993136 
1593.000000	98.991653 
1592.000000	98.991624 
1591.000000	98.994499 
1590.000000	98.998318 
1589.000000	99.000510 
1588.000000	99.001844 
1587.000000	99.004528 
1586.000000	99.007840 
1585.000000	99.008810 
1584.000000	99.008216 
1583.000000	99.008390 
1582.000000	99.008774 
1581.000000	99.008154 
1580.000000	99.007353 
1579.000000	99.006236 
1578.000000	99.003052 
1577.000000	98.998767 
1576.000000	98.996607 
1575.000000	98.999509 
1574.000000	99.004956 
1573.000000	99.007488 
1572.000000	99.006000 
1571.000000	99.004458 
1570.000000	99.004811 
1569.000000	99.005393 
1568.000000	99.007564 
1567.000000	99.010362 
1566.000000	99.010164 
1565.000000	99.006758 
1564.000000	99.004888 
1563.000000	99.004713 
1562.000000	99.003112 
1561.000000	98.996890 
1560.000000	98.996922 
1559.000000	98.999194 
1558.000000	98.994517 
1557.000000	98.994950 
1556.000000	98.999663 
1555.000000	99.002294 
1554.000000	99.002686 
1553.000000	99.002174 
1552.000000	99.001790 
1551.000000	99.000396 
1550.000000	98.999590 
1549.000000	99.000990 
1548.000000	99.003818 
1547.000000	99.005026 
1546.000000	99.001996 
1545.000000	98.995717 
1544.000000	98.989997 
1543.000000	98.988514 
1542.000000	98.993119 
1541.000000	99.001964 
1540.000000	99.006170 
1539.000000	99.004182 
1538.000000	99.004641 
1537.000000	99.008245 
1536.000000	99.010380 
1535.000000	99.011434 
1534.000000	99.011049 
1533.000000	99.006762 
1532.000000	99.000249 
1531.000000	98.995805 
1530.000000	98.994475 
1529.000000	98.994093 
1528.000000	98.992907 
1527.000000	98.992749 
1526.000000	98.996237 
1525.000000	99.002640 
1524.000000	99.008612 
1523.000000	99.013144 
1522.000000	99.017796 
1521.000000	99.020080 
1520.000000	99.017528 
1519.000000	99.011020 
1518.000000	99.002312 
1517.000000	98.995259 
1516.000000	98.992462 
1515.000000	98.992878 
1514.000000	98.993584 
1513.000000	98.993564 
1512.000000	98.993149 
1511.000000	98.992058 
1510.000000	98.991271 
1509.000000	98.992257 
1508.000000	98.998281 
1507.000000	99.005757 
1506.000000	99.006847 
1505.000000	99.003887 
1504.000000	99.001983 
1503.000000	99.000599 
1502.000000	98.999853 
1501.000000	98.999745 
1500.000000	98.998122 
1499.000000	98.992965 
1498.000000	98.986620 
1497.000000	98.983192 
1496.000000	98.981829 
1495.000000	98.982422 
1494.000000	98.987021 
1493.000000	98.994964 
1492.000000	99.003477 
1491.000000	99.010104 
1490.000000	99.012498 
1489.000000	99.009152 
1488.000000	99.000907 
1487.000000	98.992761 
1486.000000	98.988870 
1485.000000	98.986749 
1484.000000	98.984038 
1483.000000	98.981368 
1482.000000	98.980881 
1481.000000	98.982118 
1480.000000	98.981661 
1479.000000	98.978286 
1478.000000	98.974452 
1477.000000	98.972738 
1476.000000	98.972741 
1475.000000	98.974591 
1474.000000	98.978964 
1473.000000	98.983658 
1472.000000	98.983981 
1471.000000	98.980567 
1470.000000	98.977783 
1469.000000	98.976103 
1468.000000	98.973961 
1467.000000	98.971892 
1466.000000	98.971677 
1465.000000	98.973197 
1464.000000	98.974635 
1463.000000	98.974569 
1462.000000	98.973454 
1461.000000	98.971257 
1460.000000	98.967644 
1459.000000	98.961883 
1458.000000	98.953981 
1457.000000	98.942592 
1456.000000	98.929719 
1455.000000	98.920929 
1454.000000	98.916796 
1453.000000	98.917369 
1452.000000	98.923002 
1451.000000	98.930544 
1450.000000	98.936251 
1449.000000	98.939042 
1448.000000	98.939008 
1447.000000	98.937427 
1446.000000	98.935496 
1445.000000	98.935206 
1444.000000	98.937642 
1443.000000	98.941079 
1442.000000	98.944101 
1441.000000	98.946566 
1440.000000	98.948370 
1439.000000	98.947981 
1438.000000	98.946605 
1437.000000	98.946450 
1436.000000	98.946226 
1435.000000	98.944052 
1434.000000	98.940812 
1433.000000	98.937639 
1432.000000	98.934898 
1431.000000	98.931632 
1430.000000	98.927575 
1429.000000	98.924625 
1428.000000	98.923017 
1427.000000	98.921225 
1426.000000	98.917358 
1425.000000	98.912939 
1424.000000	98.910301 
1423.000000	98.906992 
1422.000000	98.899353 
1421.000000	98.887210 
1420.000000	98.874009 
1419.000000	98.861539 
1418.000000	98.851152 
1417.000000	98.843949 
1416.000000	98.836427 
1415.000000	98.824607 
1414.000000	98.808710 
1413.000000	98.792627 
1412.000000	98.779820 
1411.000000	98.769772 
1410.000000	98.760622 
1409.000000	98.752512 
1408.000000	98.746472 
1407.000000	98.743760 
1406.000000	98.744412 
1405.000000	98.748344 
1404.000000	98.756252 
1403.000000	98.767882 
1402.000000	98.782437 
1401.000000	98.799033 
1400.000000	98.815657 
1399.000000	98.826995 
1398.000000	98.826725 
1397.000000	98.810814 
1396.000000	98.779807 
1395.000000	98.745134 
1394.000000	98.727621 
1393.000000	98.740261 
1392.000000	98.774724 
1391.000000	98.811068 
1390.000000	98.834690 
1389.000000	98.842570 
1388.000000	98.839281 
1387.000000	98.830813 
1386.000000	98.821811 
1385.000000	98.815185 
1384.000000	98.811678 
1383.000000	98.809745 
1382.000000	98.807850 
1381.000000	98.806213 
1380.000000	98.806893 
1379.000000	98.811808 
1378.000000	98.820733 
1377.000000	98.831768 
1376.000000	98.843087 
1375.000000	98.853597 
1374.000000	98.862601 
1373.000000	98.870870 
1372.000000	98.879714 
1371.000000	98.889321 
1370.000000	98.898438 
1369.000000	98.906197 
1368.000000	98.912636 
1367.000000	98.917541 
1366.000000	98.921168 
1365.000000	98.925279 
1364.000000	98.931886 
1363.000000	98.940257 
1362.000000	98.946805 
1361.000000	98.949265 
1360.000000	98.949206 
1359.000000	98.950041 
1358.000000	98.954085 
1357.000000	98.961338 
1356.000000	98.969655 
1355.000000	98.976330 
1354.000000	98.980541 
1353.000000	98.983696 
1352.000000	98.986538 
1351.000000	98.988370 
1350.000000	98.988143 
1349.000000	98.986913 
1348.000000	98.986967 
1347.000000	98.988636 
1346.000000	98.990590 
1345.000000	98.992409 
1344.000000	98.994623 
1343.000000	98.996465 
1342.000000	98.996365 
1341.000000	98.995016 
1340.000000	98.995544 
1339.000000	98.999276 
1338.000000	99.003783 
1337.000000	99.006598 
1336.000000	99.008014 
1335.000000	99.009141 
1334.000000	99.009705 
1333.000000	99.009016 
1332.000000	99.007481 
1331.000000	99.005871 
1330.000000	99.004102 
1329.000000	99.002188 
1328.000000	99.001239 
1327.000000	99.002273 
1326.000000	99.004380 
1325.000000	99.005767 
1324.000000	99.005725 
1323.000000	99.004613 
1322.000000	99.003144 
1321.000000	99.002408 
1320.000000	99.003726 
1319.000000	99.007306 
1318.000000	99.011382 
1317.000000	99.013296 
1316.000000	99.011484 
1315.000000	99.006544 
1314.000000	99.000989 
1313.000000	98.997643 
1312.000000	98.997283 
1311.000000	98.998083 
1310.000000	98.997962 
1309.000000	98.996998 
1308.000000	98.996475 
1307.000000	98.996469 
1306.000000	98.995594 
1305.000000	98.993464 
1304.000000	98.991598 
1303.000000	98.991310 
1302.000000	98.992098 
1301.000000	98.992539 
1300.000000	98.991927 
1299.000000	98.990654 
1298.000000	98.989922 
1297.000000	98.991054 
1296.000000	98.994185 
1295.000000	98.997394 
1294.000000	98.998183 
1293.000000	98.996033 
1292.000000	98.992556 
1291.000000	98.989271 
1290.000000	98.986406 
1289.000000	98.983799 
1288.000000	98.981467 
1287.000000	98.978840 
1286.000000	98.974841 
1285.000000	98.969448 
1284.000000	98.964009 
1283.000000	98.959324 
1282.000000	98.954533 
1281.000000	98.948643 
1280.000000	98.942319 
1279.000000	98.937020 
1278.000000	98.933104 
1277.000000	98.929819 
1276.000000	98.926621 
1275.000000	98.923294 
1274.000000	98.919033 
1273.000000	98.912724 
1272.000000	98.904447 
1271.000000	98.895954 
1270.000000	98.889087 
1269.000000	98.883949 
1268.000000	98.878850 
1267.000000	98.871830 
1266.000000	98.862279 
1265.000000	98.851254 
1264.000000	98.840309 
1263.000000	98.830187 
1262.000000	98.820807 
1261.000000	98.812280 
1260.000000	98.805449 
1259.000000	98.800908 
1258.000000	98.797825 
1257.000000	98.794347 
1256.000000	98.789333 
1255.000000	98.783420 
1254.000000	98.778118 
1253.000000	98.773962 
1252.000000	98.770146 
1251.000000	98.766254 
1250.000000	98.763714 
1249.000000	98.764632 
1248.000000	98.769205 
1247.000000	98.774799 
1246.000000	98.777400 
1245.000000	98.773370 
1244.000000	98.760952 
1243.000000	98.742750 
1242.000000	98.726943 
1241.000000	98.722568 
1240.000000	98.731056 
1239.000000	98.743684 
1238.000000	98.749602 
1237.000000	98.745676 
1236.000000	98.736781 
1235.000000	98.728233 
1234.000000	98.721060 
1233.000000	98.713996 
1232.000000	98.706271 
1231.000000	98.697310 
1230.000000	98.686530 
1229.000000	98.675143 
1228.000000	98.666347 
1227.000000	98.662100 
1226.000000	98.660745 
1225.000000	98.659053 
1224.000000	98.655640 
1223.000000	98.651250 
1222.000000	98.646722 
1221.000000	98.642114 
1220.000000	98.637322 
1219.000000	98.632263 
1218.000000	98.626532 
1217.000000	98.619677 
1216.000000	98.611644 
1215.000000	98.602360 
1214.000000	98.590999 
1213.000000	98.576274 
1212.000000	98.557727 
1211.000000	98.536908 
1210.000000	98.517273 
1209.000000	98.502196 
1208.000000	98.492157 
1207.000000	98.483892 
1206.000000	98.473168 
1205.000000	98.458595 
1204.000000	98.442089 
1203.000000	98.425880 
1202.000000	98.410343 
1201.000000	98.394936 
1200.000000	98.379805 
1199.000000	98.365461 
1198.000000	98.351640 
1197.000000	98.337240 
1196.000000	98.320913 
1195.000000	98.301596 
1194.000000	98.279485 
1193.000000	98.256912 
1192.000000	98.237051 
1191.000000	98.220747 
1190.000000	98.205371 
1189.000000	98.187646 
1188.000000	98.166995 
1187.000000	98.145481 
1186.000000	98.125367 
1185.000000	98.107512 
1184.000000	98.091214 
1183.000000	98.074595 
1182.000000	98.055855 
1181.000000	98.035190 
1180.000000	98.014709 
1179.000000	97.995482 
1178.000000	97.975679 
1177.000000	97.953004 
1176.000000	97.927970 
1175.000000	97.902918 
1174.000000	97.878239 
1173.000000	97.851657 
1172.000000	97.821587 
1171.000000	97.789599 
1170.000000	97.758952 
1169.000000	97.731607 
1168.000000	97.707070 
1167.000000	97.683622 
1166.000000	97.660906 
1165.000000	97.642097 
1164.000000	97.632917 
1163.000000	97.637069 
1162.000000	97.652572 
1161.000000	97.673347 
1160.000000	97.693646 
1159.000000	97.709487 
1158.000000	97.716903 
1157.000000	97.711694 
1156.000000	97.692228 
1155.000000	97.661937 
1154.000000	97.628364 
1153.000000	97.599256 
1152.000000	97.578242 
1151.000000	97.562710 
1150.000000	97.545932 
1149.000000	97.522749 
1148.000000	97.493748 
1147.000000	97.463681 
1146.000000	97.436393 
1145.000000	97.412031 
1144.000000	97.388372 
1143.000000	97.363313 
1142.000000	97.336308 
1141.000000	97.308844 
1140.000000	97.283532 
1139.000000	97.261522 
1138.000000	97.240781 
1137.000000	97.217910 
1136.000000	97.191333 
1135.000000	97.161670 
1134.000000	97.129543 
1133.000000	97.094629 
1132.000000	97.057005 
1131.000000	97.018300 
1130.000000	96.981281 
1129.000000	96.948562 
1128.000000	96.920692 
1127.000000	96.894434 
1126.000000	96.864344 
1125.000000	96.828048 
1124.000000	96.789135 
1123.000000	96.752905 
1122.000000	96.720227 
1121.000000	96.687800 
1120.000000	96.653476 
1119.000000	96.618242 
1118.000000	96.583275 
1117.000000	96.548198 
1116.000000	96.512768 
1115.000000	96.477727 
1114.000000	96.443433 
1113.000000	96.409757 
1112.000000	96.377348 
1111.000000	96.346456 
1110.000000	96.314529 
1109.000000	96.278305 
1108.000000	96.238967 
1107.000000	96.202320 
1106.000000	96.172346 
1105.000000	96.146697 
1104.000000	96.119887 
1103.000000	96.089111 
1102.000000	96.055942 
1101.000000	96.024159 
1100.000000	95.996783 
1099.000000	95.974199 
1098.000000	95.953969 
1097.000000	95.933163 
1096.000000	95.910658 
1095.000000	95.886039 
1094.000000	95.857331 
1093.000000	95.821869 
1092.000000	95.779118 
1091.000000	95.731066 
1090.000000	95.680642 
1089.000000	95.631479 
1088.000000	95.587720 
1087.000000	95.550885 
1086.000000	95.517502 
1085.000000	95.482864 
1084.000000	95.446627 
1083.000000	95.411675 
1082.000000	95.378379 
1081.000000	95.343874 
1080.000000	95.306918 
1079.000000	95.269722 
1078.000000	95.234764 
1077.000000	95.203287 
1076.000000	95.177035 
1075.000000	95.157693 
1074.000000	95.144043 
1073.000000	95.132553 
1072.000000	95.119747 
1071.000000	95.099839 
1070.000000	95.061719 
1069.000000	94.995941 
1068.000000	94.907978 
1067.000000	94.820132 
1066.000000	94.755752 
1065.000000	94.721883 
1064.000000	94.707616 
1063.000000	94.694927 
1062.000000	94.668859 
1061.000000	94.622324 
1060.000000	94.557664 
1059.000000	94.485185 
1058.000000	94.417633 
1057.000000	94.363200 
1056.000000	94.321687 
1055.000000	94.285729 
1054.000000	94.246295 
1053.000000	94.199226 
1052.000000	94.147108 
1051.000000	94.094524 
1050.000000	94.043012 
1049.000000	93.992045 
1048.000000	93.942053 
1047.000000	93.893468 
1046.000000	93.845177 
1045.000000	93.796783 
1044.000000	93.749956 
1043.000000	93.704902 
1042.000000	93.658592 
1041.000000	93.610016 
1040.000000	93.564329 
1039.000000	93.527646 
1038.000000	93.500215 
1037.000000	93.478928 
1036.000000	93.463594 
1035.000000	93.455561 
1034.000000	93.452606 
1033.000000	93.450281 
1032.000000	93.445769 
1031.000000	93.435975 
1030.000000	93.416641 
1029.000000	93.390702 
1028.000000	93.373656 
1027.000000	93.380740 
1026.000000	93.408650 
1025.000000	93.437940 
1024.000000	93.453589 
1023.000000	93.456113 
1022.000000	93.453478 
1021.000000	93.450841 
1020.000000	93.449860 
1019.000000	93.450490 
1018.000000	93.450223 
1017.000000	93.446444 
1016.000000	93.441290 
1015.000000	93.439885 
1014.000000	93.443084 
1013.000000	93.446518 
1012.000000	93.447029 
1011.000000	93.445258 
1010.000000	93.442199 
1009.000000	93.438802 
1008.000000	93.439217 
1007.000000	93.448559 
1006.000000	93.466255 
1005.000000	93.486435 
1004.000000	93.505588 
1003.000000	93.525241 
1002.000000	93.547040 
1001.000000	93.570200 
1000.000000	93.594065 
999.000000	 93.618231 
998.000000	 93.640198 
997.000000	 93.658206 
996.000000	 93.676513 
995.000000	 93.702204 
994.000000	 93.735883 
993.000000	 93.770689 
992.000000	 93.801267 
991.000000	 93.828521 
990.000000	 93.854771 
989.000000	 93.879901 
988.000000	 93.904351 
987.000000	 93.931430 
986.000000	 93.964388 
985.000000	 94.004134 
984.000000	 94.050536 
983.000000	 94.102488 
982.000000	 94.156302 
981.000000	 94.207899 
980.000000	 94.257450 
979.000000	 94.308923 
978.000000	 94.365148 
977.000000	 94.426285 
976.000000	 94.492037 
975.000000	 94.561203 
974.000000	 94.629796 
973.000000	 94.694244 
972.000000	 94.756381 
971.000000	 94.821107 
970.000000	 94.889223 
969.000000	 94.956709 
968.000000	 95.020958 
967.000000	 95.083376 
966.000000	 95.145588 
965.000000	 95.207094 
964.000000	 95.267191 
963.000000	 95.325770 
962.000000	 95.382077 
961.000000	 95.435837 
960.000000	 95.489049 
959.000000	 95.542968 
958.000000	 95.593917 
957.000000	 95.636491 
956.000000	 95.671062 
955.000000	 95.704038 
954.000000	 95.740226 
953.000000	 95.778723 
952.000000	 95.816646 
951.000000	 95.852576 
950.000000	 95.885183 
949.000000	 95.912329 
948.000000	 95.933437 
947.000000	 95.950276 
946.000000	 95.964356 
945.000000	 95.975795 
944.000000	 95.985438 
943.000000	 95.995808 
942.000000	 96.009300 
941.000000	 96.026949 
940.000000	 96.048366 
939.000000	 96.070567 
938.000000	 96.088140 
937.000000	 96.098203 
936.000000	 96.104856 
935.000000	 96.115266 
934.000000	 96.131545 
933.000000	 96.150021 
932.000000	 96.168112 
931.000000	 96.187286 
930.000000	 96.208302 
929.000000	 96.227657 
928.000000	 96.240700 
927.000000	 96.245943 
926.000000	 96.245546 
925.000000	 96.243958 
924.000000	 96.246393 
923.000000	 96.255695 
922.000000	 96.269552 
921.000000	 96.282657 
920.000000	 96.291606 
919.000000	 96.295733 
918.000000	 96.294656 
917.000000	 96.288901 
916.000000	 96.282539 
915.000000	 96.280779 
914.000000	 96.284087 
913.000000	 96.288454 
912.000000	 96.292472 
911.000000	 96.300515 
910.000000	 96.317780 
909.000000	 96.345424 
908.000000	 96.381498 
907.000000	 96.423066 
906.000000	 96.466140 
905.000000	 96.507037 
904.000000	 96.545706 
903.000000	 96.585692 
902.000000	 96.629897 
901.000000	 96.678162 
900.000000	 96.728754 
899.000000	 96.779317 
898.000000	 96.826029 
897.000000	 96.865055 
896.000000	 96.895954 
895.000000	 96.921905 
894.000000	 96.946387 
893.000000	 96.971506 
892.000000	 96.999253 
891.000000	 97.031693 
890.000000	 97.069271 
889.000000	 97.110481 
888.000000	 97.152657 
887.000000	 97.191477 
886.000000	 97.221646 
885.000000	 97.241627 
884.000000	 97.256799 
883.000000	 97.274329 
882.000000	 97.295342 
881.000000	 97.315880 
880.000000	 97.335026 
879.000000	 97.357133 
878.000000	 97.385014 
877.000000	 97.415409 
876.000000	 97.442886 
875.000000	 97.464817 
874.000000	 97.481570 
873.000000	 97.495465 
872.000000	 97.510599 
871.000000	 97.530115 
870.000000	 97.552593 
869.000000	 97.574628 
868.000000	 97.597428 
867.000000	 97.626169 
866.000000	 97.661288 
865.000000	 97.695491 
864.000000	 97.722652 
863.000000	 97.745529 
862.000000	 97.770314 
861.000000	 97.796357 
860.000000	 97.816648 
859.000000	 97.827641 
858.000000	 97.833665 
857.000000	 97.841010 
856.000000	 97.852167 
855.000000	 97.867475 
854.000000	 97.887941 
853.000000	 97.912428 
852.000000	 97.934294 
851.000000	 97.945658 
850.000000	 97.946098 
849.000000	 97.944141 
848.000000	 97.948511 
847.000000	 97.959616 
846.000000	 97.970715 
845.000000	 97.975626 
844.000000	 97.973429 
843.000000	 97.967270 
842.000000	 97.961298 
841.000000	 97.957973 
840.000000	 97.955403 
839.000000	 97.947319 
838.000000	 97.928772 
837.000000	 97.902758 
836.000000	 97.878507 
835.000000	 97.861985 
834.000000	 97.850780 
833.000000	 97.840319 
832.000000	 97.832044 
831.000000	 97.831191 
830.000000	 97.837461 
829.000000	 97.842767 
828.000000	 97.840168 
827.000000	 97.832151 
826.000000	 97.827427 
825.000000	 97.830601 
824.000000	 97.837709 
823.000000	 97.842207 
822.000000	 97.842917 
821.000000	 97.844041 
820.000000	 97.848524 
819.000000	 97.854456 
818.000000	 97.858591 
817.000000	 97.860571 
816.000000	 97.861072 
815.000000	 97.857123 
814.000000	 97.842924 
813.000000	 97.815686 
812.000000	 97.777401 
811.000000	 97.729559 
810.000000	 97.668890 
809.000000	 97.590414 
808.000000	 97.493127 
807.000000	 97.381203 
806.000000	 97.260903 
805.000000	 97.137846 
804.000000	 97.016682 
803.000000	 96.902113 
802.000000	 96.800340 
801.000000	 96.719061 
800.000000	 96.663705 
799.000000	 96.632906 
798.000000	 96.620794 
797.000000	 96.625061 
796.000000	 96.648128 
795.000000	 96.687693 
794.000000	 96.732004 
793.000000	 96.769980 
792.000000	 96.801802 
791.000000	 96.833730 
790.000000	 96.865765 
789.000000	 96.890243 
788.000000	 96.899981 
787.000000	 96.891943 
786.000000	 96.865029 
785.000000	 96.820645 
784.000000	 96.765587 
783.000000	 96.709899 
782.000000	 96.661438 
781.000000	 96.624718 
780.000000	 96.602423 
779.000000	 96.593671 
778.000000	 96.593341 
777.000000	 96.598823 
776.000000	 96.615639 
775.000000	 96.650685 
774.000000	 96.701373 
773.000000	 96.757187 
772.000000	 96.810510 
771.000000	 96.859942 
770.000000	 96.904407 
769.000000	 96.940549 
768.000000	 96.966185 
767.000000	 96.981821 
766.000000	 96.989555 
765.000000	 96.994524 
764.000000	 97.004729 
763.000000	 97.022815 
762.000000	 97.039237 
761.000000	 97.041105 
760.000000	 97.028765 
759.000000	 97.017520 
758.000000	 97.021480 
757.000000	 97.040250 
756.000000	 97.061692 
755.000000	 97.072527 
754.000000	 97.066730 
753.000000	 97.050372 
752.000000	 97.040064 
751.000000	 97.050979 
750.000000	 97.082758 
749.000000	 97.119616 
748.000000	 97.145631 
747.000000	 97.157609 
746.000000	 97.163762 
745.000000	 97.174015 
744.000000	 97.192534 
743.000000	 97.216554 
742.000000	 97.241351 
741.000000	 97.267403 
740.000000	 97.300788 
739.000000	 97.343926 
738.000000	 97.388496 
737.000000	 97.421346 
736.000000	 97.435379 
735.000000	 97.431959 
734.000000	 97.417256 
733.000000	 97.401766 
732.000000	 97.399143 
731.000000	 97.416376 
730.000000	 97.444956 
729.000000	 97.468864 
728.000000	 97.481847 
727.000000	 97.490424 
726.000000	 97.500404 
725.000000	 97.508563 
724.000000	 97.509189 
723.000000	 97.502238 
722.000000	 97.492931 
721.000000	 97.488132 
720.000000	 97.494002 
719.000000	 97.511821 
718.000000	 97.534973 
717.000000	 97.553993 
716.000000	 97.563668 
715.000000	 97.562292 
714.000000	 97.548781 
713.000000	 97.527943 
712.000000	 97.515037 
711.000000	 97.523960 
710.000000	 97.549868 
709.000000	 97.572656 
708.000000	 97.579009 
707.000000	 97.571918 
706.000000	 97.556824 
705.000000	 97.530558 
704.000000	 97.490798 
703.000000	 97.447035 
702.000000	 97.412786 
701.000000	 97.389779 
700.000000	 97.365377 
699.000000	 97.324637 
698.000000	 97.263390 
697.000000	 97.193055 
696.000000	 97.133863 
695.000000	 97.099710 
694.000000	 97.089688 
693.000000	 97.096496 
692.000000	 97.118169 
691.000000	 97.154875 
690.000000	 97.199009 
689.000000	 97.240354 
688.000000	 97.278869 
687.000000	 97.318563 
686.000000	 97.349832 
685.000000	 97.354928 
684.000000	 97.334172 
683.000000	 97.311610 
682.000000	 97.309244 
681.000000	 97.326766 
680.000000	 97.349436 
679.000000	 97.364619 
678.000000	 97.366385 
677.000000	 97.357012 
676.000000	 97.352108 
675.000000	 97.368778 
674.000000	 97.402500 
673.000000	 97.427422 
672.000000	 97.427070 
671.000000	 97.413551 
670.000000	 97.412636 
669.000000	 97.438458 
668.000000	 97.471555 
667.000000	 97.485022 
666.000000	 97.480250 
665.000000	 97.462618 
664.000000	 97.444435 
663.000000	 97.450630 
662.000000	 97.489320 
661.000000	 97.531079 
660.000000	 97.539365 
659.000000	 97.510892 
658.000000	 97.469188 
657.000000	 97.430740 
656.000000	 97.398212 
655.000000	 97.375872 
654.000000	 97.368124 
653.000000	 97.367669 
652.000000	 97.364398 
651.000000	 97.361202 
650.000000	 97.366828 

