4000.000000	99.236715 
3999.000000	99.235526 
3998.000000	99.233783 
3997.000000	99.233396 
3996.000000	99.234394 
3995.000000	99.235482 
3994.000000	99.235988 
3993.000000	99.236516 
3992.000000	99.237719 
3991.000000	99.239116 
3990.000000	99.239412 
3989.000000	99.237598 
3988.000000	99.233613 
3987.000000	99.228474 
3986.000000	99.224042 
3985.000000	99.222174 
3984.000000	99.223528 
3983.000000	99.227298 
3982.000000	99.232298 
3981.000000	99.238027 
3980.000000	99.244410 
3979.000000	99.250806 
3978.000000	99.255834 
3977.000000	99.258195 
3976.000000	99.257237 
3975.000000	99.252906 
3974.000000	99.245780 
3973.000000	99.237506 
3972.000000	99.230665 
3971.000000	99.227598 
3970.000000	99.229182 
3969.000000	99.234236 
3968.000000	99.240144 
3967.000000	99.244323 
3966.000000	99.245678 
3965.000000	99.244920 
3964.000000	99.243654 
3963.000000	99.243299 
3962.000000	99.244380 
3961.000000	99.246191 
3960.000000	99.246898 
3959.000000	99.244856 
3958.000000	99.240835 
3957.000000	99.237842 
3956.000000	99.238131 
3955.000000	99.240569 
3954.000000	99.242044 
3953.000000	99.240989 
3952.000000	99.238571 
3951.000000	99.236909 
3950.000000	99.236601 
3949.000000	99.236408 
3948.000000	99.235141 
3947.000000	99.233470 
3946.000000	99.233071 
3945.000000	99.234389 
3944.000000	99.236015 
3943.000000	99.236404 
3942.000000	99.235728 
3941.000000	99.235544 
3940.000000	99.236372 
3939.000000	99.236846 
3938.000000	99.236008 
3937.000000	99.234295 
3936.000000	99.232344 
3935.000000	99.229786 
3934.000000	99.226615 
3933.000000	99.224776 
3932.000000	99.226257 
3931.000000	99.230280 
3930.000000	99.233608 
3929.000000	99.233878 
3928.000000	99.231631 
3927.000000	99.228454 
3926.000000	99.225179 
3925.000000	99.222669 
3924.000000	99.222568 
3923.000000	99.224965 
3922.000000	99.226739 
3921.000000	99.225406 
3920.000000	99.223016 
3919.000000	99.223099 
3918.000000	99.225355 
3917.000000	99.226547 
3916.000000	99.225859 
3915.000000	99.225554 
3914.000000	99.226607 
3913.000000	99.227371 
3912.000000	99.226755 
3911.000000	99.224908 
3910.000000	99.222925 
3909.000000	99.221601 
3908.000000	99.221952 
3907.000000	99.224325 
3906.000000	99.227553 
3905.000000	99.229337 
3904.000000	99.228675 
3903.000000	99.227593 
3902.000000	99.228049 
3901.000000	99.228133 
3900.000000	99.225008 
3899.000000	99.219973 
3898.000000	99.216522 
3897.000000	99.214850 
3896.000000	99.212049 
3895.000000	99.207841 
3894.000000	99.207049 
3893.000000	99.212939 
3892.000000	99.221714 
3891.000000	99.226683 
3890.000000	99.229644 
3889.000000	99.234701 
3888.000000	99.238440 
3887.000000	99.235266 
3886.000000	99.225670 
3885.000000	99.216662 
3884.000000	99.216057 
3883.000000	99.221532 
3882.000000	99.224229 
3881.000000	99.221197 
3880.000000	99.216405 
3879.000000	99.215608 
3878.000000	99.220807 
3877.000000	99.226898 
3876.000000	99.228393 
3875.000000	99.224628 
3874.000000	99.219787 
3873.000000	99.219456 
3872.000000	99.221812 
3871.000000	99.217683 
3870.000000	99.204517 
3869.000000	99.195006 
3868.000000	99.202281 
3867.000000	99.218204 
3866.000000	99.225762 
3865.000000	99.222930 
3864.000000	99.218980 
3863.000000	99.217917 
3862.000000	99.216476 
3861.000000	99.211870 
3860.000000	99.206215 
3859.000000	99.200138 
3858.000000	99.192297 
3857.000000	99.183480 
3856.000000	99.180113 
3855.000000	99.188474 
3854.000000	99.199946 
3853.000000	99.198125 
3852.000000	99.194965 
3851.000000	99.207162 
3850.000000	99.222775 
3849.000000	99.230601 
3848.000000	99.233605 
3847.000000	99.235689 
3846.000000	99.235835 
3845.000000	99.232547 
3844.000000	99.227393 
3843.000000	99.223352 
3842.000000	99.222340 
3841.000000	99.222342 
3840.000000	99.220682 
3839.000000	99.217446 
3838.000000	99.215084 
3837.000000	99.214897 
3836.000000	99.216952 
3835.000000	99.219747 
3834.000000	99.221109 
3833.000000	99.220218 
3832.000000	99.218600 
3831.000000	99.219023 
3830.000000	99.222989 
3829.000000	99.228217 
3828.000000	99.229949 
3827.000000	99.225251 
3826.000000	99.217757 
3825.000000	99.214768 
3824.000000	99.218842 
3823.000000	99.225089 
3822.000000	99.226351 
3821.000000	99.218609 
3820.000000	99.211567 
3819.000000	99.215783 
3818.000000	99.222077 
3817.000000	99.219276 
3816.000000	99.210521 
3815.000000	99.207892 
3814.000000	99.216853 
3813.000000	99.226608 
3812.000000	99.225865 
3811.000000	99.218912 
3810.000000	99.216184 
3809.000000	99.220168 
3808.000000	99.223719 
3807.000000	99.220711 
3806.000000	99.216644 
3805.000000	99.219944 
3804.000000	99.225621 
3803.000000	99.223225 
3802.000000	99.211444 
3801.000000	99.197570 
3800.000000	99.194226 
3799.000000	99.201857 
3798.000000	99.206367 
3797.000000	99.202651 
3796.000000	99.198301 
3795.000000	99.201134 
3794.000000	99.210214 
3793.000000	99.219238 
3792.000000	99.224842 
3791.000000	99.227925 
3790.000000	99.228847 
3789.000000	99.227453 
3788.000000	99.225790 
3787.000000	99.227187 
3786.000000	99.231998 
3785.000000	99.237552 
3784.000000	99.242515 
3783.000000	99.247712 
3782.000000	99.252152 
3781.000000	99.252488 
3780.000000	99.247264 
3779.000000	99.239025 
3778.000000	99.232791 
3777.000000	99.230169 
3776.000000	99.228241 
3775.000000	99.225530 
3774.000000	99.225426 
3773.000000	99.230368 
3772.000000	99.236571 
3771.000000	99.237222 
3770.000000	99.230969 
3769.000000	99.224068 
3768.000000	99.222425 
3767.000000	99.223702 
3766.000000	99.222766 
3765.000000	99.220421 
3764.000000	99.222020 
3763.000000	99.228576 
3762.000000	99.234234 
3761.000000	99.235346 
3760.000000	99.235738 
3759.000000	99.238302 
3758.000000	99.240165 
3757.000000	99.237888 
3756.000000	99.232567 
3755.000000	99.226191 
3754.000000	99.219115 
3753.000000	99.213308 
3752.000000	99.211793 
3751.000000	99.210659 
3750.000000	99.202415 
3749.000000	99.191813 
3748.000000	99.190006 
3747.000000	99.196000 
3746.000000	99.200417 
3745.000000	99.197376 
3744.000000	99.188992 
3743.000000	99.191250 
3742.000000	99.207491 
3741.000000	99.216559 
3740.000000	99.211065 
3739.000000	99.203532 
3738.000000	99.203994 
3737.000000	99.210173 
3736.000000	99.216779 
3735.000000	99.223893 
3734.000000	99.230777 
3733.000000	99.231302 
3732.000000	99.223941 
3731.000000	99.217573 
3730.000000	99.219075 
3729.000000	99.223994 
3728.000000	99.225108 
3727.000000	99.223649 
3726.000000	99.226220 
3725.000000	99.234411 
3724.000000	99.241060 
3723.000000	99.239960 
3722.000000	99.233509 
3721.000000	99.228409 
3720.000000	99.228108 
3719.000000	99.229683 
3718.000000	99.228484 
3717.000000	99.223332 
3716.000000	99.216492 
3715.000000	99.209133 
3714.000000	99.200654 
3713.000000	99.191428 
3712.000000	99.182408 
3711.000000	99.174663 
3710.000000	99.171321 
3709.000000	99.173580 
3708.000000	99.177807 
3707.000000	99.179498 
3706.000000	99.177033 
3705.000000	99.171172 
3704.000000	99.163516 
3703.000000	99.156157 
3702.000000	99.150643 
3701.000000	99.147614 
3700.000000	99.147472 
3699.000000	99.147804 
3698.000000	99.143329 
3697.000000	99.132274 
3696.000000	99.118971 
3695.000000	99.108221 
3694.000000	99.099846 
3693.000000	99.091724 
3692.000000	99.084921 
3691.000000	99.081391 
3690.000000	99.078685 
3689.000000	99.071721 
3688.000000	99.063241 
3687.000000	99.062728 
3686.000000	99.071198 
3685.000000	99.079495 
3684.000000	99.082174 
3683.000000	99.082032 
3682.000000	99.082155 
3681.000000	99.079827 
3680.000000	99.070779 
3679.000000	99.056957 
3678.000000	99.042462 
3677.000000	99.028275 
3676.000000	99.013411 
3675.000000	99.002799 
3674.000000	99.009640 
3673.000000	99.031142 
3672.000000	99.046536 
3671.000000	99.048771 
3670.000000	99.046058 
3669.000000	99.045729 
3668.000000	99.049508 
3667.000000	99.051840 
3666.000000	99.048577 
3665.000000	99.043466 
3664.000000	99.042134 
3663.000000	99.045406 
3662.000000	99.049705 
3661.000000	99.051890 
3660.000000	99.052627 
3659.000000	99.055123 
3658.000000	99.060409 
3657.000000	99.065892 
3656.000000	99.068711 
3655.000000	99.072624 
3654.000000	99.081352 
3653.000000	99.090803 
3652.000000	99.096844 
3651.000000	99.101110 
3650.000000	99.103273 
3649.000000	99.098486 
3648.000000	99.088465 
3647.000000	99.082341 
3646.000000	99.085327 
3645.000000	99.094504 
3644.000000	99.104499 
3643.000000	99.112711 
3642.000000	99.120129 
3641.000000	99.128196 
3640.000000	99.137037 
3639.000000	99.146402 
3638.000000	99.157365 
3637.000000	99.170708 
3636.000000	99.182653 
3635.000000	99.186574 
3634.000000	99.180621 
3633.000000	99.171052 
3632.000000	99.164870 
3631.000000	99.163777 
3630.000000	99.165713 
3629.000000	99.165209 
3628.000000	99.161426 
3627.000000	99.163118 
3626.000000	99.169758 
3625.000000	99.173666 
3624.000000	99.175005 
3623.000000	99.177375 
3622.000000	99.180279 
3621.000000	99.180677 
3620.000000	99.178231 
3619.000000	99.175607 
3618.000000	99.176135 
3617.000000	99.180741 
3616.000000	99.185472 
3615.000000	99.185473 
3614.000000	99.180060 
3613.000000	99.172676 
3612.000000	99.167372 
3611.000000	99.165595 
3610.000000	99.166568 
3609.000000	99.170071 
3608.000000	99.176034 
3607.000000	99.182915 
3606.000000	99.188392 
3605.000000	99.191041 
3604.000000	99.191437 
3603.000000	99.191093 
3602.000000	99.190691 
3601.000000	99.191327 
3600.000000	99.195475 
3599.000000	99.203757 
3598.000000	99.211835 
3597.000000	99.214861 
3596.000000	99.212010 
3595.000000	99.206576 
3594.000000	99.202293 
3593.000000	99.201593 
3592.000000	99.204995 
3591.000000	99.211478 
3590.000000	99.218771 
3589.000000	99.223791 
3588.000000	99.223266 
3587.000000	99.216940 
3586.000000	99.209577 
3585.000000	99.205269 
3584.000000	99.203407 
3583.000000	99.202238 
3582.000000	99.201172 
3581.000000	99.200153 
3580.000000	99.199126 
3579.000000	99.198541 
3578.000000	99.198792 
3577.000000	99.200065 
3576.000000	99.202368 
3575.000000	99.205444 
3574.000000	99.208628 
3573.000000	99.210954 
3572.000000	99.211907 
3571.000000	99.211619 
3570.000000	99.210326 
3569.000000	99.207806 
3568.000000	99.204010 
3567.000000	99.200121 
3566.000000	99.198904 
3565.000000	99.201818 
3564.000000	99.206085 
3563.000000	99.208099 
3562.000000	99.207529 
3561.000000	99.206522 
3560.000000	99.206692 
3559.000000	99.207668 
3558.000000	99.208048 
3557.000000	99.207141 
3556.000000	99.205881 
3555.000000	99.205458 
3554.000000	99.205674 
3553.000000	99.205162 
3552.000000	99.203374 
3551.000000	99.201190 
3550.000000	99.199199 
3549.000000	99.196990 
3548.000000	99.195221 
3547.000000	99.196332 
3546.000000	99.201778 
3545.000000	99.209667 
3544.000000	99.216100 
3543.000000	99.218161 
3542.000000	99.215717 
3541.000000	99.211103 
3540.000000	99.207727 
3539.000000	99.207848 
3538.000000	99.211072 
3537.000000	99.214824 
3536.000000	99.216394 
3535.000000	99.214651 
3534.000000	99.209921 
3533.000000	99.203684 
3532.000000	99.198324 
3531.000000	99.196325 
3530.000000	99.198247 
3529.000000	99.202320 
3528.000000	99.206486 
3527.000000	99.210262 
3526.000000	99.213677 
3525.000000	99.215645 
3524.000000	99.214967 
3523.000000	99.212336 
3522.000000	99.209913 
3521.000000	99.208737 
3520.000000	99.207730 
3519.000000	99.205555 
3518.000000	99.202595 
3517.000000	99.200537 
3516.000000	99.200431 
3515.000000	99.202192 
3514.000000	99.205599 
3513.000000	99.210658 
3512.000000	99.216404 
3511.000000	99.220537 
3510.000000	99.221021 
3509.000000	99.218258 
3508.000000	99.214979 
3507.000000	99.213581 
3506.000000	99.213671 
3505.000000	99.212670 
3504.000000	99.208571 
3503.000000	99.202419 
3502.000000	99.198177 
3501.000000	99.199633 
3500.000000	99.206791 
3499.000000	99.215061 
3498.000000	99.218371 
3497.000000	99.214236 
3496.000000	99.206443 
3495.000000	99.201783 
3494.000000	99.203557 
3493.000000	99.208568 
3492.000000	99.210729 
3491.000000	99.207150 
3490.000000	99.200502 
3489.000000	99.196013 
3488.000000	99.196857 
3487.000000	99.202230 
3486.000000	99.208793 
3485.000000	99.213487 
3484.000000	99.215368 
3483.000000	99.215472 
3482.000000	99.215018 
3481.000000	99.214027 
3480.000000	99.211988 
3479.000000	99.209558 
3478.000000	99.208413 
3477.000000	99.208936 
3476.000000	99.209001 
3475.000000	99.206164 
3474.000000	99.201059 
3473.000000	99.197321 
3472.000000	99.197760 
3471.000000	99.201485 
3470.000000	99.205297 
3469.000000	99.206963 
3468.000000	99.206407 
3467.000000	99.204367 
3466.000000	99.201042 
3465.000000	99.196268 
3464.000000	99.190425 
3463.000000	99.184683 
3462.000000	99.180245 
3461.000000	99.177554 
3460.000000	99.176359 
3459.000000	99.176533 
3458.000000	99.178470 
3457.000000	99.182354 
3456.000000	99.187285 
3455.000000	99.191808 
3454.000000	99.195086 
3453.000000	99.197238 
3452.000000	99.198649 
3451.000000	99.199673 
3450.000000	99.200850 
3449.000000	99.202736 
3448.000000	99.204955 
3447.000000	99.205967 
3446.000000	99.204640 
3445.000000	99.201924 
3444.000000	99.200152 
3443.000000	99.200646 
3442.000000	99.202395 
3441.000000	99.203461 
3440.000000	99.203411 
3439.000000	99.203526 
3438.000000	99.204626 
3437.000000	99.205518 
3436.000000	99.204348 
3435.000000	99.201253 
3434.000000	99.198675 
3433.000000	99.198997 
3432.000000	99.202239 
3431.000000	99.206194 
3430.000000	99.208199 
3429.000000	99.206810 
3428.000000	99.202407 
3427.000000	99.196711 
3426.000000	99.191773 
3425.000000	99.189132 
3424.000000	99.189493 
3423.000000	99.192631 
3422.000000	99.197229 
3421.000000	99.201112 
3420.000000	99.202438 
3419.000000	99.201209 
3418.000000	99.199332 
3417.000000	99.198711 
3416.000000	99.199246 
3415.000000	99.199076 
3414.000000	99.196885 
3413.000000	99.193638 
3412.000000	99.191634 
3411.000000	99.192134 
3410.000000	99.194446 
3409.000000	99.197071 
3408.000000	99.198910 
3407.000000	99.199190 
3406.000000	99.197283 
3405.000000	99.193536 
3404.000000	99.189935 
3403.000000	99.189059 
3402.000000	99.192033 
3401.000000	99.197628 
3400.000000	99.203273 
3399.000000	99.206905 
3398.000000	99.208136 
3397.000000	99.207952 
3396.000000	99.207327 
3395.000000	99.206337 
3394.000000	99.204796 
3393.000000	99.203324 
3392.000000	99.203002 
3391.000000	99.203913 
3390.000000	99.204797 
3389.000000	99.204568 
3388.000000	99.203661 
3387.000000	99.203450 
3386.000000	99.204636 
3385.000000	99.206539 
3384.000000	99.207718 
3383.000000	99.207096 
3382.000000	99.204778 
3381.000000	99.201953 
3380.000000	99.199662 
3379.000000	99.197716 
3378.000000	99.195450 
3377.000000	99.193638 
3376.000000	99.194661 
3375.000000	99.200023 
3374.000000	99.208166 
3373.000000	99.215340 
3372.000000	99.218500 
3371.000000	99.217176 
3370.000000	99.213222 
3369.000000	99.209385 
3368.000000	99.207681 
3367.000000	99.208103 
3366.000000	99.208633 
3365.000000	99.207026 
3364.000000	99.202903 
3363.000000	99.198042 
3362.000000	99.194733 
3361.000000	99.193997 
3360.000000	99.195127 
3359.000000	99.196620 
3358.000000	99.197713 
3357.000000	99.199186 
3356.000000	99.202362 
3355.000000	99.207022 
3354.000000	99.210902 
3353.000000	99.211985 
3352.000000	99.211004 
3351.000000	99.210901 
3350.000000	99.213801 
3349.000000	99.219053 
3348.000000	99.224169 
3347.000000	99.226947 
3346.000000	99.226620 
3345.000000	99.223856 
3344.000000	99.220172 
3343.000000	99.216901 
3342.000000	99.214280 
3341.000000	99.211774 
3340.000000	99.209313 
3339.000000	99.207637 
3338.000000	99.207022 
3337.000000	99.206233 
3336.000000	99.203575 
3335.000000	99.199104 
3334.000000	99.195263 
3333.000000	99.194954 
3332.000000	99.198852 
3331.000000	99.204534 
3330.000000	99.208395 
3329.000000	99.208785 
3328.000000	99.207368 
3327.000000	99.207180 
3326.000000	99.209446 
3325.000000	99.212818 
3324.000000	99.215585 
3323.000000	99.217670 
3322.000000	99.219814 
3321.000000	99.221614 
3320.000000	99.221540 
3319.000000	99.219072 
3318.000000	99.215944 
3317.000000	99.214727 
3316.000000	99.216417 
3315.000000	99.219608 
3314.000000	99.221788 
3313.000000	99.221297 
3312.000000	99.218398 
3311.000000	99.214898 
3310.000000	99.212721 
3309.000000	99.212566 
3308.000000	99.213760 
3307.000000	99.215186 
3306.000000	99.216057 
3305.000000	99.215801 
3304.000000	99.213805 
3303.000000	99.209927 
3302.000000	99.205286 
3301.000000	99.201997 
3300.000000	99.201734 
3299.000000	99.204614 
3298.000000	99.209390 
3297.000000	99.214465 
3296.000000	99.218629 
3295.000000	99.221285 
3294.000000	99.222514 
3293.000000	99.222953 
3292.000000	99.223283 
3291.000000	99.223726 
3290.000000	99.224136 
3289.000000	99.224465 
3288.000000	99.224916 
3287.000000	99.225669 
3286.000000	99.226632 
3285.000000	99.227454 
3284.000000	99.227625 
3283.000000	99.226664 
3282.000000	99.224571 
3281.000000	99.222005 
3280.000000	99.219643 
3279.000000	99.217463 
3278.000000	99.215124 
3277.000000	99.213002 
3276.000000	99.212163 
3275.000000	99.212964 
3274.000000	99.214118 
3273.000000	99.213605 
3272.000000	99.210325 
3271.000000	99.204723 
3270.000000	99.198267 
3269.000000	99.192850 
3268.000000	99.190386 
3267.000000	99.192108 
3266.000000	99.197687 
3265.000000	99.205136 
3264.000000	99.211939 
3263.000000	99.216705 
3262.000000	99.220079 
3261.000000	99.223825 
3260.000000	99.228609 
3259.000000	99.232803 
3258.000000	99.233939 
3257.000000	99.231303 
3256.000000	99.226633 
3255.000000	99.222319 
3254.000000	99.219608 
3253.000000	99.218715 
3252.000000	99.219568 
3251.000000	99.221533 
3250.000000	99.222943 
3249.000000	99.222071 
3248.000000	99.218763 
3247.000000	99.214559 
3246.000000	99.211080 
3245.000000	99.208733 
3244.000000	99.207157 
3243.000000	99.206556 
3242.000000	99.208131 
3241.000000	99.212768 
3240.000000	99.219068 
3239.000000	99.223192 
3238.000000	99.221801 
3237.000000	99.215582 
3236.000000	99.209125 
3235.000000	99.206618 
3234.000000	99.208249 
3233.000000	99.211529 
3232.000000	99.215209 
3231.000000	99.220314 
3230.000000	99.227419 
3229.000000	99.234540 
3228.000000	99.238476 
3227.000000	99.237458 
3226.000000	99.232044 
3225.000000	99.224422 
3224.000000	99.217601 
3223.000000	99.214434 
3222.000000	99.216120 
3221.000000	99.221383 
3220.000000	99.227381 
3219.000000	99.231431 
3218.000000	99.231975 
3217.000000	99.228795 
3216.000000	99.223260 
3215.000000	99.218017 
3214.000000	99.215256 
3213.000000	99.214939 
3212.000000	99.215389 
3211.000000	99.215725 
3210.000000	99.216888 
3209.000000	99.219879 
3208.000000	99.223725 
3207.000000	99.226047 
3206.000000	99.225629 
3205.000000	99.223887 
3204.000000	99.223534 
3203.000000	99.225938 
3202.000000	99.230022 
3201.000000	99.233691 
3200.000000	99.235998 
3199.000000	99.237533 
3198.000000	99.238993 
3197.000000	99.240207 
3196.000000	99.240995 
3195.000000	99.242068 
3194.000000	99.243942 
3193.000000	99.245306 
3192.000000	99.243885 
3191.000000	99.239440 
3190.000000	99.234898 
3189.000000	99.233647 
3188.000000	99.236085 
3187.000000	99.239446 
3186.000000	99.240622 
3185.000000	99.238485 
3184.000000	99.233972 
3183.000000	99.229021 
3182.000000	99.225482 
3181.000000	99.224117 
3180.000000	99.224108 
3179.000000	99.223822 
3178.000000	99.222241 
3177.000000	99.219486 
3176.000000	99.216205 
3175.000000	99.213245 
3174.000000	99.212068 
3173.000000	99.214429 
3172.000000	99.220540 
3171.000000	99.227755 
3170.000000	99.232191 
3169.000000	99.232292 
3168.000000	99.230565 
3167.000000	99.231347 
3166.000000	99.236788 
3165.000000	99.244984 
3164.000000	99.251816 
3163.000000	99.254343 
3162.000000	99.252644 
3161.000000	99.249157 
3160.000000	99.246798 
3159.000000	99.247283 
3158.000000	99.250198 
3157.000000	99.253192 
3156.000000	99.253553 
3155.000000	99.250346 
3154.000000	99.245234 
3153.000000	99.241096 
3152.000000	99.239680 
3151.000000	99.240392 
3150.000000	99.241073 
3149.000000	99.239952 
3148.000000	99.237193 
3147.000000	99.234744 
3146.000000	99.234381 
3145.000000	99.235785 
3144.000000	99.236976 
3143.000000	99.236926 
3142.000000	99.237115 
3141.000000	99.239742 
3140.000000	99.244613 
3139.000000	99.248806 
3138.000000	99.249812 
3137.000000	99.248268 
3136.000000	99.246984 
3135.000000	99.247784 
3134.000000	99.250055 
3133.000000	99.252159 
3132.000000	99.253275 
3131.000000	99.253403 
3130.000000	99.252222 
3129.000000	99.249060 
3128.000000	99.244382 
3127.000000	99.240543 
3126.000000	99.240018 
3125.000000	99.242782 
3124.000000	99.246177 
3123.000000	99.247603 
3122.000000	99.246806 
3121.000000	99.245439 
3120.000000	99.245094 
3119.000000	99.246159 
3118.000000	99.247833 
3117.000000	99.248499 
3116.000000	99.246717 
3115.000000	99.242835 
3114.000000	99.239215 
3113.000000	99.237816 
3112.000000	99.237866 
3111.000000	99.237176 
3110.000000	99.235526 
3109.000000	99.235031 
3108.000000	99.236696 
3107.000000	99.238282 
3106.000000	99.236883 
3105.000000	99.232815 
3104.000000	99.229720 
3103.000000	99.231088 
3102.000000	99.237567 
3101.000000	99.247157 
3100.000000	99.256625 
3099.000000	99.262660 
3098.000000	99.263359 
3097.000000	99.259822 
3096.000000	99.255730 
3095.000000	99.254312 
3094.000000	99.255671 
3093.000000	99.257381 
3092.000000	99.257245 
3091.000000	99.254958 
3090.000000	99.251601 
3089.000000	99.248660 
3088.000000	99.247681 
3087.000000	99.249817 
3086.000000	99.254729 
3085.000000	99.260101 
3084.000000	99.263035 
3083.000000	99.262304 
3082.000000	99.259162 
3081.000000	99.255988 
3080.000000	99.254280 
3079.000000	99.253879 
3078.000000	99.253585 
3077.000000	99.252221 
3076.000000	99.249503 
3075.000000	99.246482 
3074.000000	99.245057 
3073.000000	99.246572 
3072.000000	99.250722 
3071.000000	99.255948 
3070.000000	99.260634 
3069.000000	99.263444 
3068.000000	99.262920 
3067.000000	99.258048 
3066.000000	99.249965 
3065.000000	99.242343 
3064.000000	99.238919 
3063.000000	99.240424 
3062.000000	99.244358 
3061.000000	99.247609 
3060.000000	99.248875 
3059.000000	99.248877 
3058.000000	99.249085 
3057.000000	99.250459 
3056.000000	99.252823 
3055.000000	99.255059 
3054.000000	99.256057 
3053.000000	99.255535 
3052.000000	99.253938 
3051.000000	99.251828 
3050.000000	99.249690 
3049.000000	99.247879 
3048.000000	99.245975 
3047.000000	99.242478 
3046.000000	99.236198 
3045.000000	99.228153 
3044.000000	99.221196 
3043.000000	99.217367 
3042.000000	99.216274 
3041.000000	99.216224 
3040.000000	99.215971 
3039.000000	99.214928 
3038.000000	99.212694 
3037.000000	99.209457 
3036.000000	99.206343 
3035.000000	99.204261 
3034.000000	99.202476 
3033.000000	99.198994 
3032.000000	99.192353 
3031.000000	99.182593 
3030.000000	99.170715 
3029.000000	99.157853 
3028.000000	99.145000 
3027.000000	99.132984 
3026.000000	99.122373 
3025.000000	99.113385 
3024.000000	99.105603 
3023.000000	99.097550 
3022.000000	99.087094 
3021.000000	99.073177 
3020.000000	99.057223 
3019.000000	99.042262 
3018.000000	99.030488 
3017.000000	99.021878 
3016.000000	99.014789 
3015.000000	99.007103 
3014.000000	98.996836 
3013.000000	98.982619 
3012.000000	98.964226 
3011.000000	98.942521 
3010.000000	98.918977 
3009.000000	98.895574 
3008.000000	98.874811 
3007.000000	98.858674 
3006.000000	98.847010 
3005.000000	98.837309 
3004.000000	98.826406 
3003.000000	98.812246 
3002.000000	98.794331 
3001.000000	98.773692 
3000.000000	98.752874 
2999.000000	98.734862 
2998.000000	98.721118 
2997.000000	98.711120 
2996.000000	98.704011 
2995.000000	98.699070 
2994.000000	98.693113 
2993.000000	98.679140 
2992.000000	98.651312 
2991.000000	98.612642 
2990.000000	98.575680 
2989.000000	98.553197 
2988.000000	98.548122 
2987.000000	98.553431 
2986.000000	98.560812 
2985.000000	98.567646 
2984.000000	98.575684 
2983.000000	98.585493 
2982.000000	98.594209 
2981.000000	98.598404 
2980.000000	98.597781 
2979.000000	98.595269 
2978.000000	98.593745 
2977.000000	98.593276 
2976.000000	98.591808 
2975.000000	98.588173 
2974.000000	98.583705 
2973.000000	98.580811 
2972.000000	98.580755 
2971.000000	98.583507 
2970.000000	98.589211 
2969.000000	98.598566 
2968.000000	98.611543 
2967.000000	98.626579 
2966.000000	98.641661 
2965.000000	98.655855 
2964.000000	98.669439 
2963.000000	98.682874 
2962.000000	98.695984 
2961.000000	98.707905 
2960.000000	98.717636 
2959.000000	98.725018 
2958.000000	98.731446 
2957.000000	98.739045 
2956.000000	98.748389 
2955.000000	98.757214 
2954.000000	98.762402 
2953.000000	98.763937 
2952.000000	98.766418 
2951.000000	98.775579 
2950.000000	98.792551 
2949.000000	98.811737 
2948.000000	98.825078 
2947.000000	98.828813 
2946.000000	98.826069 
2945.000000	98.823000 
2944.000000	98.823317 
2943.000000	98.826867 
2942.000000	98.832100 
2941.000000	98.837963 
2940.000000	98.843307 
2939.000000	98.846408 
2938.000000	98.846504 
2937.000000	98.845303 
2936.000000	98.845982 
2935.000000	98.850561 
2934.000000	98.858366 
2933.000000	98.866492 
2932.000000	98.871474 
2931.000000	98.871307 
2930.000000	98.866708 
2929.000000	98.860278 
2928.000000	98.854078 
2927.000000	98.848450 
2926.000000	98.843368 
2925.000000	98.839768 
2924.000000	98.838483 
2923.000000	98.838575 
2922.000000	98.837990 
2921.000000	98.835658 
2920.000000	98.831896 
2919.000000	98.827036 
2918.000000	98.820886 
2917.000000	98.813587 
2916.000000	98.805995 
2915.000000	98.799057 
2914.000000	98.793550 
2913.000000	98.790287 
2912.000000	98.789408 
2911.000000	98.789270 
2910.000000	98.787239 
2909.000000	98.782252 
2908.000000	98.775848 
2907.000000	98.769953 
2906.000000	98.764134 
2905.000000	98.755612 
2904.000000	98.742036 
2903.000000	98.724584 
2902.000000	98.709091 
2901.000000	98.703660 
2900.000000	98.713204 
2899.000000	98.734678 
2898.000000	98.758149 
2897.000000	98.774086 
2896.000000	98.780118 
2895.000000	98.780930 
2894.000000	98.782462 
2893.000000	98.786996 
2892.000000	98.793142 
2891.000000	98.798612 
2890.000000	98.802142 
2889.000000	98.803682 
2888.000000	98.804006 
2887.000000	98.804423 
2886.000000	98.806341 
2885.000000	98.810568 
2884.000000	98.816861 
2883.000000	98.824318 
2882.000000	98.832427 
2881.000000	98.841740 
2880.000000	98.853312 
2879.000000	98.867454 
2878.000000	98.883242 
2877.000000	98.899096 
2876.000000	98.913392 
2875.000000	98.924509 
2874.000000	98.931161 
2873.000000	98.933543 
2872.000000	98.934082 
2871.000000	98.936383 
2870.000000	98.943003 
2869.000000	98.953999 
2868.000000	98.967398 
2867.000000	98.980991 
2866.000000	98.994054 
2865.000000	99.007563 
2864.000000	99.022511 
2863.000000	99.037926 
2862.000000	99.051116 
2861.000000	99.060337 
2860.000000	99.066890 
2859.000000	99.073983 
2858.000000	99.083594 
2857.000000	99.094920 
2856.000000	99.105661 
2855.000000	99.114251 
2854.000000	99.120750 
2853.000000	99.126124 
2852.000000	99.131126 
2851.000000	99.135966 
2850.000000	99.140895 
2849.000000	99.146683 
2848.000000	99.153961 
2847.000000	99.162082 
2846.000000	99.169238 
2845.000000	99.174101 
2844.000000	99.176987 
2843.000000	99.179200 
2842.000000	99.181767 
2841.000000	99.185243 
2840.000000	99.189937 
2839.000000	99.195239 
2838.000000	99.198953 
2837.000000	99.198647 
2836.000000	99.194341 
2835.000000	99.189370 
2834.000000	99.187939 
2833.000000	99.191665 
2832.000000	99.198385 
2831.000000	99.204112 
2830.000000	99.206270 
2829.000000	99.205552 
2828.000000	99.204978 
2827.000000	99.206943 
2826.000000	99.211014 
2825.000000	99.214566 
2824.000000	99.215547 
2823.000000	99.214528 
2822.000000	99.214121 
2821.000000	99.216533 
2820.000000	99.221623 
2819.000000	99.227281 
2818.000000	99.231724 
2817.000000	99.235305 
2816.000000	99.239641 
2815.000000	99.244973 
2814.000000	99.249159 
2813.000000	99.249861 
2812.000000	99.247213 
2811.000000	99.243584 
2810.000000	99.241079 
2809.000000	99.240154 
2808.000000	99.240450 
2807.000000	99.241747 
2806.000000	99.243644 
2805.000000	99.245277 
2804.000000	99.246195 
2803.000000	99.247145 
2802.000000	99.249219 
2801.000000	99.252245 
2800.000000	99.254521 
2799.000000	99.254391 
2798.000000	99.251959 
2797.000000	99.249147 
2796.000000	99.248002 
2795.000000	99.248925 
2794.000000	99.250563 
2793.000000	99.251306 
2792.000000	99.250622 
2791.000000	99.249036 
2790.000000	99.247526 
2789.000000	99.247378 
2788.000000	99.249903 
2787.000000	99.255254 
2786.000000	99.261607 
2785.000000	99.266419 
2784.000000	99.268658 
2783.000000	99.269111 
2782.000000	99.268591 
2781.000000	99.266890 
2780.000000	99.263869 
2779.000000	99.260589 
2778.000000	99.258544 
2777.000000	99.258216 
2776.000000	99.258888 
2775.000000	99.259513 
2774.000000	99.259417 
2773.000000	99.258705 
2772.000000	99.258436 
2771.000000	99.259912 
2770.000000	99.263340 
2769.000000	99.267667 
2768.000000	99.271997 
2767.000000	99.276317 
2766.000000	99.280219 
2765.000000	99.282034 
2764.000000	99.280639 
2763.000000	99.277612 
2762.000000	99.276099 
2761.000000	99.277519 
2760.000000	99.280618 
2759.000000	99.283749 
2758.000000	99.286627 
2757.000000	99.289379 
2756.000000	99.291294 
2755.000000	99.291546 
2754.000000	99.290357 
2753.000000	99.288528 
2752.000000	99.286333 
2751.000000	99.283656 
2750.000000	99.280780 
2749.000000	99.278170 
2748.000000	99.275677 
2747.000000	99.272704 
2746.000000	99.269190 
2745.000000	99.265928 
2744.000000	99.264008 
2743.000000	99.264259 
2742.000000	99.266930 
2741.000000	99.271357 
2740.000000	99.276124 
2739.000000	99.280122 
2738.000000	99.283399 
2737.000000	99.286542 
2736.000000	99.289380 
2735.000000	99.290877 
2734.000000	99.290242 
2733.000000	99.287652 
2732.000000	99.283989 
2731.000000	99.280467 
2730.000000	99.278450 
2729.000000	99.278867 
2728.000000	99.281451 
2727.000000	99.284951 
2726.000000	99.288235 
2725.000000	99.290856 
2724.000000	99.292686 
2723.000000	99.293729 
2722.000000	99.294484 
2721.000000	99.295763 
2720.000000	99.297622 
2719.000000	99.298901 
2718.000000	99.298271 
2717.000000	99.295599 
2716.000000	99.292186 
2715.000000	99.290036 
2714.000000	99.290844 
2713.000000	99.294856 
2712.000000	99.300178 
2711.000000	99.303910 
2710.000000	99.304720 
2709.000000	99.304006 
2708.000000	99.303950 
2707.000000	99.304866 
2706.000000	99.305213 
2705.000000	99.303996 
2704.000000	99.302162 
2703.000000	99.301387 
2702.000000	99.302056 
2701.000000	99.302786 
2700.000000	99.301769 
2699.000000	99.298572 
2698.000000	99.294760 
2697.000000	99.292625 
2696.000000	99.293068 
2695.000000	99.294889 
2694.000000	99.296278 
2693.000000	99.296437 
2692.000000	99.295425 
2691.000000	99.293303 
2690.000000	99.290609 
2689.000000	99.289250 
2688.000000	99.291288 
2687.000000	99.296262 
2686.000000	99.300788 
2685.000000	99.301717 
2684.000000	99.299319 
2683.000000	99.296875 
2682.000000	99.297481 
2681.000000	99.301596 
2680.000000	99.307114 
2679.000000	99.311111 
2678.000000	99.311825 
2677.000000	99.309772 
2676.000000	99.307216 
2675.000000	99.306276 
2674.000000	99.307374 
2673.000000	99.309406 
2672.000000	99.311012 
2671.000000	99.311339 
2670.000000	99.309841 
2669.000000	99.306125 
2668.000000	99.300516 
2667.000000	99.294599 
2666.000000	99.290643 
2665.000000	99.290005 
2664.000000	99.292122 
2663.000000	99.295360 
2662.000000	99.298728 
2661.000000	99.302177 
2660.000000	99.305132 
2659.000000	99.305772 
2658.000000	99.302877 
2657.000000	99.298138 
2656.000000	99.295407 
2655.000000	99.297089 
2654.000000	99.301641 
2653.000000	99.304940 
2652.000000	99.304054 
2651.000000	99.299805 
2650.000000	99.295984 
2649.000000	99.295811 
2648.000000	99.298786 
2647.000000	99.301379 
2646.000000	99.301326 
2645.000000	99.300470 
2644.000000	99.302121 
2643.000000	99.306285 
2642.000000	99.309454 
2641.000000	99.309355 
2640.000000	99.307844 
2639.000000	99.308066 
2638.000000	99.310341 
2637.000000	99.312171 
2636.000000	99.311270 
2635.000000	99.307467 
2634.000000	99.302608 
2633.000000	99.299688 
2632.000000	99.300874 
2631.000000	99.304954 
2630.000000	99.307684 
2629.000000	99.306272 
2628.000000	99.302838 
2627.000000	99.301908 
2626.000000	99.305172 
2625.000000	99.310488 
2624.000000	99.315283 
2623.000000	99.318602 
2622.000000	99.319944 
2621.000000	99.318677 
2620.000000	99.315537 
2619.000000	99.312876 
2618.000000	99.312358 
2617.000000	99.313489 
2616.000000	99.314964 
2615.000000	99.316102 
2614.000000	99.316276 
2613.000000	99.314381 
2612.000000	99.310096 
2611.000000	99.304909 
2610.000000	99.300952 
2609.000000	99.299369 
2608.000000	99.300352 
2607.000000	99.303904 
2606.000000	99.309643 
2605.000000	99.316295 
2604.000000	99.322040 
2603.000000	99.325281 
2602.000000	99.325214 
2601.000000	99.322618 
2600.000000	99.320255 
2599.000000	99.321211 
2598.000000	99.325931 
2597.000000	99.331504 
2596.000000	99.334343 
2595.000000	99.332870 
2594.000000	99.327520 
2593.000000	99.319825 
2592.000000	99.312581 
2591.000000	99.309399 
2590.000000	99.312071 
2589.000000	99.318549 
2588.000000	99.324785 
2587.000000	99.328320 
2586.000000	99.329061 
2585.000000	99.327287 
2584.000000	99.322875 
2583.000000	99.316751 
2582.000000	99.311346 
2581.000000	99.308394 
2580.000000	99.306919 
2579.000000	99.304382 
2578.000000	99.299785 
2577.000000	99.295190 
2576.000000	99.294049 
2575.000000	99.298038 
2574.000000	99.305424 
2573.000000	99.312490 
2572.000000	99.316518 
2571.000000	99.317167 
2570.000000	99.315220 
2569.000000	99.311139 
2568.000000	99.305656 
2567.000000	99.300930 
2566.000000	99.299519 
2565.000000	99.301861 
2564.000000	99.305667 
2563.000000	99.308136 
2562.000000	99.308205 
2561.000000	99.306711 
2560.000000	99.305450 
2559.000000	99.306286 
2558.000000	99.309768 
2557.000000	99.313677 
2556.000000	99.314226 
2555.000000	99.310315 
2554.000000	99.305977 
2553.000000	99.306739 
2552.000000	99.313457 
2551.000000	99.321514 
2550.000000	99.326401 
2549.000000	99.327999 
2548.000000	99.328166 
2547.000000	99.326307 
2546.000000	99.320220 
2545.000000	99.310864 
2544.000000	99.303320 
2543.000000	99.301876 
2542.000000	99.305812 
2541.000000	99.311028 
2540.000000	99.314412 
2539.000000	99.315280 
2538.000000	99.313671 
2537.000000	99.309210 
2536.000000	99.301996 
2535.000000	99.293749 
2534.000000	99.287691 
2533.000000	99.287038 
2532.000000	99.292627 
2531.000000	99.301538 
2530.000000	99.309057 
2529.000000	99.313071 
2528.000000	99.315879 
2527.000000	99.320705 
2526.000000	99.327344 
2525.000000	99.332758 
2524.000000	99.335250 
2523.000000	99.335984 
2522.000000	99.336300 
2521.000000	99.335621 
2520.000000	99.332862 
2519.000000	99.328418 
2518.000000	99.323738 
2517.000000	99.319887 
2516.000000	99.317416 
2515.000000	99.316792 
2514.000000	99.317900 
2513.000000	99.319495 
2512.000000	99.319881 
2511.000000	99.318043 
2510.000000	99.314114 
2509.000000	99.309553 
2508.000000	99.307099 
2507.000000	99.309102 
2506.000000	99.314647 
2505.000000	99.318959 
2504.000000	99.317085 
2503.000000	99.308409 
2502.000000	99.297144 
2501.000000	99.288911 
2500.000000	99.287405 
2499.000000	99.293281 
2498.000000	99.304223 
2497.000000	99.315656 
2496.000000	99.322972 
2495.000000	99.324405 
2494.000000	99.321558 
2493.000000	99.316744 
2492.000000	99.310404 
2491.000000	99.301877 
2490.000000	99.292306 
2489.000000	99.285424 
2488.000000	99.284579 
2487.000000	99.289210 
2486.000000	99.295163 
2485.000000	99.298977 
2484.000000	99.301381 
2483.000000	99.305698 
2482.000000	99.312815 
2481.000000	99.318909 
2480.000000	99.319088 
2479.000000	99.312787 
2478.000000	99.304484 
2477.000000	99.299240 
2476.000000	99.298545 
2475.000000	99.300673 
2474.000000	99.303616 
2473.000000	99.306602 
2472.000000	99.309569 
2471.000000	99.312610 
2470.000000	99.315891 
2469.000000	99.318849 
2468.000000	99.319309 
2467.000000	99.314873 
2466.000000	99.306219 
2465.000000	99.298184 
2464.000000	99.296039 
2463.000000	99.300440 
2462.000000	99.306807 
2461.000000	99.309908 
2460.000000	99.308568 
2459.000000	99.305878 
2458.000000	99.305588 
2457.000000	99.308720 
2456.000000	99.313129 
2455.000000	99.315626 
2454.000000	99.314530 
2453.000000	99.310582 
2452.000000	99.305800 
2451.000000	99.301725 
2450.000000	99.298844 
2449.000000	99.297076 
2448.000000	99.296071 
2447.000000	99.295224 
2446.000000	99.294387 
2445.000000	99.294778 
2444.000000	99.298185 
2443.000000	99.304649 
2442.000000	99.311575 
2441.000000	99.315879 
2440.000000	99.316613 
2439.000000	99.314987 
2438.000000	99.312525 
2437.000000	99.310168 
2436.000000	99.308604 
2435.000000	99.307969 
2434.000000	99.306917 
2433.000000	99.303278 
2432.000000	99.296600 
2431.000000	99.289545 
2430.000000	99.285971 
2429.000000	99.287659 
2428.000000	99.293366 
2427.000000	99.300720 
2426.000000	99.307919 
2425.000000	99.313154 
2424.000000	99.313682 
2423.000000	99.307495 
2422.000000	99.296522 
2421.000000	99.286787 
2420.000000	99.283778 
2419.000000	99.287715 
2418.000000	99.294181 
2417.000000	99.298997 
2416.000000	99.301180 
2415.000000	99.301435 
2414.000000	99.299921 
2413.000000	99.296756 
2412.000000	99.293318 
2411.000000	99.291299 
2410.000000	99.290766 
2409.000000	99.290381 
2408.000000	99.289477 
2407.000000	99.288920 
2406.000000	99.289932 
2405.000000	99.292782 
2404.000000	99.296543 
2403.000000	99.299363 
2402.000000	99.299131 
2401.000000	99.294926 
2400.000000	99.288276 
2399.000000	99.282450 
2398.000000	99.280145 
2397.000000	99.281910 
2396.000000	99.286552 
2395.000000	99.292406 
2394.000000	99.298044 
2393.000000	99.302351 
2392.000000	99.304621 
2391.000000	99.304929 
2390.000000	99.304422 
2389.000000	99.304820 
2388.000000	99.306922 
2387.000000	99.309506 
2386.000000	99.310323 
2385.000000	99.308511 
2384.000000	99.305500 
2383.000000	99.303302 
2382.000000	99.302639 
2381.000000	99.303076 
2380.000000	99.303769 
2379.000000	99.303144 
2378.000000	99.299170 
2377.000000	99.292114 
2376.000000	99.286528 
2375.000000	99.287842 
2374.000000	99.296004 
2373.000000	99.304663 
2372.000000	99.308503 
2371.000000	99.309740 
2370.000000	99.314738 
2369.000000	99.324690 
2368.000000	99.332269 
2367.000000	99.328772 
2366.000000	99.313680 
2365.000000	99.296324 
2364.000000	99.287817 
2363.000000	99.291471 
2362.000000	99.301707 
2361.000000	99.310382 
2360.000000	99.313034 
2359.000000	99.310810 
2358.000000	99.307349 
2357.000000	99.306420 
2356.000000	99.310058 
2355.000000	99.316942 
2354.000000	99.322887 
2353.000000	99.323414 
2352.000000	99.318940 
2351.000000	99.313559 
2350.000000	99.310126 
2349.000000	99.308947 
2348.000000	99.309124 
2347.000000	99.310342 
2346.000000	99.310182 
2345.000000	99.305540 
2344.000000	99.296943 
2343.000000	99.289209 
2342.000000	99.288013 
2341.000000	99.293549 
2340.000000	99.301418 
2339.000000	99.306735 
2338.000000	99.308485 
2337.000000	99.308525 
2336.000000	99.308763 
2335.000000	99.309565 
2334.000000	99.310804 
2333.000000	99.311909 
2332.000000	99.312252 
2331.000000	99.310811 
2330.000000	99.306654 
2329.000000	99.300781 
2328.000000	99.295469 
2327.000000	99.294483 
2326.000000	99.298304 
2325.000000	99.303484 
2324.000000	99.305142 
2323.000000	99.302391 
2322.000000	99.300073 
2321.000000	99.302739 
2320.000000	99.310195 
2319.000000	99.317941 
2318.000000	99.322595 
2317.000000	99.323491 
2316.000000	99.321024 
2315.000000	99.315428 
2314.000000	99.307779 
2313.000000	99.301196 
2312.000000	99.298945 
2311.000000	99.302608 
2310.000000	99.310816 
2309.000000	99.320156 
2308.000000	99.325833 
2307.000000	99.324200 
2306.000000	99.315296 
2305.000000	99.303667 
2304.000000	99.294876 
2303.000000	99.291296 
2302.000000	99.291295 
2301.000000	99.291990 
2300.000000	99.291342 
2299.000000	99.288477 
2298.000000	99.283780 
2297.000000	99.280013 
2296.000000	99.280613 
2295.000000	99.285858 
2294.000000	99.290859 
2293.000000	99.290021 
2292.000000	99.282800 
2291.000000	99.274406 
2290.000000	99.270390 
2289.000000	99.271983 
2288.000000	99.276248 
2287.000000	99.279363 
2286.000000	99.279112 
2285.000000	99.275606 
2284.000000	99.270915 
2283.000000	99.267419 
2282.000000	99.265511 
2281.000000	99.262876 
2280.000000	99.257344 
2279.000000	99.250730 
2278.000000	99.248792 
2277.000000	99.255679 
2276.000000	99.268646 
2275.000000	99.279876 
2274.000000	99.283909 
2273.000000	99.281520 
2272.000000	99.275408 
2271.000000	99.265188 
2270.000000	99.250367 
2269.000000	99.236970 
2268.000000	99.235590 
2267.000000	99.250387 
2266.000000	99.272790 
2265.000000	99.288745 
2264.000000	99.291047 
2263.000000	99.283523 
2262.000000	99.275519 
2261.000000	99.274266 
2260.000000	99.280027 
2259.000000	99.285806 
2258.000000	99.283471 
2257.000000	99.272797 
2256.000000	99.262871 
2255.000000	99.261698 
2254.000000	99.266568 
2253.000000	99.268581 
2252.000000	99.265157 
2251.000000	99.262850 
2250.000000	99.267541 
2249.000000	99.276785 
2248.000000	99.283562 
2247.000000	99.283943 
2246.000000	99.278464 
2245.000000	99.268702 
2244.000000	99.255800 
2243.000000	99.242005 
2242.000000	99.231348 
2241.000000	99.227589 
2240.000000	99.231129 
2239.000000	99.237874 
2238.000000	99.241805 
2237.000000	99.239450 
2236.000000	99.231711 
2235.000000	99.221294 
2234.000000	99.210235 
2233.000000	99.201113 
2232.000000	99.198170 
2231.000000	99.204145 
2230.000000	99.216938 
2229.000000	99.232112 
2228.000000	99.247906 
2227.000000	99.264542 
2226.000000	99.279065 
2225.000000	99.285252 
2224.000000	99.280291 
2223.000000	99.268849 
2222.000000	99.258873 
2221.000000	99.254785 
2220.000000	99.255236 
2219.000000	99.256073 
2218.000000	99.255329 
2217.000000	99.256520 
2216.000000	99.266037 
2215.000000	99.284727 
2214.000000	99.302726 
2213.000000	99.306382 
2212.000000	99.291847 
2211.000000	99.269721 
2210.000000	99.255531 
2209.000000	99.256995 
2208.000000	99.269718 
2207.000000	99.282212 
2206.000000	99.284253 
2205.000000	99.273173 
2204.000000	99.254567 
2203.000000	99.237166 
2202.000000	99.227145 
2201.000000	99.226311 
2200.000000	99.232066 
2199.000000	99.237083 
2198.000000	99.232589 
2197.000000	99.216918 
2196.000000	99.199889 
2195.000000	99.194442 
2194.000000	99.204247 
2193.000000	99.222230 
2192.000000	99.239309 
2191.000000	99.250239 
2190.000000	99.252548 
2189.000000	99.246417 
2188.000000	99.236758 
2187.000000	99.230490 
2186.000000	99.230478 
2185.000000	99.235031 
2184.000000	99.242128 
2183.000000	99.249492 
2182.000000	99.252096 
2181.000000	99.246515 
2180.000000	99.237514 
2179.000000	99.232981 
2178.000000	99.232312 
2177.000000	99.227548 
2176.000000	99.216910 
2175.000000	99.208730 
2174.000000	99.208860 
2173.000000	99.212280 
2172.000000	99.211942 
2171.000000	99.209369 
2170.000000	99.211344 
2169.000000	99.220738 
2168.000000	99.234500 
2167.000000	99.246494 
2166.000000	99.249109 
2165.000000	99.237605 
2164.000000	99.217625 
2163.000000	99.203535 
2162.000000	99.204603 
2161.000000	99.216110 
2160.000000	99.226868 
2159.000000	99.230927 
2158.000000	99.228626 
2157.000000	99.222718 
2156.000000	99.218338 
2155.000000	99.220400 
2154.000000	99.226471 
2153.000000	99.227610 
2152.000000	99.219987 
2151.000000	99.210588 
2150.000000	99.208422 
2149.000000	99.215636 
2148.000000	99.229775 
2147.000000	99.247488 
2146.000000	99.261443 
2145.000000	99.261656 
2144.000000	99.247394 
2143.000000	99.231792 
2142.000000	99.227386 
2141.000000	99.231748 
2140.000000	99.234359 
2139.000000	99.232935 
2138.000000	99.233693 
2137.000000	99.237987 
2136.000000	99.238914 
2135.000000	99.232759 
2134.000000	99.225939 
2133.000000	99.226962 
2132.000000	99.235779 
2131.000000	99.243759 
2130.000000	99.241972 
2129.000000	99.228886 
2128.000000	99.211988 
2127.000000	99.201524 
2126.000000	99.201174 
2125.000000	99.206100 
2124.000000	99.211533 
2123.000000	99.219996 
2122.000000	99.235847 
2121.000000	99.255235 
2120.000000	99.267783 
2119.000000	99.268493 
2118.000000	99.262691 
2117.000000	99.258021 
2116.000000	99.256243 
2115.000000	99.254915 
2114.000000	99.252937 
2113.000000	99.250917 
2112.000000	99.248435 
2111.000000	99.244528 
2110.000000	99.240260 
2109.000000	99.238213 
2108.000000	99.239113 
2107.000000	99.240164 
2106.000000	99.236999 
2105.000000	99.227208 
2104.000000	99.212705 
2103.000000	99.198964 
2102.000000	99.191305 
2101.000000	99.191301 
2100.000000	99.196659 
2099.000000	99.204048 
2098.000000	99.211534 
2097.000000	99.218853 
2096.000000	99.226006 
2095.000000	99.230797 
2094.000000	99.227774 
2093.000000	99.212593 
2092.000000	99.189476 
2091.000000	99.171491 
2090.000000	99.169420 
2089.000000	99.180522 
2088.000000	99.191772 
2087.000000	99.194568 
2086.000000	99.192343 
2085.000000	99.192945 
2084.000000	99.197892 
2083.000000	99.202150 
2082.000000	99.201945 
2081.000000	99.198952 
2080.000000	99.197022 
2079.000000	99.197621 
2078.000000	99.199817 
2077.000000	99.203528 
2076.000000	99.210943 
2075.000000	99.223528 
2074.000000	99.237848 
2073.000000	99.246675 
2072.000000	99.245985 
2071.000000	99.239471 
2070.000000	99.233856 
2069.000000	99.230710 
2068.000000	99.225944 
2067.000000	99.217355 
2066.000000	99.209026 
2065.000000	99.206276 
2064.000000	99.208654 
2063.000000	99.210941 
2062.000000	99.210201 
2061.000000	99.209275 
2060.000000	99.213094 
2059.000000	99.222887 
2058.000000	99.234350 
2057.000000	99.240909 
2056.000000	99.238718 
2055.000000	99.229119 
2054.000000	99.217139 
2053.000000	99.208415 
2052.000000	99.206885 
2051.000000	99.213199 
2050.000000	99.223048 
2049.000000	99.227426 
2048.000000	99.218436 
2047.000000	99.197431 
2046.000000	99.176007 
2045.000000	99.166946 
2044.000000	99.173520 
2043.000000	99.187547 
2042.000000	99.197305 
2041.000000	99.197191 
2040.000000	99.190937 
2039.000000	99.186450 
2038.000000	99.188119 
2037.000000	99.193468 
2036.000000	99.195532 
2035.000000	99.188076 
2034.000000	99.170300 
2033.000000	99.148585 
2032.000000	99.132787 
2031.000000	99.128310 
2030.000000	99.131691 
2029.000000	99.135103 
2028.000000	99.134670 
2027.000000	99.132928 
2026.000000	99.134203 
2025.000000	99.140884 
2024.000000	99.153020 
2023.000000	99.166583 
2022.000000	99.171735 
2021.000000	99.159374 
2020.000000	99.133870 
2019.000000	99.114220 
2018.000000	99.116478 
2017.000000	99.135384 
2016.000000	99.148560 
2015.000000	99.140146 
2014.000000	99.115533 
2013.000000	99.093594 
2012.000000	99.089236 
2011.000000	99.103722 
2010.000000	99.128187 
2009.000000	99.153195 
2008.000000	99.174792 
2007.000000	99.192595 
2006.000000	99.204237 
2005.000000	99.206013 
2004.000000	99.199637 
2003.000000	99.193727 
2002.000000	99.195619 
2001.000000	99.203297 
2000.000000	99.207893 
1999.000000	99.202668 
1998.000000	99.188532 
1997.000000	99.173440 
1996.000000	99.167635 
1995.000000	99.176677 
1994.000000	99.195958 
1993.000000	99.212472 
1992.000000	99.215369 
1991.000000	99.205591 
1990.000000	99.192820 
1989.000000	99.185132 
1988.000000	99.184541 
1987.000000	99.189078 
1986.000000	99.194685 
1985.000000	99.196371 
1984.000000	99.191708 
1983.000000	99.183523 
1982.000000	99.176566 
1981.000000	99.171504 
1980.000000	99.164999 
1979.000000	99.155216 
1978.000000	99.144540 
1977.000000	99.136027 
1976.000000	99.129204 
1975.000000	99.121751 
1974.000000	99.114963 
1973.000000	99.116004 
1972.000000	99.132543 
1971.000000	99.163017 
1970.000000	99.192651 
1969.000000	99.203023 
1968.000000	99.189024 
1967.000000	99.164821 
1966.000000	99.149448 
1965.000000	99.148410 
1964.000000	99.153011 
1963.000000	99.153808 
1962.000000	99.149153 
1961.000000	99.143010 
1960.000000	99.140209 
1959.000000	99.144261 
1958.000000	99.155439 
1957.000000	99.168789 
1956.000000	99.176999 
1955.000000	99.177394 
1954.000000	99.174469 
1953.000000	99.174023 
1952.000000	99.175540 
1951.000000	99.172796 
1950.000000	99.161819 
1949.000000	99.146558 
1948.000000	99.136057 
1947.000000	99.135413 
1946.000000	99.140015 
1945.000000	99.140114 
1944.000000	99.131628 
1943.000000	99.121311 
1942.000000	99.119399 
1941.000000	99.127778 
1940.000000	99.139014 
1939.000000	99.146462 
1938.000000	99.151332 
1937.000000	99.159389 
1936.000000	99.172407 
1935.000000	99.184541 
1934.000000	99.188384 
1933.000000	99.184229 
1932.000000	99.180866 
1931.000000	99.186295 
1930.000000	99.198550 
1929.000000	99.208019 
1928.000000	99.209323 
1927.000000	99.206409 
1926.000000	99.205889 
1925.000000	99.208425 
1924.000000	99.209715 
1923.000000	99.208101 
1922.000000	99.206207 
1921.000000	99.205467 
1920.000000	99.203103 
1919.000000	99.195774 
1918.000000	99.184061 
1917.000000	99.172300 
1916.000000	99.164524 
1915.000000	99.161560 
1914.000000	99.162145 
1913.000000	99.165267 
1912.000000	99.170508 
1911.000000	99.177029 
1910.000000	99.182190 
1909.000000	99.183190 
1908.000000	99.181419 
1907.000000	99.181853 
1906.000000	99.187791 
1905.000000	99.196589 
1904.000000	99.201989 
1903.000000	99.200419 
1902.000000	99.192780 
1901.000000	99.182782 
1900.000000	99.175224 
1899.000000	99.173437 
1898.000000	99.177415 
1897.000000	99.184277 
1896.000000	99.190992 
1895.000000	99.196245 
1894.000000	99.198957 
1893.000000	99.197951 
1892.000000	99.194219 
1891.000000	99.190927 
1890.000000	99.189556 
1889.000000	99.188282 
1888.000000	99.186309 
1887.000000	99.186211 
1886.000000	99.189686 
1885.000000	99.194422 
1884.000000	99.197052 
1883.000000	99.197454 
1882.000000	99.197509 
1881.000000	99.198224 
1880.000000	99.200990 
1879.000000	99.208017 
1878.000000	99.219150 
1877.000000	99.230167 
1876.000000	99.236289 
1875.000000	99.236575 
1874.000000	99.232589 
1873.000000	99.224845 
1872.000000	99.213854 
1871.000000	99.202539 
1870.000000	99.194283 
1869.000000	99.189024 
1868.000000	99.185710 
1867.000000	99.186899 
1866.000000	99.194136 
1865.000000	99.202421 
1864.000000	99.204441 
1863.000000	99.198611 
1862.000000	99.190406 
1861.000000	99.186046 
1860.000000	99.187655 
1859.000000	99.194192 
1858.000000	99.203000 
1857.000000	99.210053 
1856.000000	99.212664 
1855.000000	99.212752 
1854.000000	99.214350 
1853.000000	99.217651 
1852.000000	99.219813 
1851.000000	99.219594 
1850.000000	99.219305 
1849.000000	99.222195 
1848.000000	99.228540 
1847.000000	99.235439 
1846.000000	99.238969 
1845.000000	99.237126 
1844.000000	99.232225 
1843.000000	99.230171 
1842.000000	99.233396 
1841.000000	99.237902 
1840.000000	99.239268 
1839.000000	99.236442 
1838.000000	99.231190 
1837.000000	99.225495 
1836.000000	99.220914 
1835.000000	99.219593 
1834.000000	99.222349 
1833.000000	99.226769 
1832.000000	99.228974 
1831.000000	99.226565 
1830.000000	99.221169 
1829.000000	99.217923 
1828.000000	99.219712 
1827.000000	99.224146 
1826.000000	99.227471 
1825.000000	99.228068 
1824.000000	99.226417 
1823.000000	99.223509 
1822.000000	99.218857 
1821.000000	99.211995 
1820.000000	99.205721 
1819.000000	99.205229 
1818.000000	99.212911 
1817.000000	99.223481 
1816.000000	99.228973 
1815.000000	99.228628 
1814.000000	99.227956 
1813.000000	99.230550 
1812.000000	99.234201 
1811.000000	99.236443 
1810.000000	99.239215 
1809.000000	99.243219 
1808.000000	99.244698 
1807.000000	99.240924 
1806.000000	99.233997 
1805.000000	99.227607 
1804.000000	99.223088 
1803.000000	99.219844 
1802.000000	99.216177 
1801.000000	99.210563 
1800.000000	99.203370 
1799.000000	99.198692 
1798.000000	99.201439 
1797.000000	99.211216 
1796.000000	99.222900 
1795.000000	99.231850 
1794.000000	99.236101 
1793.000000	99.235009 
1792.000000	99.228658 
1791.000000	99.221145 
1790.000000	99.217837 
1789.000000	99.218928 
1788.000000	99.221940 
1787.000000	99.226349 
1786.000000	99.233196 
1785.000000	99.241028 
1784.000000	99.245913 
1783.000000	99.246107 
1782.000000	99.241759 
1781.000000	99.234203 
1780.000000	99.225149 
1779.000000	99.217050 
1778.000000	99.213081 
1777.000000	99.214198 
1776.000000	99.218564 
1775.000000	99.222023 
1774.000000	99.221425 
1773.000000	99.218429 
1772.000000	99.217176 
1771.000000	99.219143 
1770.000000	99.222541 
1769.000000	99.225021 
1768.000000	99.225815 
1767.000000	99.225467 
1766.000000	99.224658 
1765.000000	99.223962 
1764.000000	99.223373 
1763.000000	99.223045 
1762.000000	99.223031 
1761.000000	99.223506 
1760.000000	99.223653 
1759.000000	99.222833 
1758.000000	99.222741 
1757.000000	99.226024 
1756.000000	99.232315 
1755.000000	99.236548 
1754.000000	99.235330 
1753.000000	99.231453 
1752.000000	99.230563 
1751.000000	99.232420 
1750.000000	99.231589 
1749.000000	99.226730 
1748.000000	99.222892 
1747.000000	99.224054 
1746.000000	99.228129 
1745.000000	99.232230 
1744.000000	99.235514 
1743.000000	99.238051 
1742.000000	99.240002 
1741.000000	99.241524 
1740.000000	99.242653 
1739.000000	99.244267 
1738.000000	99.247056 
1737.000000	99.249382 
1736.000000	99.248793 
1735.000000	99.246146 
1734.000000	99.241705 
1733.000000	99.236518 
1732.000000	99.233386 
1731.000000	99.231188 
1730.000000	99.228801 
1729.000000	99.226890 
1728.000000	99.226199 
1727.000000	99.226931 
1726.000000	99.228790 
1725.000000	99.232120 
1724.000000	99.235465 
1723.000000	99.236917 
1722.000000	99.236715 
1721.000000	99.235813 
1720.000000	99.234947 
1719.000000	99.235688 
1718.000000	99.239149 
1717.000000	99.241567 
1716.000000	99.239601 
1715.000000	99.236876 
1714.000000	99.237439 
1713.000000	99.239559 
1712.000000	99.239715 
1711.000000	99.238821 
1710.000000	99.240126 
1709.000000	99.243345 
1708.000000	99.245084 
1707.000000	99.243585 
1706.000000	99.241463 
1705.000000	99.240514 
1704.000000	99.239884 
1703.000000	99.238669 
1702.000000	99.237554 
1701.000000	99.237519 
1700.000000	99.232936 
1699.000000	99.225700 
1698.000000	99.224163 
1697.000000	99.226423 
1696.000000	99.227137 
1695.000000	99.224852 
1694.000000	99.222525 
1693.000000	99.221393 
1692.000000	99.219977 
1691.000000	99.219346 
1690.000000	99.220342 
1689.000000	99.221462 
1688.000000	99.221778 
1687.000000	99.220974 
1686.000000	99.220967 
1685.000000	99.224674 
1684.000000	99.227525 
1683.000000	99.227463 
1682.000000	99.226646 
1681.000000	99.224194 
1680.000000	99.222463 
1679.000000	99.223128 
1678.000000	99.223338 
1677.000000	99.221002 
1676.000000	99.217788 
1675.000000	99.215582 
1674.000000	99.213569 
1673.000000	99.212297 
1672.000000	99.213026 
1671.000000	99.217214 
1670.000000	99.222660 
1669.000000	99.224027 
1668.000000	99.222126 
1667.000000	99.220146 
1666.000000	99.218071 
1665.000000	99.215553 
1664.000000	99.213862 
1663.000000	99.214848 
1662.000000	99.216691 
1661.000000	99.216901 
1660.000000	99.216964 
1659.000000	99.219118 
1658.000000	99.223028 
1657.000000	99.225969 
1656.000000	99.226846 
1655.000000	99.225506 
1654.000000	99.226554 
1653.000000	99.225765 
1652.000000	99.222282 
1651.000000	99.223522 
1650.000000	99.225257 
1649.000000	99.224940 
1648.000000	99.224909 
1647.000000	99.223667 
1646.000000	99.220459 
1645.000000	99.218383 
1644.000000	99.218714 
1643.000000	99.220372 
1642.000000	99.221777 
1641.000000	99.221792 
1640.000000	99.220692 
1639.000000	99.219377 
1638.000000	99.219026 
1637.000000	99.221271 
1636.000000	99.226168 
1635.000000	99.229959 
1634.000000	99.231220 
1633.000000	99.230312 
1632.000000	99.226884 
1631.000000	99.222643 
1630.000000	99.218952 
1629.000000	99.216020 
1628.000000	99.214638 
1627.000000	99.215988 
1626.000000	99.218686 
1625.000000	99.220146 
1624.000000	99.220204 
1623.000000	99.220862 
1622.000000	99.222994 
1621.000000	99.225482 
1620.000000	99.227264 
1619.000000	99.227884 
1618.000000	99.228155 
1617.000000	99.228511 
1616.000000	99.230374 
1615.000000	99.234926 
1614.000000	99.239262 
1613.000000	99.240922 
1612.000000	99.242003 
1611.000000	99.244803 
1610.000000	99.246737 
1609.000000	99.244555 
1608.000000	99.240606 
1607.000000	99.239983 
1606.000000	99.242920 
1605.000000	99.246269 
1604.000000	99.248545 
1603.000000	99.249350 
1602.000000	99.248575 
1601.000000	99.247517 
1600.000000	99.248743 
1599.000000	99.252916 
1598.000000	99.257531 
1597.000000	99.260011 
1596.000000	99.259968 
1595.000000	99.258103 
1594.000000	99.254741 
1593.000000	99.251231 
1592.000000	99.250713 
1591.000000	99.254911 
1590.000000	99.261135 
1589.000000	99.265190 
1588.000000	99.266372 
1587.000000	99.266934 
1586.000000	99.267748 
1585.000000	99.267392 
1584.000000	99.266594 
1583.000000	99.267220 
1582.000000	99.268641 
1581.000000	99.268925 
1580.000000	99.267599 
1579.000000	99.264483 
1578.000000	99.259042 
1577.000000	99.252953 
1576.000000	99.249219 
1575.000000	99.249706 
1574.000000	99.252073 
1573.000000	99.253239 
1572.000000	99.253567 
1571.000000	99.255304 
1570.000000	99.257580 
1569.000000	99.257896 
1568.000000	99.258264 
1567.000000	99.259082 
1566.000000	99.257774 
1565.000000	99.253810 
1564.000000	99.250905 
1563.000000	99.250274 
1562.000000	99.251126 
1561.000000	99.251179 
1560.000000	99.256407 
1559.000000	99.259160 
1558.000000	99.252455 
1557.000000	99.248759 
1556.000000	99.249761 
1555.000000	99.251850 
1554.000000	99.253189 
1553.000000	99.252505 
1552.000000	99.250672 
1551.000000	99.248484 
1550.000000	99.248195 
1549.000000	99.250808 
1548.000000	99.254739 
1547.000000	99.256645 
1546.000000	99.253633 
1545.000000	99.246423 
1544.000000	99.239716 
1543.000000	99.238154 
1542.000000	99.242454 
1541.000000	99.248787 
1540.000000	99.250413 
1539.000000	99.248797 
1538.000000	99.249813 
1537.000000	99.252174 
1536.000000	99.252866 
1535.000000	99.252365 
1534.000000	99.249887 
1533.000000	99.244579 
1532.000000	99.239642 
1531.000000	99.238437 
1530.000000	99.240498 
1529.000000	99.242723 
1528.000000	99.242546 
1527.000000	99.240919 
1526.000000	99.240249 
1525.000000	99.241208 
1524.000000	99.243215 
1523.000000	99.247249 
1522.000000	99.254304 
1521.000000	99.259442 
1520.000000	99.257459 
1519.000000	99.249270 
1518.000000	99.238952 
1517.000000	99.231367 
1516.000000	99.228743 
1515.000000	99.229694 
1514.000000	99.231984 
1513.000000	99.235172 
1512.000000	99.238540 
1511.000000	99.239705 
1510.000000	99.238011 
1509.000000	99.234743 
1508.000000	99.234076 
1507.000000	99.237705 
1506.000000	99.242309 
1505.000000	99.243997 
1504.000000	99.242495 
1503.000000	99.239476 
1502.000000	99.236840 
1501.000000	99.234597 
1500.000000	99.231110 
1499.000000	99.226061 
1498.000000	99.222219 
1497.000000	99.221837 
1496.000000	99.222437 
1495.000000	99.223439 
1494.000000	99.227228 
1493.000000	99.233577 
1492.000000	99.239479 
1491.000000	99.242247 
1490.000000	99.240956 
1489.000000	99.236060 
1488.000000	99.228358 
1487.000000	99.221131 
1486.000000	99.217449 
1485.000000	99.214978 
1484.000000	99.211307 
1483.000000	99.207270 
1482.000000	99.205927 
1481.000000	99.208096 
1480.000000	99.210608 
1479.000000	99.210660 
1478.000000	99.208365 
1477.000000	99.205071 
1476.000000	99.201740 
1475.000000	99.200926 
1474.000000	99.204527 
1473.000000	99.210014 
1472.000000	99.212086 
1471.000000	99.210518 
1470.000000	99.209116 
1469.000000	99.208726 
1468.000000	99.207860 
1467.000000	99.206394 
1466.000000	99.205946 
1465.000000	99.207401 
1464.000000	99.209939 
1463.000000	99.211902 
1462.000000	99.212898 
1461.000000	99.212729 
1460.000000	99.210977 
1459.000000	99.206468 
1458.000000	99.198136 
1457.000000	99.184820 
1456.000000	99.169374 
1455.000000	99.157412 
1454.000000	99.151174 
1453.000000	99.151871 
1452.000000	99.158534 
1451.000000	99.166348 
1450.000000	99.171292 
1449.000000	99.173307 
1448.000000	99.173734 
1447.000000	99.173955 
1446.000000	99.174127 
1445.000000	99.174645 
1444.000000	99.175990 
1443.000000	99.177539 
1442.000000	99.179295 
1441.000000	99.181683 
1440.000000	99.184502 
1439.000000	99.186385 
1438.000000	99.188081 
1437.000000	99.190639 
1436.000000	99.191714 
1435.000000	99.188960 
1434.000000	99.184102 
1433.000000	99.179705 
1432.000000	99.176300 
1431.000000	99.172129 
1430.000000	99.166253 
1429.000000	99.160513 
1428.000000	99.155961 
1427.000000	99.152185 
1426.000000	99.148198 
1425.000000	99.144995 
1424.000000	99.143620 
1423.000000	99.141420 
1422.000000	99.135078 
1421.000000	99.123708 
1420.000000	99.108848 
1419.000000	99.092561 
1418.000000	99.078711 
1417.000000	99.069107 
1416.000000	99.059403 
1415.000000	99.045035 
1414.000000	99.026137 
1413.000000	99.006890 
1412.000000	98.991150 
1411.000000	98.978636 
1410.000000	98.967219 
1409.000000	98.956681 
1408.000000	98.948446 
1407.000000	98.944574 
1406.000000	98.945714 
1405.000000	98.951232 
1404.000000	98.960169 
1403.000000	98.971343 
1402.000000	98.984872 
1401.000000	99.001557 
1400.000000	99.019553 
1399.000000	99.031373 
1398.000000	99.028031 
1397.000000	99.005448 
1396.000000	98.967167 
1395.000000	98.928349 
1394.000000	98.911406 
1393.000000	98.927533 
1392.000000	98.966266 
1391.000000	99.007264 
1390.000000	99.035715 
1389.000000	99.047318 
1388.000000	99.044934 
1387.000000	99.034083 
1386.000000	99.020975 
1385.000000	99.010852 
1384.000000	99.005770 
1383.000000	99.003790 
1382.000000	99.001935 
1381.000000	98.999804 
1380.000000	99.000232 
1379.000000	99.005878 
1378.000000	99.015945 
1377.000000	99.027259 
1376.000000	99.037543 
1375.000000	99.046699 
1374.000000	99.055833 
1373.000000	99.066571 
1372.000000	99.079387 
1371.000000	99.092763 
1370.000000	99.103872 
1369.000000	99.111229 
1368.000000	99.116250 
1367.000000	99.121371 
1366.000000	99.128076 
1365.000000	99.136763 
1364.000000	99.147029 
1363.000000	99.157150 
1362.000000	99.164681 
1361.000000	99.168687 
1360.000000	99.170694 
1359.000000	99.173364 
1358.000000	99.178641 
1357.000000	99.186666 
1356.000000	99.195560 
1355.000000	99.202664 
1354.000000	99.206976 
1353.000000	99.209788 
1352.000000	99.212023 
1351.000000	99.213132 
1350.000000	99.212224 
1349.000000	99.210576 
1348.000000	99.210772 
1347.000000	99.213142 
1346.000000	99.215508 
1345.000000	99.216266 
1344.000000	99.215950 
1343.000000	99.215610 
1342.000000	99.215660 
1341.000000	99.216680 
1340.000000	99.219475 
1339.000000	99.223432 
1338.000000	99.226757 
1337.000000	99.229058 
1336.000000	99.231475 
1335.000000	99.234021 
1334.000000	99.234976 
1333.000000	99.233544 
1332.000000	99.231297 
1331.000000	99.230043 
1330.000000	99.229699 
1329.000000	99.229591 
1328.000000	99.230163 
1327.000000	99.231887 
1326.000000	99.233442 
1325.000000	99.233249 
1324.000000	99.231862 
1323.000000	99.231112 
1322.000000	99.231826 
1321.000000	99.233661 
1320.000000	99.236493 
1319.000000	99.240223 
1318.000000	99.243381 
1317.000000	99.243542 
1316.000000	99.239732 
1315.000000	99.233678 
1314.000000	99.228368 
1313.000000	99.225584 
1312.000000	99.224920 
1311.000000	99.225060 
1310.000000	99.225575 
1309.000000	99.227097 
1308.000000	99.229684 
1307.000000	99.231903 
1306.000000	99.232019 
1305.000000	99.230189 
1304.000000	99.228438 
1303.000000	99.228294 
1302.000000	99.229289 
1301.000000	99.229947 
1300.000000	99.229625 
1299.000000	99.228962 
1298.000000	99.229078 
1297.000000	99.230506 
1296.000000	99.232583 
1295.000000	99.233684 
1294.000000	99.232440 
1293.000000	99.228894 
1292.000000	99.224182 
1291.000000	99.219368 
1290.000000	99.215083 
1289.000000	99.211915 
1288.000000	99.210173 
1287.000000	99.209098 
1286.000000	99.207250 
1285.000000	99.204020 
1284.000000	99.200045 
1283.000000	99.195949 
1282.000000	99.191574 
1281.000000	99.186781 
1280.000000	99.182215 
1279.000000	99.178448 
1278.000000	99.175049 
1277.000000	99.171250 
1276.000000	99.167048 
1275.000000	99.162759 
1274.000000	99.157829 
1273.000000	99.151151 
1272.000000	99.142638 
1271.000000	99.133712 
1270.000000	99.125908 
1269.000000	99.119411 
1268.000000	99.113123 
1267.000000	99.105701 
1266.000000	99.096559 
1265.000000	99.086317 
1264.000000	99.076288 
1263.000000	99.067180 
1262.000000	99.058355 
1261.000000	99.048850 
1260.000000	99.039095 
1259.000000	99.030649 
1258.000000	99.024062 
1257.000000	99.018129 
1256.000000	99.011917 
1255.000000	99.006550 
1254.000000	99.003770 
1253.000000	99.003198 
1252.000000	99.002590 
1251.000000	99.001008 
1250.000000	99.000338 
1249.000000	99.003015 
1248.000000	99.009267 
1247.000000	99.016968 
1246.000000	99.022672 
1245.000000	99.021865 
1244.000000	99.010753 
1243.000000	98.991416 
1242.000000	98.974443 
1241.000000	98.971888 
1240.000000	98.985521 
1239.000000	99.004283 
1238.000000	99.015087 
1237.000000	99.014332 
1236.000000	99.007211 
1235.000000	98.998906 
1234.000000	98.990421 
1233.000000	98.981574 
1232.000000	98.973259 
1231.000000	98.965606 
1230.000000	98.957364 
1229.000000	98.948992 
1228.000000	98.944005 
1227.000000	98.945158 
1226.000000	98.950643 
1225.000000	98.955992 
1224.000000	98.958821 
1223.000000	98.959983 
1222.000000	98.960869 
1221.000000	98.961709 
1220.000000	98.962708 
1219.000000	98.964992 
1218.000000	98.969303 
1217.000000	98.974314 
1216.000000	98.977065 
1215.000000	98.975279 
1214.000000	98.969084 
1213.000000	98.960434 
1212.000000	98.951187 
1211.000000	98.942291 
1210.000000	98.934622 
1209.000000	98.929355 
1208.000000	98.926583 
1207.000000	98.924293 
1206.000000	98.920059 
1205.000000	98.913689 
1204.000000	98.907046 
1203.000000	98.901243 
1202.000000	98.895283 
1201.000000	98.887864 
1200.000000	98.879378 
1199.000000	98.871431 
1198.000000	98.865091 
1197.000000	98.860008 
1196.000000	98.854479 
1195.000000	98.846087 
1194.000000	98.833428 
1193.000000	98.818029 
1192.000000	98.803714 
1191.000000	98.793126 
1190.000000	98.785284 
1189.000000	98.777129 
1188.000000	98.766780 
1187.000000	98.754625 
1186.000000	98.742207 
1185.000000	98.731076 
1184.000000	98.722075 
1183.000000	98.714466 
1182.000000	98.706126 
1181.000000	98.695683 
1180.000000	98.684047 
1179.000000	98.672738 
1178.000000	98.661351 
1177.000000	98.648343 
1176.000000	98.633927 
1175.000000	98.620045 
1174.000000	98.607019 
1173.000000	98.592376 
1172.000000	98.574343 
1171.000000	98.555026 
1170.000000	98.538397 
1169.000000	98.525761 
1168.000000	98.514833 
1167.000000	98.503205 
1166.000000	98.491479 
1165.000000	98.482720 
1164.000000	98.479772 
1163.000000	98.483537 
1162.000000	98.493086 
1161.000000	98.506393 
1160.000000	98.520611 
1159.000000	98.532064 
1158.000000	98.536792 
1157.000000	98.531837 
1156.000000	98.516645 
1155.000000	98.494111 
1154.000000	98.470370 
1153.000000	98.452161 
1152.000000	98.442489 
1151.000000	98.438235 
1150.000000	98.432772 
1149.000000	98.421683 
1148.000000	98.405606 
1147.000000	98.387676 
1146.000000	98.369577 
1145.000000	98.350905 
1144.000000	98.331192 
1143.000000	98.310983 
1142.000000	98.291246 
1141.000000	98.273106 
1140.000000	98.258041 
1139.000000	98.246867 
1138.000000	98.238049 
1137.000000	98.228046 
1136.000000	98.213963 
1135.000000	98.195561 
1134.000000	98.174619 
1133.000000	98.152835 
1132.000000	98.130651 
1131.000000	98.107955 
1130.000000	98.085752 
1129.000000	98.066478 
1128.000000	98.051375 
1127.000000	98.037316 
1126.000000	98.018328 
1125.000000	97.992163 
1124.000000	97.964090 
1123.000000	97.941717 
1122.000000	97.926364 
1121.000000	97.911950 
1120.000000	97.892523 
1119.000000	97.868285 
1118.000000	97.843504 
1117.000000	97.821034 
1116.000000	97.800594 
1115.000000	97.780708 
1114.000000	97.760276 
1113.000000	97.738831 
1112.000000	97.716630 
1111.000000	97.694214 
1110.000000	97.671152 
1109.000000	97.646057 
1108.000000	97.618704 
1107.000000	97.591535 
1106.000000	97.567785 
1105.000000	97.548063 
1104.000000	97.529573 
1103.000000	97.509000 
1102.000000	97.485947 
1101.000000	97.463573 
1100.000000	97.445621 
1099.000000	97.433092 
1098.000000	97.423878 
1097.000000	97.415485 
1096.000000	97.406785 
1095.000000	97.396344 
1094.000000	97.380656 
1093.000000	97.355829 
1092.000000	97.320774 
1091.000000	97.277923 
1090.000000	97.231614 
1089.000000	97.186594 
1088.000000	97.146559 
1087.000000	97.111881 
1086.000000	97.079197 
1085.000000	97.045190 
1084.000000	97.010262 
1083.000000	96.976764 
1082.000000	96.944735 
1081.000000	96.912083 
1080.000000	96.878251 
1079.000000	96.844711 
1078.000000	96.812273 
1077.000000	96.781296 
1076.000000	96.754686 
1075.000000	96.737187 
1074.000000	96.730642 
1073.000000	96.731934 
1072.000000	96.734493 
1071.000000	96.728218 
1070.000000	96.700028 
1069.000000	96.642450 
1068.000000	96.565417 
1067.000000	96.494975 
1066.000000	96.454566 
1065.000000	96.447468 
1064.000000	96.458538 
1063.000000	96.468671 
1062.000000	96.464136 
1061.000000	96.437323 
1060.000000	96.387671 
1059.000000	96.324843 
1058.000000	96.265996 
1057.000000	96.224624 
1056.000000	96.201284 
1055.000000	96.185781 
1054.000000	96.167643 
1053.000000	96.143986 
1052.000000	96.118403 
1051.000000	96.094426 
1050.000000	96.071653 
1049.000000	96.047701 
1048.000000	96.021828 
1047.000000	95.995990 
1046.000000	95.973663 
1045.000000	95.957641 
1044.000000	95.947080 
1043.000000	95.936427 
1042.000000	95.919906 
1041.000000	95.898372 
1040.000000	95.879749 
1039.000000	95.871749 
1038.000000	95.876310 
1037.000000	95.891500 
1036.000000	95.914739 
1035.000000	95.941949 
1034.000000	95.967559 
1033.000000	95.988414 
1032.000000	96.004201 
1031.000000	96.011858 
1030.000000	96.005665 
1029.000000	95.988501 
1028.000000	95.977921 
1027.000000	95.992068 
1026.000000	96.029759 
1025.000000	96.071360 
1024.000000	96.099310 
1023.000000	96.111670 
1022.000000	96.116324 
1021.000000	96.119879 
1020.000000	96.125049 
1019.000000	96.132820 
1018.000000	96.142487 
1017.000000	96.152023 
1016.000000	96.161097 
1015.000000	96.171862 
1014.000000	96.185420 
1013.000000	96.199756 
1012.000000	96.212318 
1011.000000	96.222655 
1010.000000	96.231951 
1009.000000	96.242221 
1008.000000	96.256307 
1007.000000	96.275957 
1006.000000	96.299111 
1005.000000	96.321475 
1004.000000	96.341463 
1003.000000	96.361477 
1002.000000	96.384044 
1001.000000	96.409022 
1000.000000	96.434850 
999.000000	 96.459966 
998.000000	 96.482615 
997.000000	 96.501969 
996.000000	 96.520280 
995.000000	 96.541609 
994.000000	 96.567396 
993.000000	 96.594980 
992.000000	 96.621015 
991.000000	 96.644473 
990.000000	 96.665981 
989.000000	 96.686418 
988.000000	 96.707096 
987.000000	 96.729688 
986.000000	 96.754974 
985.000000	 96.782573 
984.000000	 96.812026 
983.000000	 96.843013 
982.000000	 96.874567 
981.000000	 96.905528 
980.000000	 96.935965 
979.000000	 96.967344 
978.000000	 97.001556 
977.000000	 97.040214 
976.000000	 97.083329 
975.000000	 97.127283 
974.000000	 97.166170 
973.000000	 97.197927 
972.000000	 97.227997 
971.000000	 97.263948 
970.000000	 97.306890 
969.000000	 97.350873 
968.000000	 97.390315 
967.000000	 97.424943 
966.000000	 97.457424 
965.000000	 97.489346 
964.000000	 97.520629 
963.000000	 97.550590 
962.000000	 97.578366 
961.000000	 97.603739 
960.000000	 97.628124 
959.000000	 97.653203 
958.000000	 97.678234 
957.000000	 97.700470 
956.000000	 97.718862 
955.000000	 97.735692 
954.000000	 97.753812 
953.000000	 97.773674 
952.000000	 97.793829 
951.000000	 97.812878 
950.000000	 97.829862 
949.000000	 97.843709 
948.000000	 97.853434 
947.000000	 97.858770 
946.000000	 97.860389 
945.000000	 97.859921 
944.000000	 97.859800 
943.000000	 97.862407 
942.000000	 97.868986 
941.000000	 97.879320 
940.000000	 97.891706 
939.000000	 97.902740 
938.000000	 97.908771 
937.000000	 97.909573 
936.000000	 97.910009 
935.000000	 97.915928 
934.000000	 97.928282 
933.000000	 97.942865 
932.000000	 97.955572 
931.000000	 97.965672 
930.000000	 97.973731 
929.000000	 97.978852 
928.000000	 97.979454 
927.000000	 97.975701 
926.000000	 97.970169 
925.000000	 97.966678 
924.000000	 97.968486 
923.000000	 97.976111 
922.000000	 97.986164 
921.000000	 97.993479 
920.000000	 97.995083 
919.000000	 97.991580 
918.000000	 97.985107 
917.000000	 97.977569 
916.000000	 97.971007 
915.000000	 97.967490 
914.000000	 97.967227 
913.000000	 97.968013 
912.000000	 97.967899 
911.000000	 97.967793 
910.000000	 97.970722 
909.000000	 97.979191 
908.000000	 97.993790 
907.000000	 98.013254 
906.000000	 98.034810 
905.000000	 98.054991 
904.000000	 98.071257 
903.000000	 98.083528 
902.000000	 98.094631 
901.000000	 98.109099 
900.000000	 98.130079 
899.000000	 98.155979 
898.000000	 98.180508 
897.000000	 98.197626 
896.000000	 98.206537 
895.000000	 98.211127 
894.000000	 98.215419 
893.000000	 98.221358 
892.000000	 98.230767 
891.000000	 98.246788 
890.000000	 98.271602 
889.000000	 98.303156 
888.000000	 98.334982 
887.000000	 98.359640 
886.000000	 98.373702 
885.000000	 98.380625 
884.000000	 98.387767 
883.000000	 98.398784 
882.000000	 98.409473 
881.000000	 98.413398 
880.000000	 98.411397 
879.000000	 98.412377 
878.000000	 98.423544 
877.000000	 98.442543 
876.000000	 98.461035 
875.000000	 98.473495 
874.000000	 98.480258 
873.000000	 98.484132 
872.000000	 98.487265 
871.000000	 98.490927 
870.000000	 98.496032 
869.000000	 98.503789 
868.000000	 98.516615 
867.000000	 98.536604 
866.000000	 98.561079 
865.000000	 98.581809 
864.000000	 98.592426 
863.000000	 98.596300 
862.000000	 98.603194 
861.000000	 98.617329 
860.000000	 98.632610 
859.000000	 98.641437 
858.000000	 98.644465 
857.000000	 98.648417 
856.000000	 98.657238 
855.000000	 98.669718 
854.000000	 98.683974 
853.000000	 98.699096 
852.000000	 98.712346 
851.000000	 98.719725 
850.000000	 98.721202 
849.000000	 98.721753 
848.000000	 98.725122 
847.000000	 98.729414 
846.000000	 98.730733 
845.000000	 98.728420 
844.000000	 98.724479 
843.000000	 98.720559 
842.000000	 98.718198 
841.000000	 98.719478 
840.000000	 98.723917 
839.000000	 98.726402 
838.000000	 98.722176 
837.000000	 98.713133 
836.000000	 98.705319 
835.000000	 98.700372 
834.000000	 98.693644 
833.000000	 98.682106 
832.000000	 98.670376 
831.000000	 98.665889 
830.000000	 98.669795 
829.000000	 98.675660 
828.000000	 98.677218 
827.000000	 98.675165 
826.000000	 98.675264 
825.000000	 98.680735 
824.000000	 98.688337 
823.000000	 98.692802 
822.000000	 98.693614 
821.000000	 98.694615 
820.000000	 98.697240 
819.000000	 98.697965 
818.000000	 98.694141 
817.000000	 98.689206 
816.000000	 98.688476 
815.000000	 98.690687 
814.000000	 98.687653 
813.000000	 98.673279 
812.000000	 98.649497 
811.000000	 98.621081 
810.000000	 98.586942 
809.000000	 98.539970 
808.000000	 98.475704 
807.000000	 98.399058 
806.000000	 98.321200 
805.000000	 98.250548 
804.000000	 98.188403 
803.000000	 98.133143 
802.000000	 98.086137 
801.000000	 98.051506 
800.000000	 98.031022 
799.000000	 98.022213 
798.000000	 98.022456 
797.000000	 98.032122 
796.000000	 98.051010 
795.000000	 98.073899 
794.000000	 98.093736 
793.000000	 98.108657 
792.000000	 98.122012 
791.000000	 98.135762 
790.000000	 98.147836 
789.000000	 98.155884 
788.000000	 98.158898 
787.000000	 98.154212 
786.000000	 98.137630 
785.000000	 98.108804 
784.000000	 98.073337 
783.000000	 98.038172 
782.000000	 98.007907 
781.000000	 97.986094 
780.000000	 97.975156 
779.000000	 97.972458 
778.000000	 97.971106 
777.000000	 97.968622 
776.000000	 97.971542 
775.000000	 97.987698 
774.000000	 98.016610 
773.000000	 98.050798 
772.000000	 98.083576 
771.000000	 98.111997 
770.000000	 98.135298 
769.000000	 98.154593 
768.000000	 98.171965 
767.000000	 98.186812 
766.000000	 98.195854 
765.000000	 98.199796 
764.000000	 98.205969 
763.000000	 98.219330 
762.000000	 98.233500 
761.000000	 98.236788 
760.000000	 98.226682 
759.000000	 98.213681 
758.000000	 98.210533 
757.000000	 98.220499 
756.000000	 98.235244 
755.000000	 98.241269 
754.000000	 98.230457 
753.000000	 98.208582 
752.000000	 98.192738 
751.000000	 98.196851 
750.000000	 98.219409 
749.000000	 98.246901 
748.000000	 98.267147 
747.000000	 98.276836 
746.000000	 98.279865 
745.000000	 98.283307 
744.000000	 98.293208 
743.000000	 98.309562 
742.000000	 98.326181 
741.000000	 98.339060 
740.000000	 98.352609 
739.000000	 98.373045 
738.000000	 98.397538 
737.000000	 98.415135 
736.000000	 98.417678 
735.000000	 98.406117 
734.000000	 98.388361 
733.000000	 98.375653 
732.000000	 98.378461 
731.000000	 98.398636 
730.000000	 98.425163 
729.000000	 98.443636 
728.000000	 98.450611 
727.000000	 98.453439 
726.000000	 98.456899 
725.000000	 98.457415 
724.000000	 98.451213 
723.000000	 98.440917 
722.000000	 98.431702 
721.000000	 98.426809 
720.000000	 98.429186 
719.000000	 98.441402 
718.000000	 98.460458 
717.000000	 98.477251 
716.000000	 98.483910 
715.000000	 98.479026 
714.000000	 98.466049 
713.000000	 98.451609 
712.000000	 98.445985 
711.000000	 98.457698 
710.000000	 98.483035 
709.000000	 98.505493 
708.000000	 98.509991 
707.000000	 98.494962 
706.000000	 98.468097 
705.000000	 98.435892 
704.000000	 98.402567 
703.000000	 98.374442 
702.000000	 98.357526 
701.000000	 98.349741 
700.000000	 98.339795 
699.000000	 98.316417 
698.000000	 98.278561 
697.000000	 98.236738 
696.000000	 98.204067 
695.000000	 98.185553 
694.000000	 98.177872 
693.000000	 98.179276 
692.000000	 98.194126 
691.000000	 98.223668 
690.000000	 98.257341 
689.000000	 98.281907 
688.000000	 98.296923 
687.000000	 98.311181 
686.000000	 98.324779 
685.000000	 98.326831 
684.000000	 98.313378 
683.000000	 98.296615 
682.000000	 98.291801 
681.000000	 98.302226 
680.000000	 98.319323 
679.000000	 98.331216 
678.000000	 98.329122 
677.000000	 98.313820 
676.000000	 98.300635 
675.000000	 98.306784 
674.000000	 98.329775 
673.000000	 98.347085 
672.000000	 98.342977 
671.000000	 98.326929 
670.000000	 98.322626 
669.000000	 98.345414 
668.000000	 98.379999 
667.000000	 98.398139 
666.000000	 98.390451 
665.000000	 98.360965 
664.000000	 98.329870 
663.000000	 98.329735 
662.000000	 98.374629 
661.000000	 98.435484 
660.000000	 98.466467 
659.000000	 98.449998 
658.000000	 98.402748 
657.000000	 98.347936 
656.000000	 98.299333 
655.000000	 98.266175 
654.000000	 98.251806 
653.000000	 98.247255 
652.000000	 98.241871 
651.000000	 98.238111 
650.000000	 98.244816 

