4000.000000	99.285220 
3999.000000	99.284650 
3998.000000	99.284178 
3997.000000	99.284205 
3996.000000	99.284640 
3995.000000	99.285002 
3994.000000	99.285022 
3993.000000	99.284934 
3992.000000	99.285108 
3991.000000	99.285527 
3990.000000	99.285758 
3989.000000	99.285396 
3988.000000	99.284400 
3987.000000	99.283095 
3986.000000	99.281943 
3985.000000	99.281318 
3984.000000	99.281358 
3983.000000	99.281989 
3982.000000	99.283053 
3981.000000	99.284374 
3980.000000	99.285666 
3979.000000	99.286529 
3978.000000	99.286678 
3977.000000	99.286170 
3976.000000	99.285340 
3975.000000	99.284484 
3974.000000	99.283649 
3973.000000	99.282794 
3972.000000	99.282050 
3971.000000	99.281710 
3970.000000	99.281989 
3969.000000	99.282827 
3968.000000	99.283852 
3967.000000	99.284556 
3966.000000	99.284600 
3965.000000	99.284015 
3964.000000	99.283143 
3963.000000	99.282380 
3962.000000	99.281924 
3961.000000	99.281714 
3960.000000	99.281525 
3959.000000	99.281128 
3958.000000	99.280495 
3957.000000	99.279881 
3956.000000	99.279574 
3955.000000	99.279573 
3954.000000	99.279563 
3953.000000	99.279255 
3952.000000	99.278645 
3951.000000	99.277951 
3950.000000	99.277369 
3949.000000	99.276890 
3948.000000	99.276379 
3947.000000	99.275829 
3946.000000	99.275452 
3945.000000	99.275390 
3944.000000	99.275458 
3943.000000	99.275265 
3942.000000	99.274672 
3941.000000	99.273968 
3940.000000	99.273517 
3939.000000	99.273297 
3938.000000	99.273006 
3937.000000	99.272463 
3936.000000	99.271771 
3935.000000	99.271151 
3934.000000	99.270728 
3933.000000	99.270540 
3932.000000	99.270530 
3931.000000	99.270562 
3930.000000	99.270452 
3929.000000	99.270104 
3928.000000	99.269560 
3927.000000	99.268954 
3926.000000	99.268354 
3925.000000	99.267780 
3924.000000	99.267257 
3923.000000	99.266785 
3922.000000	99.266337 
3921.000000	99.265896 
3920.000000	99.265460 
3919.000000	99.265032 
3918.000000	99.264619 
3917.000000	99.264217 
3916.000000	99.263821 
3915.000000	99.263422 
3914.000000	99.263017 
3913.000000	99.262603 
3912.000000	99.262176 
3911.000000	99.261729 
3910.000000	99.261260 
3909.000000	99.260775 
3908.000000	99.260285 
3907.000000	99.259803 
3906.000000	99.259331 
3905.000000	99.258870 
3904.000000	99.258417 
3903.000000	99.257975 
3902.000000	99.257545 
3901.000000	99.257124 
3900.000000	99.256699 
3899.000000	99.256250 
3898.000000	99.255765 
3897.000000	99.255246 
3896.000000	99.254705 
3895.000000	99.254154 
3894.000000	99.253595 
3893.000000	99.253032 
3892.000000	99.252468 
3891.000000	99.251903 
3890.000000	99.251338 
3889.000000	99.250782 
3888.000000	99.250244 
3887.000000	99.249718 
3886.000000	99.249195 
3885.000000	99.248670 
3884.000000	99.248147 
3883.000000	99.247634 
3882.000000	99.247132 
3881.000000	99.246633 
3880.000000	99.246132 
3879.000000	99.245630 
3878.000000	99.245133 
3877.000000	99.244643 
3876.000000	99.244153 
3875.000000	99.243661 
3874.000000	99.243170 
3873.000000	99.242694 
3872.000000	99.242248 
3871.000000	99.241833 
3870.000000	99.241446 
3869.000000	99.241082 
3868.000000	99.240749 
3867.000000	99.240483 
3866.000000	99.240283 
3865.000000	99.240086 
3864.000000	99.239860 
3863.000000	99.239631 
3862.000000	99.239404 
3861.000000	99.239114 
3860.000000	99.238713 
3859.000000	99.238201 
3858.000000	99.237589 
3857.000000	99.236963 
3856.000000	99.236552 
3855.000000	99.236565 
3854.000000	99.236871 
3853.000000	99.236988 
3852.000000	99.236986 
3851.000000	99.237255 
3850.000000	99.237696 
3849.000000	99.238026 
3848.000000	99.238203 
3847.000000	99.238300 
3846.000000	99.238370 
3845.000000	99.238427 
3844.000000	99.238478 
3843.000000	99.238530 
3842.000000	99.238591 
3841.000000	99.238666 
3840.000000	99.238756 
3839.000000	99.238858 
3838.000000	99.238965 
3837.000000	99.239079 
3836.000000	99.239202 
3835.000000	99.239339 
3834.000000	99.239495 
3833.000000	99.239673 
3832.000000	99.239869 
3831.000000	99.240076 
3830.000000	99.240286 
3829.000000	99.240493 
3828.000000	99.240695 
3827.000000	99.240892 
3826.000000	99.241084 
3825.000000	99.241277 
3824.000000	99.241485 
3823.000000	99.241722 
3822.000000	99.241988 
3821.000000	99.242272 
3820.000000	99.242575 
3819.000000	99.242912 
3818.000000	99.243294 
3817.000000	99.243706 
3816.000000	99.244122 
3815.000000	99.244527 
3814.000000	99.244912 
3813.000000	99.245269 
3812.000000	99.245585 
3811.000000	99.245855 
3810.000000	99.246093 
3809.000000	99.246312 
3808.000000	99.246518 
3807.000000	99.246714 
3806.000000	99.246854 
3805.000000	99.246945 
3804.000000	99.247115 
3803.000000	99.247426 
3802.000000	99.247749 
3801.000000	99.247782 
3800.000000	99.247598 
3799.000000	99.247868 
3798.000000	99.248743 
3797.000000	99.249624 
3796.000000	99.250155 
3795.000000	99.250607 
3794.000000	99.251481 
3793.000000	99.252815 
3792.000000	99.254148 
3791.000000	99.255115 
3790.000000	99.255665 
3789.000000	99.255845 
3788.000000	99.255921 
3787.000000	99.256407 
3786.000000	99.257565 
3785.000000	99.258767 
3784.000000	99.259183 
3783.000000	99.258926 
3782.000000	99.258834 
3781.000000	99.259098 
3780.000000	99.258943 
3779.000000	99.257658 
3778.000000	99.255858 
3777.000000	99.255049 
3776.000000	99.255224 
3775.000000	99.254835 
3774.000000	99.253265 
3773.000000	99.251703 
3772.000000	99.251247 
3771.000000	99.251142 
3770.000000	99.249714 
3769.000000	99.247206 
3768.000000	99.246062 
3767.000000	99.247391 
3766.000000	99.249203 
3765.000000	99.249353 
3764.000000	99.248385 
3763.000000	99.248432 
3762.000000	99.249778 
3761.000000	99.250573 
3760.000000	99.249823 
3759.000000	99.248126 
3758.000000	99.246009 
3757.000000	99.243326 
3756.000000	99.240049 
3755.000000	99.236718 
3754.000000	99.233490 
3753.000000	99.230596 
3752.000000	99.228854 
3751.000000	99.227660 
3750.000000	99.224296 
3749.000000	99.218493 
3748.000000	99.214155 
3747.000000	99.214149 
3746.000000	99.217774 
3745.000000	99.221708 
3744.000000	99.221047 
3743.000000	99.218253 
3742.000000	99.221530 
3741.000000	99.227861 
3740.000000	99.228780 
3739.000000	99.224616 
3738.000000	99.220655 
3737.000000	99.219691 
3736.000000	99.220485 
3735.000000	99.221917 
3734.000000	99.224670 
3733.000000	99.228123 
3732.000000	99.229760 
3731.000000	99.229498 
3730.000000	99.230313 
3729.000000	99.233202 
3728.000000	99.235825 
3727.000000	99.236389 
3726.000000	99.235940 
3725.000000	99.236886 
3724.000000	99.239671 
3723.000000	99.241791 
3722.000000	99.241454 
3721.000000	99.239743 
3720.000000	99.238863 
3719.000000	99.239126 
3718.000000	99.238429 
3717.000000	99.234843 
3716.000000	99.228647 
3715.000000	99.221573 
3714.000000	99.214688 
3713.000000	99.208560 
3712.000000	99.203571 
3711.000000	99.199862 
3710.000000	99.198337 
3709.000000	99.199534 
3708.000000	99.201542 
3707.000000	99.201740 
3706.000000	99.199509 
3705.000000	99.196449 
3704.000000	99.194425 
3703.000000	99.193936 
3702.000000	99.193602 
3701.000000	99.191664 
3700.000000	99.188531 
3699.000000	99.185817 
3698.000000	99.183328 
3697.000000	99.179567 
3696.000000	99.174538 
3695.000000	99.169816 
3694.000000	99.166065 
3693.000000	99.162354 
3692.000000	99.158547 
3691.000000	99.156043 
3690.000000	99.155224 
3689.000000	99.153952 
3688.000000	99.150935 
3687.000000	99.148787 
3686.000000	99.149714 
3685.000000	99.151568 
3684.000000	99.151167 
3683.000000	99.148342 
3682.000000	99.144811 
3681.000000	99.141151 
3680.000000	99.136105 
3679.000000	99.129343 
3678.000000	99.122968 
3677.000000	99.119212 
3676.000000	99.117220 
3675.000000	99.113714 
3674.000000	99.110304 
3673.000000	99.111260 
3672.000000	99.114987 
3671.000000	99.117794 
3670.000000	99.118416 
3669.000000	99.117040 
3668.000000	99.115587 
3667.000000	99.115136 
3666.000000	99.114614 
3665.000000	99.113554 
3664.000000	99.112588 
3663.000000	99.112073 
3662.000000	99.111566 
3661.000000	99.110524 
3660.000000	99.109104 
3659.000000	99.108097 
3658.000000	99.107941 
3657.000000	99.108012 
3656.000000	99.107218 
3655.000000	99.105675 
3654.000000	99.104612 
3653.000000	99.104415 
3652.000000	99.104628 
3651.000000	99.104984 
3650.000000	99.105176 
3649.000000	99.104701 
3648.000000	99.103761 
3647.000000	99.103168 
3646.000000	99.103324 
3645.000000	99.104033 
3644.000000	99.104863 
3643.000000	99.105508 
3642.000000	99.105928 
3641.000000	99.106266 
3640.000000	99.106648 
3639.000000	99.107084 
3638.000000	99.107526 
3637.000000	99.107970 
3636.000000	99.108406 
3635.000000	99.108782 
3634.000000	99.109099 
3633.000000	99.109438 
3632.000000	99.109876 
3631.000000	99.110419 
3630.000000	99.111060 
3629.000000	99.111752 
3628.000000	99.112388 
3627.000000	99.112999 
3626.000000	99.113725 
3625.000000	99.114532 
3624.000000	99.115294 
3623.000000	99.115985 
3622.000000	99.116680 
3621.000000	99.117464 
3620.000000	99.118354 
3619.000000	99.119276 
3618.000000	99.120204 
3617.000000	99.121289 
3616.000000	99.122623 
3615.000000	99.124027 
3614.000000	99.125177 
3613.000000	99.125868 
3612.000000	99.126206 
3611.000000	99.126593 
3610.000000	99.127404 
3609.000000	99.128741 
3608.000000	99.130405 
3607.000000	99.132071 
3606.000000	99.133566 
3605.000000	99.134868 
3604.000000	99.136041 
3603.000000	99.137275 
3602.000000	99.138672 
3601.000000	99.140060 
3600.000000	99.141278 
3599.000000	99.142491 
3598.000000	99.143881 
3597.000000	99.145303 
3596.000000	99.146498 
3595.000000	99.147243 
3594.000000	99.147484 
3593.000000	99.147582 
3592.000000	99.148249 
3591.000000	99.149876 
3590.000000	99.152227 
3589.000000	99.154409 
3588.000000	99.155162 
3587.000000	99.154063 
3586.000000	99.152653 
3585.000000	99.152878 
3584.000000	99.154654 
3583.000000	99.156476 
3582.000000	99.157298 
3581.000000	99.156962 
3580.000000	99.155786 
3579.000000	99.154220 
3578.000000	99.152717 
3577.000000	99.151679 
3576.000000	99.151459 
3575.000000	99.152090 
3574.000000	99.153096 
3573.000000	99.153681 
3572.000000	99.153297 
3571.000000	99.152004 
3570.000000	99.150384 
3569.000000	99.149106 
3568.000000	99.148516 
3567.000000	99.148630 
3566.000000	99.149545 
3565.000000	99.151423 
3564.000000	99.153674 
3563.000000	99.155201 
3562.000000	99.155597 
3561.000000	99.155312 
3560.000000	99.154941 
3559.000000	99.154676 
3558.000000	99.154371 
3557.000000	99.153925 
3556.000000	99.153513 
3555.000000	99.153450 
3554.000000	99.153813 
3553.000000	99.154262 
3552.000000	99.154309 
3551.000000	99.153776 
3550.000000	99.152864 
3549.000000	99.151954 
3548.000000	99.151424 
3547.000000	99.151509 
3546.000000	99.152119 
3545.000000	99.152852 
3544.000000	99.153312 
3543.000000	99.153392 
3542.000000	99.153241 
3541.000000	99.153085 
3540.000000	99.153084 
3539.000000	99.153280 
3538.000000	99.153593 
3537.000000	99.153878 
3536.000000	99.154017 
3535.000000	99.154007 
3534.000000	99.153918 
3533.000000	99.153826 
3532.000000	99.153781 
3531.000000	99.153812 
3530.000000	99.153914 
3529.000000	99.154049 
3528.000000	99.154184 
3527.000000	99.154313 
3526.000000	99.154431 
3525.000000	99.154522 
3524.000000	99.154580 
3523.000000	99.154610 
3522.000000	99.154619 
3521.000000	99.154610 
3520.000000	99.154588 
3519.000000	99.154559 
3518.000000	99.154524 
3517.000000	99.154487 
3516.000000	99.154448 
3515.000000	99.154405 
3514.000000	99.154357 
3513.000000	99.154303 
3512.000000	99.154243 
3511.000000	99.154174 
3510.000000	99.154094 
3509.000000	99.154003 
3508.000000	99.153899 
3507.000000	99.153782 
3506.000000	99.153647 
3505.000000	99.153492 
3504.000000	99.153315 
3503.000000	99.153123 
3502.000000	99.152927 
3501.000000	99.152736 
3500.000000	99.152553 
3499.000000	99.152368 
3498.000000	99.152166 
3497.000000	99.151940 
3496.000000	99.151695 
3495.000000	99.151441 
3494.000000	99.151185 
3493.000000	99.150929 
3492.000000	99.150668 
3491.000000	99.150399 
3490.000000	99.150120 
3489.000000	99.149837 
3488.000000	99.149550 
3487.000000	99.149258 
3486.000000	99.148956 
3485.000000	99.148643 
3484.000000	99.148317 
3483.000000	99.147977 
3482.000000	99.147625 
3481.000000	99.147263 
3480.000000	99.146896 
3479.000000	99.146527 
3478.000000	99.146159 
3477.000000	99.145791 
3476.000000	99.145421 
3475.000000	99.145046 
3474.000000	99.144665 
3473.000000	99.144283 
3472.000000	99.143904 
3471.000000	99.143526 
3470.000000	99.143146 
3469.000000	99.142759 
3468.000000	99.142362 
3467.000000	99.141958 
3466.000000	99.141548 
3465.000000	99.141137 
3464.000000	99.140727 
3463.000000	99.140317 
3462.000000	99.139906 
3461.000000	99.139490 
3460.000000	99.139064 
3459.000000	99.138627 
3458.000000	99.138178 
3457.000000	99.137724 
3456.000000	99.137267 
3455.000000	99.136812 
3454.000000	99.136355 
3453.000000	99.135894 
3452.000000	99.135427 
3451.000000	99.134953 
3450.000000	99.134475 
3449.000000	99.133995 
3448.000000	99.133514 
3447.000000	99.133028 
3446.000000	99.132535 
3445.000000	99.132032 
3444.000000	99.131526 
3443.000000	99.131028 
3442.000000	99.130534 
3441.000000	99.130032 
3440.000000	99.129520 
3439.000000	99.129012 
3438.000000	99.128527 
3437.000000	99.128061 
3436.000000	99.127592 
3435.000000	99.127114 
3434.000000	99.126657 
3433.000000	99.126267 
3432.000000	99.125953 
3431.000000	99.125664 
3430.000000	99.125312 
3429.000000	99.124828 
3428.000000	99.124208 
3427.000000	99.123534 
3426.000000	99.122930 
3425.000000	99.122483 
3424.000000	99.122209 
3423.000000	99.122055 
3422.000000	99.121904 
3421.000000	99.121619 
3420.000000	99.121118 
3419.000000	99.120472 
3418.000000	99.119915 
3417.000000	99.119642 
3416.000000	99.119607 
3415.000000	99.119529 
3414.000000	99.119168 
3413.000000	99.118577 
3412.000000	99.118056 
3411.000000	99.117844 
3410.000000	99.117940 
3409.000000	99.118183 
3408.000000	99.118421 
3407.000000	99.118542 
3406.000000	99.118444 
3405.000000	99.118098 
3404.000000	99.117660 
3403.000000	99.117407 
3402.000000	99.117519 
3401.000000	99.117948 
3400.000000	99.118480 
3399.000000	99.118905 
3398.000000	99.119134 
3397.000000	99.119224 
3396.000000	99.119273 
3395.000000	99.119287 
3394.000000	99.119170 
3393.000000	99.118904 
3392.000000	99.118656 
3391.000000	99.118603 
3390.000000	99.118704 
3389.000000	99.118759 
3388.000000	99.118674 
3387.000000	99.118568 
3386.000000	99.118609 
3385.000000	99.118830 
3384.000000	99.119128 
3383.000000	99.119377 
3382.000000	99.119505 
3381.000000	99.119494 
3380.000000	99.119362 
3379.000000	99.119164 
3378.000000	99.118991 
3377.000000	99.118956 
3376.000000	99.119137 
3375.000000	99.119514 
3374.000000	99.119962 
3373.000000	99.120322 
3372.000000	99.120521 
3371.000000	99.120584 
3370.000000	99.120590 
3369.000000	99.120614 
3368.000000	99.120705 
3367.000000	99.120871 
3366.000000	99.121074 
3365.000000	99.121249 
3364.000000	99.121370 
3363.000000	99.121489 
3362.000000	99.121687 
3361.000000	99.121977 
3360.000000	99.122294 
3359.000000	99.122568 
3358.000000	99.122798 
3357.000000	99.123035 
3356.000000	99.123307 
3355.000000	99.123584 
3354.000000	99.123814 
3353.000000	99.123986 
3352.000000	99.124135 
3351.000000	99.124324 
3350.000000	99.124594 
3349.000000	99.124948 
3348.000000	99.125362 
3347.000000	99.125787 
3346.000000	99.126170 
3345.000000	99.126477 
3344.000000	99.126715 
3343.000000	99.126923 
3342.000000	99.127132 
3341.000000	99.127334 
3340.000000	99.127511 
3339.000000	99.127685 
3338.000000	99.127894 
3337.000000	99.128134 
3336.000000	99.128356 
3335.000000	99.128548 
3334.000000	99.128784 
3333.000000	99.129163 
3332.000000	99.129696 
3331.000000	99.130281 
3330.000000	99.130765 
3329.000000	99.131071 
3328.000000	99.131265 
3327.000000	99.131506 
3326.000000	99.131879 
3325.000000	99.132314 
3324.000000	99.132711 
3323.000000	99.133110 
3322.000000	99.133631 
3321.000000	99.134225 
3320.000000	99.134606 
3319.000000	99.134532 
3318.000000	99.134118 
3317.000000	99.133804 
3316.000000	99.133945 
3315.000000	99.134517 
3314.000000	99.135202 
3313.000000	99.135733 
3312.000000	99.136135 
3311.000000	99.136632 
3310.000000	99.137361 
3309.000000	99.138209 
3308.000000	99.138919 
3307.000000	99.139334 
3306.000000	99.139451 
3305.000000	99.139223 
3304.000000	99.138470 
3303.000000	99.137159 
3302.000000	99.135757 
3301.000000	99.135074 
3300.000000	99.135609 
3299.000000	99.137150 
3298.000000	99.138939 
3297.000000	99.140294 
3296.000000	99.141039 
3295.000000	99.141418 
3294.000000	99.141807 
3293.000000	99.142478 
3292.000000	99.143484 
3291.000000	99.144651 
3290.000000	99.145692 
3289.000000	99.146361 
3288.000000	99.146549 
3287.000000	99.146306 
3286.000000	99.145830 
3285.000000	99.145367 
3284.000000	99.145070 
3283.000000	99.144936 
3282.000000	99.144884 
3281.000000	99.144821 
3280.000000	99.144656 
3279.000000	99.144327 
3278.000000	99.143923 
3277.000000	99.143728 
3276.000000	99.143984 
3275.000000	99.144655 
3274.000000	99.145489 
3273.000000	99.146215 
3272.000000	99.146618 
3271.000000	99.146517 
3270.000000	99.145901 
3269.000000	99.145124 
3268.000000	99.144802 
3267.000000	99.145338 
3266.000000	99.146620 
3265.000000	99.148158 
3264.000000	99.149471 
3263.000000	99.150350 
3262.000000	99.150837 
3261.000000	99.151089 
3260.000000	99.151250 
3259.000000	99.151353 
3258.000000	99.151335 
3257.000000	99.151156 
3256.000000	99.150865 
3255.000000	99.150585 
3254.000000	99.150483 
3253.000000	99.150709 
3252.000000	99.151285 
3251.000000	99.152035 
3250.000000	99.152681 
3249.000000	99.153079 
3248.000000	99.153313 
3247.000000	99.153547 
3246.000000	99.153833 
3245.000000	99.154101 
3244.000000	99.154309 
3243.000000	99.154550 
3242.000000	99.154992 
3241.000000	99.155724 
3240.000000	99.156664 
3239.000000	99.157551 
3238.000000	99.158119 
3237.000000	99.158292 
3236.000000	99.158247 
3235.000000	99.158299 
3234.000000	99.158635 
3233.000000	99.159247 
3232.000000	99.160053 
3231.000000	99.161002 
3230.000000	99.162031 
3229.000000	99.162967 
3228.000000	99.163568 
3227.000000	99.163689 
3226.000000	99.163389 
3225.000000	99.162921 
3224.000000	99.162634 
3223.000000	99.162756 
3222.000000	99.163241 
3221.000000	99.163843 
3220.000000	99.164380 
3219.000000	99.164870 
3218.000000	99.165385 
3217.000000	99.165896 
3216.000000	99.166360 
3215.000000	99.166881 
3214.000000	99.167623 
3213.000000	99.168540 
3212.000000	99.169343 
3211.000000	99.169814 
3210.000000	99.170072 
3209.000000	99.170425 
3208.000000	99.171030 
3207.000000	99.171789 
3206.000000	99.172584 
3205.000000	99.173478 
3204.000000	99.174608 
3203.000000	99.175904 
3202.000000	99.177088 
3201.000000	99.178001 
3200.000000	99.178793 
3199.000000	99.179631 
3198.000000	99.180324 
3197.000000	99.180498 
3196.000000	99.180145 
3195.000000	99.179739 
3194.000000	99.179656 
3193.000000	99.179673 
3192.000000	99.179383 
3191.000000	99.178932 
3190.000000	99.178996 
3189.000000	99.180008 
3188.000000	99.181676 
3187.000000	99.183252 
3186.000000	99.184184 
3185.000000	99.184435 
3184.000000	99.184337 
3183.000000	99.184330 
3182.000000	99.184700 
3181.000000	99.185405 
3180.000000	99.186092 
3179.000000	99.186405 
3178.000000	99.186311 
3177.000000	99.186086 
3176.000000	99.186022 
3175.000000	99.186244 
3174.000000	99.186816 
3173.000000	99.187847 
3172.000000	99.189314 
3171.000000	99.190859 
3170.000000	99.191953 
3169.000000	99.192371 
3168.000000	99.192399 
3167.000000	99.192568 
3166.000000	99.193151 
3165.000000	99.193994 
3164.000000	99.194803 
3163.000000	99.195474 
3162.000000	99.196105 
3161.000000	99.196751 
3160.000000	99.197310 
3159.000000	99.197661 
3158.000000	99.197820 
3157.000000	99.197925 
3156.000000	99.198090 
3155.000000	99.198320 
3154.000000	99.198573 
3153.000000	99.198849 
3152.000000	99.199214 
3151.000000	99.199710 
3150.000000	99.200233 
3149.000000	99.200594 
3148.000000	99.200740 
3147.000000	99.200865 
3146.000000	99.201209 
3145.000000	99.201756 
3144.000000	99.202243 
3143.000000	99.202486 
3142.000000	99.202604 
3141.000000	99.202849 
3140.000000	99.203285 
3139.000000	99.203733 
3138.000000	99.204007 
3137.000000	99.204139 
3136.000000	99.204325 
3135.000000	99.204687 
3134.000000	99.205146 
3133.000000	99.205521 
3132.000000	99.205706 
3131.000000	99.205728 
3130.000000	99.205683 
3129.000000	99.205650 
3128.000000	99.205664 
3127.000000	99.205762 
3126.000000	99.205999 
3125.000000	99.206395 
3124.000000	99.206898 
3123.000000	99.207404 
3122.000000	99.207822 
3121.000000	99.208127 
3120.000000	99.208384 
3119.000000	99.208705 
3118.000000	99.209132 
3117.000000	99.209551 
3116.000000	99.209770 
3115.000000	99.209730 
3114.000000	99.209593 
3113.000000	99.209595 
3112.000000	99.209812 
3111.000000	99.210177 
3110.000000	99.210654 
3109.000000	99.211245 
3108.000000	99.211832 
3107.000000	99.212197 
3106.000000	99.212273 
3105.000000	99.212291 
3104.000000	99.212574 
3103.000000	99.213230 
3102.000000	99.214121 
3101.000000	99.215017 
3100.000000	99.215747 
3099.000000	99.216209 
3098.000000	99.216369 
3097.000000	99.216307 
3096.000000	99.216219 
3095.000000	99.216300 
3094.000000	99.216635 
3093.000000	99.217190 
3092.000000	99.217844 
3091.000000	99.218419 
3090.000000	99.218729 
3089.000000	99.218728 
3088.000000	99.218644 
3087.000000	99.218876 
3086.000000	99.219638 
3085.000000	99.220712 
3084.000000	99.221637 
3083.000000	99.222153 
3082.000000	99.222385 
3081.000000	99.222610 
3080.000000	99.222906 
3079.000000	99.223101 
3078.000000	99.222976 
3077.000000	99.222430 
3076.000000	99.221515 
3075.000000	99.220460 
3074.000000	99.219660 
3073.000000	99.219475 
3072.000000	99.220029 
3071.000000	99.221238 
3070.000000	99.222905 
3069.000000	99.224471 
3068.000000	99.224796 
3067.000000	99.222803 
3066.000000	99.218796 
3065.000000	99.214866 
3064.000000	99.213237 
3063.000000	99.214099 
3062.000000	99.215499 
3061.000000	99.215563 
3060.000000	99.214562 
3059.000000	99.214458 
3058.000000	99.216638 
3057.000000	99.220494 
3056.000000	99.224187 
3055.000000	99.226463 
3054.000000	99.227421 
3053.000000	99.227659 
3052.000000	99.227192 
3051.000000	99.225481 
3050.000000	99.222364 
3049.000000	99.218533 
3048.000000	99.214931 
3047.000000	99.211942 
3046.000000	99.209457 
3045.000000	99.207483 
3044.000000	99.206220 
3043.000000	99.205586 
3042.000000	99.205153 
3041.000000	99.204718 
3040.000000	99.204607 
3039.000000	99.205162 
3038.000000	99.206124 
3037.000000	99.206703 
3036.000000	99.206174 
3035.000000	99.204314 
3034.000000	99.201419 
3033.000000	99.197983 
3032.000000	99.194225 
3031.000000	99.189992 
3030.000000	99.185049 
3029.000000	99.179307 
3028.000000	99.172788 
3027.000000	99.165693 
3026.000000	99.158690 
3025.000000	99.152761 
3024.000000	99.148209 
3023.000000	99.143923 
3022.000000	99.138232 
3021.000000	99.130664 
3020.000000	99.122533 
3019.000000	99.115630 
3018.000000	99.110664 
3017.000000	99.107032 
3016.000000	99.103546 
3015.000000	99.099064 
3014.000000	99.092891 
3013.000000	99.085044 
3012.000000	99.075986 
3011.000000	99.065915 
3010.000000	99.054781 
3009.000000	99.043293 
3008.000000	99.033360 
3007.000000	99.026819 
3006.000000	99.023758 
3005.000000	99.022306 
3004.000000	99.019771 
3003.000000	99.013857 
3002.000000	99.003633 
3001.000000	98.990462 
3000.000000	98.977777 
2999.000000	98.968655 
2998.000000	98.963286 
2997.000000	98.959529 
2996.000000	98.955883 
2995.000000	98.952655 
2994.000000	98.949602 
2993.000000	98.943928 
2992.000000	98.932506 
2991.000000	98.916069 
2990.000000	98.899804 
2989.000000	98.889024 
2988.000000	98.884946 
2987.000000	98.885003 
2986.000000	98.886429 
2985.000000	98.888799 
2984.000000	98.892970 
2983.000000	98.898509 
2982.000000	98.903207 
2981.000000	98.905208 
2980.000000	98.905014 
2979.000000	98.904757 
2978.000000	98.905706 
2977.000000	98.907151 
2976.000000	98.907731 
2975.000000	98.907149 
2974.000000	98.906139 
2973.000000	98.905299 
2972.000000	98.904680 
2971.000000	98.904400 
2970.000000	98.905090 
2969.000000	98.907545 
2968.000000	98.912212 
2967.000000	98.918967 
2966.000000	98.927086 
2965.000000	98.935495 
2964.000000	98.943397 
2963.000000	98.950707 
2962.000000	98.957594 
2961.000000	98.963659 
2960.000000	98.968067 
2959.000000	98.970708 
2958.000000	98.972837 
2957.000000	98.976061 
2956.000000	98.980577 
2955.000000	98.984673 
2954.000000	98.986339 
2953.000000	98.985779 
2952.000000	98.986190 
2951.000000	98.991286 
2950.000000	99.001376 
2949.000000	99.012245 
2948.000000	99.018866 
2947.000000	99.020157 
2946.000000	99.019386 
2945.000000	99.020232 
2944.000000	99.023319 
2943.000000	99.026985 
2942.000000	99.029986 
2941.000000	99.032146 
2940.000000	99.033199 
2939.000000	99.032705 
2938.000000	99.031250 
2937.000000	99.030396 
2936.000000	99.031093 
2935.000000	99.033027 
2934.000000	99.035717 
2933.000000	99.039182 
2932.000000	99.043070 
2931.000000	99.046090 
2930.000000	99.047110 
2929.000000	99.046331 
2928.000000	99.044805 
2927.000000	99.043283 
2926.000000	99.042057 
2925.000000	99.041350 
2924.000000	99.041057 
2923.000000	99.040501 
2922.000000	99.039203 
2921.000000	99.037618 
2920.000000	99.036390 
2919.000000	99.035119 
2918.000000	99.032707 
2917.000000	99.028866 
2916.000000	99.024580 
2915.000000	99.021091 
2914.000000	99.019031 
2913.000000	99.018413 
2912.000000	99.018621 
2911.000000	99.018292 
2910.000000	99.016042 
2909.000000	99.011808 
2908.000000	99.007045 
2907.000000	99.003239 
2906.000000	99.000553 
2905.000000	98.998043 
2904.000000	98.994636 
2903.000000	98.989900 
2902.000000	98.984645 
2901.000000	98.981230 
2900.000000	98.982408 
2899.000000	98.988934 
2898.000000	98.998184 
2897.000000	99.005829 
2896.000000	99.009516 
2895.000000	99.010630 
2894.000000	99.012362 
2893.000000	99.016349 
2892.000000	99.021348 
2891.000000	99.024784 
2890.000000	99.025237 
2889.000000	99.023439 
2888.000000	99.021243 
2887.000000	99.020105 
2886.000000	99.020611 
2885.000000	99.022900 
2884.000000	99.026906 
2883.000000	99.032135 
2882.000000	99.037787 
2881.000000	99.043445 
2880.000000	99.049481 
2879.000000	99.056585 
2878.000000	99.064972 
2877.000000	99.074006 
2876.000000	99.082260 
2875.000000	99.087967 
2874.000000	99.089981 
2873.000000	99.088915 
2872.000000	99.087253 
2871.000000	99.087798 
2870.000000	99.091668 
2869.000000	99.097790 
2868.000000	99.104248 
2867.000000	99.110151 
2866.000000	99.116342 
2865.000000	99.124378 
2864.000000	99.134651 
2863.000000	99.145403 
2862.000000	99.153869 
2861.000000	99.158698 
2860.000000	99.161170 
2859.000000	99.163943 
2858.000000	99.168551 
2857.000000	99.174264 
2856.000000	99.179257 
2855.000000	99.182570 
2854.000000	99.184787 
2853.000000	99.187059 
2852.000000	99.189717 
2851.000000	99.192074 
2850.000000	99.193681 
2849.000000	99.195336 
2848.000000	99.198371 
2847.000000	99.202953 
2846.000000	99.207559 
2845.000000	99.210363 
2844.000000	99.210910 
2843.000000	99.210373 
2842.000000	99.210531 
2841.000000	99.212486 
2840.000000	99.215940 
2839.000000	99.219358 
2838.000000	99.221079 
2837.000000	99.220586 
2836.000000	99.218771 
2835.000000	99.217072 
2834.000000	99.216609 
2833.000000	99.218032 
2832.000000	99.221440 
2831.000000	99.226004 
2830.000000	99.230253 
2829.000000	99.233376 
2828.000000	99.235901 
2827.000000	99.238580 
2826.000000	99.240957 
2825.000000	99.241749 
2824.000000	99.240525 
2823.000000	99.238377 
2822.000000	99.236940 
2821.000000	99.237171 
2820.000000	99.239060 
2819.000000	99.241916 
2818.000000	99.244709 
2817.000000	99.246624 
2816.000000	99.247531 
2815.000000	99.247810 
2814.000000	99.247818 
2813.000000	99.247738 
2812.000000	99.247829 
2811.000000	99.248321 
2810.000000	99.249001 
2809.000000	99.249291 
2808.000000	99.248942 
2807.000000	99.248376 
2806.000000	99.248247 
2805.000000	99.248818 
2804.000000	99.249877 
2803.000000	99.251045 
2802.000000	99.252006 
2801.000000	99.252602 
2800.000000	99.252860 
2799.000000	99.252938 
2798.000000	99.252980 
2797.000000	99.253047 
2796.000000	99.253174 
2795.000000	99.253378 
2794.000000	99.253594 
2793.000000	99.253718 
2792.000000	99.253762 
2791.000000	99.253837 
2790.000000	99.254022 
2789.000000	99.254459 
2788.000000	99.255427 
2787.000000	99.257009 
2786.000000	99.258692 
2785.000000	99.259734 
2784.000000	99.260025 
2783.000000	99.260174 
2782.000000	99.260584 
2781.000000	99.260840 
2780.000000	99.260440 
2779.000000	99.259734 
2778.000000	99.259582 
2777.000000	99.260212 
2776.000000	99.261011 
2775.000000	99.261398 
2774.000000	99.261346 
2773.000000	99.261037 
2772.000000	99.260527 
2771.000000	99.259940 
2770.000000	99.259609 
2769.000000	99.259825 
2768.000000	99.260647 
2767.000000	99.262019 
2766.000000	99.263762 
2765.000000	99.265427 
2764.000000	99.266530 
2763.000000	99.267077 
2762.000000	99.267578 
2761.000000	99.268402 
2760.000000	99.269361 
2759.000000	99.270072 
2758.000000	99.270466 
2757.000000	99.270818 
2756.000000	99.271469 
2755.000000	99.272565 
2754.000000	99.273753 
2753.000000	99.274156 
2752.000000	99.273068 
2751.000000	99.270794 
2750.000000	99.268648 
2749.000000	99.267752 
2748.000000	99.268017 
2747.000000	99.268544 
2746.000000	99.268682 
2745.000000	99.268498 
2744.000000	99.268355 
2743.000000	99.268466 
2742.000000	99.268860 
2741.000000	99.269439 
2740.000000	99.270026 
2739.000000	99.270577 
2738.000000	99.271314 
2737.000000	99.272411 
2736.000000	99.273574 
2735.000000	99.274214 
2734.000000	99.274107 
2733.000000	99.273651 
2732.000000	99.273403 
2731.000000	99.273497 
2730.000000	99.273686 
2729.000000	99.273805 
2728.000000	99.274040 
2727.000000	99.274685 
2726.000000	99.275721 
2725.000000	99.276713 
2724.000000	99.277190 
2723.000000	99.277123 
2722.000000	99.276957 
2721.000000	99.277141 
2720.000000	99.277695 
2719.000000	99.278289 
2718.000000	99.278619 
2717.000000	99.278626 
2716.000000	99.278459 
2715.000000	99.278384 
2714.000000	99.278659 
2713.000000	99.279328 
2712.000000	99.280104 
2711.000000	99.280600 
2710.000000	99.280713 
2709.000000	99.280666 
2708.000000	99.280682 
2707.000000	99.280691 
2706.000000	99.280516 
2705.000000	99.280184 
2704.000000	99.279897 
2703.000000	99.279799 
2702.000000	99.279875 
2701.000000	99.280023 
2700.000000	99.280152 
2699.000000	99.280220 
2698.000000	99.280231 
2697.000000	99.280198 
2696.000000	99.280126 
2695.000000	99.280036 
2694.000000	99.280005 
2693.000000	99.280095 
2692.000000	99.280258 
2691.000000	99.280338 
2690.000000	99.280251 
2689.000000	99.280104 
2688.000000	99.280091 
2687.000000	99.280277 
2686.000000	99.280521 
2685.000000	99.280608 
2684.000000	99.280455 
2683.000000	99.280179 
2682.000000	99.279989 
2681.000000	99.279978 
2680.000000	99.280046 
2679.000000	99.280011 
2678.000000	99.279812 
2677.000000	99.279568 
2676.000000	99.279433 
2675.000000	99.279427 
2674.000000	99.279452 
2673.000000	99.279422 
2672.000000	99.279317 
2671.000000	99.279113 
2670.000000	99.278773 
2669.000000	99.278300 
2668.000000	99.277787 
2667.000000	99.277377 
2666.000000	99.277184 
2665.000000	99.277228 
2664.000000	99.277424 
2663.000000	99.277632 
2662.000000	99.277761 
2661.000000	99.277807 
2660.000000	99.277771 
2659.000000	99.277592 
2658.000000	99.277223 
2657.000000	99.276728 
2656.000000	99.276282 
2655.000000	99.276015 
2654.000000	99.275929 
2653.000000	99.275941 
2652.000000	99.275958 
2651.000000	99.275932 
2650.000000	99.275864 
2649.000000	99.275799 
2648.000000	99.275784 
2647.000000	99.275809 
2646.000000	99.275825 
2645.000000	99.275813 
2644.000000	99.275800 
2643.000000	99.275805 
2642.000000	99.275812 
2641.000000	99.275802 
2640.000000	99.275797 
2639.000000	99.275836 
2638.000000	99.275927 
2637.000000	99.276050 
2636.000000	99.276174 
2635.000000	99.276277 
2634.000000	99.276355 
2633.000000	99.276422 
2632.000000	99.276493 
2631.000000	99.276578 
2630.000000	99.276680 
2629.000000	99.276801 
2628.000000	99.276941 
2627.000000	99.277095 
2626.000000	99.277257 
2625.000000	99.277419 
2624.000000	99.277575 
2623.000000	99.277722 
2622.000000	99.277861 
2621.000000	99.277991 
2620.000000	99.278111 
2619.000000	99.278222 
2618.000000	99.278327 
2617.000000	99.278429 
2616.000000	99.278532 
2615.000000	99.278637 
2614.000000	99.278741 
2613.000000	99.278835 
2612.000000	99.278915 
2611.000000	99.278985 
2610.000000	99.279056 
2609.000000	99.279129 
2608.000000	99.279198 
2607.000000	99.279250 
2606.000000	99.279283 
2605.000000	99.279308 
2604.000000	99.279338 
2603.000000	99.279349 
2602.000000	99.279279 
2601.000000	99.279097 
2600.000000	99.278875 
2599.000000	99.278735 
2598.000000	99.278724 
2597.000000	99.278756 
2596.000000	99.278701 
2595.000000	99.278488 
2594.000000	99.278131 
2593.000000	99.277690 
2592.000000	99.277294 
2591.000000	99.277107 
2590.000000	99.277199 
2589.000000	99.277456 
2588.000000	99.277630 
2587.000000	99.277569 
2586.000000	99.277261 
2585.000000	99.276743 
2584.000000	99.276057 
2583.000000	99.275338 
2582.000000	99.274790 
2581.000000	99.274507 
2580.000000	99.274395 
2579.000000	99.274281 
2578.000000	99.274065 
2577.000000	99.273767 
2576.000000	99.273499 
2575.000000	99.273401 
2574.000000	99.273529 
2573.000000	99.273759 
2572.000000	99.273863 
2571.000000	99.273720 
2570.000000	99.273387 
2569.000000	99.272969 
2568.000000	99.272517 
2567.000000	99.272099 
2566.000000	99.271853 
2565.000000	99.271856 
2564.000000	99.272000 
2563.000000	99.272073 
2562.000000	99.271958 
2561.000000	99.271718 
2560.000000	99.271544 
2559.000000	99.271662 
2558.000000	99.272210 
2557.000000	99.273054 
2556.000000	99.273731 
2555.000000	99.273851 
2554.000000	99.273587 
2553.000000	99.273617 
2552.000000	99.274391 
2551.000000	99.275587 
2550.000000	99.276466 
2549.000000	99.276697 
2548.000000	99.276483 
2547.000000	99.276013 
2546.000000	99.275231 
2545.000000	99.274257 
2544.000000	99.273650 
2543.000000	99.273916 
2542.000000	99.274948 
2541.000000	99.276095 
2540.000000	99.276761 
2539.000000	99.276815 
2538.000000	99.276451 
2537.000000	99.275865 
2536.000000	99.275109 
2535.000000	99.274212 
2534.000000	99.273410 
2533.000000	99.273205 
2532.000000	99.274003 
2531.000000	99.275622 
2530.000000	99.277278 
2529.000000	99.278220 
2528.000000	99.278364 
2527.000000	99.278289 
2526.000000	99.278729 
2525.000000	99.280050 
2524.000000	99.282054 
2523.000000	99.284140 
2522.000000	99.285767 
2521.000000	99.286794 
2520.000000	99.287302 
2519.000000	99.287187 
2518.000000	99.286203 
2517.000000	99.284419 
2516.000000	99.282359 
2515.000000	99.280621 
2514.000000	99.279548 
2513.000000	99.279235 
2512.000000	99.279470 
2511.000000	99.279621 
2510.000000	99.279118 
2509.000000	99.278262 
2508.000000	99.278102 
2507.000000	99.279150 
2506.000000	99.280581 
2505.000000	99.281090 
2504.000000	99.280292 
2503.000000	99.278817 
2502.000000	99.277408 
2501.000000	99.276366 
2500.000000	99.275868 
2499.000000	99.276198 
2498.000000	99.277465 
2497.000000	99.279336 
2496.000000	99.281184 
2495.000000	99.282421 
2494.000000	99.282690 
2493.000000	99.281975 
2492.000000	99.280653 
2491.000000	99.279327 
2490.000000	99.278456 
2489.000000	99.278174 
2488.000000	99.278380 
2487.000000	99.278832 
2486.000000	99.279221 
2485.000000	99.279374 
2484.000000	99.279405 
2483.000000	99.279525 
2482.000000	99.279726 
2481.000000	99.279800 
2480.000000	99.279669 
2479.000000	99.279505 
2478.000000	99.279484 
2477.000000	99.279572 
2476.000000	99.279631 
2475.000000	99.279632 
2474.000000	99.279676 
2473.000000	99.279838 
2472.000000	99.280090 
2471.000000	99.280377 
2470.000000	99.280660 
2469.000000	99.280822 
2468.000000	99.280637 
2467.000000	99.279963 
2466.000000	99.278951 
2465.000000	99.278068 
2464.000000	99.277725 
2463.000000	99.277956 
2462.000000	99.278400 
2461.000000	99.278584 
2460.000000	99.278375 
2459.000000	99.277997 
2458.000000	99.277738 
2457.000000	99.277651 
2456.000000	99.277557 
2455.000000	99.277259 
2454.000000	99.276736 
2453.000000	99.276170 
2452.000000	99.275817 
2451.000000	99.275816 
2450.000000	99.276111 
2449.000000	99.276509 
2448.000000	99.276811 
2447.000000	99.276906 
2446.000000	99.276822 
2445.000000	99.276745 
2444.000000	99.276902 
2443.000000	99.277324 
2442.000000	99.277742 
2441.000000	99.277841 
2440.000000	99.277580 
2439.000000	99.277172 
2438.000000	99.276791 
2437.000000	99.276447 
2436.000000	99.276109 
2435.000000	99.275779 
2434.000000	99.275380 
2433.000000	99.274799 
2432.000000	99.274143 
2431.000000	99.273778 
2430.000000	99.273937 
2429.000000	99.274458 
2428.000000	99.275020 
2427.000000	99.275558 
2426.000000	99.276215 
2425.000000	99.276936 
2424.000000	99.277344 
2423.000000	99.277128 
2422.000000	99.276398 
2421.000000	99.275704 
2420.000000	99.275552 
2419.000000	99.275964 
2418.000000	99.276607 
2417.000000	99.277116 
2416.000000	99.277407 
2415.000000	99.277587 
2414.000000	99.277704 
2413.000000	99.277726 
2412.000000	99.277687 
2411.000000	99.277708 
2410.000000	99.277839 
2409.000000	99.277996 
2408.000000	99.278102 
2407.000000	99.278219 
2406.000000	99.278439 
2405.000000	99.278728 
2404.000000	99.278949 
2403.000000	99.279018 
2402.000000	99.278955 
2401.000000	99.278835 
2400.000000	99.278710 
2399.000000	99.278615 
2398.000000	99.278579 
2397.000000	99.278629 
2396.000000	99.278785 
2395.000000	99.279054 
2394.000000	99.279415 
2393.000000	99.279816 
2392.000000	99.280183 
2391.000000	99.280461 
2390.000000	99.280660 
2389.000000	99.280829 
2388.000000	99.280993 
2387.000000	99.281136 
2386.000000	99.281212 
2385.000000	99.281191 
2384.000000	99.281106 
2383.000000	99.281035 
2382.000000	99.281030 
2381.000000	99.281089 
2380.000000	99.281170 
2379.000000	99.281190 
2378.000000	99.281032 
2377.000000	99.280681 
2376.000000	99.280352 
2375.000000	99.280352 
2374.000000	99.280771 
2373.000000	99.281361 
2372.000000	99.281770 
2371.000000	99.281943 
2370.000000	99.282124 
2369.000000	99.282496 
2368.000000	99.282889 
2367.000000	99.282928 
2366.000000	99.282401 
2365.000000	99.281502 
2364.000000	99.280825 
2363.000000	99.280839 
2362.000000	99.281484 
2361.000000	99.282286 
2360.000000	99.282767 
2359.000000	99.282909 
2358.000000	99.283025 
2357.000000	99.283327 
2356.000000	99.283906 
2355.000000	99.284608 
2354.000000	99.285225 
2353.000000	99.285587 
2352.000000	99.285773 
2351.000000	99.285983 
2350.000000	99.285839 
2349.000000	99.284758 
2348.000000	99.282529 
2347.000000	99.279885 
2346.000000	99.278292 
2345.000000	99.278352 
2344.000000	99.279728 
2343.000000	99.281468 
2342.000000	99.283387 
2341.000000	99.285514 
2340.000000	99.287328 
2339.000000	99.288251 
2338.000000	99.288049 
2337.000000	99.287291 
2336.000000	99.286660 
2335.000000	99.286813 
2334.000000	99.287631 
2333.000000	99.288753 
2332.000000	99.289388 
2331.000000	99.289559 
2330.000000	99.289075 
2329.000000	99.288417 
2328.000000	99.287677 
2327.000000	99.287198 
2326.000000	99.287047 
2325.000000	99.286818 
2324.000000	99.286184 
2323.000000	99.285132 
2322.000000	99.284541 
2321.000000	99.285364 
2320.000000	99.287497 
2319.000000	99.289883 
2318.000000	99.290900 
2317.000000	99.290279 
2316.000000	99.288482 
2315.000000	99.286893 
2314.000000	99.285722 
2313.000000	99.284927 
2312.000000	99.284028 
2311.000000	99.283698 
2310.000000	99.284396 
2309.000000	99.286101 
2308.000000	99.287316 
2307.000000	99.286717 
2306.000000	99.283976 
2305.000000	99.280432 
2304.000000	99.277367 
2303.000000	99.275155 
2302.000000	99.273157 
2301.000000	99.271384 
2300.000000	99.270373 
2299.000000	99.270464 
2298.000000	99.270657 
2297.000000	99.269958 
2296.000000	99.268543 
2295.000000	99.267615 
2294.000000	99.267446 
2293.000000	99.266887 
2292.000000	99.264801 
2291.000000	99.261456 
2290.000000	99.258068 
2289.000000	99.255509 
2288.000000	99.253928 
2287.000000	99.253114 
2286.000000	99.252709 
2285.000000	99.252160 
2284.000000	99.251183 
2283.000000	99.250087 
2282.000000	99.249301 
2281.000000	99.248652 
2280.000000	99.247681 
2279.000000	99.246574 
2278.000000	99.246195 
2277.000000	99.247006 
2276.000000	99.248486 
2275.000000	99.249710 
2274.000000	99.250110 
2273.000000	99.249614 
2272.000000	99.248300 
2271.000000	99.246325 
2270.000000	99.244167 
2269.000000	99.242588 
2268.000000	99.242127 
2267.000000	99.242713 
2266.000000	99.243714 
2265.000000	99.244373 
2264.000000	99.244266 
2263.000000	99.243418 
2262.000000	99.242276 
2261.000000	99.241519 
2260.000000	99.241604 
2259.000000	99.242279 
2258.000000	99.242684 
2257.000000	99.242199 
2256.000000	99.241066 
2255.000000	99.240021 
2254.000000	99.239328 
2253.000000	99.238609 
2252.000000	99.237737 
2251.000000	99.237334 
2250.000000	99.237961 
2249.000000	99.239282 
2248.000000	99.240353 
2247.000000	99.240643 
2246.000000	99.240275 
2245.000000	99.239423 
2244.000000	99.238039 
2243.000000	99.236265 
2242.000000	99.234682 
2241.000000	99.233885 
2240.000000	99.233914 
2239.000000	99.234223 
2238.000000	99.234197 
2237.000000	99.233539 
2236.000000	99.232232 
2235.000000	99.230363 
2234.000000	99.228225 
2233.000000	99.226534 
2232.000000	99.226160 
2231.000000	99.227394 
2230.000000	99.229585 
2229.000000	99.231584 
2228.000000	99.232697 
2227.000000	99.232998 
2226.000000	99.232783 
2225.000000	99.232099 
2224.000000	99.230883 
2223.000000	99.229345 
2222.000000	99.228018 
2221.000000	99.227406 
2220.000000	99.227595 
2219.000000	99.228215 
2218.000000	99.228778 
2217.000000	99.229107 
2216.000000	99.229383 
2215.000000	99.229714 
2214.000000	99.229793 
2213.000000	99.229184 
2212.000000	99.227863 
2211.000000	99.226314 
2210.000000	99.225152 
2209.000000	99.224651 
2208.000000	99.224636 
2207.000000	99.224598 
2206.000000	99.224078 
2205.000000	99.223027 
2204.000000	99.221746 
2203.000000	99.220605 
2202.000000	99.219770 
2201.000000	99.219229 
2200.000000	99.218898 
2199.000000	99.218615 
2198.000000	99.218188 
2197.000000	99.217582 
2196.000000	99.217024 
2195.000000	99.216783 
2194.000000	99.216855 
2193.000000	99.217009 
2192.000000	99.217032 
2191.000000	99.216875 
2190.000000	99.216600 
2189.000000	99.216286 
2188.000000	99.216013 
2187.000000	99.215845 
2186.000000	99.215787 
2185.000000	99.215806 
2184.000000	99.215856 
2183.000000	99.215917 
2182.000000	99.215988 
2181.000000	99.216074 
2180.000000	99.216187 
2179.000000	99.216338 
2178.000000	99.216525 
2177.000000	99.216733 
2176.000000	99.216950 
2175.000000	99.217183 
2174.000000	99.217454 
2173.000000	99.217786 
2172.000000	99.218196 
2171.000000	99.218691 
2170.000000	99.219270 
2169.000000	99.219927 
2168.000000	99.220653 
2167.000000	99.221431 
2166.000000	99.222240 
2165.000000	99.223063 
2164.000000	99.223906 
2163.000000	99.224790 
2162.000000	99.225737 
2161.000000	99.226748 
2160.000000	99.227801 
2159.000000	99.228864 
2158.000000	99.229906 
2157.000000	99.230911 
2156.000000	99.231882 
2155.000000	99.232829 
2154.000000	99.233755 
2153.000000	99.234642 
2152.000000	99.235476 
2151.000000	99.236268 
2150.000000	99.237054 
2149.000000	99.237865 
2148.000000	99.238701 
2147.000000	99.239532 
2146.000000	99.240311 
2145.000000	99.240994 
2144.000000	99.241565 
2143.000000	99.242051 
2142.000000	99.242490 
2141.000000	99.242910 
2140.000000	99.243313 
2139.000000	99.243694 
2138.000000	99.244045 
2137.000000	99.244365 
2136.000000	99.244649 
2135.000000	99.244891 
2134.000000	99.245092 
2133.000000	99.245246 
2132.000000	99.245342 
2131.000000	99.245368 
2130.000000	99.245322 
2129.000000	99.245205 
2128.000000	99.245024 
2127.000000	99.244787 
2126.000000	99.244502 
2125.000000	99.244178 
2124.000000	99.243814 
2123.000000	99.243443 
2122.000000	99.243124 
2121.000000	99.242873 
2120.000000	99.242589 
2119.000000	99.242129 
2118.000000	99.241458 
2117.000000	99.240705 
2116.000000	99.239993 
2115.000000	99.239349 
2114.000000	99.238781 
2113.000000	99.238330 
2112.000000	99.237987 
2111.000000	99.237643 
2110.000000	99.237230 
2109.000000	99.236854 
2108.000000	99.236731 
2107.000000	99.236873 
2106.000000	99.236767 
2105.000000	99.235568 
2104.000000	99.232897 
2103.000000	99.229632 
2102.000000	99.227577 
2101.000000	99.227768 
2100.000000	99.229532 
2099.000000	99.231211 
2098.000000	99.231831 
2097.000000	99.231860 
2096.000000	99.232255 
2095.000000	99.233011 
2094.000000	99.232688 
2093.000000	99.229698 
2092.000000	99.224393 
2091.000000	99.219667 
2090.000000	99.218415 
2089.000000	99.220448 
2088.000000	99.222586 
2087.000000	99.222243 
2086.000000	99.220228 
2085.000000	99.219214 
2084.000000	99.220448 
2083.000000	99.222949 
2082.000000	99.225362 
2081.000000	99.227606 
2080.000000	99.230481 
2079.000000	99.234233 
2078.000000	99.237939 
2077.000000	99.240389 
2076.000000	99.241534 
2075.000000	99.242595 
2074.000000	99.244326 
2073.000000	99.245746 
2072.000000	99.245324 
2071.000000	99.243096 
2070.000000	99.240704 
2069.000000	99.239419 
2068.000000	99.238991 
2067.000000	99.238569 
2066.000000	99.237716 
2065.000000	99.236238 
2064.000000	99.234014 
2063.000000	99.231601 
2062.000000	99.230323 
2061.000000	99.231106 
2060.000000	99.233497 
2059.000000	99.236236 
2058.000000	99.238451 
2057.000000	99.239965 
2056.000000	99.240709 
2055.000000	99.240301 
2054.000000	99.238461 
2053.000000	99.235682 
2052.000000	99.233305 
2051.000000	99.232545 
2050.000000	99.233294 
2049.000000	99.234054 
2048.000000	99.233396 
2047.000000	99.231336 
2046.000000	99.229010 
2045.000000	99.227437 
2044.000000	99.226844 
2043.000000	99.226897 
2042.000000	99.227130 
2041.000000	99.227158 
2040.000000	99.226893 
2039.000000	99.226635 
2038.000000	99.226693 
2037.000000	99.226832 
2036.000000	99.226403 
2035.000000	99.225104 
2034.000000	99.223318 
2033.000000	99.221678 
2032.000000	99.220491 
2031.000000	99.219741 
2030.000000	99.219338 
2029.000000	99.219131 
2028.000000	99.218889 
2027.000000	99.218497 
2026.000000	99.218076 
2025.000000	99.217859 
2024.000000	99.217989 
2023.000000	99.218345 
2022.000000	99.218461 
2021.000000	99.217817 
2020.000000	99.216487 
2019.000000	99.215436 
2018.000000	99.215641 
2017.000000	99.216984 
2016.000000	99.218175 
2015.000000	99.218135 
2014.000000	99.217047 
2013.000000	99.215848 
2012.000000	99.215177 
2011.000000	99.215117 
2010.000000	99.215743 
2009.000000	99.217379 
2008.000000	99.220125 
2007.000000	99.223391 
2006.000000	99.226049 
2005.000000	99.227162 
2004.000000	99.226749 
2003.000000	99.225778 
2002.000000	99.225126 
2001.000000	99.224658 
2000.000000	99.223693 
1999.000000	99.222106 
1998.000000	99.220575 
1997.000000	99.219875 
1996.000000	99.220243 
1995.000000	99.221506 
1994.000000	99.223378 
1993.000000	99.225397 
1992.000000	99.226825 
1991.000000	99.227017 
1990.000000	99.225894 
1989.000000	99.224119 
1988.000000	99.222911 
1987.000000	99.223298 
1986.000000	99.225247 
1985.000000	99.227487 
1984.000000	99.228620 
1983.000000	99.228421 
1982.000000	99.227585 
1981.000000	99.226363 
1980.000000	99.224253 
1979.000000	99.221241 
1978.000000	99.218515 
1977.000000	99.217207 
1976.000000	99.217064 
1975.000000	99.217274 
1974.000000	99.218058 
1973.000000	99.220496 
1972.000000	99.224968 
1971.000000	99.230314 
1970.000000	99.234358 
1969.000000	99.235279 
1968.000000	99.232845 
1967.000000	99.228869 
1966.000000	99.225859 
1965.000000	99.224568 
1964.000000	99.223812 
1963.000000	99.222591 
1962.000000	99.221460 
1961.000000	99.221432 
1960.000000	99.222432 
1959.000000	99.223610 
1958.000000	99.224641 
1957.000000	99.225779 
1956.000000	99.226983 
1955.000000	99.227944 
1954.000000	99.228755 
1953.000000	99.229704 
1952.000000	99.230214 
1951.000000	99.229034 
1950.000000	99.225852 
1949.000000	99.222069 
1948.000000	99.219656 
1947.000000	99.219199 
1946.000000	99.219296 
1945.000000	99.217942 
1944.000000	99.214695 
1943.000000	99.211511 
1942.000000	99.210950 
1941.000000	99.213421 
1940.000000	99.216779 
1939.000000	99.218907 
1938.000000	99.220135 
1937.000000	99.222564 
1936.000000	99.227184 
1935.000000	99.232163 
1934.000000	99.234564 
1933.000000	99.233842 
1932.000000	99.232773 
1931.000000	99.234694 
1930.000000	99.239838 
1929.000000	99.244892 
1928.000000	99.246954 
1927.000000	99.246361 
1926.000000	99.245432 
1925.000000	99.245141 
1924.000000	99.244285 
1923.000000	99.242269 
1922.000000	99.240607 
1921.000000	99.240870 
1920.000000	99.242262 
1919.000000	99.242307 
1918.000000	99.239515 
1917.000000	99.235111 
1916.000000	99.231880 
1915.000000	99.231275 
1914.000000	99.232686 
1913.000000	99.234810 
1912.000000	99.236885 
1911.000000	99.238854 
1910.000000	99.240500 
1909.000000	99.241324 
1908.000000	99.241679 
1907.000000	99.242630 
1906.000000	99.244591 
1905.000000	99.246538 
1904.000000	99.247167 
1903.000000	99.246527 
1902.000000	99.245528 
1901.000000	99.244712 
1900.000000	99.244190 
1899.000000	99.244154 
1898.000000	99.244848 
1897.000000	99.246093 
1896.000000	99.247271 
1895.000000	99.247958 
1894.000000	99.248138 
1893.000000	99.248012 
1892.000000	99.247986 
1891.000000	99.248546 
1890.000000	99.249561 
1889.000000	99.250057 
1888.000000	99.249482 
1887.000000	99.248572 
1886.000000	99.248316 
1885.000000	99.248891 
1884.000000	99.249928 
1883.000000	99.251350 
1882.000000	99.253100 
1881.000000	99.254476 
1880.000000	99.254927 
1879.000000	99.255155 
1878.000000	99.256585 
1877.000000	99.259579 
1876.000000	99.262642 
1875.000000	99.264010 
1874.000000	99.263363 
1873.000000	99.261584 
1872.000000	99.259776 
1871.000000	99.258588 
1870.000000	99.257850 
1869.000000	99.256635 
1868.000000	99.254653 
1867.000000	99.253348 
1866.000000	99.253982 
1865.000000	99.255657 
1864.000000	99.256120 
1863.000000	99.254203 
1862.000000	99.251007 
1861.000000	99.248756 
1860.000000	99.248769 
1859.000000	99.250907 
1858.000000	99.254019 
1857.000000	99.256616 
1856.000000	99.257979 
1855.000000	99.258779 
1854.000000	99.260140 
1853.000000	99.261941 
1852.000000	99.263110 
1851.000000	99.263101 
1850.000000	99.262544 
1849.000000	99.262578 
1848.000000	99.263507 
1847.000000	99.264643 
1846.000000	99.265105 
1845.000000	99.264643 
1844.000000	99.263756 
1843.000000	99.263318 
1842.000000	99.263628 
1841.000000	99.264063 
1840.000000	99.264086 
1839.000000	99.263675 
1838.000000	99.263112 
1837.000000	99.262586 
1836.000000	99.262131 
1835.000000	99.261926 
1834.000000	99.262097 
1833.000000	99.262456 
1832.000000	99.262662 
1831.000000	99.262443 
1830.000000	99.261880 
1829.000000	99.261477 
1828.000000	99.261557 
1827.000000	99.261890 
1826.000000	99.262127 
1825.000000	99.262210 
1824.000000	99.262210 
1823.000000	99.262118 
1822.000000	99.261849 
1821.000000	99.261510 
1820.000000	99.261441 
1819.000000	99.261796 
1818.000000	99.262410 
1817.000000	99.262931 
1816.000000	99.263135 
1815.000000	99.263119 
1814.000000	99.263082 
1813.000000	99.263095 
1812.000000	99.263065 
1811.000000	99.262960 
1810.000000	99.262920 
1809.000000	99.262982 
1808.000000	99.262993 
1807.000000	99.262857 
1806.000000	99.262651 
1805.000000	99.262492 
1804.000000	99.262413 
1803.000000	99.262385 
1802.000000	99.262326 
1801.000000	99.262147 
1800.000000	99.261835 
1799.000000	99.261577 
1798.000000	99.261599 
1797.000000	99.261916 
1796.000000	99.262339 
1795.000000	99.262683 
1794.000000	99.262915 
1793.000000	99.263058 
1792.000000	99.263088 
1791.000000	99.263044 
1790.000000	99.263099 
1789.000000	99.263302 
1788.000000	99.263570 
1787.000000	99.263857 
1786.000000	99.264204 
1785.000000	99.264551 
1784.000000	99.264699 
1783.000000	99.264582 
1782.000000	99.264283 
1781.000000	99.263996 
1780.000000	99.263832 
1779.000000	99.263753 
1778.000000	99.263756 
1777.000000	99.263883 
1776.000000	99.264188 
1775.000000	99.264563 
1774.000000	99.264813 
1773.000000	99.264941 
1772.000000	99.265133 
1771.000000	99.265465 
1770.000000	99.265828 
1769.000000	99.266029 
1768.000000	99.265971 
1767.000000	99.265729 
1766.000000	99.265514 
1765.000000	99.265509 
1764.000000	99.265737 
1763.000000	99.266085 
1762.000000	99.266368 
1761.000000	99.266572 
1760.000000	99.266790 
1759.000000	99.267053 
1758.000000	99.267413 
1757.000000	99.267949 
1756.000000	99.268667 
1755.000000	99.269243 
1754.000000	99.269375 
1753.000000	99.269168 
1752.000000	99.269008 
1751.000000	99.268956 
1750.000000	99.268761 
1749.000000	99.268403 
1748.000000	99.268183 
1747.000000	99.268320 
1746.000000	99.268622 
1745.000000	99.268846 
1744.000000	99.268871 
1743.000000	99.268678 
1742.000000	99.268378 
1741.000000	99.268167 
1740.000000	99.268167 
1739.000000	99.268389 
1738.000000	99.268755 
1737.000000	99.269047 
1736.000000	99.269118 
1735.000000	99.269069 
1734.000000	99.268957 
1733.000000	99.268708 
1732.000000	99.268395 
1731.000000	99.267960 
1730.000000	99.267469 
1729.000000	99.267049 
1728.000000	99.266740 
1727.000000	99.266479 
1726.000000	99.266186 
1725.000000	99.265861 
1724.000000	99.265487 
1723.000000	99.265043 
1722.000000	99.264567 
1721.000000	99.264093 
1720.000000	99.263634 
1719.000000	99.263186 
1718.000000	99.262730 
1717.000000	99.262217 
1716.000000	99.261641 
1715.000000	99.261042 
1714.000000	99.260447 
1713.000000	99.259848 
1712.000000	99.259226 
1711.000000	99.258587 
1710.000000	99.257950 
1709.000000	99.257317 
1708.000000	99.256672 
1707.000000	99.255998 
1706.000000	99.255292 
1705.000000	99.254563 
1704.000000	99.253812 
1703.000000	99.253039 
1702.000000	99.252245 
1701.000000	99.251445 
1700.000000	99.250619 
1699.000000	99.249794 
1698.000000	99.249046 
1697.000000	99.248313 
1696.000000	99.247499 
1695.000000	99.246577 
1694.000000	99.245637 
1693.000000	99.244698 
1692.000000	99.243692 
1691.000000	99.242657 
1690.000000	99.241698 
1689.000000	99.240862 
1688.000000	99.240166 
1687.000000	99.239560 
1686.000000	99.239042 
1685.000000	99.238594 
1684.000000	99.237868 
1683.000000	99.236771 
1682.000000	99.235649 
1681.000000	99.234450 
1680.000000	99.233292 
1679.000000	99.232339 
1678.000000	99.231481 
1677.000000	99.230486 
1676.000000	99.229359 
1675.000000	99.228264 
1674.000000	99.227238 
1673.000000	99.226385 
1672.000000	99.225702 
1671.000000	99.225272 
1670.000000	99.224997 
1669.000000	99.224357 
1668.000000	99.223347 
1667.000000	99.222222 
1666.000000	99.220960 
1665.000000	99.219612 
1664.000000	99.218423 
1663.000000	99.217654 
1662.000000	99.217000 
1661.000000	99.216148 
1660.000000	99.215574 
1659.000000	99.215614 
1658.000000	99.215932 
1657.000000	99.215987 
1656.000000	99.215573 
1655.000000	99.214865 
1654.000000	99.214816 
1653.000000	99.214775 
1652.000000	99.213855 
1651.000000	99.214116 
1650.000000	99.213899 
1649.000000	99.212618 
1648.000000	99.211285 
1647.000000	99.210527 
1646.000000	99.210194 
1645.000000	99.210493 
1644.000000	99.211092 
1643.000000	99.211585 
1642.000000	99.211754 
1641.000000	99.211373 
1640.000000	99.210517 
1639.000000	99.209296 
1638.000000	99.208132 
1637.000000	99.207857 
1636.000000	99.209300 
1635.000000	99.211732 
1634.000000	99.214108 
1633.000000	99.215678 
1632.000000	99.215637 
1631.000000	99.214558 
1630.000000	99.213326 
1629.000000	99.212573 
1628.000000	99.212769 
1627.000000	99.214118 
1626.000000	99.215693 
1625.000000	99.216333 
1624.000000	99.216264 
1623.000000	99.216855 
1622.000000	99.218614 
1621.000000	99.220620 
1620.000000	99.221917 
1619.000000	99.222307 
1618.000000	99.222697 
1617.000000	99.224037 
1616.000000	99.226711 
1615.000000	99.230245 
1614.000000	99.232953 
1613.000000	99.234019 
1612.000000	99.234911 
1611.000000	99.237353 
1610.000000	99.240659 
1609.000000	99.242894 
1608.000000	99.243907 
1607.000000	99.244998 
1606.000000	99.246243 
1605.000000	99.247047 
1604.000000	99.247949 
1603.000000	99.249493 
1602.000000	99.251323 
1601.000000	99.252826 
1600.000000	99.254162 
1599.000000	99.255764 
1598.000000	99.257555 
1597.000000	99.259284 
1596.000000	99.260792 
1595.000000	99.261773 
1594.000000	99.261791 
1593.000000	99.261112 
1592.000000	99.260943 
1591.000000	99.262103 
1590.000000	99.263972 
1589.000000	99.265506 
1588.000000	99.266749 
1587.000000	99.268376 
1586.000000	99.270210 
1585.000000	99.271307 
1584.000000	99.271920 
1583.000000	99.272708 
1582.000000	99.273159 
1581.000000	99.272673 
1580.000000	99.271645 
1579.000000	99.270543 
1578.000000	99.269341 
1577.000000	99.268342 
1576.000000	99.268143 
1575.000000	99.269112 
1574.000000	99.270606 
1573.000000	99.271565 
1572.000000	99.271871 
1571.000000	99.272076 
1570.000000	99.272455 
1569.000000	99.272780 
1568.000000	99.273165 
1567.000000	99.273355 
1566.000000	99.272974 
1565.000000	99.272314 
1564.000000	99.272003 
1563.000000	99.272111 
1562.000000	99.272187 
1561.000000	99.272019 
1560.000000	99.272269 
1559.000000	99.272877 
1558.000000	99.273056 
1557.000000	99.273375 
1556.000000	99.273728 
1555.000000	99.273899 
1554.000000	99.273841 
1553.000000	99.273673 
1552.000000	99.273512 
1551.000000	99.273366 
1550.000000	99.273275 
1549.000000	99.273247 
1548.000000	99.273234 
1547.000000	99.273163 
1546.000000	99.273003 
1545.000000	99.272816 
1544.000000	99.272707 
1543.000000	99.272718 
1542.000000	99.272822 
1541.000000	99.272946 
1540.000000	99.272992 
1539.000000	99.272971 
1538.000000	99.272985 
1537.000000	99.273046 
1536.000000	99.273101 
1535.000000	99.273150 
1534.000000	99.273177 
1533.000000	99.273123 
1532.000000	99.273000 
1531.000000	99.272882 
1530.000000	99.272821 
1529.000000	99.272795 
1528.000000	99.272730 
1527.000000	99.272615 
1526.000000	99.272533 
1525.000000	99.272594 
1524.000000	99.272827 
1523.000000	99.273227 
1522.000000	99.273814 
1521.000000	99.274314 
1520.000000	99.274354 
1519.000000	99.273833 
1518.000000	99.272849 
1517.000000	99.271864 
1516.000000	99.271253 
1515.000000	99.270976 
1514.000000	99.270790 
1513.000000	99.270704 
1512.000000	99.270776 
1511.000000	99.270782 
1510.000000	99.270513 
1509.000000	99.270060 
1508.000000	99.270033 
1507.000000	99.270750 
1506.000000	99.271466 
1505.000000	99.271726 
1504.000000	99.271724 
1503.000000	99.271530 
1502.000000	99.271341 
1501.000000	99.271178 
1500.000000	99.270693 
1499.000000	99.269556 
1498.000000	99.268030 
1497.000000	99.266759 
1496.000000	99.265838 
1495.000000	99.265475 
1494.000000	99.266066 
1493.000000	99.267461 
1492.000000	99.269169 
1491.000000	99.270719 
1490.000000	99.271712 
1489.000000	99.271693 
1488.000000	99.270380 
1487.000000	99.268462 
1486.000000	99.266905 
1485.000000	99.265402 
1484.000000	99.263701 
1483.000000	99.262144 
1482.000000	99.261301 
1481.000000	99.261249 
1480.000000	99.261289 
1479.000000	99.260982 
1478.000000	99.260467 
1477.000000	99.259921 
1476.000000	99.259098 
1475.000000	99.258423 
1474.000000	99.258813 
1473.000000	99.260360 
1472.000000	99.261590 
1471.000000	99.261420 
1470.000000	99.260539 
1469.000000	99.259556 
1468.000000	99.258505 
1467.000000	99.257554 
1466.000000	99.257012 
1465.000000	99.256935 
1464.000000	99.257212 
1463.000000	99.257207 
1462.000000	99.256373 
1461.000000	99.254398 
1460.000000	99.251419 
1459.000000	99.247853 
1458.000000	99.244453 
1457.000000	99.241687 
1456.000000	99.239353 
1455.000000	99.237523 
1454.000000	99.235798 
1453.000000	99.235450 
1452.000000	99.237870 
1451.000000	99.241883 
1450.000000	99.244927 
1449.000000	99.245426 
1448.000000	99.243522 
1447.000000	99.241214 
1446.000000	99.239976 
1445.000000	99.240076 
1444.000000	99.241005 
1443.000000	99.241352 
1442.000000	99.240949 
1441.000000	99.240736 
1440.000000	99.241252 
1439.000000	99.241648 
1438.000000	99.242206 
1437.000000	99.243803 
1436.000000	99.244591 
1435.000000	99.242245 
1434.000000	99.237507 
1433.000000	99.232732 
1432.000000	99.229570 
1431.000000	99.227715 
1430.000000	99.225939 
1429.000000	99.223964 
1428.000000	99.221749 
1427.000000	99.219392 
1426.000000	99.216640 
1425.000000	99.214201 
1424.000000	99.213052 
1423.000000	99.211894 
1422.000000	99.209019 
1421.000000	99.204304 
1420.000000	99.199224 
1419.000000	99.194647 
1418.000000	99.190683 
1417.000000	99.187203 
1416.000000	99.182857 
1415.000000	99.176711 
1414.000000	99.169493 
1413.000000	99.163154 
1412.000000	99.158995 
1411.000000	99.156194 
1410.000000	99.153260 
1409.000000	99.149851 
1408.000000	99.146566 
1407.000000	99.144613 
1406.000000	99.144610 
1405.000000	99.146228 
1404.000000	99.148806 
1403.000000	99.151785 
1402.000000	99.155473 
1401.000000	99.160318 
1400.000000	99.165706 
1399.000000	99.169392 
1398.000000	99.169183 
1397.000000	99.164462 
1396.000000	99.156181 
1395.000000	99.147878 
1394.000000	99.144678 
1393.000000	99.149137 
1392.000000	99.158891 
1391.000000	99.168925 
1390.000000	99.175728 
1389.000000	99.178621 
1388.000000	99.178509 
1387.000000	99.176692 
1386.000000	99.174649 
1385.000000	99.173694 
1384.000000	99.174197 
1383.000000	99.175329 
1382.000000	99.176173 
1381.000000	99.176744 
1380.000000	99.177946 
1379.000000	99.180554 
1378.000000	99.184302 
1377.000000	99.188184 
1376.000000	99.191463 
1375.000000	99.194282 
1374.000000	99.197396 
1373.000000	99.201521 
1372.000000	99.206496 
1371.000000	99.211367 
1370.000000	99.215198 
1369.000000	99.217936 
1368.000000	99.220405 
1367.000000	99.223181 
1366.000000	99.226311 
1365.000000	99.229754 
1364.000000	99.233544 
1363.000000	99.237287 
1362.000000	99.240117 
1361.000000	99.241599 
1360.000000	99.242342 
1359.000000	99.243568 
1358.000000	99.246260 
1357.000000	99.250568 
1356.000000	99.255687 
1355.000000	99.260324 
1354.000000	99.263841 
1353.000000	99.266561 
1352.000000	99.268654 
1351.000000	99.269849 
1350.000000	99.270055 
1349.000000	99.270123 
1348.000000	99.270996 
1347.000000	99.272351 
1346.000000	99.273400 
1345.000000	99.274070 
1344.000000	99.274748 
1343.000000	99.275192 
1342.000000	99.275014 
1341.000000	99.274881 
1340.000000	99.275992 
1339.000000	99.278041 
1338.000000	99.279365 
1337.000000	99.279440 
1336.000000	99.279523 
1335.000000	99.280599 
1334.000000	99.282063 
1333.000000	99.282796 
1332.000000	99.282624 
1331.000000	99.282177 
1330.000000	99.281993 
1329.000000	99.282350 
1328.000000	99.283337 
1327.000000	99.284442 
1326.000000	99.284467 
1325.000000	99.282860 
1324.000000	99.280767 
1323.000000	99.279961 
1322.000000	99.281121 
1321.000000	99.283485 
1320.000000	99.285927 
1319.000000	99.287805 
1318.000000	99.288915 
1317.000000	99.289028 
1316.000000	99.287814 
1315.000000	99.285311 
1314.000000	99.282348 
1313.000000	99.280144 
1312.000000	99.279337 
1311.000000	99.279638 
1310.000000	99.280486 
1309.000000	99.281653 
1308.000000	99.282955 
1307.000000	99.283944 
1306.000000	99.284196 
1305.000000	99.283856 
1304.000000	99.283476 
1303.000000	99.283381 
1302.000000	99.283621 
1301.000000	99.284148 
1300.000000	99.284772 
1299.000000	99.285258 
1298.000000	99.285872 
1297.000000	99.287246 
1296.000000	99.289202 
1295.000000	99.290273 
1294.000000	99.289178 
1293.000000	99.286382 
1292.000000	99.283519 
1291.000000	99.281767 
1290.000000	99.281464 
1289.000000	99.282731 
1288.000000	99.285230 
1287.000000	99.287451 
1286.000000	99.287654 
1285.000000	99.285739 
1284.000000	99.283250 
1283.000000	99.281472 
1282.000000	99.280227 
1281.000000	99.278777 
1280.000000	99.277142 
1279.000000	99.275895 
1278.000000	99.275228 
1277.000000	99.274847 
1276.000000	99.274452 
1275.000000	99.273899 
1274.000000	99.273022 
1273.000000	99.271633 
1272.000000	99.269677 
1271.000000	99.267308 
1270.000000	99.264893 
1269.000000	99.262826 
1268.000000	99.261123 
1267.000000	99.259263 
1266.000000	99.256732 
1265.000000	99.253711 
1264.000000	99.250833 
1263.000000	99.248239 
1262.000000	99.245292 
1261.000000	99.241506 
1260.000000	99.237526 
1259.000000	99.234685 
1258.000000	99.233599 
1257.000000	99.233645 
1256.000000	99.233904 
1255.000000	99.234203 
1254.000000	99.234784 
1253.000000	99.235226 
1252.000000	99.234554 
1251.000000	99.232778 
1250.000000	99.231572 
1249.000000	99.232609 
1248.000000	99.235492 
1247.000000	99.238025 
1246.000000	99.238220 
1245.000000	99.235217 
1244.000000	99.228842 
1243.000000	99.220174 
1242.000000	99.212712 
1241.000000	99.210702 
1240.000000	99.214978 
1239.000000	99.221421 
1238.000000	99.224862 
1237.000000	99.223927 
1236.000000	99.220813 
1235.000000	99.217679 
1234.000000	99.214978 
1233.000000	99.212483 
1232.000000	99.209666 
1231.000000	99.205144 
1230.000000	99.197963 
1229.000000	99.189888 
1228.000000	99.184655 
1227.000000	99.184115 
1226.000000	99.186204 
1225.000000	99.187228 
1224.000000	99.185208 
1223.000000	99.180594 
1222.000000	99.175008 
1221.000000	99.170071 
1220.000000	99.166706 
1219.000000	99.164673 
1218.000000	99.162799 
1217.000000	99.159787 
1216.000000	99.154723 
1215.000000	99.147287 
1214.000000	99.138103 
1213.000000	99.128432 
1212.000000	99.118732 
1211.000000	99.108104 
1210.000000	99.096157 
1209.000000	99.084651 
1208.000000	99.075681 
1207.000000	99.068564 
1206.000000	99.060417 
1205.000000	99.049894 
1204.000000	99.038538 
1203.000000	99.028249 
1202.000000	99.019201 
1201.000000	99.010682 
1200.000000	99.002186 
1199.000000	98.992920 
1198.000000	98.981889 
1197.000000	98.969359 
1196.000000	98.956657 
1195.000000	98.943843 
1194.000000	98.929227 
1193.000000	98.912144 
1192.000000	98.894660 
1191.000000	98.879099 
1190.000000	98.865006 
1189.000000	98.850264 
1188.000000	98.834397 
1187.000000	98.819005 
1186.000000	98.805250 
1185.000000	98.792454 
1184.000000	98.779237 
1183.000000	98.764920 
1182.000000	98.749784 
1181.000000	98.734759 
1180.000000	98.720728 
1179.000000	98.707387 
1178.000000	98.693132 
1177.000000	98.676789 
1176.000000	98.658893 
1175.000000	98.640327 
1174.000000	98.620327 
1173.000000	98.597349 
1172.000000	98.571886 
1171.000000	98.546968 
1170.000000	98.525371 
1169.000000	98.507127 
1168.000000	98.490103 
1167.000000	98.472512 
1166.000000	98.455074 
1165.000000	98.441311 
1164.000000	98.435380 
1163.000000	98.438716 
1162.000000	98.448569 
1161.000000	98.460335 
1160.000000	98.471005 
1159.000000	98.479420 
1158.000000	98.483913 
1157.000000	98.481617 
1156.000000	98.470644 
1155.000000	98.452253 
1154.000000	98.430581 
1153.000000	98.410262 
1152.000000	98.393725 
1151.000000	98.379826 
1150.000000	98.365027 
1149.000000	98.346710 
1148.000000	98.325672 
1147.000000	98.305061 
1146.000000	98.286951 
1145.000000	98.270430 
1144.000000	98.252888 
1143.000000	98.232532 
1142.000000	98.209876 
1141.000000	98.187454 
1140.000000	98.167938 
1139.000000	98.151795 
1138.000000	98.136702 
1137.000000	98.119671 
1136.000000	98.099561 
1135.000000	98.077281 
1134.000000	98.054179 
1133.000000	98.030824 
1132.000000	98.007000 
1131.000000	97.982366 
1130.000000	97.957520 
1129.000000	97.934474 
1128.000000	97.914731 
1127.000000	97.896192 
1126.000000	97.873703 
1125.000000	97.844451 
1124.000000	97.811817 
1123.000000	97.782149 
1122.000000	97.758082 
1121.000000	97.736900 
1120.000000	97.714886 
1119.000000	97.691025 
1118.000000	97.666267 
1117.000000	97.641412 
1116.000000	97.616701 
1115.000000	97.592334 
1114.000000	97.568667 
1113.000000	97.546440 
1112.000000	97.526608 
1111.000000	97.508882 
1110.000000	97.490685 
1109.000000	97.468957 
1108.000000	97.443296 
1107.000000	97.416404 
1106.000000	97.391127 
1105.000000	97.367843 
1104.000000	97.344726 
1103.000000	97.319801 
1102.000000	97.292905 
1101.000000	97.266319 
1100.000000	97.243092 
1099.000000	97.224191 
1098.000000	97.207700 
1097.000000	97.191245 
1096.000000	97.174095 
1095.000000	97.155911 
1094.000000	97.135053 
1093.000000	97.109934 
1092.000000	97.081072 
1091.000000	97.050082 
1090.000000	97.017552 
1089.000000	96.983749 
1088.000000	96.950519 
1087.000000	96.920170 
1086.000000	96.892942 
1085.000000	96.867671 
1084.000000	96.844264 
1083.000000	96.822922 
1082.000000	96.801433 
1081.000000	96.776312 
1080.000000	96.746928 
1079.000000	96.715995 
1078.000000	96.685857 
1077.000000	96.657045 
1076.000000	96.630789 
1075.000000	96.609551 
1074.000000	96.593727 
1073.000000	96.580252 
1072.000000	96.565019 
1071.000000	96.543935 
1070.000000	96.511748 
1069.000000	96.464608 
1068.000000	96.406300 
1067.000000	96.349120 
1066.000000	96.304889 
1065.000000	96.275744 
1064.000000	96.255055 
1063.000000	96.234482 
1062.000000	96.207983 
1061.000000	96.171821 
1060.000000	96.125161 
1059.000000	96.071689 
1058.000000	96.018664 
1057.000000	95.972715 
1056.000000	95.935850 
1055.000000	95.904667 
1054.000000	95.873236 
1053.000000	95.837695 
1052.000000	95.798370 
1051.000000	95.757218 
1050.000000	95.714515 
1049.000000	95.669666 
1048.000000	95.623830 
1047.000000	95.579333 
1046.000000	95.537369 
1045.000000	95.497910 
1044.000000	95.460178 
1043.000000	95.421468 
1042.000000	95.378143 
1041.000000	95.330766 
1040.000000	95.285977 
1039.000000	95.249913 
1038.000000	95.221899 
1037.000000	95.198110 
1036.000000	95.178703 
1035.000000	95.166158 
1034.000000	95.158601 
1033.000000	95.150627 
1032.000000	95.139728 
1031.000000	95.126583 
1030.000000	95.110673 
1029.000000	95.092394 
1028.000000	95.078802 
1027.000000	95.079324 
1026.000000	95.093719 
1025.000000	95.110188 
1024.000000	95.117706 
1023.000000	95.115579 
1022.000000	95.109520 
1021.000000	95.104046 
1020.000000	95.101234 
1019.000000	95.102051 
1018.000000	95.105311 
1017.000000	95.107983 
1016.000000	95.108647 
1015.000000	95.108467 
1014.000000	95.107935 
1013.000000	95.105603 
1012.000000	95.100868 
1011.000000	95.095065 
1010.000000	95.089255 
1009.000000	95.084072 
1008.000000	95.082254 
1007.000000	95.087788 
1006.000000	95.101499 
1005.000000	95.120225 
1004.000000	95.140682 
1003.000000	95.161295 
1002.000000	95.180400 
1001.000000	95.196248 
1000.000000	95.209333 
999.000000	 95.221724 
998.000000	 95.234177 
997.000000	 95.247050 
996.000000	 95.263434 
995.000000	 95.287049 
994.000000	 95.316580 
993.000000	 95.345978 
992.000000	 95.371292 
991.000000	 95.393972 
990.000000	 95.416932 
989.000000	 95.440949 
988.000000	 95.465839 
987.000000	 95.492115 
986.000000	 95.520465 
985.000000	 95.551871 
984.000000	 95.588118 
983.000000	 95.629489 
982.000000	 95.672476 
981.000000	 95.712959 
980.000000	 95.751528 
979.000000	 95.792705 
978.000000	 95.839278 
977.000000	 95.890492 
976.000000	 95.945028 
975.000000	 96.001794 
974.000000	 96.058005 
973.000000	 96.110743 
972.000000	 96.161158 
971.000000	 96.213776 
970.000000	 96.270860 
969.000000	 96.330057 
968.000000	 96.387760 
967.000000	 96.442161 
966.000000	 96.493122 
965.000000	 96.541811 
964.000000	 96.590327 
963.000000	 96.639196 
962.000000	 96.685938 
961.000000	 96.728833 
960.000000	 96.770834 
959.000000	 96.815907 
958.000000	 96.862174 
957.000000	 96.903347 
956.000000	 96.937321 
955.000000	 96.969043 
954.000000	 97.003761 
953.000000	 97.041047 
952.000000	 97.077193 
951.000000	 97.110048 
950.000000	 97.139284 
949.000000	 97.164478 
948.000000	 97.185301 
947.000000	 97.202278 
946.000000	 97.215987 
945.000000	 97.226689 
944.000000	 97.235793 
943.000000	 97.246371 
942.000000	 97.260951 
941.000000	 97.279289 
940.000000	 97.298671 
939.000000	 97.315894 
938.000000	 97.329497 
937.000000	 97.341324 
936.000000	 97.355331 
935.000000	 97.373354 
934.000000	 97.392641 
933.000000	 97.409279 
932.000000	 97.423332 
931.000000	 97.438369 
930.000000	 97.456270 
929.000000	 97.474737 
928.000000	 97.489876 
927.000000	 97.499404 
926.000000	 97.503831 
925.000000	 97.506805 
924.000000	 97.513960 
923.000000	 97.528714 
922.000000	 97.548422 
921.000000	 97.566246 
920.000000	 97.577021 
919.000000	 97.580298 
918.000000	 97.578896 
917.000000	 97.576940 
916.000000	 97.578606 
915.000000	 97.585750 
914.000000	 97.596265 
913.000000	 97.606914 
912.000000	 97.617935 
911.000000	 97.632736 
910.000000	 97.653386 
909.000000	 97.679130 
908.000000	 97.709133 
907.000000	 97.743551 
906.000000	 97.781415 
905.000000	 97.820307 
904.000000	 97.858875 
903.000000	 97.897582 
902.000000	 97.936794 
901.000000	 97.976291 
900.000000	 98.016707 
899.000000	 98.058897 
898.000000	 98.101164 
897.000000	 98.139310 
896.000000	 98.170384 
895.000000	 98.195233 
894.000000	 98.217357 
893.000000	 98.240685 
892.000000	 98.268408 
891.000000	 98.302056 
890.000000	 98.340824 
889.000000	 98.382442 
888.000000	 98.424381 
887.000000	 98.463376 
886.000000	 98.495326 
885.000000	 98.518200 
884.000000	 98.534900 
883.000000	 98.551118 
882.000000	 98.569917 
881.000000	 98.590102 
880.000000	 98.609860 
879.000000	 98.629561 
878.000000	 98.650525 
877.000000	 98.673384 
876.000000	 98.698470 
875.000000	 98.725764 
874.000000	 98.753347 
873.000000	 98.777553 
872.000000	 98.795970 
871.000000	 98.809784 
870.000000	 98.823091 
869.000000	 98.840761 
868.000000	 98.866510 
867.000000	 98.900592 
866.000000	 98.938185 
865.000000	 98.971850 
864.000000	 98.997404 
863.000000	 99.017052 
862.000000	 99.036099 
861.000000	 99.057061 
860.000000	 99.078104 
859.000000	 99.096731 
858.000000	 99.112891 
857.000000	 99.127684 
856.000000	 99.140834 
855.000000	 99.151605 
854.000000	 99.161602 
853.000000	 99.174182 
852.000000	 99.190357 
851.000000	 99.207373 
850.000000	 99.222689 
849.000000	 99.237375 
848.000000	 99.253529 
847.000000	 99.269763 
846.000000	 99.281765 
845.000000	 99.286856 
844.000000	 99.286116 
843.000000	 99.282874 
842.000000	 99.281048 
841.000000	 99.283521 
840.000000	 99.288853 
839.000000	 99.290127 
838.000000	 99.280839 
837.000000	 99.262619 
836.000000	 99.244177 
835.000000	 99.232038 
834.000000	 99.225606 
833.000000	 99.222180 
832.000000	 99.222107 
831.000000	 99.225422 
830.000000	 99.226919 
829.000000	 99.220283 
828.000000	 99.207324 
827.000000	 99.198974 
826.000000	 99.204941 
825.000000	 99.223713 
824.000000	 99.244097 
823.000000	 99.256177 
822.000000	 99.260060 
821.000000	 99.263677 
820.000000	 99.272684 
819.000000	 99.284537 
818.000000	 99.293251 
817.000000	 99.297210 
816.000000	 99.298571 
815.000000	 99.295991 
814.000000	 99.283378 
813.000000	 99.257888 
812.000000	 99.224636 
811.000000	 99.189542 
810.000000	 99.149852 
809.000000	 99.096043 
808.000000	 99.022273 
807.000000	 98.931831 
806.000000	 98.833058 
805.000000	 98.733373 
804.000000	 98.638461 
803.000000	 98.554421 
802.000000	 98.487504 
801.000000	 98.441021 
800.000000	 98.412806 
799.000000	 98.396391 
798.000000	 98.386511 
797.000000	 98.383739 
796.000000	 98.391266 
795.000000	 98.407269 
794.000000	 98.424868 
793.000000	 98.441012 
792.000000	 98.459961 
791.000000	 98.484353 
790.000000	 98.507784 
789.000000	 98.521170 
788.000000	 98.522569 
787.000000	 98.515247 
786.000000	 98.499516 
785.000000	 98.473162 
784.000000	 98.438656 
783.000000	 98.403680 
782.000000	 98.374077 
781.000000	 98.350856 
780.000000	 98.333692 
779.000000	 98.322375 
778.000000	 98.315051 
777.000000	 98.310219 
776.000000	 98.311149 
775.000000	 98.323704 
774.000000	 98.348834 
773.000000	 98.380969 
772.000000	 98.414473 
771.000000	 98.447911 
770.000000	 98.481351 
769.000000	 98.513108 
768.000000	 98.540353 
767.000000	 98.560855 
766.000000	 98.574159 
765.000000	 98.583095 
764.000000	 98.593291 
763.000000	 98.608214 
762.000000	 98.624919 
761.000000	 98.637343 
760.000000	 98.643592 
759.000000	 98.647715 
758.000000	 98.654971 
757.000000	 98.667485 
756.000000	 98.683312 
755.000000	 98.697056 
754.000000	 98.702973 
753.000000	 98.701123 
752.000000	 98.700009 
751.000000	 98.709798 
750.000000	 98.732431 
749.000000	 98.760143 
748.000000	 98.783103 
747.000000	 98.796840 
746.000000	 98.803488 
745.000000	 98.808997 
744.000000	 98.819269 
743.000000	 98.836824 
742.000000	 98.860549 
741.000000	 98.888852 
740.000000	 98.921172 
739.000000	 98.955078 
738.000000	 98.984742 
737.000000	 99.005142 
736.000000	 99.016013 
735.000000	 99.019969 
734.000000	 99.019675 
733.000000	 99.019521 
732.000000	 99.026620 
731.000000	 99.044962 
730.000000	 99.069716 
729.000000	 99.091806 
728.000000	 99.107142 
727.000000	 99.117185 
726.000000	 99.122573 
725.000000	 99.122175 
724.000000	 99.118003 
723.000000	 99.115256 
722.000000	 99.117065 
721.000000	 99.123995 
720.000000	 99.138078 
719.000000	 99.161005 
718.000000	 99.187832 
717.000000	 99.208949 
716.000000	 99.219492 
715.000000	 99.222262 
714.000000	 99.221861 
713.000000	 99.221121 
712.000000	 99.223739 
711.000000	 99.233668 
710.000000	 99.248562 
709.000000	 99.258994 
708.000000	 99.257936 
707.000000	 99.246417 
706.000000	 99.228492 
705.000000	 99.206693 
704.000000	 99.184444 
703.000000	 99.167315 
702.000000	 99.157457 
701.000000	 99.149043 
700.000000	 99.132846 
699.000000	 99.104711 
698.000000	 99.068954 
697.000000	 99.035488 
696.000000	 99.013745 
695.000000	 99.006529 
694.000000	 99.008908 
693.000000	 99.014779 
692.000000	 99.023848 
691.000000	 99.039138 
690.000000	 99.059636 
689.000000	 99.080719 
688.000000	 99.100971 
687.000000	 99.122048 
686.000000	 99.141084 
685.000000	 99.150471 
684.000000	 99.147895 
683.000000	 99.141229 
682.000000	 99.140693 
681.000000	 99.149439 
680.000000	 99.162896 
679.000000	 99.174041 
678.000000	 99.178377 
677.000000	 99.176934 
676.000000	 99.176548 
675.000000	 99.183478 
674.000000	 99.195521 
673.000000	 99.203734 
672.000000	 99.203184 
671.000000	 99.198972 
670.000000	 99.200629 
669.000000	 99.215185 
668.000000	 99.239808 
667.000000	 99.257887 
666.000000	 99.259461 
665.000000	 99.251028 
664.000000	 99.244420 
663.000000	 99.248257 
662.000000	 99.262284 
661.000000	 99.276765 
660.000000	 99.282170 
659.000000	 99.277807 
658.000000	 99.269777 
657.000000	 99.263500 
656.000000	 99.260264 
655.000000	 99.259676 
654.000000	 99.261076 
653.000000	 99.263828 
652.000000	 99.268994 
651.000000	 99.278779 
650.000000	 99.292401 

