4000.000000	99.241393 
3999.000000	99.238114 
3998.000000	99.237701 
3997.000000	99.240932 
3996.000000	99.245527 
3995.000000	99.248363 
3994.000000	99.248472 
3993.000000	99.247466 
3992.000000	99.247113 
3991.000000	99.247130 
3990.000000	99.245763 
3989.000000	99.242074 
3988.000000	99.237130 
3987.000000	99.233111 
3986.000000	99.231685 
3985.000000	99.233157 
3984.000000	99.236654 
3983.000000	99.241058 
3982.000000	99.245869 
3981.000000	99.251145 
3980.000000	99.256595 
3979.000000	99.261058 
3978.000000	99.263257 
3977.000000	99.262917 
3976.000000	99.260686 
3975.000000	99.257033 
3974.000000	99.251816 
3973.000000	99.245226 
3972.000000	99.238785 
3971.000000	99.234974 
3970.000000	99.235866 
3969.000000	99.241664 
3968.000000	99.250240 
3967.000000	99.258035 
3966.000000	99.261946 
3965.000000	99.260977 
3964.000000	99.256550 
3963.000000	99.251585 
3962.000000	99.248841 
3961.000000	99.249208 
3960.000000	99.250949 
3959.000000	99.250978 
3958.000000	99.247941 
3957.000000	99.243715 
3956.000000	99.241495 
3955.000000	99.242447 
3954.000000	99.244904 
3953.000000	99.246595 
3952.000000	99.246655 
3951.000000	99.245672 
3950.000000	99.244330 
3949.000000	99.242681 
3948.000000	99.240828 
3947.000000	99.239838 
3946.000000	99.241026 
3945.000000	99.244129 
3944.000000	99.246713 
3943.000000	99.246079 
3942.000000	99.242198 
3941.000000	99.238208 
3940.000000	99.236935 
3939.000000	99.237864 
3938.000000	99.238683 
3937.000000	99.238122 
3936.000000	99.236843 
3935.000000	99.236146 
3934.000000	99.236899 
3933.000000	99.239489 
3932.000000	99.243319 
3931.000000	99.246835 
3930.000000	99.248523 
3929.000000	99.247916 
3928.000000	99.245729 
3927.000000	99.242657 
3926.000000	99.239029 
3925.000000	99.235906 
3924.000000	99.235323 
3923.000000	99.237663 
3922.000000	99.239545 
3921.000000	99.237409 
3920.000000	99.232495 
3919.000000	99.229193 
3918.000000	99.229008 
3917.000000	99.229326 
3916.000000	99.228453 
3915.000000	99.228342 
3914.000000	99.231067 
3913.000000	99.235623 
3912.000000	99.239487 
3911.000000	99.240601 
3910.000000	99.238861 
3909.000000	99.235775 
3908.000000	99.233812 
3907.000000	99.234722 
3906.000000	99.237990 
3905.000000	99.240931 
3904.000000	99.241113 
3903.000000	99.239509 
3902.000000	99.238879 
3901.000000	99.239038 
3900.000000	99.237339 
3899.000000	99.233195 
3898.000000	99.228624 
3897.000000	99.224542 
3896.000000	99.219807 
3895.000000	99.215094 
3894.000000	99.215095 
3893.000000	99.222597 
3892.000000	99.232723 
3891.000000	99.237262 
3890.000000	99.237123 
3889.000000	99.238774 
3888.000000	99.242712 
3887.000000	99.244710 
3886.000000	99.241904 
3885.000000	99.235634 
3884.000000	99.231930 
3883.000000	99.232855 
3882.000000	99.233690 
3881.000000	99.231235 
3880.000000	99.226986 
3879.000000	99.225394 
3878.000000	99.229766 
3877.000000	99.237001 
3876.000000	99.241483 
3875.000000	99.240419 
3874.000000	99.235288 
3873.000000	99.231364 
3872.000000	99.230844 
3871.000000	99.228586 
3870.000000	99.220001 
3869.000000	99.211212 
3868.000000	99.213303 
3867.000000	99.223630 
3866.000000	99.229712 
3865.000000	99.228480 
3864.000000	99.226670 
3863.000000	99.228380 
3862.000000	99.231454 
3861.000000	99.231914 
3860.000000	99.228865 
3859.000000	99.221630 
3858.000000	99.209112 
3857.000000	99.193482 
3856.000000	99.183862 
3855.000000	99.190881 
3854.000000	99.207363 
3853.000000	99.209809 
3852.000000	99.202786 
3851.000000	99.208382 
3850.000000	99.222160 
3849.000000	99.231742 
3848.000000	99.236553 
3847.000000	99.239968 
3846.000000	99.242553 
3845.000000	99.243440 
3844.000000	99.243051 
3843.000000	99.242541 
3842.000000	99.242875 
3841.000000	99.243212 
3840.000000	99.242082 
3839.000000	99.238775 
3838.000000	99.233634 
3837.000000	99.227838 
3836.000000	99.223868 
3835.000000	99.223263 
3834.000000	99.225195 
3833.000000	99.228169 
3832.000000	99.231524 
3831.000000	99.235709 
3830.000000	99.241609 
3829.000000	99.248172 
3828.000000	99.251795 
3827.000000	99.249058 
3826.000000	99.241702 
3825.000000	99.236811 
3824.000000	99.240183 
3823.000000	99.250440 
3822.000000	99.258906 
3821.000000	99.254487 
3820.000000	99.240930 
3819.000000	99.233128 
3818.000000	99.231541 
3817.000000	99.227987 
3816.000000	99.221018 
3815.000000	99.216807 
3814.000000	99.221484 
3813.000000	99.229822 
3812.000000	99.231626 
3811.000000	99.227232 
3810.000000	99.225141 
3809.000000	99.230523 
3808.000000	99.239397 
3807.000000	99.243185 
3806.000000	99.240795 
3805.000000	99.239199 
3804.000000	99.239475 
3803.000000	99.236624 
3802.000000	99.228510 
3801.000000	99.216357 
3800.000000	99.208841 
3799.000000	99.211463 
3798.000000	99.216071 
3797.000000	99.216342 
3796.000000	99.214940 
3795.000000	99.216643 
3794.000000	99.222051 
3793.000000	99.228083 
3792.000000	99.232871 
3791.000000	99.236933 
3790.000000	99.239992 
3789.000000	99.241200 
3788.000000	99.241998 
3787.000000	99.245562 
3786.000000	99.252474 
3785.000000	99.259554 
3784.000000	99.264238 
3783.000000	99.267292 
3782.000000	99.269858 
3781.000000	99.270625 
3780.000000	99.267289 
3779.000000	99.259346 
3778.000000	99.250248 
3777.000000	99.243878 
3776.000000	99.240402 
3775.000000	99.238555 
3774.000000	99.239501 
3773.000000	99.244735 
3772.000000	99.252084 
3771.000000	99.256012 
3770.000000	99.253193 
3769.000000	99.247064 
3768.000000	99.244154 
3767.000000	99.245426 
3766.000000	99.246632 
3765.000000	99.245816 
3764.000000	99.246037 
3763.000000	99.250208 
3762.000000	99.256318 
3761.000000	99.261014 
3760.000000	99.263838 
3759.000000	99.264080 
3758.000000	99.259832 
3757.000000	99.251157 
3756.000000	99.241398 
3755.000000	99.233949 
3754.000000	99.230351 
3753.000000	99.231780 
3752.000000	99.236837 
3751.000000	99.236652 
3750.000000	99.223443 
3749.000000	99.205167 
3748.000000	99.195439 
3747.000000	99.195469 
3746.000000	99.198103 
3745.000000	99.197549 
3744.000000	99.191690 
3743.000000	99.192351 
3742.000000	99.208067 
3741.000000	99.223340 
3740.000000	99.226764 
3739.000000	99.225231 
3738.000000	99.227789 
3737.000000	99.233862 
3736.000000	99.237539 
3735.000000	99.237588 
3734.000000	99.236971 
3733.000000	99.235846 
3732.000000	99.233168 
3731.000000	99.232297 
3730.000000	99.236156 
3729.000000	99.241074 
3728.000000	99.242030 
3727.000000	99.240539 
3726.000000	99.242251 
3725.000000	99.249218 
3724.000000	99.256520 
3723.000000	99.258280 
3722.000000	99.254493 
3721.000000	99.249767 
3720.000000	99.247909 
3719.000000	99.248114 
3718.000000	99.246896 
3717.000000	99.241974 
3716.000000	99.233792 
3715.000000	99.223657 
3714.000000	99.213051 
3713.000000	99.204417 
3712.000000	99.198660 
3711.000000	99.194287 
3710.000000	99.192023 
3709.000000	99.193454 
3708.000000	99.196595 
3707.000000	99.197642 
3706.000000	99.194592 
3705.000000	99.187907 
3704.000000	99.179350 
3703.000000	99.171099 
3702.000000	99.164484 
3701.000000	99.160192 
3700.000000	99.159365 
3699.000000	99.160488 
3698.000000	99.157787 
3697.000000	99.147185 
3696.000000	99.131503 
3695.000000	99.117574 
3694.000000	99.109196 
3693.000000	99.105323 
3692.000000	99.103518 
3691.000000	99.101313 
3690.000000	99.095313 
3689.000000	99.083112 
3688.000000	99.069623 
3687.000000	99.064586 
3686.000000	99.069691 
3685.000000	99.076905 
3684.000000	99.080465 
3683.000000	99.081992 
3682.000000	99.083970 
3681.000000	99.083495 
3680.000000	99.075082 
3679.000000	99.059154 
3678.000000	99.041745 
3677.000000	99.028451 
3676.000000	99.018941 
3675.000000	99.011216 
3674.000000	99.013730 
3673.000000	99.029621 
3672.000000	99.044890 
3671.000000	99.050921 
3670.000000	99.049565 
3669.000000	99.044503 
3668.000000	99.041431 
3667.000000	99.040989 
3666.000000	99.039732 
3665.000000	99.038378 
3664.000000	99.040145 
3663.000000	99.045589 
3662.000000	99.051857 
3661.000000	99.055845 
3660.000000	99.057214 
3659.000000	99.058297 
3658.000000	99.060524 
3657.000000	99.062406 
3656.000000	99.061588 
3655.000000	99.061267 
3654.000000	99.065912 
3653.000000	99.073300 
3652.000000	99.080405 
3651.000000	99.088902 
3650.000000	99.097000 
3649.000000	99.096170 
3648.000000	99.085520 
3647.000000	99.075463 
3646.000000	99.074339 
3645.000000	99.081812 
3644.000000	99.093250 
3643.000000	99.104737 
3642.000000	99.114704 
3641.000000	99.122969 
3640.000000	99.130128 
3639.000000	99.137462 
3638.000000	99.146663 
3637.000000	99.158434 
3636.000000	99.169668 
3635.000000	99.174483 
3634.000000	99.169965 
3633.000000	99.160127 
3632.000000	99.151952 
3631.000000	99.149826 
3630.000000	99.153384 
3629.000000	99.154456 
3628.000000	99.148022 
3627.000000	99.145034 
3626.000000	99.151080 
3625.000000	99.158836 
3624.000000	99.164163 
3623.000000	99.167982 
3622.000000	99.170992 
3621.000000	99.172798 
3620.000000	99.173261 
3619.000000	99.172646 
3618.000000	99.173145 
3617.000000	99.177880 
3616.000000	99.185454 
3615.000000	99.190305 
3614.000000	99.187964 
3613.000000	99.178536 
3612.000000	99.166800 
3611.000000	99.158468 
3610.000000	99.156417 
3609.000000	99.160586 
3608.000000	99.168692 
3607.000000	99.177600 
3606.000000	99.185021 
3605.000000	99.189822 
3604.000000	99.192408 
3603.000000	99.194369 
3602.000000	99.196464 
3601.000000	99.198603 
3600.000000	99.201571 
3599.000000	99.206663 
3598.000000	99.213037 
3597.000000	99.218185 
3596.000000	99.219698 
3595.000000	99.216773 
3594.000000	99.211028 
3593.000000	99.206892 
3592.000000	99.208664 
3591.000000	99.217136 
3590.000000	99.228967 
3589.000000	99.238028 
3588.000000	99.237810 
3587.000000	99.227262 
3586.000000	99.214094 
3585.000000	99.206253 
3584.000000	99.204114 
3583.000000	99.204371 
3582.000000	99.204870 
3581.000000	99.204984 
3580.000000	99.204546 
3579.000000	99.203757 
3578.000000	99.202904 
3577.000000	99.202470 
3576.000000	99.203156 
3575.000000	99.205363 
3574.000000	99.208623 
3573.000000	99.211557 
3572.000000	99.212812 
3571.000000	99.211766 
3570.000000	99.208670 
3569.000000	99.204219 
3568.000000	99.199176 
3567.000000	99.194767 
3566.000000	99.193882 
3565.000000	99.198738 
3564.000000	99.206398 
3563.000000	99.211420 
3562.000000	99.211498 
3561.000000	99.208333 
3560.000000	99.204927 
3559.000000	99.203073 
3558.000000	99.202774 
3557.000000	99.203259 
3556.000000	99.204384 
3555.000000	99.206457 
3554.000000	99.209006 
3553.000000	99.210461 
3552.000000	99.209705 
3551.000000	99.207298 
3550.000000	99.204317 
3549.000000	99.201049 
3548.000000	99.197952 
3547.000000	99.196446 
3546.000000	99.197597 
3545.000000	99.200886 
3544.000000	99.204757 
3543.000000	99.207691 
3542.000000	99.209029 
3541.000000	99.209329 
3540.000000	99.210334 
3539.000000	99.213689 
3538.000000	99.219123 
3537.000000	99.223970 
3536.000000	99.225057 
3535.000000	99.221464 
3534.000000	99.214987 
3533.000000	99.208636 
3532.000000	99.204853 
3531.000000	99.204809 
3530.000000	99.207980 
3529.000000	99.212531 
3528.000000	99.216597 
3527.000000	99.219369 
3526.000000	99.220700 
3525.000000	99.220228 
3524.000000	99.217847 
3523.000000	99.214637 
3522.000000	99.212348 
3521.000000	99.211522 
3520.000000	99.210857 
3519.000000	99.208897 
3518.000000	99.205954 
3517.000000	99.203915 
3516.000000	99.204191 
3515.000000	99.206498 
3514.000000	99.209422 
3513.000000	99.211620 
3512.000000	99.212230 
3511.000000	99.211167 
3510.000000	99.209499 
3509.000000	99.209110 
3508.000000	99.211176 
3507.000000	99.214703 
3506.000000	99.216732 
3505.000000	99.214392 
3504.000000	99.207173 
3503.000000	99.198010 
3502.000000	99.192239 
3501.000000	99.194153 
3500.000000	99.203287 
3499.000000	99.213980 
3498.000000	99.219267 
3497.000000	99.216340 
3496.000000	99.208832 
3495.000000	99.203202 
3494.000000	99.202666 
3493.000000	99.204862 
3492.000000	99.205265 
3491.000000	99.202219 
3490.000000	99.198410 
3489.000000	99.197740 
3488.000000	99.201280 
3487.000000	99.206477 
3486.000000	99.209922 
3485.000000	99.210452 
3484.000000	99.209668 
3483.000000	99.210072 
3482.000000	99.212661 
3481.000000	99.216122 
3480.000000	99.218136 
3479.000000	99.217472 
3478.000000	99.214859 
3477.000000	99.211856 
3476.000000	99.209161 
3475.000000	99.206387 
3474.000000	99.203562 
3473.000000	99.202026 
3472.000000	99.203201 
3471.000000	99.206886 
3470.000000	99.211451 
3469.000000	99.215448 
3468.000000	99.218387 
3467.000000	99.220070 
3466.000000	99.219952 
3465.000000	99.217449 
3464.000000	99.212616 
3463.000000	99.206330 
3462.000000	99.199904 
3461.000000	99.194573 
3460.000000	99.191151 
3459.000000	99.190026 
3458.000000	99.191253 
3457.000000	99.194307 
3456.000000	99.197760 
3455.000000	99.199870 
3454.000000	99.199917 
3453.000000	99.198882 
3452.000000	99.198502 
3451.000000	99.199786 
3450.000000	99.202364 
3449.000000	99.204961 
3448.000000	99.206157 
3447.000000	99.205131 
3446.000000	99.202458 
3445.000000	99.200047 
3444.000000	99.199558 
3443.000000	99.200727 
3442.000000	99.201566 
3441.000000	99.200647 
3440.000000	99.199018 
3439.000000	99.199176 
3438.000000	99.202111 
3437.000000	99.205846 
3436.000000	99.207228 
3435.000000	99.205112 
3434.000000	99.201474 
3433.000000	99.199618 
3432.000000	99.201320 
3431.000000	99.205467 
3430.000000	99.209013 
3429.000000	99.209343 
3428.000000	99.206120 
3427.000000	99.201097 
3426.000000	99.196514 
3425.000000	99.193876 
3424.000000	99.193852 
3423.000000	99.196319 
3422.000000	99.199958 
3421.000000	99.202402 
3420.000000	99.201794 
3419.000000	99.198545 
3418.000000	99.195138 
3417.000000	99.193892 
3416.000000	99.194924 
3415.000000	99.196354 
3414.000000	99.196340 
3413.000000	99.194771 
3412.000000	99.193059 
3411.000000	99.192731 
3410.000000	99.194533 
3409.000000	99.198386 
3408.000000	99.203295 
3407.000000	99.207171 
3406.000000	99.207770 
3405.000000	99.204685 
3404.000000	99.200249 
3403.000000	99.197874 
3402.000000	99.199308 
3401.000000	99.203529 
3400.000000	99.207982 
3399.000000	99.210751 
3398.000000	99.211950 
3397.000000	99.213260 
3396.000000	99.215830 
3395.000000	99.218585 
3394.000000	99.219188 
3393.000000	99.216751 
3392.000000	99.212897 
3391.000000	99.209702 
3390.000000	99.207405 
3389.000000	99.204883 
3388.000000	99.201735 
3387.000000	99.198856 
3386.000000	99.197191 
3385.000000	99.196875 
3384.000000	99.197586 
3383.000000	99.198895 
3382.000000	99.200005 
3381.000000	99.199779 
3380.000000	99.197478 
3379.000000	99.193508 
3378.000000	99.189537 
3377.000000	99.187947 
3376.000000	99.190641 
3375.000000	99.197661 
3374.000000	99.206798 
3373.000000	99.214824 
3372.000000	99.219398 
3371.000000	99.220110 
3370.000000	99.218360 
3369.000000	99.216493 
3368.000000	99.216349 
3367.000000	99.217752 
3366.000000	99.218496 
3365.000000	99.216530 
3364.000000	99.212221 
3363.000000	99.207992 
3362.000000	99.205773 
3361.000000	99.205308 
3360.000000	99.204991 
3359.000000	99.203784 
3358.000000	99.202196 
3357.000000	99.201762 
3356.000000	99.203665 
3355.000000	99.207393 
3354.000000	99.210728 
3353.000000	99.211613 
3352.000000	99.210282 
3351.000000	99.209237 
3350.000000	99.210963 
3349.000000	99.215847 
3348.000000	99.222211 
3347.000000	99.227775 
3346.000000	99.230950 
3345.000000	99.231383 
3344.000000	99.229784 
3343.000000	99.227094 
3342.000000	99.223674 
3341.000000	99.219664 
3340.000000	99.216044 
3339.000000	99.214470 
3338.000000	99.215421 
3337.000000	99.217074 
3336.000000	99.216927 
3335.000000	99.214621 
3334.000000	99.212426 
3333.000000	99.212748 
3332.000000	99.215497 
3331.000000	99.218166 
3330.000000	99.218467 
3329.000000	99.216834 
3328.000000	99.216182 
3327.000000	99.218796 
3326.000000	99.223474 
3325.000000	99.226482 
3324.000000	99.225711 
3323.000000	99.223249 
3322.000000	99.222871 
3321.000000	99.225329 
3320.000000	99.227197 
3319.000000	99.224729 
3318.000000	99.218055 
3317.000000	99.211052 
3316.000000	99.207679 
3315.000000	99.209088 
3314.000000	99.213779 
3313.000000	99.219467 
3312.000000	99.224463 
3311.000000	99.227945 
3310.000000	99.229719 
3309.000000	99.230023 
3308.000000	99.229479 
3307.000000	99.228871 
3306.000000	99.228490 
3305.000000	99.227518 
3304.000000	99.224520 
3303.000000	99.219206 
3302.000000	99.213755 
3301.000000	99.211723 
3300.000000	99.214975 
3299.000000	99.221788 
3298.000000	99.228229 
3297.000000	99.231497 
3296.000000	99.231894 
3295.000000	99.231787 
3294.000000	99.233097 
3293.000000	99.235908 
3292.000000	99.239048 
3291.000000	99.241531 
3290.000000	99.243195 
3289.000000	99.244137 
3288.000000	99.244069 
3287.000000	99.242632 
3286.000000	99.240235 
3285.000000	99.238087 
3284.000000	99.237146 
3283.000000	99.237271 
3282.000000	99.237614 
3281.000000	99.237484 
3280.000000	99.236529 
3279.000000	99.234465 
3278.000000	99.231271 
3277.000000	99.227576 
3276.000000	99.224359 
3275.000000	99.222209 
3274.000000	99.221200 
3273.000000	99.221218 
3272.000000	99.221794 
3271.000000	99.221726 
3270.000000	99.219827 
3269.000000	99.216530 
3268.000000	99.214250 
3267.000000	99.215619 
3266.000000	99.221315 
3265.000000	99.229619 
3264.000000	99.237678 
3263.000000	99.243202 
3262.000000	99.245750 
3261.000000	99.246799 
3260.000000	99.248159 
3259.000000	99.249928 
3258.000000	99.250323 
3257.000000	99.247686 
3256.000000	99.242292 
3255.000000	99.236066 
3254.000000	99.231133 
3253.000000	99.228978 
3252.000000	99.230136 
3251.000000	99.233753 
3250.000000	99.237695 
3249.000000	99.239945 
3248.000000	99.239998 
3247.000000	99.238538 
3246.000000	99.236069 
3245.000000	99.232583 
3244.000000	99.228621 
3243.000000	99.226026 
3242.000000	99.227211 
3241.000000	99.233325 
3240.000000	99.242502 
3239.000000	99.249925 
3238.000000	99.250884 
3237.000000	99.245001 
3236.000000	99.237167 
3235.000000	99.233224 
3234.000000	99.234667 
3233.000000	99.238253 
3232.000000	99.240397 
3231.000000	99.240621 
3230.000000	99.240557 
3229.000000	99.241044 
3228.000000	99.241241 
3227.000000	99.239947 
3226.000000	99.236911 
3225.000000	99.233091 
3224.000000	99.230118 
3223.000000	99.229219 
3222.000000	99.230256 
3221.000000	99.232056 
3220.000000	99.233816 
3219.000000	99.235656 
3218.000000	99.237506 
3217.000000	99.238234 
3216.000000	99.236784 
3215.000000	99.233902 
3214.000000	99.231822 
3213.000000	99.232095 
3212.000000	99.234347 
3211.000000	99.237243 
3210.000000	99.239964 
3209.000000	99.242404 
3208.000000	99.244486 
3207.000000	99.245847 
3206.000000	99.246228 
3205.000000	99.245945 
3204.000000	99.245887 
3203.000000	99.246968 
3202.000000	99.249479 
3201.000000	99.252871 
3200.000000	99.256072 
3199.000000	99.257955 
3198.000000	99.257786 
3197.000000	99.255796 
3196.000000	99.253442 
3195.000000	99.252451 
3194.000000	99.253031 
3193.000000	99.253409 
3192.000000	99.251841 
3191.000000	99.248930 
3190.000000	99.247272 
3189.000000	99.248781 
3188.000000	99.252996 
3187.000000	99.257902 
3186.000000	99.261510 
3185.000000	99.262354 
3184.000000	99.259643 
3183.000000	99.254107 
3182.000000	99.248349 
3181.000000	99.245200 
3180.000000	99.245381 
3179.000000	99.247139 
3178.000000	99.248173 
3177.000000	99.247502 
3176.000000	99.245592 
3175.000000	99.243612 
3174.000000	99.243100 
3173.000000	99.245585 
3172.000000	99.251339 
3171.000000	99.258182 
3170.000000	99.262403 
3169.000000	99.261809 
3168.000000	99.258094 
3167.000000	99.255774 
3166.000000	99.258317 
3165.000000	99.265056 
3164.000000	99.271755 
3163.000000	99.274180 
3162.000000	99.271419 
3161.000000	99.266335 
3160.000000	99.263127 
3159.000000	99.264079 
3158.000000	99.267940 
3157.000000	99.271156 
3156.000000	99.270890 
3155.000000	99.267294 
3154.000000	99.263292 
3153.000000	99.262384 
3152.000000	99.266221 
3151.000000	99.273298 
3150.000000	99.279503 
3149.000000	99.280810 
3148.000000	99.276618 
3147.000000	99.270549 
3146.000000	99.267177 
3145.000000	99.267866 
3144.000000	99.270406 
3143.000000	99.272602 
3142.000000	99.274871 
3141.000000	99.278647 
3140.000000	99.283316 
3139.000000	99.286198 
3138.000000	99.285589 
3137.000000	99.282720 
3136.000000	99.280201 
3135.000000	99.279139 
3134.000000	99.278316 
3133.000000	99.275955 
3132.000000	99.271813 
3131.000000	99.267438 
3130.000000	99.264550 
3129.000000	99.263405 
3128.000000	99.262824 
3127.000000	99.261694 
3126.000000	99.260206 
3125.000000	99.259590 
3124.000000	99.260949 
3123.000000	99.264347 
3122.000000	99.268756 
3121.000000	99.272844 
3120.000000	99.276032 
3119.000000	99.278669 
3118.000000	99.280959 
3117.000000	99.282021 
3116.000000	99.280715 
3115.000000	99.277325 
3114.000000	99.273442 
3113.000000	99.269990 
3112.000000	99.266558 
3111.000000	99.263402 
3110.000000	99.262776 
3109.000000	99.266607 
3108.000000	99.273184 
3107.000000	99.277758 
3106.000000	99.276949 
3105.000000	99.271834 
3104.000000	99.266632 
3103.000000	99.265190 
3102.000000	99.268753 
3101.000000	99.275745 
3100.000000	99.282696 
3099.000000	99.285986 
3098.000000	99.284154 
3097.000000	99.279218 
3096.000000	99.275326 
3095.000000	99.275527 
3094.000000	99.279612 
3093.000000	99.284863 
3092.000000	99.288454 
3091.000000	99.289080 
3090.000000	99.287046 
3089.000000	99.283831 
3088.000000	99.281708 
3087.000000	99.282672 
3086.000000	99.286584 
3085.000000	99.290560 
3084.000000	99.291341 
3083.000000	99.288642 
3082.000000	99.285497 
3081.000000	99.284926 
3080.000000	99.286847 
3079.000000	99.288654 
3078.000000	99.288015 
3077.000000	99.284452 
3076.000000	99.279073 
3075.000000	99.273981 
3074.000000	99.271556 
3073.000000	99.272913 
3072.000000	99.276859 
3071.000000	99.281190 
3070.000000	99.284898 
3069.000000	99.288084 
3068.000000	99.289886 
3067.000000	99.288285 
3066.000000	99.282905 
3065.000000	99.276657 
3064.000000	99.273109 
3063.000000	99.272707 
3062.000000	99.272967 
3061.000000	99.272223 
3060.000000	99.271821 
3059.000000	99.274097 
3058.000000	99.279107 
3057.000000	99.284230 
3056.000000	99.286849 
3055.000000	99.286868 
3054.000000	99.286313 
3053.000000	99.286774 
3052.000000	99.287711 
3051.000000	99.287405 
3050.000000	99.285075 
3049.000000	99.281404 
3048.000000	99.277118 
3047.000000	99.272022 
3046.000000	99.266003 
3045.000000	99.260199 
3044.000000	99.256226 
3043.000000	99.254414 
3042.000000	99.253569 
3041.000000	99.252382 
3040.000000	99.250461 
3039.000000	99.248039 
3038.000000	99.245366 
3037.000000	99.242529 
3036.000000	99.239316 
3035.000000	99.235101 
3034.000000	99.229386 
3033.000000	99.222591 
3032.000000	99.215727 
3031.000000	99.208991 
3030.000000	99.201102 
3029.000000	99.190444 
3028.000000	99.176761 
3027.000000	99.161716 
3026.000000	99.147989 
3025.000000	99.137584 
3024.000000	99.130287 
3023.000000	99.123374 
3022.000000	99.113317 
3021.000000	99.098527 
3020.000000	99.080782 
3019.000000	99.063905 
3018.000000	99.050957 
3017.000000	99.042296 
3016.000000	99.035579 
3015.000000	99.027261 
3014.000000	99.014573 
3013.000000	98.996919 
3012.000000	98.975704 
3011.000000	98.952849 
3010.000000	98.929678 
3009.000000	98.907270 
3008.000000	98.887156 
3007.000000	98.870774 
3006.000000	98.858089 
3005.000000	98.847150 
3004.000000	98.835061 
3003.000000	98.819247 
3002.000000	98.798480 
3001.000000	98.774014 
3000.000000	98.749884 
2999.000000	98.730622 
2998.000000	98.717620 
2997.000000	98.708419 
2996.000000	98.700117 
2995.000000	98.691917 
2994.000000	98.682566 
2993.000000	98.666846 
2992.000000	98.638786 
2991.000000	98.599939 
2990.000000	98.561865 
2989.000000	98.537449 
2988.000000	98.530206 
2987.000000	98.533808 
2986.000000	98.540792 
2985.000000	98.548799 
2984.000000	98.558316 
2983.000000	98.568042 
2982.000000	98.574984 
2981.000000	98.577785 
2980.000000	98.577862 
2979.000000	98.577360 
2978.000000	98.577190 
2977.000000	98.576924 
2976.000000	98.575558 
2975.000000	98.572324 
2974.000000	98.567500 
2973.000000	98.562637 
2972.000000	98.559685 
2971.000000	98.559898 
2970.000000	98.563667 
2969.000000	98.570959 
2968.000000	98.581485 
2967.000000	98.594690 
2966.000000	98.609916 
2965.000000	98.626287 
2964.000000	98.642364 
2963.000000	98.656623 
2962.000000	98.668726 
2961.000000	98.679620 
2960.000000	98.689917 
2959.000000	98.699101 
2958.000000	98.707225 
2957.000000	98.716279 
2956.000000	98.727962 
2955.000000	98.740386 
2954.000000	98.749117 
2953.000000	98.752598 
2952.000000	98.755165 
2951.000000	98.763160 
2950.000000	98.778197 
2949.000000	98.795227 
2948.000000	98.807325 
2947.000000	98.811688 
2946.000000	98.810961 
2945.000000	98.809634 
2944.000000	98.810114 
2943.000000	98.812071 
2942.000000	98.814234 
2941.000000	98.815689 
2940.000000	98.815721 
2939.000000	98.813853 
2938.000000	98.810839 
2937.000000	98.809004 
2936.000000	98.810635 
2935.000000	98.815909 
2934.000000	98.822648 
2933.000000	98.827881 
2932.000000	98.829532 
2931.000000	98.827250 
2930.000000	98.822405 
2929.000000	98.817153 
2928.000000	98.812879 
2927.000000	98.809452 
2926.000000	98.806148 
2925.000000	98.802928 
2924.000000	98.800452 
2923.000000	98.799329 
2922.000000	98.799869 
2921.000000	98.801922 
2920.000000	98.804122 
2919.000000	98.803858 
2918.000000	98.799317 
2917.000000	98.791576 
2916.000000	98.783674 
2915.000000	98.777492 
2914.000000	98.772453 
2913.000000	98.767451 
2912.000000	98.762815 
2911.000000	98.759618 
2910.000000	98.757837 
2909.000000	98.756219 
2908.000000	98.753728 
2907.000000	98.750187 
2906.000000	98.745208 
2905.000000	98.737123 
2904.000000	98.724003 
2903.000000	98.706600 
2902.000000	98.690476 
2901.000000	98.683947 
2900.000000	98.692319 
2899.000000	98.713170 
2898.000000	98.737410 
2897.000000	98.755857 
2896.000000	98.765246 
2895.000000	98.768864 
2894.000000	98.772262 
2893.000000	98.778405 
2892.000000	98.786096 
2891.000000	98.792068 
2890.000000	98.794345 
2889.000000	98.793861 
2888.000000	98.793287 
2887.000000	98.794818 
2886.000000	98.799277 
2885.000000	98.806574 
2884.000000	98.816081 
2883.000000	98.826642 
2882.000000	98.837144 
2881.000000	98.847454 
2880.000000	98.858343 
2879.000000	98.870359 
2878.000000	98.883257 
2877.000000	98.896406 
2876.000000	98.908873 
2875.000000	98.918937 
2874.000000	98.924731 
2873.000000	98.926382 
2872.000000	98.926995 
2871.000000	98.930487 
2870.000000	98.938418 
2869.000000	98.949357 
2868.000000	98.961138 
2867.000000	98.973133 
2866.000000	98.986398 
2865.000000	99.002089 
2864.000000	99.019785 
2863.000000	99.037048 
2862.000000	99.050808 
2861.000000	99.059793 
2860.000000	99.065808 
2859.000000	99.072298 
2858.000000	99.081400 
2857.000000	99.092472 
2856.000000	99.103391 
2855.000000	99.112967 
2854.000000	99.121861 
2853.000000	99.131248 
2852.000000	99.140982 
2851.000000	99.149521 
2850.000000	99.155794 
2849.000000	99.160783 
2848.000000	99.166806 
2847.000000	99.175338 
2846.000000	99.185718 
2845.000000	99.195692 
2844.000000	99.202815 
2843.000000	99.205842 
2842.000000	99.205859 
2841.000000	99.206101 
2840.000000	99.209507 
2839.000000	99.215742 
2838.000000	99.221198 
2837.000000	99.222537 
2836.000000	99.219896 
2835.000000	99.216396 
2834.000000	99.215237 
2833.000000	99.217760 
2832.000000	99.223426 
2831.000000	99.230501 
2830.000000	99.236892 
2829.000000	99.241396 
2828.000000	99.244488 
2827.000000	99.247483 
2826.000000	99.250890 
2825.000000	99.254012 
2824.000000	99.256203 
2823.000000	99.258011 
2822.000000	99.260800 
2821.000000	99.265305 
2820.000000	99.270606 
2819.000000	99.274589 
2818.000000	99.275786 
2817.000000	99.274939 
2816.000000	99.274421 
2815.000000	99.275828 
2814.000000	99.278495 
2813.000000	99.280566 
2812.000000	99.281018 
2811.000000	99.280124 
2810.000000	99.278557 
2809.000000	99.276920 
2808.000000	99.275926 
2807.000000	99.276077 
2806.000000	99.277002 
2805.000000	99.277819 
2804.000000	99.278381 
2803.000000	99.279594 
2802.000000	99.282164 
2801.000000	99.285410 
2800.000000	99.287640 
2799.000000	99.287611 
2798.000000	99.285623 
2797.000000	99.283391 
2796.000000	99.282757 
2795.000000	99.284168 
2794.000000	99.286267 
2793.000000	99.287136 
2792.000000	99.285940 
2791.000000	99.283450 
2790.000000	99.281416 
2789.000000	99.281650 
2788.000000	99.285032 
2787.000000	99.290596 
2786.000000	99.295852 
2785.000000	99.298845 
2784.000000	99.299891 
2783.000000	99.300575 
2782.000000	99.301278 
2781.000000	99.300801 
2780.000000	99.298602 
2779.000000	99.296213 
2778.000000	99.295713 
2777.000000	99.297489 
2776.000000	99.300145 
2775.000000	99.302069 
2774.000000	99.302485 
2773.000000	99.301521 
2772.000000	99.300044 
2771.000000	99.299294 
2770.000000	99.300129 
2769.000000	99.302576 
2768.000000	99.306192 
2767.000000	99.310343 
2766.000000	99.313847 
2765.000000	99.315150 
2764.000000	99.313772 
2763.000000	99.311322 
2762.000000	99.310301 
2761.000000	99.311940 
2760.000000	99.315630 
2759.000000	99.319998 
2758.000000	99.323726 
2757.000000	99.325701 
2756.000000	99.325628 
2755.000000	99.324663 
2754.000000	99.324382 
2753.000000	99.324717 
2752.000000	99.323854 
2751.000000	99.320730 
2750.000000	99.316833 
2749.000000	99.314717 
2748.000000	99.315165 
2747.000000	99.316593 
2746.000000	99.316989 
2745.000000	99.315763 
2744.000000	99.313841 
2743.000000	99.312649 
2742.000000	99.313125 
2741.000000	99.315247 
2740.000000	99.318288 
2739.000000	99.321573 
2738.000000	99.324890 
2737.000000	99.328016 
2736.000000	99.330243 
2735.000000	99.330822 
2734.000000	99.329794 
2733.000000	99.327977 
2732.000000	99.326198 
2731.000000	99.324888 
2730.000000	99.324246 
2729.000000	99.324313 
2728.000000	99.324889 
2727.000000	99.325740 
2726.000000	99.326868 
2725.000000	99.328299 
2724.000000	99.329822 
2723.000000	99.331412 
2722.000000	99.333593 
2721.000000	99.336625 
2720.000000	99.339376 
2719.000000	99.339966 
2718.000000	99.337877 
2717.000000	99.334790 
2716.000000	99.333078 
2715.000000	99.333990 
2714.000000	99.337346 
2713.000000	99.341922 
2712.000000	99.345632 
2711.000000	99.346579 
2710.000000	99.345135 
2709.000000	99.344334 
2708.000000	99.346772 
2707.000000	99.351171 
2706.000000	99.353235 
2705.000000	99.350262 
2704.000000	99.344038 
2703.000000	99.338811 
2702.000000	99.337142 
2701.000000	99.338095 
2700.000000	99.338855 
2699.000000	99.337440 
2698.000000	99.334091 
2697.000000	99.330763 
2696.000000	99.329629 
2695.000000	99.331914 
2694.000000	99.337495 
2693.000000	99.344673 
2692.000000	99.350076 
2691.000000	99.350063 
2690.000000	99.343903 
2689.000000	99.335749 
2688.000000	99.331987 
2687.000000	99.335543 
2686.000000	99.343061 
2685.000000	99.348156 
2684.000000	99.347259 
2683.000000	99.342187 
2682.000000	99.337814 
2681.000000	99.337897 
2680.000000	99.342540 
2679.000000	99.348460 
2678.000000	99.351520 
2677.000000	99.349877 
2676.000000	99.345496 
2675.000000	99.342572 
2674.000000	99.344110 
2673.000000	99.349602 
2672.000000	99.355513 
2671.000000	99.357742 
2670.000000	99.354037 
2669.000000	99.345219 
2668.000000	99.334983 
2667.000000	99.328326 
2666.000000	99.328845 
2665.000000	99.336190 
2664.000000	99.345851 
2663.000000	99.352206 
2662.000000	99.352693 
2661.000000	99.349323 
2660.000000	99.346139 
2659.000000	99.345455 
2658.000000	99.346636 
2657.000000	99.347818 
2656.000000	99.347902 
2655.000000	99.346945 
2654.000000	99.345572 
2653.000000	99.344504 
2652.000000	99.344134 
2651.000000	99.344001 
2650.000000	99.342879 
2649.000000	99.339877 
2648.000000	99.335655 
2647.000000	99.332501 
2646.000000	99.332965 
2645.000000	99.337784 
2644.000000	99.344598 
2643.000000	99.349047 
2642.000000	99.348100 
2641.000000	99.342859 
2640.000000	99.337872 
2639.000000	99.337585 
2638.000000	99.343359 
2637.000000	99.352965 
2636.000000	99.361759 
2635.000000	99.364818 
2634.000000	99.360125 
2633.000000	99.350939 
2632.000000	99.343898 
2631.000000	99.343247 
2630.000000	99.347104 
2629.000000	99.350073 
2628.000000	99.348953 
2627.000000	99.345175 
2626.000000	99.342485 
2625.000000	99.343629 
2624.000000	99.348787 
2623.000000	99.355416 
2622.000000	99.359271 
2621.000000	99.357107 
2620.000000	99.349545 
2619.000000	99.340992 
2618.000000	99.336307 
2617.000000	99.337560 
2616.000000	99.343556 
2615.000000	99.351292 
2614.000000	99.357478 
2613.000000	99.359895 
2612.000000	99.358643 
2611.000000	99.356187 
2610.000000	99.355393 
2609.000000	99.357054 
2608.000000	99.359325 
2607.000000	99.359704 
2606.000000	99.357667 
2605.000000	99.355351 
2604.000000	99.355346 
2603.000000	99.357682 
2602.000000	99.359411 
2601.000000	99.357683 
2600.000000	99.353061 
2599.000000	99.349275 
2598.000000	99.349829 
2597.000000	99.355199 
2596.000000	99.362774 
2595.000000	99.368443 
2594.000000	99.368546 
2593.000000	99.362225 
2592.000000	99.353105 
2591.000000	99.347726 
2590.000000	99.350651 
2589.000000	99.360578 
2588.000000	99.371466 
2587.000000	99.377201 
2586.000000	99.375032 
2585.000000	99.365879 
2584.000000	99.353386 
2583.000000	99.342890 
2582.000000	99.339129 
2581.000000	99.342750 
2580.000000	99.349041 
2579.000000	99.351528 
2578.000000	99.347777 
2577.000000	99.341613 
2576.000000	99.339409 
2575.000000	99.344076 
2574.000000	99.352375 
2573.000000	99.357676 
2572.000000	99.355481 
2571.000000	99.346904 
2570.000000	99.337303 
2569.000000	99.331686 
2568.000000	99.331387 
2567.000000	99.334695 
2566.000000	99.339533 
2565.000000	99.344672 
2564.000000	99.349127 
2563.000000	99.352000 
2562.000000	99.353344 
2561.000000	99.354085 
2560.000000	99.354593 
2559.000000	99.354182 
2558.000000	99.352433 
2557.000000	99.350024 
2556.000000	99.347700 
2555.000000	99.345573 
2554.000000	99.344211 
2553.000000	99.345031 
2552.000000	99.348298 
2551.000000	99.351920 
2550.000000	99.354042 
2549.000000	99.355846 
2548.000000	99.359456 
2547.000000	99.363430 
2546.000000	99.363170 
2545.000000	99.356724 
2544.000000	99.348221 
2543.000000	99.344322 
2542.000000	99.348409 
2541.000000	99.358685 
2540.000000	99.369977 
2539.000000	99.376075 
2538.000000	99.372202 
2537.000000	99.358134 
2536.000000	99.339695 
2535.000000	99.326031 
2534.000000	99.324049 
2533.000000	99.333893 
2532.000000	99.348313 
2531.000000	99.356982 
2530.000000	99.354111 
2529.000000	99.343595 
2528.000000	99.335741 
2527.000000	99.337757 
2526.000000	99.348025 
2525.000000	99.359772 
2524.000000	99.368220 
2523.000000	99.372771 
2522.000000	99.374404 
2521.000000	99.374004 
2520.000000	99.372836 
2519.000000	99.371981 
2518.000000	99.370716 
2517.000000	99.367119 
2516.000000	99.360921 
2515.000000	99.354687 
2514.000000	99.351775 
2513.000000	99.353543 
2512.000000	99.358060 
2511.000000	99.360736 
2510.000000	99.357347 
2509.000000	99.348577 
2508.000000	99.341291 
2507.000000	99.342795 
2506.000000	99.352837 
2505.000000	99.362699 
2504.000000	99.363231 
2503.000000	99.352958 
2502.000000	99.338248 
2501.000000	99.327587 
2500.000000	99.326716 
2499.000000	99.336935 
2498.000000	99.354813 
2497.000000	99.373031 
2496.000000	99.383733 
2495.000000	99.383141 
2494.000000	99.373571 
2493.000000	99.361054 
2492.000000	99.350935 
2491.000000	99.345020 
2490.000000	99.341672 
2489.000000	99.337892 
2488.000000	99.331770 
2487.000000	99.324186 
2486.000000	99.318929 
2485.000000	99.320561 
2484.000000	99.330540 
2483.000000	99.344599 
2482.000000	99.354802 
2481.000000	99.355755 
2480.000000	99.349367 
2479.000000	99.342900 
2478.000000	99.342146 
2477.000000	99.346712 
2476.000000	99.351628 
2475.000000	99.352602 
2474.000000	99.349471 
2473.000000	99.345657 
2472.000000	99.345238 
2471.000000	99.350127 
2470.000000	99.358748 
2469.000000	99.366531 
2468.000000	99.368131 
2467.000000	99.360672 
2466.000000	99.346479 
2465.000000	99.332914 
2464.000000	99.327948 
2463.000000	99.333873 
2462.000000	99.344783 
2461.000000	99.351153 
2460.000000	99.347997 
2459.000000	99.338985 
2458.000000	99.332799 
2457.000000	99.335487 
2456.000000	99.345664 
2455.000000	99.355991 
2454.000000	99.358970 
2453.000000	99.352354 
2452.000000	99.340412 
2451.000000	99.330551 
2450.000000	99.328064 
2449.000000	99.332860 
2448.000000	99.340251 
2447.000000	99.345002 
2446.000000	99.345426 
2445.000000	99.344197 
2444.000000	99.345178 
2443.000000	99.349428 
2442.000000	99.354513 
2441.000000	99.357412 
2440.000000	99.357239 
2439.000000	99.355127 
2438.000000	99.352812 
2437.000000	99.352088 
2436.000000	99.354166 
2435.000000	99.357704 
2434.000000	99.358049 
2433.000000	99.350844 
2432.000000	99.337345 
2431.000000	99.324777 
2430.000000	99.320278 
2429.000000	99.324992 
2428.000000	99.334607 
2427.000000	99.344360 
2426.000000	99.351850 
2425.000000	99.355544 
2424.000000	99.353310 
2423.000000	99.344415 
2422.000000	99.332331 
2421.000000	99.323484 
2420.000000	99.322068 
2419.000000	99.326600 
2418.000000	99.332176 
2417.000000	99.335537 
2416.000000	99.337028 
2415.000000	99.338097 
2414.000000	99.338631 
2413.000000	99.337595 
2412.000000	99.335234 
2411.000000	99.333294 
2410.000000	99.333223 
2409.000000	99.335068 
2408.000000	99.338122 
2407.000000	99.341812 
2406.000000	99.345615 
2405.000000	99.348745 
2404.000000	99.350530 
2403.000000	99.351028 
2402.000000	99.350963 
2401.000000	99.350877 
2400.000000	99.350349 
2399.000000	99.348212 
2398.000000	99.343842 
2397.000000	99.338399 
2396.000000	99.334538 
2395.000000	99.334553 
2394.000000	99.338528 
2393.000000	99.344083 
2392.000000	99.347972 
2391.000000	99.348511 
2390.000000	99.347041 
2389.000000	99.346822 
2388.000000	99.349795 
2387.000000	99.354518 
2386.000000	99.357937 
2385.000000	99.358985 
2384.000000	99.359455 
2383.000000	99.361322 
2382.000000	99.364583 
2381.000000	99.368094 
2380.000000	99.370879 
2379.000000	99.371341 
2378.000000	99.366816 
2377.000000	99.356568 
2376.000000	99.345130 
2375.000000	99.340063 
2374.000000	99.344943 
2373.000000	99.355829 
2372.000000	99.366004 
2371.000000	99.373178 
2370.000000	99.380391 
2369.000000	99.390339 
2368.000000	99.400634 
2367.000000	99.405460 
2366.000000	99.401408 
2365.000000	99.390964 
2364.000000	99.379791 
2363.000000	99.371312 
2362.000000	99.365979 
2361.000000	99.364178 
2360.000000	99.366709 
2359.000000	99.372694 
2358.000000	99.378224 
2357.000000	99.380378 
2356.000000	99.380681 
2355.000000	99.382828 
2354.000000	99.388244 
2353.000000	99.393854 
2352.000000	99.396283 
2351.000000	99.393958 
2350.000000	99.386161 
2349.000000	99.374052 
2348.000000	99.361994 
2347.000000	99.357108 
2346.000000	99.361811 
2345.000000	99.370422 
2344.000000	99.375373 
2343.000000	99.374595 
2342.000000	99.372438 
2341.000000	99.372631 
2340.000000	99.375628 
2339.000000	99.379234 
2338.000000	99.381260 
2337.000000	99.380408 
2336.000000	99.376903 
2335.000000	99.372560 
2334.000000	99.370051 
2333.000000	99.370177 
2332.000000	99.371349 
2331.000000	99.370831 
2330.000000	99.366592 
2329.000000	99.359378 
2328.000000	99.351655 
2327.000000	99.347958 
2326.000000	99.350324 
2325.000000	99.356236 
2324.000000	99.360004 
2323.000000	99.358476 
2322.000000	99.355178 
2321.000000	99.355530 
2320.000000	99.360986 
2319.000000	99.367651 
2318.000000	99.371768 
2317.000000	99.372724 
2316.000000	99.371395 
2315.000000	99.368050 
2314.000000	99.363102 
2313.000000	99.359098 
2312.000000	99.358971 
2311.000000	99.363592 
2310.000000	99.370790 
2309.000000	99.377570 
2308.000000	99.381191 
2307.000000	99.379885 
2306.000000	99.373626 
2305.000000	99.365200 
2304.000000	99.358488 
2303.000000	99.355003 
2302.000000	99.352743 
2301.000000	99.349073 
2300.000000	99.343648 
2299.000000	99.338313 
2298.000000	99.334826 
2297.000000	99.333992 
2296.000000	99.335359 
2295.000000	99.337296 
2294.000000	99.337334 
2293.000000	99.334369 
2292.000000	99.329848 
2291.000000	99.326517 
2290.000000	99.325776 
2289.000000	99.326856 
2288.000000	99.327710 
2287.000000	99.326162 
2286.000000	99.321186 
2285.000000	99.314349 
2284.000000	99.309396 
2283.000000	99.308581 
2282.000000	99.309497 
2281.000000	99.306926 
2280.000000	99.298704 
2279.000000	99.288821 
2278.000000	99.284290 
2277.000000	99.288975 
2276.000000	99.300304 
2275.000000	99.311368 
2274.000000	99.315928 
2273.000000	99.311988 
2272.000000	99.301545 
2271.000000	99.288438 
2270.000000	99.277468 
2269.000000	99.274178 
2268.000000	99.282102 
2267.000000	99.298670 
2266.000000	99.315379 
2265.000000	99.323964 
2264.000000	99.322494 
2263.000000	99.315660 
2262.000000	99.310651 
2261.000000	99.312685 
2260.000000	99.321308 
2259.000000	99.329285 
2258.000000	99.327919 
2257.000000	99.316278 
2256.000000	99.303388 
2255.000000	99.298328 
2254.000000	99.300034 
2253.000000	99.300334 
2252.000000	99.295747 
2251.000000	99.291914 
2250.000000	99.296254 
2249.000000	99.309827 
2248.000000	99.326818 
2247.000000	99.338925 
2246.000000	99.339496 
2245.000000	99.326977 
2244.000000	99.306647 
2243.000000	99.287562 
2242.000000	99.276110 
2241.000000	99.272352 
2240.000000	99.271903 
2239.000000	99.270082 
2238.000000	99.264725 
2237.000000	99.257070 
2236.000000	99.250341 
2235.000000	99.246286 
2234.000000	99.243383 
2233.000000	99.239672 
2232.000000	99.236411 
2231.000000	99.237028 
2230.000000	99.243360 
2229.000000	99.255246 
2228.000000	99.272661 
2227.000000	99.294349 
2226.000000	99.313767 
2225.000000	99.320539 
2224.000000	99.309284 
2223.000000	99.286300 
2222.000000	99.265971 
2221.000000	99.259925 
2220.000000	99.268327 
2219.000000	99.280551 
2218.000000	99.285386 
2217.000000	99.282342 
2216.000000	99.282089 
2215.000000	99.293538 
2214.000000	99.311543 
2213.000000	99.320395 
2212.000000	99.310075 
2211.000000	99.287221 
2210.000000	99.269992 
2209.000000	99.273248 
2208.000000	99.296813 
2207.000000	99.325244 
2206.000000	99.339208 
2205.000000	99.329790 
2204.000000	99.303234 
2203.000000	99.272583 
2202.000000	99.247650 
2201.000000	99.233221 
2200.000000	99.230365 
2199.000000	99.234263 
2198.000000	99.234670 
2197.000000	99.225656 
2196.000000	99.214242 
2195.000000	99.213805 
2194.000000	99.229404 
2193.000000	99.253938 
2192.000000	99.276727 
2191.000000	99.289888 
2190.000000	99.288224 
2189.000000	99.272189 
2188.000000	99.252779 
2187.000000	99.245643 
2186.000000	99.256678 
2185.000000	99.277259 
2184.000000	99.294241 
2183.000000	99.299615 
2182.000000	99.291215 
2181.000000	99.273402 
2180.000000	99.259339 
2179.000000	99.262832 
2178.000000	99.282170 
2177.000000	99.297533 
2176.000000	99.289935 
2175.000000	99.260023 
2174.000000	99.225404 
2173.000000	99.203761 
2172.000000	99.200979 
2171.000000	99.210592 
2170.000000	99.220855 
2169.000000	99.225743 
2168.000000	99.231331 
2167.000000	99.247026 
2166.000000	99.269444 
2165.000000	99.282144 
2164.000000	99.274897 
2163.000000	99.255720 
2162.000000	99.239431 
2161.000000	99.232487 
2160.000000	99.234128 
2159.000000	99.243237 
2158.000000	99.255401 
2157.000000	99.261194 
2156.000000	99.257076 
2155.000000	99.251140 
2154.000000	99.251245 
2153.000000	99.254554 
2152.000000	99.255100 
2151.000000	99.255509 
2150.000000	99.263258 
2149.000000	99.278679 
2148.000000	99.293995 
2147.000000	99.302708 
2146.000000	99.304503 
2145.000000	99.302765 
2144.000000	99.301501 
2143.000000	99.302150 
2142.000000	99.299951 
2141.000000	99.287575 
2140.000000	99.266934 
2139.000000	99.252572 
2138.000000	99.256672 
2137.000000	99.273457 
2136.000000	99.285426 
2135.000000	99.283845 
2134.000000	99.276226 
2133.000000	99.274049 
2132.000000	99.279914 
2131.000000	99.287857 
2130.000000	99.290761 
2129.000000	99.285563 
2128.000000	99.274722 
2127.000000	99.264123 
2126.000000	99.258177 
2125.000000	99.257272 
2124.000000	99.261000 
2123.000000	99.271257 
2122.000000	99.288267 
2121.000000	99.305210 
2120.000000	99.312247 
2119.000000	99.306934 
2118.000000	99.296990 
2117.000000	99.291839 
2116.000000	99.294268 
2115.000000	99.300883 
2114.000000	99.307121 
2113.000000	99.309874 
2112.000000	99.307982 
2111.000000	99.302847 
2110.000000	99.298000 
2109.000000	99.296675 
2108.000000	99.299472 
2107.000000	99.303568 
2106.000000	99.303142 
2105.000000	99.292254 
2104.000000	99.270852 
2103.000000	99.248424 
2102.000000	99.238529 
2101.000000	99.247268 
2100.000000	99.267513 
2099.000000	99.285247 
2098.000000	99.291228 
2097.000000	99.287207 
2096.000000	99.282332 
2095.000000	99.283224 
2094.000000	99.286671 
2093.000000	99.283104 
2092.000000	99.268484 
2091.000000	99.250629 
2090.000000	99.241139 
2089.000000	99.242362 
2088.000000	99.246216 
2087.000000	99.246052 
2086.000000	99.244878 
2085.000000	99.249493 
2084.000000	99.260217 
2083.000000	99.270433 
2082.000000	99.275133 
2081.000000	99.276270 
2080.000000	99.278857 
2079.000000	99.283884 
2078.000000	99.287186 
2077.000000	99.285406 
2076.000000	99.281635 
2075.000000	99.283042 
2074.000000	99.292396 
2073.000000	99.303851 
2072.000000	99.308656 
2071.000000	99.303747 
2070.000000	99.292867 
2069.000000	99.280897 
2068.000000	99.270202 
2067.000000	99.262086 
2066.000000	99.258206 
2065.000000	99.258779 
2064.000000	99.261556 
2063.000000	99.264465 
2062.000000	99.268258 
2061.000000	99.275460 
2060.000000	99.287352 
2059.000000	99.302328 
2058.000000	99.316375 
2057.000000	99.324969 
2056.000000	99.325437 
2055.000000	99.317976 
2054.000000	99.304805 
2053.000000	99.289726 
2052.000000	99.278417 
2051.000000	99.276193 
2050.000000	99.282493 
2049.000000	99.288363 
2048.000000	99.283798 
2047.000000	99.268879 
2046.000000	99.254037 
2045.000000	99.248518 
2044.000000	99.251682 
2043.000000	99.256076 
2042.000000	99.255833 
2041.000000	99.251008 
2040.000000	99.246493 
2039.000000	99.247818 
2038.000000	99.255900 
2037.000000	99.264828 
2036.000000	99.267064 
2035.000000	99.262033 
2034.000000	99.256987 
2033.000000	99.257728 
2032.000000	99.261023 
2031.000000	99.258713 
2030.000000	99.247645 
2029.000000	99.233102 
2028.000000	99.222854 
2027.000000	99.219926 
2026.000000	99.222151 
2025.000000	99.227565 
2024.000000	99.237390 
2023.000000	99.251582 
2022.000000	99.262890 
2021.000000	99.260556 
2020.000000	99.243196 
2019.000000	99.224108 
2018.000000	99.218713 
2017.000000	99.227097 
2016.000000	99.234033 
2015.000000	99.227612 
2014.000000	99.211998 
2013.000000	99.199861 
2012.000000	99.197680 
2011.000000	99.202641 
2010.000000	99.211658 
2009.000000	99.227247 
2008.000000	99.251763 
2007.000000	99.278905 
2006.000000	99.295867 
2005.000000	99.296168 
2004.000000	99.287507 
2003.000000	99.283505 
2002.000000	99.289021 
2001.000000	99.296299 
2000.000000	99.295057 
1999.000000	99.282795 
1998.000000	99.265091 
1997.000000	99.250338 
1996.000000	99.245581 
1995.000000	99.253348 
1994.000000	99.268728 
1993.000000	99.280695 
1992.000000	99.280579 
1991.000000	99.270012 
1990.000000	99.258086 
1989.000000	99.252392 
1988.000000	99.254795 
1987.000000	99.262252 
1986.000000	99.268442 
1985.000000	99.267774 
1984.000000	99.261936 
1983.000000	99.260383 
1982.000000	99.269754 
1981.000000	99.283804 
1980.000000	99.289011 
1979.000000	99.280148 
1978.000000	99.265891 
1977.000000	99.257711 
1976.000000	99.257129 
1975.000000	99.257287 
1974.000000	99.253829 
1973.000000	99.250448 
1972.000000	99.254407 
1971.000000	99.267668 
1970.000000	99.282425 
1969.000000	99.286882 
1968.000000	99.277367 
1967.000000	99.262912 
1966.000000	99.254305 
1965.000000	99.251396 
1964.000000	99.246573 
1963.000000	99.237616 
1962.000000	99.230281 
1961.000000	99.229056 
1960.000000	99.232194 
1959.000000	99.237453 
1958.000000	99.245977 
1957.000000	99.257071 
1956.000000	99.265256 
1955.000000	99.267176 
1954.000000	99.267172 
1953.000000	99.270767 
1952.000000	99.275022 
1951.000000	99.271654 
1950.000000	99.259167 
1949.000000	99.246406 
1948.000000	99.242637 
1947.000000	99.247001 
1946.000000	99.249670 
1945.000000	99.242030 
1944.000000	99.224954 
1943.000000	99.208719 
1942.000000	99.204839 
1941.000000	99.215884 
1940.000000	99.233773 
1939.000000	99.248432 
1938.000000	99.256610 
1937.000000	99.262440 
1936.000000	99.270310 
1935.000000	99.278422 
1934.000000	99.281260 
1933.000000	99.277866 
1932.000000	99.274441 
1931.000000	99.277448 
1930.000000	99.285442 
1929.000000	99.290556 
1928.000000	99.288603 
1927.000000	99.283931 
1926.000000	99.283324 
1925.000000	99.287265 
1924.000000	99.290214 
1923.000000	99.288987 
1922.000000	99.286835 
1921.000000	99.287849 
1920.000000	99.290471 
1919.000000	99.288802 
1918.000000	99.278990 
1917.000000	99.263712 
1916.000000	99.249541 
1915.000000	99.240855 
1914.000000	99.238729 
1913.000000	99.243204 
1912.000000	99.253364 
1911.000000	99.266113 
1910.000000	99.276206 
1909.000000	99.279896 
1908.000000	99.278970 
1907.000000	99.278300 
1906.000000	99.280184 
1905.000000	99.282495 
1904.000000	99.282518 
1903.000000	99.280733 
1902.000000	99.278917 
1901.000000	99.277319 
1900.000000	99.275468 
1899.000000	99.273719 
1898.000000	99.273211 
1897.000000	99.274973 
1896.000000	99.279573 
1895.000000	99.286289 
1894.000000	99.291564 
1893.000000	99.291143 
1892.000000	99.285078 
1891.000000	99.278352 
1890.000000	99.275165 
1889.000000	99.274317 
1888.000000	99.272752 
1887.000000	99.271044 
1886.000000	99.272077 
1885.000000	99.276706 
1884.000000	99.283232 
1883.000000	99.290219 
1882.000000	99.296946 
1881.000000	99.301977 
1880.000000	99.304323 
1879.000000	99.305170 
1878.000000	99.307100 
1877.000000	99.311540 
1876.000000	99.317245 
1875.000000	99.321264 
1874.000000	99.320490 
1873.000000	99.313271 
1872.000000	99.301266 
1871.000000	99.288851 
1870.000000	99.279558 
1869.000000	99.273360 
1868.000000	99.269858 
1867.000000	99.271696 
1866.000000	99.279975 
1865.000000	99.290021 
1864.000000	99.294705 
1863.000000	99.290535 
1862.000000	99.280130 
1861.000000	99.269826 
1860.000000	99.266004 
1859.000000	99.271822 
1858.000000	99.284500 
1857.000000	99.296375 
1856.000000	99.301569 
1855.000000	99.301355 
1854.000000	99.300610 
1853.000000	99.300630 
1852.000000	99.299330 
1851.000000	99.296243 
1850.000000	99.294680 
1849.000000	99.298497 
1848.000000	99.307509 
1847.000000	99.317119 
1846.000000	99.321453 
1845.000000	99.317409 
1844.000000	99.308380 
1843.000000	99.302896 
1842.000000	99.304898 
1841.000000	99.310260 
1840.000000	99.313786 
1839.000000	99.313643 
1838.000000	99.311121 
1837.000000	99.308045 
1836.000000	99.305404 
1835.000000	99.304016 
1834.000000	99.304144 
1833.000000	99.304966 
1832.000000	99.305245 
1831.000000	99.304094 
1830.000000	99.302061 
1829.000000	99.301657 
1828.000000	99.304234 
1827.000000	99.307528 
1826.000000	99.308570 
1825.000000	99.306918 
1824.000000	99.304566 
1823.000000	99.302982 
1822.000000	99.300334 
1821.000000	99.294015 
1820.000000	99.285497 
1819.000000	99.280702 
1818.000000	99.284418 
1817.000000	99.293968 
1816.000000	99.302282 
1815.000000	99.306791 
1814.000000	99.310178 
1813.000000	99.314336 
1812.000000	99.317500 
1811.000000	99.318882 
1810.000000	99.321564 
1809.000000	99.326767 
1808.000000	99.331029 
1807.000000	99.331057 
1806.000000	99.327060 
1805.000000	99.320716 
1804.000000	99.313136 
1803.000000	99.305394 
1802.000000	99.298254 
1801.000000	99.291827 
1800.000000	99.286467 
1799.000000	99.284442 
1798.000000	99.287826 
1797.000000	99.294657 
1796.000000	99.301069 
1795.000000	99.305744 
1794.000000	99.309860 
1793.000000	99.313143 
1792.000000	99.312464 
1791.000000	99.307953 
1790.000000	99.303852 
1789.000000	99.302278 
1788.000000	99.303279 
1787.000000	99.307371 
1786.000000	99.314473 
1785.000000	99.321079 
1784.000000	99.322553 
1783.000000	99.318530 
1782.000000	99.312051 
1781.000000	99.306674 
1780.000000	99.303839 
1779.000000	99.302944 
1778.000000	99.303305 
1777.000000	99.304433 
1776.000000	99.306262 
1775.000000	99.308064 
1774.000000	99.308640 
1773.000000	99.307819 
1772.000000	99.306431 
1771.000000	99.305990 
1770.000000	99.306849 
1769.000000	99.306716 
1768.000000	99.303623 
1767.000000	99.299070 
1766.000000	99.297221 
1765.000000	99.300724 
1764.000000	99.307594 
1763.000000	99.312344 
1762.000000	99.310091 
1761.000000	99.302482 
1760.000000	99.295576 
1759.000000	99.293869 
1758.000000	99.299361 
1757.000000	99.311168 
1756.000000	99.323771 
1755.000000	99.329833 
1754.000000	99.327638 
1753.000000	99.322717 
1752.000000	99.322067 
1751.000000	99.325081 
1750.000000	99.324333 
1749.000000	99.316186 
1748.000000	99.305034 
1747.000000	99.297302 
1746.000000	99.295866 
1745.000000	99.301056 
1744.000000	99.310487 
1743.000000	99.318522 
1742.000000	99.320045 
1741.000000	99.314823 
1740.000000	99.307856 
1739.000000	99.306125 
1738.000000	99.312335 
1737.000000	99.322867 
1736.000000	99.332564 
1735.000000	99.337543 
1734.000000	99.332723 
1733.000000	99.321653 
1732.000000	99.314599 
1731.000000	99.313301 
1730.000000	99.314751 
1729.000000	99.315893 
1728.000000	99.314521 
1727.000000	99.310667 
1726.000000	99.306230 
1725.000000	99.304481 
1724.000000	99.306640 
1723.000000	99.311389 
1722.000000	99.316617 
1721.000000	99.320292 
1720.000000	99.321555 
1719.000000	99.321768 
1718.000000	99.322811 
1717.000000	99.323497 
1716.000000	99.322979 
1715.000000	99.323927 
1714.000000	99.326976 
1713.000000	99.327932 
1712.000000	99.323416 
1711.000000	99.316415 
1710.000000	99.313101 
1709.000000	99.315742 
1708.000000	99.321149 
1707.000000	99.324763 
1706.000000	99.323776 
1705.000000	99.316346 
1704.000000	99.304607 
1703.000000	99.294536 
1702.000000	99.293077 
1701.000000	99.303941 
1700.000000	99.315507 
1699.000000	99.319090 
1698.000000	99.320266 
1697.000000	99.320322 
1696.000000	99.316861 
1695.000000	99.311489 
1694.000000	99.308495 
1693.000000	99.307852 
1692.000000	99.306794 
1691.000000	99.305366 
1690.000000	99.304252 
1689.000000	99.303668 
1688.000000	99.304678 
1687.000000	99.308055 
1686.000000	99.314979 
1685.000000	99.323769 
1684.000000	99.324378 
1683.000000	99.317315 
1682.000000	99.311780 
1681.000000	99.308887 
1680.000000	99.308785 
1679.000000	99.310298 
1678.000000	99.309737 
1677.000000	99.306109 
1676.000000	99.302180 
1675.000000	99.300432 
1674.000000	99.300888 
1673.000000	99.303912 
1672.000000	99.309161 
1671.000000	99.315110 
1670.000000	99.317024 
1669.000000	99.312241 
1668.000000	99.306875 
1667.000000	99.305095 
1666.000000	99.304267 
1665.000000	99.301981 
1664.000000	99.299338 
1663.000000	99.299091 
1662.000000	99.300871 
1661.000000	99.302938 
1660.000000	99.305836 
1659.000000	99.310230 
1658.000000	99.314260 
1657.000000	99.315240 
1656.000000	99.313637 
1655.000000	99.311764 
1654.000000	99.312691 
1653.000000	99.309190 
1652.000000	99.303907 
1651.000000	99.305175 
1650.000000	99.306022 
1649.000000	99.303942 
1648.000000	99.301369 
1647.000000	99.298134 
1646.000000	99.296719 
1645.000000	99.300687 
1644.000000	99.307946 
1643.000000	99.314513 
1642.000000	99.318528 
1641.000000	99.319561 
1640.000000	99.318366 
1639.000000	99.316160 
1638.000000	99.314033 
1637.000000	99.313199 
1636.000000	99.313467 
1635.000000	99.313317 
1634.000000	99.313301 
1633.000000	99.312552 
1632.000000	99.309413 
1631.000000	99.305412 
1630.000000	99.302369 
1629.000000	99.300990 
1628.000000	99.301643 
1627.000000	99.303985 
1626.000000	99.305694 
1625.000000	99.304752 
1624.000000	99.302358 
1623.000000	99.301439 
1622.000000	99.302934 
1621.000000	99.305392 
1620.000000	99.307639 
1619.000000	99.309665 
1618.000000	99.312006 
1617.000000	99.313615 
1616.000000	99.315130 
1615.000000	99.318703 
1614.000000	99.322808 
1613.000000	99.325757 
1612.000000	99.329207 
1611.000000	99.333976 
1610.000000	99.336627 
1609.000000	99.334129 
1608.000000	99.328912 
1607.000000	99.325410 
1606.000000	99.324287 
1605.000000	99.324555 
1604.000000	99.326732 
1603.000000	99.330374 
1602.000000	99.333111 
1601.000000	99.333887 
1600.000000	99.334523 
1599.000000	99.336394 
1598.000000	99.338395 
1597.000000	99.339437 
1596.000000	99.340226 
1595.000000	99.341490 
1594.000000	99.342300 
1593.000000	99.342145 
1592.000000	99.342700 
1591.000000	99.345363 
1590.000000	99.348755 
1589.000000	99.350998 
1588.000000	99.352700 
1587.000000	99.355185 
1586.000000	99.357360 
1585.000000	99.357205 
1584.000000	99.356025 
1583.000000	99.356137 
1582.000000	99.356590 
1581.000000	99.355060 
1580.000000	99.351566 
1579.000000	99.347184 
1578.000000	99.342165 
1577.000000	99.337052 
1576.000000	99.332966 
1575.000000	99.331633 
1574.000000	99.332155 
1573.000000	99.332568 
1572.000000	99.333541 
1571.000000	99.336651 
1570.000000	99.339760 
1569.000000	99.340256 
1568.000000	99.340730 
1567.000000	99.341915 
1566.000000	99.341428 
1565.000000	99.338869 
1564.000000	99.336925 
1563.000000	99.335534 
1562.000000	99.334068 
1561.000000	99.332306 
1560.000000	99.338760 
1559.000000	99.344539 
1558.000000	99.339595 
1557.000000	99.337519 
1556.000000	99.340410 
1555.000000	99.343293 
1554.000000	99.344030 
1553.000000	99.342270 
1552.000000	99.340509 
1551.000000	99.339793 
1550.000000	99.340530 
1549.000000	99.342403 
1548.000000	99.344909 
1547.000000	99.346424 
1546.000000	99.344074 
1545.000000	99.336596 
1544.000000	99.327292 
1543.000000	99.322596 
1542.000000	99.326547 
1541.000000	99.336268 
1540.000000	99.341757 
1539.000000	99.341623 
1538.000000	99.342252 
1537.000000	99.343374 
1536.000000	99.343293 
1535.000000	99.343304 
1534.000000	99.341651 
1533.000000	99.335697 
1532.000000	99.328963 
1531.000000	99.326758 
1530.000000	99.329406 
1529.000000	99.333552 
1528.000000	99.335859 
1527.000000	99.336109 
1526.000000	99.335977 
1525.000000	99.336247 
1524.000000	99.336976 
1523.000000	99.339591 
1522.000000	99.344721 
1521.000000	99.348074 
1520.000000	99.346168 
1519.000000	99.339902 
1518.000000	99.331688 
1517.000000	99.324443 
1516.000000	99.319926 
1515.000000	99.318205 
1514.000000	99.318385 
1513.000000	99.320173 
1512.000000	99.322745 
1511.000000	99.323811 
1510.000000	99.322915 
1509.000000	99.321227 
1508.000000	99.321538 
1507.000000	99.322565 
1506.000000	99.322336 
1505.000000	99.322112 
1504.000000	99.321715 
1503.000000	99.321022 
1502.000000	99.321517 
1501.000000	99.322366 
1500.000000	99.320440 
1499.000000	99.314160 
1498.000000	99.306295 
1497.000000	99.300363 
1496.000000	99.296337 
1495.000000	99.294985 
1494.000000	99.298160 
1493.000000	99.305377 
1492.000000	99.314212 
1491.000000	99.321434 
1490.000000	99.323486 
1489.000000	99.318758 
1488.000000	99.309334 
1487.000000	99.300481 
1486.000000	99.295142 
1485.000000	99.290739 
1484.000000	99.285458 
1483.000000	99.280979 
1482.000000	99.279993 
1481.000000	99.282073 
1480.000000	99.284054 
1479.000000	99.284585 
1478.000000	99.284639 
1477.000000	99.284190 
1476.000000	99.282004 
1475.000000	99.279874 
1474.000000	99.280924 
1473.000000	99.283847 
1472.000000	99.283901 
1471.000000	99.281107 
1470.000000	99.278845 
1469.000000	99.277319 
1468.000000	99.274807 
1467.000000	99.271167 
1466.000000	99.268328 
1465.000000	99.267764 
1464.000000	99.269109 
1463.000000	99.270766 
1462.000000	99.271780 
1461.000000	99.272211 
1460.000000	99.272870 
1459.000000	99.273301 
1458.000000	99.269864 
1457.000000	99.256701 
1456.000000	99.237329 
1455.000000	99.221914 
1454.000000	99.214119 
1453.000000	99.214268 
1452.000000	99.220534 
1451.000000	99.227705 
1450.000000	99.231782 
1449.000000	99.232839 
1448.000000	99.232792 
1447.000000	99.233452 
1446.000000	99.235039 
1445.000000	99.237404 
1444.000000	99.240736 
1443.000000	99.244521 
1442.000000	99.247973 
1441.000000	99.250361 
1440.000000	99.251432 
1439.000000	99.251240 
1438.000000	99.251437 
1437.000000	99.252462 
1436.000000	99.251714 
1435.000000	99.248243 
1434.000000	99.244472 
1433.000000	99.242098 
1432.000000	99.240572 
1431.000000	99.237543 
1430.000000	99.231932 
1429.000000	99.225623 
1428.000000	99.220317 
1427.000000	99.216493 
1426.000000	99.213596 
1425.000000	99.211567 
1424.000000	99.209755 
1423.000000	99.205782 
1422.000000	99.198570 
1421.000000	99.188912 
1420.000000	99.177343 
1419.000000	99.162672 
1418.000000	99.146833 
1417.000000	99.133092 
1416.000000	99.119519 
1415.000000	99.102815 
1414.000000	99.082977 
1413.000000	99.063311 
1412.000000	99.047294 
1411.000000	99.034947 
1410.000000	99.023933 
1409.000000	99.012878 
1408.000000	99.002684 
1407.000000	98.996395 
1406.000000	98.996358 
1405.000000	99.002740 
1404.000000	99.014231 
1403.000000	99.029032 
1402.000000	99.046272 
1401.000000	99.065463 
1400.000000	99.084340 
1399.000000	99.096981 
1398.000000	99.095943 
1397.000000	99.075545 
1396.000000	99.035897 
1395.000000	98.991520 
1394.000000	98.968861 
1393.000000	98.982636 
1392.000000	99.021238 
1391.000000	99.061870 
1390.000000	99.089631 
1389.000000	99.101669 
1388.000000	99.101084 
1387.000000	99.091647 
1386.000000	99.078269 
1385.000000	99.066852 
1384.000000	99.060639 
1383.000000	99.058381 
1382.000000	99.057498 
1381.000000	99.057877 
1380.000000	99.061992 
1379.000000	99.071299 
1378.000000	99.083926 
1377.000000	99.096573 
1376.000000	99.107346 
1375.000000	99.116202 
1374.000000	99.124383 
1373.000000	99.134281 
1372.000000	99.147019 
1371.000000	99.160693 
1370.000000	99.171960 
1369.000000	99.179760 
1368.000000	99.186385 
1367.000000	99.194104 
1366.000000	99.202891 
1365.000000	99.211844 
1364.000000	99.220761 
1363.000000	99.229229 
1362.000000	99.235773 
1361.000000	99.239519 
1360.000000	99.241895 
1359.000000	99.245672 
1358.000000	99.252598 
1357.000000	99.262051 
1356.000000	99.271482 
1355.000000	99.278285 
1354.000000	99.281921 
1353.000000	99.283930 
1352.000000	99.285530 
1351.000000	99.286754 
1350.000000	99.287255 
1349.000000	99.288054 
1348.000000	99.290701 
1347.000000	99.294599 
1346.000000	99.297412 
1345.000000	99.298116 
1344.000000	99.298056 
1343.000000	99.298789 
1342.000000	99.300677 
1341.000000	99.303925 
1340.000000	99.309013 
1339.000000	99.314910 
1338.000000	99.318838 
1337.000000	99.319350 
1336.000000	99.317960 
1335.000000	99.316884 
1334.000000	99.316516 
1333.000000	99.315867 
1332.000000	99.314412 
1331.000000	99.312452 
1330.000000	99.310380 
1329.000000	99.308870 
1328.000000	99.309110 
1327.000000	99.311545 
1326.000000	99.314530 
1325.000000	99.315844 
1324.000000	99.315229 
1323.000000	99.314339 
1322.000000	99.314774 
1321.000000	99.317037 
1320.000000	99.321038 
1319.000000	99.326140 
1318.000000	99.330398 
1317.000000	99.330983 
1316.000000	99.326494 
1315.000000	99.318767 
1314.000000	99.311805 
1313.000000	99.308515 
1312.000000	99.308577 
1311.000000	99.309741 
1310.000000	99.310664 
1309.000000	99.311788 
1308.000000	99.313607 
1307.000000	99.315202 
1306.000000	99.314916 
1305.000000	99.312491 
1304.000000	99.309802 
1303.000000	99.309191 
1302.000000	99.311286 
1301.000000	99.314480 
1300.000000	99.316622 
1299.000000	99.317195 
1298.000000	99.317674 
1297.000000	99.319485 
1296.000000	99.321990 
1295.000000	99.322956 
1294.000000	99.320844 
1293.000000	99.316047 
1292.000000	99.310046 
1291.000000	99.304383 
1290.000000	99.300431 
1289.000000	99.298927 
1288.000000	99.299016 
1287.000000	99.298534 
1286.000000	99.295984 
1285.000000	99.291757 
1284.000000	99.286988 
1283.000000	99.282055 
1282.000000	99.276955 
1281.000000	99.272353 
1280.000000	99.269128 
1279.000000	99.266952 
1278.000000	99.264424 
1277.000000	99.260758 
1276.000000	99.256503 
1275.000000	99.252331 
1274.000000	99.247869 
1273.000000	99.242219 
1272.000000	99.235136 
1271.000000	99.227188 
1270.000000	99.219010 
1269.000000	99.210859 
1268.000000	99.202762 
1267.000000	99.194542 
1266.000000	99.185741 
1265.000000	99.176006 
1264.000000	99.165619 
1263.000000	99.155263 
1262.000000	99.145152 
1261.000000	99.134981 
1260.000000	99.125123 
1259.000000	99.116986 
1258.000000	99.111426 
1257.000000	99.107566 
1256.000000	99.104254 
1255.000000	99.102003 
1254.000000	99.101814 
1253.000000	99.102317 
1252.000000	99.100501 
1251.000000	99.096194 
1250.000000	99.093722 
1249.000000	99.097423 
1248.000000	99.106844 
1247.000000	99.117553 
1246.000000	99.124742 
1245.000000	99.124197 
1244.000000	99.112829 
1243.000000	99.093227 
1242.000000	99.076802 
1241.000000	99.076334 
1240.000000	99.092945 
1239.000000	99.113653 
1238.000000	99.124015 
1237.000000	99.120831 
1236.000000	99.110891 
1235.000000	99.101181 
1234.000000	99.093979 
1233.000000	99.088865 
1232.000000	99.084669 
1231.000000	99.079414 
1230.000000	99.071944 
1229.000000	99.064394 
1228.000000	99.060767 
1227.000000	99.062507 
1226.000000	99.067157 
1225.000000	99.071745 
1224.000000	99.075780 
1223.000000	99.080472 
1222.000000	99.086512 
1221.000000	99.093408 
1220.000000	99.100161 
1219.000000	99.106137 
1218.000000	99.111649 
1217.000000	99.117462 
1216.000000	99.123180 
1215.000000	99.126764 
1214.000000	99.126526 
1213.000000	99.123044 
1212.000000	99.118296 
1211.000000	99.113849 
1210.000000	99.110839 
1209.000000	99.110378 
1208.000000	99.112262 
1207.000000	99.114104 
1206.000000	99.113673 
1205.000000	99.111621 
1204.000000	99.110258 
1203.000000	99.110190 
1202.000000	99.109994 
1201.000000	99.108731 
1200.000000	99.106696 
1199.000000	99.103838 
1198.000000	99.099531 
1197.000000	99.094008 
1196.000000	99.088061 
1195.000000	99.081237 
1194.000000	99.072361 
1193.000000	99.062224 
1192.000000	99.053582 
1191.000000	99.047567 
1190.000000	99.041909 
1189.000000	99.033983 
1188.000000	99.024385 
1187.000000	99.016270 
1186.000000	99.012003 
1185.000000	99.011270 
1184.000000	99.011643 
1183.000000	99.010144 
1182.000000	99.005139 
1181.000000	98.997691 
1180.000000	98.990598 
1179.000000	98.985473 
1178.000000	98.981224 
1177.000000	98.975754 
1176.000000	98.968275 
1175.000000	98.959329 
1174.000000	98.949367 
1173.000000	98.938360 
1172.000000	98.926623 
1171.000000	98.915254 
1170.000000	98.905473 
1169.000000	98.897393 
1168.000000	98.889353 
1167.000000	98.879079 
1166.000000	98.866545 
1165.000000	98.855422 
1164.000000	98.850265 
1163.000000	98.851923 
1162.000000	98.857056 
1161.000000	98.862590 
1160.000000	98.868876 
1159.000000	98.877072 
1158.000000	98.884788 
1157.000000	98.886536 
1156.000000	98.878752 
1155.000000	98.863601 
1154.000000	98.847843 
1153.000000	98.838047 
1152.000000	98.835976 
1151.000000	98.837432 
1150.000000	98.835757 
1149.000000	98.827467 
1148.000000	98.814750 
1147.000000	98.802388 
1146.000000	98.792694 
1145.000000	98.783925 
1144.000000	98.773075 
1143.000000	98.759359 
1142.000000	98.745091 
1141.000000	98.733796 
1140.000000	98.727322 
1139.000000	98.724062 
1138.000000	98.719870 
1137.000000	98.711298 
1136.000000	98.698250 
1135.000000	98.683416 
1134.000000	98.669249 
1133.000000	98.655680 
1132.000000	98.640847 
1131.000000	98.623963 
1130.000000	98.607225 
1129.000000	98.594208 
1128.000000	98.585704 
1127.000000	98.577647 
1126.000000	98.564541 
1125.000000	98.545331 
1124.000000	98.524668 
1123.000000	98.507736 
1122.000000	98.494985 
1121.000000	98.482799 
1120.000000	98.468096 
1119.000000	98.450668 
1118.000000	98.431791 
1117.000000	98.412585 
1116.000000	98.393934 
1115.000000	98.376448 
1114.000000	98.359847 
1113.000000	98.343240 
1112.000000	98.326208 
1111.000000	98.308611 
1110.000000	98.289188 
1109.000000	98.265983 
1108.000000	98.239123 
1107.000000	98.212300 
1106.000000	98.189997 
1105.000000	98.173136 
1104.000000	98.158357 
1103.000000	98.141788 
1102.000000	98.122836 
1101.000000	98.104097 
1100.000000	98.087918 
1099.000000	98.074382 
1098.000000	98.062415 
1097.000000	98.051764 
1096.000000	98.042539 
1095.000000	98.032813 
1094.000000	98.018157 
1093.000000	97.994156 
1092.000000	97.959017 
1091.000000	97.914178 
1090.000000	97.863935 
1089.000000	97.814546 
1088.000000	97.771537 
1087.000000	97.736097 
1086.000000	97.704603 
1085.000000	97.672666 
1084.000000	97.638785 
1083.000000	97.603380 
1082.000000	97.566309 
1081.000000	97.527533 
1080.000000	97.489042 
1079.000000	97.453718 
1078.000000	97.422944 
1077.000000	97.397471 
1076.000000	97.379620 
1075.000000	97.371727 
1074.000000	97.372824 
1073.000000	97.379165 
1072.000000	97.386251 
1071.000000	97.386440 
1070.000000	97.366965 
1069.000000	97.318543 
1068.000000	97.249741 
1067.000000	97.188092 
1066.000000	97.160636 
1065.000000	97.172570 
1064.000000	97.206212 
1063.000000	97.237108 
1062.000000	97.247708 
1061.000000	97.230391 
1060.000000	97.187137 
1059.000000	97.130615 
1058.000000	97.080418 
1057.000000	97.051061 
1056.000000	97.042080 
1055.000000	97.041204 
1054.000000	97.036853 
1053.000000	97.026465 
1052.000000	97.014007 
1051.000000	97.003025 
1050.000000	96.993922 
1049.000000	96.985609 
1048.000000	96.976789 
1047.000000	96.966365 
1046.000000	96.954956 
1045.000000	96.945499 
1044.000000	96.940422 
1043.000000	96.938647 
1042.000000	96.937041 
1041.000000	96.934291 
1040.000000	96.931589 
1039.000000	96.930550 
1038.000000	96.933221 
1037.000000	96.943268 
1036.000000	96.963335 
1035.000000	96.990802 
1034.000000	97.019330 
1033.000000	97.044313 
1032.000000	97.062633 
1031.000000	97.067961 
1030.000000	97.054407 
1029.000000	97.028777 
1028.000000	97.012689 
1027.000000	97.024935 
1026.000000	97.062693 
1025.000000	97.105002 
1024.000000	97.133224 
1023.000000	97.143746 
1022.000000	97.143532 
1021.000000	97.140566 
1020.000000	97.140011 
1019.000000	97.144071 
1018.000000	97.151580 
1017.000000	97.159287 
1016.000000	97.165494 
1015.000000	97.171528 
1014.000000	97.179074 
1013.000000	97.187498 
1012.000000	97.194651 
1011.000000	97.199400 
1010.000000	97.202802 
1009.000000	97.207257 
1008.000000	97.214513 
1007.000000	97.224083 
1006.000000	97.234025 
1005.000000	97.243745 
1004.000000	97.255174 
1003.000000	97.270362 
1002.000000	97.288615 
1001.000000	97.306680 
1000.000000	97.320980 
999.000000	 97.329500 
998.000000	 97.333456 
997.000000	 97.338108 
996.000000	 97.349726 
995.000000	 97.369536 
994.000000	 97.391584 
993.000000	 97.408454 
992.000000	 97.418332 
991.000000	 97.424992 
990.000000	 97.432173 
989.000000	 97.440181 
988.000000	 97.447571 
987.000000	 97.454090 
986.000000	 97.461459 
985.000000	 97.472124 
984.000000	 97.487239 
983.000000	 97.505414 
982.000000	 97.523822 
981.000000	 97.540748 
980.000000	 97.556354 
979.000000	 97.571335 
978.000000	 97.586654 
977.000000	 97.604587 
976.000000	 97.627405 
975.000000	 97.653885 
974.000000	 97.679396 
973.000000	 97.700947 
972.000000	 97.720195 
971.000000	 97.740210 
970.000000	 97.761510 
969.000000	 97.782981 
968.000000	 97.804516 
967.000000	 97.826542 
966.000000	 97.848481 
965.000000	 97.869599 
964.000000	 97.890040 
963.000000	 97.909590 
962.000000	 97.927263 
961.000000	 97.943692 
960.000000	 97.961713 
959.000000	 97.982340 
958.000000	 98.002055 
957.000000	 98.016679 
956.000000	 98.026586 
955.000000	 98.035852 
954.000000	 98.047604 
953.000000	 98.062439 
952.000000	 98.079861 
951.000000	 98.098310 
950.000000	 98.114534 
949.000000	 98.125747 
948.000000	 98.132289 
947.000000	 98.136297 
946.000000	 98.138356 
945.000000	 98.137521 
944.000000	 98.134330 
943.000000	 98.131799 
942.000000	 98.133234 
941.000000	 98.139918 
940.000000	 98.150265 
939.000000	 98.160148 
938.000000	 98.165246 
937.000000	 98.164854 
936.000000	 98.162838 
935.000000	 98.163734 
934.000000	 98.168752 
933.000000	 98.176460 
932.000000	 98.185668 
931.000000	 98.195778 
930.000000	 98.205494 
929.000000	 98.213097 
928.000000	 98.217351 
927.000000	 98.217334 
926.000000	 98.213044 
925.000000	 98.207315 
924.000000	 98.204959 
923.000000	 98.208063 
922.000000	 98.213820 
921.000000	 98.218700 
920.000000	 98.222323 
919.000000	 98.224822 
918.000000	 98.223300 
917.000000	 98.215002 
916.000000	 98.202565 
915.000000	 98.191993 
914.000000	 98.185784 
913.000000	 98.181636 
912.000000	 98.177964 
911.000000	 98.177087 
910.000000	 98.182255 
909.000000	 98.194198 
908.000000	 98.211134 
907.000000	 98.229793 
906.000000	 98.246081 
905.000000	 98.257175 
904.000000	 98.263656 
903.000000	 98.268438 
902.000000	 98.274036 
901.000000	 98.282267 
900.000000	 98.295184 
899.000000	 98.313255 
898.000000	 98.332595 
897.000000	 98.346900 
896.000000	 98.352968 
895.000000	 98.353214 
894.000000	 98.353286 
893.000000	 98.358550 
892.000000	 98.371901 
891.000000	 98.392549 
890.000000	 98.416851 
889.000000	 98.441587 
888.000000	 98.465587 
887.000000	 98.487269 
886.000000	 98.503343 
885.000000	 98.512847 
884.000000	 98.520119 
883.000000	 98.529607 
882.000000	 98.538999 
881.000000	 98.542418 
880.000000	 98.540596 
879.000000	 98.542807 
878.000000	 98.556642 
877.000000	 98.579517 
876.000000	 98.602257 
875.000000	 98.617852 
874.000000	 98.624883 
873.000000	 98.625699 
872.000000	 98.624380 
871.000000	 98.625152 
870.000000	 98.630521 
869.000000	 98.641314 
868.000000	 98.658571 
867.000000	 98.682742 
866.000000	 98.709919 
865.000000	 98.732357 
864.000000	 98.746085 
863.000000	 98.756301 
862.000000	 98.771463 
861.000000	 98.792243 
860.000000	 98.810204 
859.000000	 98.818412 
858.000000	 98.819851 
857.000000	 98.823005 
856.000000	 98.832268 
855.000000	 98.846272 
854.000000	 98.862978 
853.000000	 98.880793 
852.000000	 98.894853 
851.000000	 98.898630 
850.000000	 98.892426 
849.000000	 98.885837 
848.000000	 98.887835 
847.000000	 98.897361 
846.000000	 98.907140 
845.000000	 98.913415 
844.000000	 98.916965 
843.000000	 98.917360 
842.000000	 98.912921 
841.000000	 98.905800 
840.000000	 98.900720 
839.000000	 98.897905 
838.000000	 98.892940 
837.000000	 98.884755 
836.000000	 98.877800 
835.000000	 98.873986 
834.000000	 98.868641 
833.000000	 98.858818 
832.000000	 98.850716 
831.000000	 98.852812 
830.000000	 98.863814 
829.000000	 98.873365 
828.000000	 98.874578 
827.000000	 98.870980 
826.000000	 98.869931 
825.000000	 98.872866 
824.000000	 98.874587 
823.000000	 98.871042 
822.000000	 98.865518 
821.000000	 98.865317 
820.000000	 98.872156 
819.000000	 98.878669 
818.000000	 98.877394 
817.000000	 98.871679 
816.000000	 98.872490 
815.000000	 98.883300 
814.000000	 98.893512 
813.000000	 98.890422 
812.000000	 98.873389 
811.000000	 98.851336 
810.000000	 98.829453 
809.000000	 98.804429 
808.000000	 98.772045 
807.000000	 98.733690 
806.000000	 98.693587 
805.000000	 98.653176 
804.000000	 98.610937 
803.000000	 98.566841 
802.000000	 98.525448 
801.000000	 98.493803 
800.000000	 98.475486 
799.000000	 98.466990 
798.000000	 98.461916 
797.000000	 98.458852 
796.000000	 98.461858 
795.000000	 98.472521 
794.000000	 98.486021 
793.000000	 98.497422 
792.000000	 98.507333 
791.000000	 98.517885 
790.000000	 98.527419 
789.000000	 98.533527 
788.000000	 98.537532 
787.000000	 98.540485 
786.000000	 98.537329 
785.000000	 98.520969 
784.000000	 98.491500 
783.000000	 98.457084 
782.000000	 98.426551 
781.000000	 98.404654 
780.000000	 98.392607 
779.000000	 98.388195 
778.000000	 98.386196 
777.000000	 98.383741 
776.000000	 98.385128 
775.000000	 98.397135 
774.000000	 98.419834 
773.000000	 98.446018 
772.000000	 98.469299 
771.000000	 98.488910 
770.000000	 98.507088 
769.000000	 98.525346 
768.000000	 98.542834 
767.000000	 98.555663 
766.000000	 98.559754 
765.000000	 98.557912 
764.000000	 98.561054 
763.000000	 98.576395 
762.000000	 98.595463 
761.000000	 98.600711 
760.000000	 98.585551 
759.000000	 98.562891 
758.000000	 98.552040 
757.000000	 98.560361 
756.000000	 98.578451 
755.000000	 98.589709 
754.000000	 98.584189 
753.000000	 98.566978 
752.000000	 98.554299 
751.000000	 98.559146 
750.000000	 98.579875 
749.000000	 98.603977 
748.000000	 98.621244 
747.000000	 98.630269 
746.000000	 98.634640 
745.000000	 98.638075 
744.000000	 98.643112 
743.000000	 98.650055 
742.000000	 98.656808 
741.000000	 98.663184 
740.000000	 98.674550 
739.000000	 98.696680 
738.000000	 98.726917 
737.000000	 98.754387 
736.000000	 98.768828 
735.000000	 98.766366 
734.000000	 98.749227 
733.000000	 98.725559 
732.000000	 98.708503 
731.000000	 98.708110 
730.000000	 98.721682 
729.000000	 98.736968 
728.000000	 98.746702 
727.000000	 98.754689 
726.000000	 98.765833 
725.000000	 98.776451 
724.000000	 98.778519 
723.000000	 98.769976 
722.000000	 98.757499 
721.000000	 98.750968 
720.000000	 98.756556 
719.000000	 98.772548 
718.000000	 98.790677 
717.000000	 98.803297 
716.000000	 98.808659 
715.000000	 98.807850 
714.000000	 98.800062 
713.000000	 98.786274 
712.000000	 98.775681 
711.000000	 98.780029 
710.000000	 98.799131 
709.000000	 98.818204 
708.000000	 98.822573 
707.000000	 98.810135 
706.000000	 98.787076 
705.000000	 98.758685 
704.000000	 98.730200 
703.000000	 98.711099 
702.000000	 98.710099 
701.000000	 98.724780 
700.000000	 98.740018 
699.000000	 98.739130 
698.000000	 98.717591 
697.000000	 98.687150 
696.000000	 98.665468 
695.000000	 98.659511 
694.000000	 98.661028 
693.000000	 98.660207 
692.000000	 98.659235 
691.000000	 98.666530 
690.000000	 98.681099 
689.000000	 98.693268 
688.000000	 98.701010 
687.000000	 98.713272 
686.000000	 98.732686 
685.000000	 98.746493 
684.000000	 98.742450 
683.000000	 98.726080 
682.000000	 98.714612 
681.000000	 98.718042 
680.000000	 98.730236 
679.000000	 98.735900 
678.000000	 98.723904 
677.000000	 98.699214 
676.000000	 98.685434 
675.000000	 98.704417 
674.000000	 98.750078 
673.000000	 98.788886 
672.000000	 98.792902 
671.000000	 98.767958 
670.000000	 98.747526 
669.000000	 98.765042 
668.000000	 98.809129 
667.000000	 98.832712 
666.000000	 98.819816 
665.000000	 98.781549 
664.000000	 98.741825 
663.000000	 98.729604 
662.000000	 98.752169 
661.000000	 98.782429 
660.000000	 98.788157 
659.000000	 98.765077 
658.000000	 98.732241 
657.000000	 98.707499 
656.000000	 98.699675 
655.000000	 98.711595 
654.000000	 98.735867 
653.000000	 98.755817 
652.000000	 98.762813 
651.000000	 98.765301 
650.000000	 98.772070 

