4000.000000	99.517582 
3999.000000	99.514726 
3998.000000	99.513478 
3997.000000	99.515933 
3996.000000	99.520831 
3995.000000	99.524653 
3994.000000	99.525153 
3993.000000	99.523331 
3992.000000	99.521830 
3991.000000	99.521876 
3990.000000	99.522254 
3989.000000	99.521012 
3988.000000	99.517635 
3987.000000	99.513560 
3986.000000	99.510944 
3985.000000	99.511062 
3984.000000	99.513595 
3983.000000	99.517297 
3982.000000	99.521279 
3981.000000	99.525490 
3980.000000	99.530063 
3979.000000	99.534527 
3978.000000	99.537933 
3977.000000	99.539572 
3976.000000	99.539302 
3975.000000	99.537162 
3974.000000	99.533060 
3973.000000	99.527188 
3972.000000	99.520799 
3971.000000	99.516168 
3970.000000	99.515440 
3969.000000	99.519121 
3968.000000	99.525418 
3967.000000	99.531181 
3966.000000	99.533726 
3965.000000	99.532288 
3964.000000	99.528129 
3963.000000	99.523747 
3962.000000	99.521636 
3961.000000	99.522861 
3960.000000	99.526222 
3959.000000	99.528882 
3958.000000	99.528627 
3957.000000	99.525824 
3956.000000	99.522736 
3955.000000	99.520998 
3954.000000	99.520161 
3953.000000	99.519014 
3952.000000	99.517486 
3951.000000	99.516801 
3950.000000	99.517761 
3949.000000	99.519113 
3948.000000	99.518424 
3947.000000	99.515005 
3946.000000	99.511380 
3945.000000	99.510845 
3944.000000	99.513693 
3943.000000	99.516676 
3942.000000	99.516745 
3941.000000	99.514626 
3940.000000	99.513327 
3939.000000	99.513816 
3938.000000	99.514241 
3937.000000	99.512914 
3936.000000	99.510264 
3935.000000	99.507962 
3934.000000	99.507089 
3933.000000	99.508018 
3932.000000	99.510889 
3931.000000	99.515256 
3930.000000	99.519689 
3929.000000	99.522078 
3928.000000	99.521161 
3927.000000	99.517386 
3926.000000	99.512168 
3925.000000	99.507014 
3924.000000	99.503478 
3923.000000	99.502791 
3922.000000	99.504076 
3921.000000	99.504688 
3920.000000	99.503800 
3919.000000	99.503709 
3918.000000	99.506165 
3917.000000	99.509610 
3916.000000	99.511729 
3915.000000	99.513101 
3914.000000	99.515723 
3913.000000	99.519385 
3912.000000	99.521814 
3911.000000	99.521354 
3910.000000	99.518079 
3909.000000	99.513505 
3908.000000	99.509297 
3907.000000	99.506901 
3906.000000	99.506343 
3905.000000	99.505963 
3904.000000	99.503706 
3903.000000	99.500481 
3902.000000	99.500143 
3901.000000	99.503901 
3900.000000	99.507568 
3899.000000	99.506647 
3898.000000	99.501814 
3897.000000	99.496757 
3896.000000	99.493024 
3895.000000	99.490496 
3894.000000	99.491355 
3893.000000	99.498300 
3892.000000	99.508065 
3891.000000	99.512568 
3890.000000	99.510102 
3889.000000	99.508626 
3888.000000	99.512770 
3887.000000	99.518253 
3886.000000	99.517983 
3885.000000	99.509902 
3884.000000	99.501747 
3883.000000	99.502647 
3882.000000	99.510682 
3881.000000	99.517026 
3880.000000	99.515534 
3879.000000	99.507837 
3878.000000	99.502131 
3877.000000	99.502852 
3876.000000	99.506000 
3875.000000	99.505219 
3874.000000	99.497963 
3873.000000	99.489422 
3872.000000	99.487265 
3871.000000	99.490378 
3870.000000	99.489442 
3869.000000	99.481747 
3868.000000	99.478632 
3867.000000	99.488256 
3866.000000	99.501497 
3865.000000	99.506674 
3864.000000	99.503889 
3863.000000	99.500618 
3862.000000	99.501063 
3861.000000	99.502460 
3860.000000	99.500190 
3859.000000	99.492223 
3858.000000	99.478429 
3857.000000	99.462556 
3856.000000	99.453119 
3855.000000	99.459433 
3854.000000	99.476092 
3853.000000	99.481386 
3852.000000	99.474644 
3851.000000	99.480012 
3850.000000	99.498485 
3849.000000	99.512098 
3848.000000	99.515353 
3847.000000	99.513915 
3846.000000	99.512684 
3845.000000	99.512267 
3844.000000	99.511157 
3843.000000	99.507731 
3842.000000	99.502329 
3841.000000	99.498085 
3840.000000	99.497819 
3839.000000	99.501283 
3838.000000	99.504628 
3837.000000	99.504651 
3836.000000	99.502417 
3835.000000	99.501486 
3834.000000	99.503052 
3833.000000	99.505768 
3832.000000	99.507375 
3831.000000	99.506730 
3830.000000	99.505499 
3829.000000	99.505955 
3828.000000	99.507242 
3827.000000	99.505623 
3826.000000	99.499119 
3825.000000	99.492270 
3824.000000	99.492655 
3823.000000	99.502268 
3822.000000	99.513246 
3821.000000	99.512610 
3820.000000	99.499684 
3819.000000	99.492224 
3818.000000	99.498964 
3817.000000	99.509065 
3816.000000	99.510728 
3815.000000	99.503837 
3814.000000	99.500070 
3813.000000	99.505064 
3812.000000	99.509286 
3811.000000	99.505492 
3810.000000	99.499375 
3809.000000	99.499848 
3808.000000	99.506836 
3807.000000	99.509903 
3806.000000	99.502682 
3805.000000	99.493722 
3804.000000	99.492744 
3803.000000	99.497349 
3802.000000	99.498588 
3801.000000	99.489109 
3800.000000	99.475084 
3799.000000	99.471811 
3798.000000	99.478914 
3797.000000	99.484844 
3796.000000	99.485444 
3795.000000	99.485375 
3794.000000	99.490526 
3793.000000	99.500294 
3792.000000	99.509091 
3791.000000	99.513002 
3790.000000	99.512341 
3789.000000	99.509723 
3788.000000	99.508789 
3787.000000	99.512367 
3786.000000	99.519777 
3785.000000	99.526376 
3784.000000	99.528356 
3783.000000	99.527044 
3782.000000	99.526575 
3781.000000	99.528220 
3780.000000	99.529049 
3779.000000	99.525595 
3778.000000	99.518580 
3777.000000	99.512333 
3776.000000	99.508279 
3775.000000	99.504154 
3774.000000	99.499563 
3773.000000	99.498035 
3772.000000	99.501801 
3771.000000	99.507069 
3770.000000	99.507217 
3769.000000	99.502039 
3768.000000	99.499292 
3767.000000	99.503848 
3766.000000	99.510752 
3765.000000	99.512857 
3764.000000	99.510446 
3763.000000	99.510027 
3762.000000	99.514707 
3761.000000	99.520981 
3760.000000	99.524710 
3759.000000	99.524835 
3758.000000	99.521751 
3757.000000	99.515768 
3756.000000	99.507449 
3755.000000	99.498690 
3754.000000	99.491693 
3753.000000	99.489456 
3752.000000	99.494530 
3751.000000	99.502260 
3750.000000	99.501127 
3749.000000	99.487763 
3748.000000	99.472427 
3747.000000	99.465736 
3746.000000	99.469618 
3745.000000	99.477081 
3744.000000	99.474956 
3743.000000	99.466148 
3742.000000	99.470360 
3741.000000	99.483977 
3740.000000	99.488114 
3739.000000	99.481594 
3738.000000	99.475295 
3737.000000	99.475959 
3736.000000	99.481397 
3735.000000	99.487778 
3734.000000	99.494542 
3733.000000	99.500606 
3732.000000	99.502691 
3731.000000	99.501242 
3730.000000	99.501135 
3729.000000	99.503683 
3728.000000	99.505200 
3727.000000	99.503844 
3726.000000	99.502511 
3725.000000	99.505042 
3724.000000	99.510905 
3723.000000	99.514706 
3722.000000	99.513332 
3721.000000	99.509866 
3720.000000	99.509497 
3719.000000	99.513050 
3718.000000	99.515867 
3717.000000	99.513077 
3716.000000	99.504378 
3715.000000	99.493268 
3714.000000	99.482793 
3713.000000	99.474574 
3712.000000	99.468989 
3711.000000	99.465866 
3710.000000	99.466687 
3709.000000	99.472416 
3708.000000	99.479500 
3707.000000	99.482618 
3706.000000	99.479844 
3705.000000	99.473853 
3704.000000	99.468844 
3703.000000	99.467080 
3702.000000	99.467169 
3701.000000	99.466285 
3700.000000	99.464812 
3699.000000	99.465167 
3698.000000	99.466338 
3697.000000	99.464459 
3696.000000	99.458532 
3695.000000	99.452083 
3694.000000	99.448308 
3693.000000	99.446382 
3692.000000	99.444397 
3691.000000	99.442243 
3690.000000	99.439288 
3689.000000	99.432568 
3688.000000	99.422461 
3687.000000	99.417344 
3686.000000	99.423666 
3685.000000	99.435882 
3684.000000	99.443544 
3683.000000	99.442883 
3682.000000	99.437103 
3681.000000	99.429307 
3680.000000	99.418474 
3679.000000	99.404348 
3678.000000	99.392208 
3677.000000	99.388144 
3676.000000	99.389628 
3675.000000	99.385837 
3674.000000	99.378985 
3673.000000	99.383126 
3672.000000	99.397164 
3671.000000	99.411004 
3670.000000	99.419238 
3669.000000	99.419675 
3668.000000	99.417561 
3667.000000	99.417894 
3666.000000	99.417709 
3665.000000	99.415025 
3664.000000	99.412559 
3663.000000	99.412953 
3662.000000	99.415160 
3661.000000	99.415998 
3660.000000	99.414315 
3659.000000	99.412786 
3658.000000	99.414406 
3657.000000	99.417588 
3656.000000	99.417029 
3655.000000	99.412529 
3654.000000	99.411178 
3653.000000	99.415956 
3652.000000	99.423418 
3651.000000	99.429953 
3650.000000	99.431163 
3649.000000	99.422475 
3648.000000	99.408273 
3647.000000	99.399411 
3646.000000	99.401358 
3645.000000	99.411647 
3644.000000	99.424253 
3643.000000	99.434155 
3642.000000	99.439808 
3641.000000	99.443282 
3640.000000	99.447808 
3639.000000	99.454940 
3638.000000	99.463688 
3637.000000	99.472632 
3636.000000	99.480037 
3635.000000	99.482247 
3634.000000	99.475831 
3633.000000	99.462734 
3632.000000	99.450954 
3631.000000	99.448041 
3630.000000	99.455025 
3629.000000	99.461964 
3628.000000	99.458390 
3627.000000	99.452837 
3626.000000	99.456636 
3625.000000	99.464093 
3624.000000	99.467253 
3623.000000	99.466205 
3622.000000	99.463989 
3621.000000	99.461991 
3620.000000	99.459819 
3619.000000	99.457180 
3618.000000	99.455995 
3617.000000	99.459876 
3616.000000	99.468729 
3615.000000	99.476999 
3614.000000	99.478474 
3613.000000	99.471147 
3612.000000	99.458999 
3611.000000	99.448984 
3610.000000	99.445673 
3609.000000	99.449047 
3608.000000	99.456074 
3607.000000	99.463720 
3606.000000	99.470807 
3605.000000	99.476924 
3604.000000	99.481465 
3603.000000	99.484369 
3602.000000	99.485830 
3601.000000	99.485919 
3600.000000	99.485340 
3599.000000	99.485421 
3598.000000	99.486284 
3597.000000	99.486584 
3596.000000	99.485668 
3595.000000	99.483979 
3594.000000	99.482149 
3593.000000	99.481011 
3592.000000	99.482119 
3591.000000	99.486387 
3590.000000	99.493152 
3589.000000	99.499558 
3588.000000	99.501240 
3587.000000	99.496191 
3586.000000	99.488871 
3585.000000	99.485769 
3584.000000	99.487722 
3583.000000	99.490932 
3582.000000	99.492252 
3581.000000	99.490946 
3580.000000	99.487654 
3579.000000	99.483337 
3578.000000	99.478944 
3577.000000	99.475519 
3576.000000	99.474470 
3575.000000	99.476617 
3574.000000	99.481051 
3573.000000	99.485243 
3572.000000	99.486782 
3571.000000	99.484910 
3570.000000	99.480725 
3569.000000	99.476461 
3568.000000	99.474343 
3567.000000	99.475508 
3566.000000	99.479838 
3565.000000	99.486275 
3564.000000	99.491986 
3563.000000	99.493961 
3562.000000	99.492244 
3561.000000	99.489565 
3560.000000	99.488244 
3559.000000	99.488526 
3558.000000	99.489385 
3557.000000	99.489920 
3556.000000	99.490152 
3555.000000	99.490914 
3554.000000	99.492681 
3553.000000	99.494475 
3552.000000	99.494402 
3551.000000	99.491707 
3550.000000	99.487478 
3549.000000	99.483366 
3548.000000	99.480689 
3547.000000	99.480585 
3546.000000	99.483421 
3545.000000	99.487933 
3544.000000	99.491843 
3543.000000	99.493491 
3542.000000	99.492888 
3541.000000	99.491359 
3540.000000	99.490390 
3539.000000	99.490668 
3538.000000	99.491760 
3537.000000	99.492579 
3536.000000	99.492081 
3535.000000	99.489837 
3534.000000	99.486008 
3533.000000	99.481221 
3532.000000	99.476737 
3531.000000	99.474364 
3530.000000	99.475434 
3529.000000	99.479480 
3528.000000	99.484522 
3527.000000	99.488596 
3526.000000	99.490834 
3525.000000	99.491093 
3524.000000	99.489721 
3523.000000	99.487842 
3522.000000	99.486887 
3521.000000	99.487155 
3520.000000	99.487272 
3519.000000	99.485669 
3518.000000	99.482337 
3517.000000	99.478777 
3516.000000	99.476466 
3515.000000	99.476104 
3514.000000	99.478174 
3513.000000	99.482997 
3512.000000	99.489489 
3511.000000	99.494700 
3510.000000	99.496086 
3509.000000	99.494190 
3508.000000	99.492257 
3507.000000	99.492714 
3506.000000	99.494407 
3505.000000	99.493594 
3504.000000	99.487810 
3503.000000	99.478952 
3502.000000	99.472507 
3501.000000	99.473064 
3500.000000	99.480157 
3499.000000	99.488466 
3498.000000	99.492200 
3497.000000	99.489838 
3496.000000	99.485089 
3495.000000	99.483073 
3494.000000	99.485468 
3493.000000	99.489478 
3492.000000	99.491189 
3491.000000	99.489432 
3490.000000	99.486526 
3489.000000	99.485714 
3488.000000	99.488173 
3487.000000	99.492299 
3486.000000	99.495383 
3485.000000	99.495834 
3484.000000	99.494277 
3483.000000	99.492952 
3482.000000	99.493600 
3481.000000	99.495519 
3480.000000	99.496163 
3479.000000	99.493988 
3478.000000	99.490261 
3477.000000	99.487416 
3476.000000	99.486083 
3475.000000	99.484637 
3474.000000	99.481826 
3473.000000	99.478724 
3472.000000	99.477404 
3471.000000	99.478513 
3470.000000	99.480954 
3469.000000	99.483280 
3468.000000	99.484404 
3467.000000	99.483495 
3466.000000	99.480500 
3465.000000	99.476824 
3464.000000	99.474428 
3463.000000	99.473889 
3462.000000	99.473864 
3461.000000	99.472751 
3460.000000	99.470415 
3459.000000	99.468128 
3458.000000	99.467240 
3457.000000	99.468154 
3456.000000	99.470230 
3455.000000	99.472525 
3454.000000	99.474703 
3453.000000	99.477073 
3452.000000	99.479752 
3451.000000	99.482238 
3450.000000	99.484098 
3449.000000	99.485522 
3448.000000	99.486653 
3447.000000	99.486747 
3446.000000	99.485155 
3445.000000	99.483151 
3444.000000	99.483380 
3443.000000	99.486873 
3442.000000	99.491275 
3441.000000	99.492952 
3440.000000	99.490820 
3439.000000	99.487120 
3438.000000	99.484352 
3437.000000	99.482415 
3436.000000	99.479516 
3435.000000	99.475443 
3434.000000	99.472724 
3433.000000	99.473996 
3432.000000	99.478806 
3431.000000	99.483748 
3430.000000	99.485638 
3429.000000	99.484062 
3428.000000	99.480972 
3427.000000	99.478315 
3426.000000	99.476604 
3425.000000	99.475612 
3424.000000	99.475630 
3423.000000	99.477263 
3422.000000	99.479905 
3421.000000	99.481225 
3420.000000	99.479071 
3419.000000	99.474090 
3418.000000	99.469840 
3417.000000	99.469760 
3416.000000	99.473983 
3415.000000	99.479255 
3414.000000	99.481973 
3413.000000	99.481198 
3412.000000	99.478811 
3411.000000	99.477236 
3410.000000	99.477500 
3409.000000	99.479072 
3408.000000	99.480604 
3407.000000	99.480529 
3406.000000	99.477764 
3405.000000	99.472790 
3404.000000	99.468014 
3403.000000	99.466399 
3402.000000	99.469266 
3401.000000	99.475301 
3400.000000	99.481545 
3399.000000	99.485393 
3398.000000	99.486240 
3397.000000	99.485573 
3396.000000	99.485170 
3395.000000	99.485057 
3394.000000	99.483850 
3393.000000	99.481257 
3392.000000	99.479250 
3391.000000	99.479781 
3390.000000	99.482014 
3389.000000	99.483096 
3388.000000	99.481495 
3387.000000	99.478315 
3386.000000	99.475220 
3385.000000	99.472390 
3384.000000	99.469295 
3383.000000	99.466546 
3382.000000	99.465767 
3381.000000	99.467688 
3380.000000	99.471066 
3379.000000	99.473625 
3378.000000	99.473919 
3377.000000	99.472469 
3376.000000	99.471407 
3375.000000	99.472943 
3374.000000	99.477726 
3373.000000	99.484249 
3372.000000	99.489692 
3371.000000	99.491621 
3370.000000	99.489507 
3369.000000	99.485109 
3368.000000	99.481270 
3367.000000	99.479774 
3366.000000	99.480097 
3365.000000	99.480362 
3364.000000	99.479571 
3363.000000	99.478608 
3362.000000	99.478924 
3361.000000	99.480547 
3360.000000	99.481745 
3359.000000	99.480790 
3358.000000	99.477973 
3357.000000	99.475673 
3356.000000	99.476187 
3355.000000	99.479307 
3354.000000	99.482275 
3353.000000	99.482441 
3352.000000	99.479972 
3351.000000	99.477791 
3350.000000	99.478972 
3349.000000	99.484331 
3348.000000	99.492134 
3347.000000	99.499405 
3346.000000	99.503491 
3345.000000	99.503193 
3344.000000	99.499176 
3343.000000	99.493249 
3342.000000	99.487073 
3341.000000	99.481716 
3340.000000	99.478277 
3339.000000	99.477924 
3338.000000	99.480527 
3337.000000	99.483734 
3336.000000	99.484594 
3335.000000	99.482486 
3334.000000	99.479775 
3333.000000	99.479200 
3332.000000	99.481058 
3331.000000	99.483333 
3330.000000	99.484227 
3329.000000	99.483972 
3328.000000	99.484114 
3327.000000	99.485482 
3326.000000	99.487258 
3325.000000	99.488053 
3324.000000	99.487626 
3323.000000	99.487178 
3322.000000	99.487809 
3321.000000	99.488959 
3320.000000	99.488685 
3319.000000	99.485568 
3318.000000	99.480249 
3317.000000	99.475111 
3316.000000	99.472675 
3315.000000	99.474115 
3314.000000	99.478649 
3313.000000	99.483901 
3312.000000	99.487219 
3311.000000	99.487379 
3310.000000	99.485376 
3309.000000	99.483417 
3308.000000	99.483082 
3307.000000	99.484426 
3306.000000	99.486459 
3305.000000	99.487920 
3304.000000	99.487709 
3303.000000	99.485458 
3302.000000	99.482283 
3301.000000	99.480543 
3300.000000	99.482034 
3299.000000	99.486269 
3298.000000	99.490825 
3297.000000	99.493423 
3296.000000	99.493594 
3295.000000	99.492518 
3294.000000	99.491708 
3293.000000	99.491850 
3292.000000	99.492430 
3291.000000	99.492256 
3290.000000	99.490592 
3289.000000	99.487923 
3288.000000	99.485563 
3287.000000	99.484600 
3286.000000	99.485283 
3285.000000	99.487162 
3284.000000	99.489352 
3283.000000	99.490787 
3282.000000	99.490830 
3281.000000	99.489815 
3280.000000	99.488503 
3279.000000	99.486957 
3278.000000	99.484655 
3277.000000	99.481942 
3276.000000	99.480557 
3275.000000	99.481970 
3274.000000	99.485489 
3273.000000	99.488604 
3272.000000	99.488967 
3271.000000	99.485699 
3270.000000	99.479418 
3269.000000	99.472089 
3268.000000	99.466850 
3267.000000	99.466749 
3266.000000	99.472561 
3265.000000	99.481788 
3264.000000	99.490261 
3263.000000	99.495138 
3262.000000	99.496650 
3261.000000	99.497108 
3260.000000	99.498176 
3259.000000	99.499123 
3258.000000	99.497921 
3257.000000	99.493846 
3256.000000	99.488527 
3255.000000	99.484523 
3254.000000	99.483506 
3253.000000	99.485876 
3252.000000	99.491002 
3251.000000	99.496891 
3250.000000	99.500447 
3249.000000	99.499621 
3248.000000	99.495512 
3247.000000	99.491317 
3246.000000	99.488875 
3245.000000	99.487098 
3244.000000	99.484335 
3243.000000	99.481519 
3242.000000	99.481924 
3241.000000	99.487647 
3240.000000	99.496674 
3239.000000	99.503718 
3238.000000	99.504368 
3237.000000	99.498736 
3236.000000	99.491047 
3235.000000	99.485701 
3234.000000	99.484029 
3233.000000	99.484883 
3232.000000	99.487307 
3231.000000	99.491366 
3230.000000	99.496510 
3229.000000	99.500553 
3228.000000	99.501091 
3227.000000	99.497544 
3226.000000	99.491481 
3225.000000	99.485471 
3224.000000	99.481897 
3223.000000	99.482043 
3222.000000	99.485373 
3221.000000	99.489801 
3220.000000	99.493232 
3219.000000	99.494954 
3218.000000	99.495445 
3217.000000	99.495222 
3216.000000	99.494359 
3215.000000	99.492903 
3214.000000	99.491172 
3213.000000	99.489550 
3212.000000	99.488463 
3211.000000	99.488656 
3210.000000	99.490930 
3209.000000	99.495144 
3208.000000	99.499632 
3207.000000	99.502077 
3206.000000	99.501259 
3205.000000	99.498055 
3204.000000	99.494801 
3203.000000	99.493713 
3202.000000	99.495766 
3201.000000	99.500566 
3200.000000	99.506602 
3199.000000	99.511455 
3198.000000	99.512694 
3197.000000	99.509717 
3196.000000	99.504848 
3195.000000	99.501632 
3194.000000	99.501406 
3193.000000	99.501996 
3192.000000	99.500391 
3191.000000	99.496432 
3190.000000	99.493081 
3189.000000	99.493046 
3188.000000	99.495889 
3187.000000	99.498820 
3186.000000	99.499839 
3185.000000	99.499486 
3184.000000	99.499553 
3183.000000	99.500681 
3182.000000	99.501622 
3181.000000	99.500763 
3180.000000	99.498018 
3179.000000	99.494975 
3178.000000	99.493025 
3177.000000	99.491536 
3176.000000	99.488419 
3175.000000	99.482952 
3174.000000	99.477804 
3173.000000	99.477407 
3172.000000	99.483609 
3171.000000	99.493158 
3170.000000	99.500315 
3169.000000	99.502262 
3168.000000	99.501401 
3167.000000	99.502045 
3166.000000	99.505575 
3165.000000	99.509531 
3164.000000	99.510903 
3163.000000	99.509230 
3162.000000	99.506557 
3161.000000	99.505429 
3160.000000	99.507240 
3159.000000	99.511498 
3158.000000	99.515789 
3157.000000	99.517072 
3156.000000	99.514058 
3155.000000	99.508466 
3154.000000	99.503611 
3153.000000	99.501857 
3152.000000	99.503506 
3151.000000	99.507303 
3150.000000	99.511174 
3149.000000	99.513005 
3148.000000	99.512037 
3147.000000	99.509751 
3146.000000	99.508518 
3145.000000	99.509105 
3144.000000	99.510227 
3143.000000	99.510750 
3142.000000	99.511364 
3141.000000	99.513334 
3140.000000	99.516199 
3139.000000	99.517734 
3138.000000	99.516377 
3137.000000	99.513179 
3136.000000	99.510930 
3135.000000	99.511414 
3134.000000	99.513727 
3133.000000	99.515411 
3132.000000	99.515143 
3131.000000	99.513897 
3130.000000	99.513229 
3129.000000	99.513049 
3128.000000	99.511925 
3127.000000	99.509433 
3126.000000	99.507058 
3125.000000	99.506266 
3124.000000	99.506604 
3123.000000	99.506520 
3122.000000	99.505515 
3121.000000	99.504620 
3120.000000	99.504984 
3119.000000	99.506661 
3118.000000	99.508672 
3117.000000	99.509779 
3116.000000	99.509294 
3115.000000	99.507620 
3114.000000	99.505839 
3113.000000	99.504342 
3112.000000	99.502295 
3111.000000	99.499163 
3110.000000	99.496295 
3109.000000	99.495785 
3108.000000	99.497726 
3107.000000	99.499807 
3106.000000	99.500002 
3105.000000	99.498630 
3104.000000	99.497319 
3103.000000	99.497101 
3102.000000	99.498380 
3101.000000	99.501763 
3100.000000	99.507333 
3099.000000	99.513218 
3098.000000	99.516384 
3097.000000	99.515542 
3096.000000	99.512489 
3095.000000	99.510000 
3094.000000	99.509099 
3093.000000	99.509028 
3092.000000	99.509083 
3091.000000	99.509338 
3090.000000	99.509801 
3089.000000	99.510128 
3088.000000	99.510495 
3087.000000	99.511691 
3086.000000	99.513709 
3085.000000	99.515046 
3084.000000	99.514328 
3083.000000	99.512203 
3082.000000	99.510644 
3081.000000	99.510579 
3080.000000	99.511179 
3079.000000	99.511478 
3078.000000	99.511502 
3077.000000	99.511318 
3076.000000	99.510101 
3075.000000	99.507280 
3074.000000	99.504148 
3073.000000	99.503202 
3072.000000	99.505640 
3071.000000	99.510069 
3070.000000	99.513669 
3069.000000	99.514129 
3068.000000	99.510722 
3067.000000	99.504530 
3066.000000	99.498155 
3065.000000	99.494552 
3064.000000	99.495152 
3063.000000	99.498807 
3062.000000	99.502815 
3061.000000	99.505142 
3060.000000	99.505775 
3059.000000	99.506099 
3058.000000	99.507187 
3057.000000	99.508815 
3056.000000	99.510135 
3055.000000	99.511055 
3054.000000	99.512472 
3053.000000	99.514922 
3052.000000	99.517488 
3051.000000	99.518702 
3050.000000	99.518322 
3049.000000	99.517318 
3048.000000	99.515856 
3047.000000	99.512335 
3046.000000	99.505408 
3045.000000	99.496531 
3044.000000	99.489370 
3043.000000	99.486417 
3042.000000	99.486901 
3041.000000	99.488217 
3040.000000	99.488687 
3039.000000	99.488458 
3038.000000	99.488291 
3037.000000	99.488334 
3036.000000	99.488164 
3035.000000	99.487481 
3034.000000	99.486451 
3033.000000	99.485447 
3032.000000	99.484514 
3031.000000	99.483087 
3030.000000	99.480259 
3029.000000	99.475401 
3028.000000	99.468642 
3027.000000	99.460984 
3026.000000	99.453968 
3025.000000	99.448749 
3024.000000	99.445007 
3023.000000	99.440868 
3022.000000	99.434467 
3021.000000	99.425792 
3020.000000	99.416783 
3019.000000	99.409624 
3018.000000	99.405220 
3017.000000	99.403094 
3016.000000	99.401925 
3015.000000	99.399837 
3014.000000	99.395024 
3013.000000	99.386960 
3012.000000	99.376746 
3011.000000	99.365678 
3010.000000	99.353899 
3009.000000	99.341316 
3008.000000	99.329530 
3007.000000	99.321548 
3006.000000	99.318823 
3005.000000	99.319004 
3004.000000	99.317166 
3003.000000	99.309465 
3002.000000	99.295876 
3001.000000	99.280014 
3000.000000	99.266439 
2999.000000	99.257483 
2998.000000	99.252184 
2997.000000	99.248436 
2996.000000	99.245852 
2995.000000	99.245419 
2994.000000	99.245950 
2993.000000	99.242456 
2992.000000	99.230128 
2991.000000	99.210165 
2990.000000	99.190225 
2989.000000	99.178092 
2988.000000	99.175251 
2987.000000	99.177179 
2986.000000	99.179192 
2985.000000	99.180873 
2984.000000	99.184647 
2983.000000	99.191258 
2982.000000	99.197911 
2981.000000	99.200992 
2980.000000	99.199882 
2979.000000	99.197364 
2978.000000	99.196442 
2977.000000	99.197471 
2976.000000	99.198628 
2975.000000	99.198481 
2974.000000	99.197380 
2973.000000	99.196627 
2972.000000	99.197109 
2971.000000	99.198981 
2970.000000	99.202097 
2969.000000	99.206310 
2968.000000	99.211502 
2967.000000	99.217550 
2966.000000	99.224243 
2965.000000	99.231273 
2964.000000	99.238472 
2963.000000	99.245947 
2962.000000	99.253618 
2961.000000	99.260681 
2960.000000	99.266107 
2959.000000	99.269976 
2958.000000	99.273866 
2957.000000	99.279320 
2956.000000	99.285872 
2955.000000	99.290939 
2954.000000	99.292110 
2953.000000	99.289936 
2952.000000	99.288487 
2951.000000	99.292460 
2950.000000	99.302811 
2949.000000	99.315178 
2948.000000	99.323403 
2947.000000	99.324995 
2946.000000	99.322841 
2945.000000	99.321638 
2944.000000	99.323681 
2943.000000	99.328353 
2942.000000	99.334125 
2941.000000	99.339476 
2940.000000	99.342513 
2939.000000	99.341687 
2938.000000	99.337600 
2937.000000	99.333234 
2936.000000	99.331893 
2935.000000	99.335136 
2934.000000	99.342352 
2933.000000	99.351167 
2932.000000	99.358156 
2931.000000	99.360464 
2930.000000	99.357724 
2929.000000	99.352161 
2928.000000	99.346591 
2927.000000	99.342732 
2926.000000	99.341262 
2925.000000	99.342142 
2924.000000	99.344232 
2923.000000	99.345668 
2922.000000	99.345527 
2921.000000	99.344471 
2920.000000	99.343040 
2919.000000	99.340262 
2918.000000	99.335029 
2917.000000	99.328144 
2916.000000	99.321673 
2915.000000	99.316619 
2914.000000	99.312549 
2913.000000	99.309399 
2912.000000	99.308071 
2911.000000	99.308692 
2910.000000	99.309472 
2909.000000	99.308218 
2908.000000	99.304494 
2907.000000	99.299593 
2906.000000	99.294707 
2905.000000	99.289679 
2904.000000	99.283382 
2903.000000	99.275210 
2902.000000	99.266641 
2901.000000	99.261526 
2900.000000	99.263790 
2899.000000	99.273597 
2898.000000	99.285859 
2897.000000	99.293727 
2896.000000	99.294441 
2895.000000	99.291545 
2894.000000	99.291005 
2893.000000	99.295327 
2892.000000	99.301904 
2891.000000	99.306642 
2890.000000	99.308157 
2889.000000	99.308023 
2888.000000	99.307910 
2887.000000	99.307861 
2886.000000	99.307479 
2885.000000	99.307479 
2884.000000	99.309103 
2883.000000	99.312553 
2882.000000	99.316990 
2881.000000	99.321965 
2880.000000	99.328004 
2879.000000	99.335699 
2878.000000	99.344900 
2877.000000	99.354781 
2876.000000	99.363917 
2875.000000	99.370226 
2874.000000	99.371990 
2873.000000	99.369819 
2872.000000	99.367083 
2871.000000	99.367469 
2870.000000	99.372122 
2869.000000	99.379448 
2868.000000	99.387371 
2867.000000	99.395145 
2866.000000	99.403225 
2865.000000	99.412162 
2864.000000	99.421772 
2863.000000	99.430837 
2862.000000	99.437534 
2861.000000	99.440819 
2860.000000	99.441831 
2859.000000	99.443478 
2858.000000	99.448015 
2857.000000	99.455019 
2856.000000	99.461985 
2855.000000	99.466868 
2854.000000	99.469715 
2853.000000	99.471788 
2852.000000	99.473665 
2851.000000	99.474804 
2850.000000	99.474979 
2849.000000	99.475380 
2848.000000	99.477650 
2847.000000	99.481914 
2846.000000	99.486264 
2845.000000	99.488289 
2844.000000	99.486979 
2843.000000	99.483326 
2842.000000	99.479629 
2841.000000	99.478173 
2840.000000	99.479887 
2839.000000	99.483695 
2838.000000	99.487308 
2837.000000	99.488885 
2836.000000	99.488025 
2835.000000	99.485550 
2834.000000	99.482989 
2833.000000	99.482197 
2832.000000	99.484377 
2831.000000	99.488824 
2830.000000	99.493198 
2829.000000	99.495785 
2828.000000	99.497155 
2827.000000	99.498954 
2826.000000	99.501469 
2825.000000	99.503265 
2824.000000	99.503244 
2823.000000	99.502262 
2822.000000	99.502387 
2821.000000	99.504953 
2820.000000	99.509394 
2819.000000	99.513673 
2818.000000	99.515803 
2817.000000	99.515337 
2816.000000	99.513495 
2815.000000	99.511764 
2814.000000	99.510575 
2813.000000	99.509567 
2812.000000	99.508631 
2811.000000	99.507977 
2810.000000	99.507397 
2809.000000	99.506429 
2808.000000	99.505433 
2807.000000	99.505699 
2806.000000	99.507999 
2805.000000	99.511512 
2804.000000	99.514599 
2803.000000	99.516332 
2802.000000	99.516952 
2801.000000	99.517116 
2800.000000	99.517122 
2799.000000	99.516798 
2798.000000	99.515946 
2797.000000	99.514874 
2796.000000	99.514391 
2795.000000	99.515048 
2794.000000	99.516442 
2793.000000	99.517539 
2792.000000	99.517642 
2791.000000	99.516773 
2790.000000	99.515372 
2789.000000	99.514200 
2788.000000	99.514357 
2787.000000	99.516544 
2786.000000	99.520090 
2785.000000	99.523404 
2784.000000	99.525583 
2783.000000	99.526832 
2782.000000	99.527138 
2781.000000	99.525724 
2780.000000	99.522589 
2779.000000	99.519664 
2778.000000	99.519150 
2777.000000	99.520997 
2776.000000	99.522965 
2775.000000	99.523103 
2774.000000	99.521343 
2773.000000	99.518845 
2772.000000	99.516735 
2771.000000	99.515661 
2770.000000	99.515812 
2769.000000	99.517040 
2768.000000	99.519305 
2767.000000	99.522930 
2766.000000	99.527817 
2765.000000	99.532509 
2764.000000	99.534970 
2763.000000	99.534638 
2762.000000	99.533154 
2761.000000	99.532683 
2760.000000	99.533967 
2759.000000	99.536157 
2758.000000	99.537941 
2757.000000	99.538495 
2756.000000	99.537900 
2755.000000	99.537099 
2754.000000	99.537022 
2753.000000	99.537331 
2752.000000	99.536441 
2751.000000	99.533353 
2750.000000	99.529107 
2749.000000	99.525825 
2748.000000	99.524433 
2747.000000	99.523944 
2746.000000	99.522969 
2745.000000	99.521391 
2744.000000	99.520383 
2743.000000	99.521144 
2742.000000	99.523852 
2741.000000	99.527617 
2740.000000	99.531225 
2739.000000	99.533915 
2738.000000	99.535571 
2737.000000	99.536374 
2736.000000	99.536548 
2735.000000	99.536467 
2734.000000	99.536656 
2733.000000	99.537280 
2732.000000	99.537675 
2731.000000	99.536716 
2730.000000	99.533912 
2729.000000	99.530241 
2728.000000	99.527786 
2727.000000	99.528160 
2726.000000	99.530892 
2725.000000	99.533533 
2724.000000	99.533955 
2723.000000	99.532628 
2722.000000	99.532040 
2721.000000	99.533736 
2720.000000	99.536593 
2719.000000	99.538413 
2718.000000	99.538434 
2717.000000	99.537601 
2716.000000	99.537124 
2715.000000	99.537864 
2714.000000	99.540671 
2713.000000	99.545761 
2712.000000	99.551433 
2711.000000	99.554706 
2710.000000	99.554118 
2709.000000	99.551264 
2708.000000	99.548861 
2707.000000	99.547749 
2706.000000	99.546500 
2705.000000	99.543636 
2704.000000	99.539413 
2703.000000	99.535397 
2702.000000	99.532928 
2701.000000	99.532274 
2700.000000	99.532920 
2699.000000	99.534228 
2698.000000	99.535650 
2697.000000	99.536540 
2696.000000	99.536384 
2695.000000	99.535724 
2694.000000	99.536446 
2693.000000	99.540145 
2692.000000	99.545868 
2691.000000	99.550317 
2690.000000	99.550996 
2689.000000	99.548791 
2688.000000	99.546766 
2687.000000	99.546711 
2686.000000	99.547603 
2685.000000	99.547379 
2684.000000	99.545427 
2683.000000	99.543023 
2682.000000	99.541840 
2681.000000	99.542499 
2680.000000	99.544385 
2679.000000	99.546393 
2678.000000	99.547674 
2677.000000	99.547874 
2676.000000	99.547138 
2675.000000	99.546193 
2674.000000	99.546107 
2673.000000	99.547343 
2672.000000	99.548868 
2671.000000	99.548642 
2670.000000	99.545331 
2669.000000	99.539419 
2668.000000	99.532783 
2667.000000	99.527729 
2666.000000	99.526335 
2665.000000	99.529556 
2664.000000	99.536130 
2663.000000	99.542950 
2662.000000	99.547428 
2661.000000	99.549324 
2660.000000	99.549763 
2659.000000	99.549141 
2658.000000	99.547112 
2657.000000	99.544391 
2656.000000	99.543130 
2655.000000	99.544862 
2654.000000	99.548577 
2653.000000	99.551233 
2652.000000	99.550101 
2651.000000	99.544920 
2650.000000	99.538337 
2649.000000	99.533864 
2648.000000	99.532670 
2647.000000	99.532683 
2646.000000	99.531751 
2645.000000	99.531092 
2644.000000	99.533890 
2643.000000	99.540502 
2642.000000	99.547074 
2641.000000	99.549896 
2640.000000	99.549602 
2639.000000	99.549756 
2638.000000	99.552337 
2637.000000	99.555938 
2636.000000	99.557661 
2635.000000	99.555558 
2634.000000	99.549828 
2633.000000	99.542985 
2632.000000	99.538587 
2631.000000	99.538580 
2630.000000	99.541829 
2629.000000	99.545710 
2628.000000	99.548568 
2627.000000	99.549951 
2626.000000	99.549585 
2625.000000	99.547851 
2624.000000	99.546796 
2623.000000	99.548721 
2622.000000	99.553332 
2621.000000	99.557635 
2620.000000	99.559056 
2619.000000	99.557552 
2618.000000	99.554422 
2617.000000	99.550503 
2616.000000	99.546456 
2615.000000	99.543769 
2614.000000	99.544086 
2613.000000	99.547429 
2612.000000	99.551721 
2611.000000	99.554337 
2610.000000	99.554131 
2609.000000	99.552087 
2608.000000	99.550187 
2607.000000	99.549918 
2606.000000	99.551999 
2605.000000	99.556803 
2604.000000	99.563548 
2603.000000	99.568875 
2602.000000	99.568362 
2601.000000	99.561320 
2600.000000	99.553048 
2599.000000	99.550153 
2598.000000	99.553856 
2597.000000	99.559652 
2596.000000	99.563019 
2595.000000	99.562932 
2594.000000	99.559843 
2593.000000	99.553670 
2592.000000	99.545718 
2591.000000	99.540215 
2590.000000	99.541134 
2589.000000	99.548064 
2588.000000	99.556920 
2587.000000	99.563921 
2586.000000	99.567217 
2585.000000	99.565674 
2584.000000	99.558944 
2583.000000	99.549324 
2582.000000	99.541396 
2581.000000	99.538356 
2580.000000	99.539265 
2579.000000	99.540652 
2578.000000	99.540343 
2577.000000	99.539215 
2576.000000	99.539584 
2575.000000	99.542430 
2574.000000	99.546181 
2573.000000	99.548049 
2572.000000	99.546562 
2571.000000	99.542740 
2570.000000	99.538851 
2569.000000	99.536401 
2568.000000	99.535521 
2567.000000	99.535639 
2566.000000	99.536045 
2565.000000	99.536190 
2564.000000	99.536233 
2563.000000	99.537097 
2562.000000	99.539263 
2561.000000	99.541825 
2560.000000	99.543715 
2559.000000	99.545376 
2558.000000	99.547632 
2557.000000	99.548859 
2556.000000	99.545672 
2555.000000	99.537931 
2554.000000	99.531351 
2553.000000	99.532559 
2552.000000	99.541721 
2551.000000	99.552222 
2550.000000	99.557859 
2549.000000	99.558199 
2548.000000	99.556114 
2547.000000	99.552648 
2546.000000	99.546872 
2545.000000	99.539722 
2544.000000	99.534904 
2543.000000	99.535199 
2542.000000	99.539562 
2541.000000	99.544610 
2540.000000	99.547672 
2539.000000	99.547648 
2538.000000	99.544219 
2537.000000	99.537681 
2536.000000	99.529302 
2535.000000	99.521061 
2534.000000	99.515200 
2533.000000	99.514010 
2532.000000	99.518826 
2531.000000	99.528318 
2530.000000	99.538611 
2529.000000	99.546343 
2528.000000	99.551286 
2527.000000	99.555127 
2526.000000	99.558436 
2525.000000	99.560274 
2524.000000	99.560505 
2523.000000	99.560833 
2522.000000	99.563032 
2521.000000	99.567083 
2520.000000	99.571366 
2519.000000	99.573962 
2518.000000	99.573647 
2517.000000	99.570477 
2516.000000	99.565799 
2515.000000	99.561200 
2514.000000	99.557382 
2513.000000	99.554405 
2512.000000	99.552486 
2511.000000	99.551486 
2510.000000	99.550051 
2509.000000	99.546959 
2508.000000	99.543619 
2507.000000	99.543518 
2506.000000	99.548095 
2505.000000	99.554187 
2504.000000	99.556764 
2503.000000	99.553738 
2502.000000	99.547419 
2501.000000	99.542093 
2500.000000	99.541151 
2499.000000	99.545748 
2498.000000	99.554520 
2497.000000	99.564222 
2496.000000	99.571596 
2495.000000	99.575108 
2494.000000	99.574620 
2493.000000	99.569740 
2492.000000	99.559848 
2491.000000	99.546435 
2490.000000	99.534414 
2489.000000	99.529229 
2488.000000	99.531857 
2487.000000	99.537619 
2486.000000	99.541195 
2485.000000	99.542542 
2484.000000	99.546236 
2483.000000	99.554497 
2482.000000	99.562777 
2481.000000	99.564127 
2480.000000	99.557224 
2479.000000	99.547866 
2478.000000	99.542436 
2477.000000	99.541805 
2476.000000	99.542305 
2475.000000	99.540901 
2474.000000	99.538011 
2473.000000	99.536358 
2472.000000	99.538468 
2471.000000	99.544682 
2470.000000	99.552232 
2469.000000	99.556386 
2468.000000	99.553865 
2467.000000	99.545729 
2466.000000	99.536712 
2465.000000	99.531594 
2464.000000	99.531963 
2463.000000	99.535657 
2462.000000	99.538712 
2461.000000	99.538423 
2460.000000	99.535443 
2459.000000	99.533029 
2458.000000	99.533945 
2457.000000	99.538125 
2456.000000	99.543216 
2455.000000	99.546573 
2454.000000	99.546465 
2453.000000	99.542494 
2452.000000	99.536092 
2451.000000	99.530263 
2450.000000	99.527684 
2449.000000	99.528806 
2448.000000	99.532148 
2447.000000	99.536204 
2446.000000	99.540532 
2445.000000	99.545350 
2444.000000	99.550700 
2443.000000	99.555827 
2442.000000	99.558927 
2441.000000	99.558119 
2440.000000	99.553533 
2439.000000	99.548028 
2438.000000	99.544831 
2437.000000	99.544499 
2436.000000	99.544762 
2435.000000	99.542986 
2434.000000	99.538012 
2433.000000	99.530302 
2432.000000	99.521802 
2431.000000	99.515647 
2430.000000	99.514515 
2429.000000	99.518663 
2428.000000	99.526285 
2427.000000	99.535641 
2426.000000	99.545378 
2425.000000	99.552710 
2424.000000	99.553623 
2423.000000	99.546741 
2422.000000	99.536020 
2421.000000	99.527799 
2420.000000	99.525232 
2419.000000	99.526761 
2418.000000	99.529594 
2417.000000	99.532780 
2416.000000	99.536313 
2415.000000	99.538976 
2414.000000	99.538963 
2413.000000	99.536549 
2412.000000	99.534657 
2411.000000	99.535901 
2410.000000	99.539541 
2409.000000	99.542223 
2408.000000	99.541829 
2407.000000	99.539927 
2406.000000	99.539960 
2405.000000	99.543433 
2404.000000	99.548478 
2403.000000	99.551932 
2402.000000	99.552042 
2401.000000	99.549129 
2400.000000	99.544597 
2399.000000	99.539976 
2398.000000	99.536446 
2397.000000	99.534498 
2396.000000	99.533912 
2395.000000	99.534320 
2394.000000	99.535597 
2393.000000	99.537435 
2392.000000	99.538911 
2391.000000	99.539226 
2390.000000	99.538893 
2389.000000	99.539570 
2388.000000	99.542389 
2387.000000	99.546689 
2386.000000	99.550440 
2385.000000	99.551615 
2384.000000	99.549371 
2383.000000	99.544733 
2382.000000	99.540476 
2381.000000	99.539370 
2380.000000	99.541377 
2379.000000	99.542790 
2378.000000	99.539551 
2377.000000	99.532063 
2376.000000	99.525802 
2375.000000	99.526009 
2374.000000	99.532159 
2373.000000	99.538850 
2372.000000	99.542301 
2371.000000	99.544725 
2370.000000	99.550946 
2369.000000	99.561034 
2368.000000	99.567883 
2367.000000	99.563480 
2366.000000	99.547483 
2365.000000	99.528644 
2364.000000	99.517330 
2363.000000	99.517037 
2362.000000	99.523501 
2361.000000	99.530980 
2360.000000	99.536876 
2359.000000	99.540807 
2358.000000	99.543173 
2357.000000	99.545592 
2356.000000	99.550871 
2355.000000	99.559622 
2354.000000	99.567821 
2353.000000	99.570567 
2352.000000	99.567147 
2351.000000	99.561459 
2350.000000	99.556942 
2349.000000	99.553602 
2348.000000	99.550042 
2347.000000	99.545635 
2346.000000	99.541382 
2345.000000	99.538054 
2344.000000	99.535738 
2343.000000	99.535345 
2342.000000	99.538180 
2341.000000	99.544236 
2340.000000	99.550860 
2339.000000	99.555637 
2338.000000	99.558406 
2337.000000	99.560394 
2336.000000	99.562037 
2335.000000	99.562852 
2334.000000	99.562999 
2333.000000	99.563813 
2332.000000	99.565936 
2331.000000	99.567668 
2330.000000	99.566240 
2329.000000	99.561071 
2328.000000	99.555788 
2327.000000	99.554158 
2326.000000	99.556518 
2325.000000	99.558960 
2324.000000	99.558519 
2323.000000	99.557164 
2322.000000	99.559885 
2321.000000	99.568774 
2320.000000	99.579727 
2319.000000	99.586862 
2318.000000	99.587906 
2317.000000	99.585052 
2316.000000	99.581141 
2315.000000	99.576753 
2314.000000	99.571430 
2313.000000	99.566122 
2312.000000	99.564090 
2311.000000	99.568185 
2310.000000	99.578003 
2309.000000	99.588510 
2308.000000	99.593118 
2307.000000	99.588415 
2306.000000	99.577332 
2305.000000	99.566299 
2304.000000	99.559475 
2303.000000	99.555867 
2302.000000	99.552787 
2301.000000	99.550125 
2300.000000	99.549664 
2299.000000	99.550727 
2298.000000	99.549925 
2297.000000	99.545922 
2296.000000	99.542354 
2295.000000	99.543132 
2294.000000	99.546604 
2293.000000	99.546759 
2292.000000	99.540834 
2291.000000	99.532791 
2290.000000	99.528581 
2289.000000	99.529530 
2288.000000	99.532041 
2287.000000	99.532505 
2286.000000	99.530688 
2285.000000	99.528496 
2284.000000	99.526972 
2283.000000	99.525011 
2282.000000	99.520270 
2281.000000	99.511376 
2280.000000	99.500016 
2279.000000	99.491101 
2278.000000	99.489709 
2277.000000	99.496947 
2276.000000	99.508879 
2275.000000	99.520065 
2274.000000	99.527582 
2273.000000	99.531001 
2272.000000	99.529532 
2271.000000	99.521564 
2270.000000	99.508261 
2269.000000	99.495950 
2268.000000	99.492454 
2267.000000	99.500486 
2266.000000	99.515379 
2265.000000	99.528966 
2264.000000	99.534909 
2263.000000	99.531720 
2262.000000	99.523730 
2261.000000	99.519367 
2260.000000	99.524718 
2259.000000	99.536377 
2258.000000	99.542997 
2257.000000	99.536990 
2256.000000	99.523163 
2255.000000	99.512787 
2254.000000	99.510546 
2253.000000	99.511543 
2252.000000	99.510961 
2251.000000	99.511516 
2250.000000	99.518943 
2249.000000	99.533304 
2248.000000	99.547852 
2247.000000	99.555204 
2246.000000	99.552432 
2245.000000	99.541328 
2244.000000	99.526361 
2243.000000	99.512501 
2242.000000	99.503189 
2241.000000	99.499019 
2240.000000	99.498004 
2239.000000	99.497018 
2238.000000	99.493363 
2237.000000	99.486148 
2236.000000	99.476776 
2235.000000	99.467599 
2234.000000	99.459914 
2233.000000	99.454051 
2232.000000	99.451327 
2231.000000	99.454373 
2230.000000	99.464590 
2229.000000	99.480199 
2228.000000	99.497635 
2227.000000	99.513701 
2226.000000	99.525185 
2225.000000	99.528113 
2224.000000	99.520465 
2223.000000	99.506261 
2222.000000	99.494885 
2221.000000	99.494124 
2220.000000	99.503392 
2219.000000	99.514708 
2218.000000	99.520905 
2217.000000	99.522476 
2216.000000	99.525765 
2215.000000	99.534547 
2214.000000	99.544501 
2213.000000	99.546775 
2212.000000	99.537027 
2211.000000	99.520848 
2210.000000	99.510354 
2209.000000	99.514556 
2208.000000	99.531199 
2207.000000	99.547742 
2206.000000	99.551816 
2205.000000	99.541536 
2204.000000	99.525022 
2203.000000	99.510606 
2202.000000	99.500462 
2201.000000	99.493539 
2200.000000	99.489513 
2199.000000	99.486813 
2198.000000	99.480884 
2197.000000	99.469734 
2196.000000	99.459623 
2195.000000	99.460091 
2194.000000	99.473142 
2193.000000	99.490944 
2192.000000	99.504187 
2191.000000	99.509195 
2190.000000	99.507063 
2189.000000	99.500745 
2188.000000	99.494725 
2187.000000	99.493876 
2186.000000	99.500234 
2185.000000	99.511863 
2184.000000	99.524708 
2183.000000	99.533589 
2182.000000	99.532999 
2181.000000	99.521889 
2180.000000	99.507947 
2179.000000	99.501927 
2178.000000	99.506342 
2177.000000	99.513267 
2176.000000	99.514171 
2175.000000	99.508291 
2174.000000	99.500054 
2173.000000	99.492597 
2172.000000	99.486396 
2171.000000	99.481311 
2170.000000	99.477635 
2169.000000	99.476762 
2168.000000	99.481104 
2167.000000	99.490539 
2166.000000	99.499103 
2165.000000	99.499721 
2164.000000	99.493522 
2163.000000	99.489635 
2162.000000	99.494319 
2161.000000	99.505241 
2160.000000	99.517516 
2159.000000	99.528666 
2158.000000	99.534968 
2157.000000	99.531686 
2156.000000	99.521916 
2155.000000	99.516805 
2154.000000	99.521863 
2153.000000	99.529076 
2152.000000	99.527386 
2151.000000	99.516869 
2150.000000	99.507944 
2149.000000	99.509975 
2148.000000	99.524312 
2147.000000	99.544721 
2146.000000	99.559798 
2145.000000	99.558495 
2144.000000	99.539658 
2143.000000	99.515022 
2142.000000	99.498816 
2141.000000	99.495510 
2140.000000	99.500066 
2139.000000	99.506984 
2138.000000	99.513768 
2137.000000	99.517313 
2136.000000	99.513721 
2135.000000	99.503660 
2134.000000	99.493920 
2133.000000	99.491175 
2132.000000	99.495437 
2131.000000	99.500666 
2130.000000	99.501041 
2129.000000	99.496640 
2128.000000	99.493241 
2127.000000	99.495436 
2126.000000	99.500170 
2125.000000	99.500011 
2124.000000	99.493955 
2123.000000	99.490974 
2122.000000	99.499268 
2121.000000	99.514770 
2120.000000	99.525036 
2119.000000	99.523383 
2118.000000	99.514488 
2117.000000	99.506566 
2116.000000	99.503190 
2115.000000	99.504001 
2114.000000	99.508504 
2113.000000	99.515561 
2112.000000	99.521416 
2111.000000	99.521713 
2110.000000	99.515467 
2109.000000	99.505848 
2108.000000	99.497417 
2107.000000	99.492808 
2106.000000	99.490867 
2105.000000	99.487488 
2104.000000	99.479749 
2103.000000	99.470154 
2102.000000	99.465336 
2101.000000	99.469200 
2100.000000	99.478118 
2099.000000	99.484224 
2098.000000	99.483429 
2097.000000	99.479405 
2096.000000	99.479101 
2095.000000	99.484197 
2094.000000	99.487858 
2093.000000	99.481729 
2092.000000	99.466383 
2091.000000	99.452364 
2090.000000	99.449116 
2089.000000	99.454479 
2088.000000	99.457887 
2087.000000	99.453428 
2086.000000	99.446033 
2085.000000	99.444128 
2084.000000	99.449553 
2083.000000	99.457018 
2082.000000	99.461482 
2081.000000	99.463179 
2080.000000	99.465669 
2079.000000	99.471008 
2078.000000	99.478059 
2077.000000	99.485148 
2076.000000	99.493090 
2075.000000	99.504015 
2074.000000	99.516824 
2073.000000	99.526124 
2072.000000	99.527666 
2071.000000	99.523380 
2070.000000	99.518709 
2069.000000	99.516000 
2068.000000	99.513311 
2067.000000	99.509099 
2066.000000	99.504520 
2065.000000	99.500367 
2064.000000	99.495185 
2063.000000	99.488393 
2062.000000	99.482940 
2061.000000	99.482768 
2060.000000	99.488896 
2059.000000	99.499212 
2058.000000	99.510353 
2057.000000	99.518269 
2056.000000	99.518975 
2055.000000	99.511631 
2054.000000	99.500807 
2053.000000	99.494091 
2052.000000	99.496761 
2051.000000	99.508607 
2050.000000	99.524133 
2049.000000	99.534241 
2048.000000	99.530245 
2047.000000	99.510159 
2046.000000	99.481962 
2045.000000	99.458854 
2044.000000	99.449265 
2043.000000	99.450955 
2042.000000	99.455113 
2041.000000	99.455854 
2040.000000	99.455453 
2039.000000	99.460170 
2038.000000	99.471836 
2037.000000	99.484812 
2036.000000	99.491497 
2035.000000	99.489602 
2034.000000	99.482779 
2033.000000	99.475301 
2032.000000	99.468442 
2031.000000	99.461996 
2030.000000	99.456624 
2029.000000	99.452968 
2028.000000	99.449593 
2027.000000	99.444396 
2026.000000	99.438951 
2025.000000	99.439778 
2024.000000	99.452188 
2023.000000	99.471350 
2022.000000	99.482294 
2021.000000	99.473005 
2020.000000	99.448785 
2019.000000	99.429747 
2018.000000	99.431508 
2017.000000	99.449471 
2016.000000	99.464797 
2015.000000	99.465281 
2014.000000	99.455755 
2013.000000	99.448991 
2012.000000	99.451287 
2011.000000	99.458650 
2010.000000	99.464959 
2009.000000	99.470726 
2008.000000	99.482020 
2007.000000	99.500634 
2006.000000	99.517836 
2005.000000	99.521839 
2004.000000	99.511678 
2003.000000	99.498949 
2002.000000	99.494436 
2001.000000	99.495964 
2000.000000	99.492183 
1999.000000	99.476356 
1998.000000	99.453221 
1997.000000	99.434102 
1996.000000	99.427765 
1995.000000	99.435788 
1994.000000	99.453371 
1993.000000	99.472339 
1992.000000	99.485066 
1991.000000	99.488392 
1990.000000	99.484490 
1989.000000	99.478838 
1988.000000	99.477505 
1987.000000	99.483346 
1986.000000	99.492621 
1985.000000	99.497592 
1984.000000	99.495242 
1983.000000	99.491571 
1982.000000	99.493888 
1981.000000	99.499678 
1980.000000	99.497843 
1979.000000	99.482259 
1978.000000	99.460567 
1977.000000	99.446601 
1976.000000	99.444766 
1975.000000	99.446963 
1974.000000	99.445803 
1973.000000	99.446391 
1972.000000	99.461018 
1971.000000	99.492166 
1970.000000	99.524279 
1969.000000	99.536027 
1968.000000	99.521191 
1967.000000	99.494438 
1966.000000	99.474521 
1965.000000	99.466247 
1964.000000	99.462727 
1963.000000	99.459585 
1962.000000	99.459555 
1961.000000	99.464765 
1960.000000	99.471424 
1959.000000	99.474422 
1958.000000	99.473166 
1957.000000	99.470475 
1956.000000	99.468546 
1955.000000	99.468354 
1954.000000	99.470576 
1953.000000	99.474388 
1952.000000	99.476130 
1951.000000	99.472221 
1950.000000	99.464106 
1949.000000	99.457967 
1948.000000	99.458812 
1947.000000	99.464759 
1946.000000	99.467517 
1945.000000	99.459362 
1944.000000	99.440770 
1943.000000	99.421609 
1942.000000	99.413173 
1941.000000	99.417664 
1940.000000	99.427562 
1939.000000	99.435416 
1938.000000	99.441495 
1937.000000	99.451181 
1936.000000	99.466222 
1935.000000	99.480599 
1934.000000	99.486555 
1933.000000	99.484015 
1932.000000	99.481177 
1931.000000	99.485146 
1930.000000	99.494078 
1929.000000	99.499618 
1928.000000	99.497220 
1927.000000	99.490397 
1926.000000	99.485482 
1925.000000	99.485442 
1924.000000	99.489385 
1923.000000	99.496314 
1922.000000	99.504897 
1921.000000	99.511081 
1920.000000	99.509142 
1919.000000	99.496365 
1918.000000	99.476359 
1917.000000	99.456977 
1916.000000	99.444126 
1915.000000	99.438820 
1914.000000	99.439754 
1913.000000	99.445980 
1912.000000	99.455998 
1911.000000	99.466493 
1910.000000	99.473140 
1909.000000	99.473951 
1908.000000	99.472504 
1907.000000	99.474331 
1906.000000	99.480398 
1905.000000	99.485840 
1904.000000	99.485270 
1903.000000	99.479334 
1902.000000	99.472911 
1901.000000	99.469200 
1900.000000	99.468141 
1899.000000	99.468832 
1898.000000	99.471293 
1897.000000	99.475644 
1896.000000	99.480300 
1895.000000	99.482512 
1894.000000	99.480199 
1893.000000	99.474203 
1892.000000	99.468615 
1891.000000	99.467460 
1890.000000	99.469898 
1889.000000	99.470417 
1888.000000	99.466227 
1887.000000	99.460863 
1886.000000	99.458758 
1885.000000	99.460596 
1884.000000	99.464896 
1883.000000	99.471387 
1882.000000	99.479576 
1881.000000	99.486093 
1880.000000	99.488349 
1879.000000	99.489020 
1878.000000	99.493444 
1877.000000	99.502981 
1876.000000	99.512650 
1875.000000	99.516127 
1874.000000	99.511225 
1873.000000	99.500264 
1872.000000	99.487751 
1871.000000	99.478112 
1870.000000	99.473374 
1869.000000	99.471678 
1868.000000	99.470789 
1867.000000	99.472586 
1866.000000	99.478596 
1865.000000	99.484637 
1864.000000	99.484222 
1863.000000	99.475746 
1862.000000	99.464516 
1861.000000	99.457677 
1860.000000	99.458819 
1859.000000	99.467309 
1858.000000	99.479677 
1857.000000	99.490706 
1856.000000	99.496326 
1855.000000	99.496967 
1854.000000	99.496212 
1853.000000	99.495621 
1852.000000	99.494351 
1851.000000	99.492656 
1850.000000	99.492807 
1849.000000	99.497149 
1848.000000	99.504393 
1847.000000	99.510147 
1846.000000	99.510189 
1845.000000	99.503917 
1844.000000	99.495590 
1843.000000	99.491804 
1842.000000	99.494915 
1841.000000	99.500537 
1840.000000	99.503867 
1839.000000	99.503547 
1838.000000	99.500999 
1837.000000	99.498064 
1836.000000	99.495372 
1835.000000	99.493492 
1834.000000	99.493016 
1833.000000	99.493773 
1832.000000	99.495051 
1831.000000	99.495791 
1830.000000	99.495278 
1829.000000	99.494906 
1828.000000	99.495912 
1827.000000	99.496106 
1826.000000	99.493069 
1825.000000	99.488748 
1824.000000	99.487256 
1823.000000	99.488975 
1822.000000	99.489070 
1821.000000	99.483616 
1820.000000	99.475388 
1819.000000	99.471293 
1818.000000	99.474856 
1817.000000	99.481883 
1816.000000	99.485691 
1815.000000	99.486203 
1814.000000	99.488479 
1813.000000	99.495089 
1812.000000	99.502927 
1811.000000	99.508062 
1810.000000	99.511573 
1809.000000	99.515325 
1808.000000	99.517166 
1807.000000	99.514162 
1806.000000	99.506927 
1805.000000	99.498765 
1804.000000	99.492335 
1803.000000	99.488660 
1802.000000	99.486898 
1801.000000	99.485285 
1800.000000	99.483001 
1799.000000	99.481111 
1798.000000	99.481905 
1797.000000	99.485561 
1796.000000	99.490481 
1795.000000	99.495266 
1794.000000	99.498749 
1793.000000	99.499301 
1792.000000	99.496366 
1791.000000	99.493431 
1790.000000	99.494722 
1789.000000	99.498498 
1788.000000	99.500772 
1787.000000	99.500851 
1786.000000	99.501041 
1785.000000	99.502284 
1784.000000	99.502942 
1783.000000	99.502275 
1782.000000	99.500282 
1781.000000	99.497153 
1780.000000	99.493540 
1779.000000	99.489976 
1778.000000	99.487996 
1777.000000	99.488174 
1776.000000	99.490196 
1775.000000	99.492154 
1774.000000	99.491472 
1773.000000	99.488325 
1772.000000	99.486383 
1771.000000	99.489303 
1770.000000	99.496574 
1769.000000	99.503384 
1768.000000	99.505317 
1767.000000	99.501665 
1766.000000	99.495455 
1765.000000	99.490471 
1764.000000	99.488669 
1763.000000	99.489894 
1762.000000	99.491693 
1761.000000	99.492040 
1760.000000	99.491677 
1759.000000	99.491928 
1758.000000	99.494205 
1757.000000	99.498664 
1756.000000	99.504088 
1755.000000	99.507720 
1754.000000	99.507860 
1753.000000	99.506607 
1752.000000	99.508439 
1751.000000	99.512817 
1750.000000	99.513591 
1749.000000	99.507857 
1748.000000	99.499556 
1747.000000	99.494932 
1746.000000	99.494994 
1745.000000	99.497168 
1744.000000	99.499029 
1743.000000	99.499435 
1742.000000	99.499151 
1741.000000	99.499480 
1740.000000	99.500896 
1739.000000	99.503611 
1738.000000	99.508121 
1737.000000	99.512412 
1736.000000	99.514190 
1735.000000	99.514718 
1734.000000	99.514154 
1733.000000	99.511981 
1732.000000	99.511255 
1731.000000	99.509785 
1730.000000	99.505794 
1729.000000	99.500794 
1728.000000	99.497212 
1727.000000	99.496225 
1726.000000	99.497326 
1725.000000	99.500142 
1724.000000	99.502914 
1723.000000	99.503196 
1722.000000	99.501534 
1721.000000	99.499706 
1720.000000	99.499219 
1719.000000	99.501276 
1718.000000	99.505254 
1717.000000	99.507102 
1716.000000	99.505543 
1715.000000	99.504034 
1714.000000	99.504514 
1713.000000	99.505076 
1712.000000	99.503241 
1711.000000	99.500672 
1710.000000	99.501014 
1709.000000	99.504808 
1708.000000	99.509250 
1707.000000	99.511379 
1706.000000	99.510363 
1705.000000	99.506859 
1704.000000	99.502724 
1703.000000	99.499544 
1702.000000	99.498048 
1701.000000	99.498870 
1700.000000	99.497120 
1699.000000	99.493995 
1698.000000	99.496531 
1697.000000	99.499199 
1696.000000	99.495942 
1695.000000	99.488382 
1694.000000	99.484428 
1693.000000	99.484770 
1692.000000	99.484776 
1691.000000	99.484202 
1690.000000	99.484761 
1689.000000	99.485852 
1688.000000	99.486860 
1687.000000	99.487642 
1686.000000	99.490175 
1685.000000	99.496364 
1684.000000	99.498885 
1683.000000	99.495674 
1682.000000	99.493519 
1681.000000	99.489920 
1680.000000	99.485411 
1679.000000	99.482904 
1678.000000	99.482051 
1677.000000	99.480941 
1676.000000	99.480119 
1675.000000	99.480860 
1674.000000	99.483057 
1673.000000	99.486860 
1672.000000	99.491485 
1671.000000	99.496378 
1670.000000	99.499851 
1669.000000	99.498187 
1668.000000	99.493362 
1667.000000	99.488948 
1666.000000	99.484773 
1665.000000	99.480392 
1664.000000	99.476709 
1663.000000	99.474837 
1662.000000	99.473981 
1661.000000	99.473464 
1660.000000	99.475152 
1659.000000	99.479840 
1658.000000	99.485559 
1657.000000	99.489046 
1656.000000	99.488867 
1655.000000	99.486925 
1654.000000	99.488620 
1653.000000	99.489311 
1652.000000	99.485687 
1651.000000	99.489645 
1650.000000	99.494567 
1649.000000	99.495989 
1648.000000	99.495743 
1647.000000	99.494107 
1646.000000	99.490533 
1645.000000	99.488970 
1644.000000	99.489680 
1643.000000	99.490382 
1642.000000	99.490019 
1641.000000	99.488363 
1640.000000	99.486407 
1639.000000	99.484835 
1638.000000	99.484421 
1637.000000	99.486208 
1636.000000	99.489393 
1635.000000	99.490672 
1634.000000	99.490449 
1633.000000	99.489161 
1632.000000	99.484020 
1631.000000	99.476465 
1630.000000	99.470189 
1629.000000	99.467903 
1628.000000	99.469911 
1627.000000	99.474700 
1626.000000	99.479210 
1625.000000	99.481152 
1624.000000	99.481307 
1623.000000	99.481760 
1622.000000	99.483336 
1621.000000	99.485255 
1620.000000	99.486721 
1619.000000	99.487715 
1618.000000	99.489265 
1617.000000	99.490589 
1616.000000	99.490901 
1615.000000	99.492743 
1614.000000	99.495779 
1613.000000	99.497610 
1612.000000	99.499494 
1611.000000	99.503865 
1610.000000	99.508893 
1609.000000	99.510558 
1608.000000	99.508845 
1607.000000	99.507231 
1606.000000	99.506859 
1605.000000	99.506276 
1604.000000	99.505617 
1603.000000	99.505724 
1602.000000	99.506625 
1601.000000	99.507786 
1600.000000	99.509320 
1599.000000	99.511509 
1598.000000	99.513750 
1597.000000	99.515235 
1596.000000	99.515618 
1595.000000	99.514906 
1594.000000	99.513358 
1593.000000	99.512058 
1592.000000	99.512880 
1591.000000	99.516501 
1590.000000	99.520996 
1589.000000	99.523863 
1588.000000	99.525083 
1587.000000	99.526390 
1586.000000	99.528271 
1585.000000	99.529269 
1584.000000	99.529395 
1583.000000	99.529678 
1582.000000	99.528956 
1581.000000	99.525876 
1580.000000	99.521313 
1579.000000	99.516866 
1578.000000	99.513251 
1577.000000	99.511585 
1576.000000	99.511589 
1575.000000	99.512950 
1574.000000	99.515400 
1573.000000	99.516583 
1572.000000	99.516460 
1571.000000	99.517660 
1570.000000	99.520396 
1569.000000	99.521568 
1568.000000	99.521818 
1567.000000	99.521871 
1566.000000	99.520047 
1565.000000	99.516662 
1564.000000	99.514118 
1563.000000	99.513151 
1562.000000	99.511585 
1561.000000	99.508915 
1560.000000	99.511237 
1559.000000	99.514118 
1558.000000	99.510131 
1557.000000	99.512644 
1556.000000	99.518006 
1555.000000	99.520121 
1554.000000	99.518135 
1553.000000	99.514187 
1552.000000	99.510581 
1551.000000	99.507291 
1550.000000	99.505051 
1549.000000	99.504941 
1548.000000	99.506482 
1547.000000	99.507248 
1546.000000	99.504128 
1545.000000	99.496942 
1544.000000	99.489255 
1543.000000	99.486209 
1542.000000	99.491329 
1541.000000	99.503697 
1540.000000	99.513621 
1539.000000	99.514987 
1538.000000	99.514378 
1537.000000	99.515107 
1536.000000	99.516021 
1535.000000	99.518161 
1534.000000	99.520029 
1533.000000	99.517375 
1532.000000	99.511968 
1531.000000	99.508655 
1530.000000	99.508505 
1529.000000	99.509117 
1528.000000	99.507673 
1527.000000	99.504785 
1526.000000	99.503522 
1525.000000	99.505220 
1524.000000	99.508464 
1523.000000	99.512420 
1522.000000	99.518155 
1521.000000	99.523559 
1520.000000	99.525419 
1519.000000	99.522802 
1518.000000	99.515813 
1517.000000	99.507605 
1516.000000	99.501674 
1515.000000	99.499323 
1514.000000	99.499176 
1513.000000	99.500120 
1512.000000	99.501588 
1511.000000	99.501999 
1510.000000	99.501001 
1509.000000	99.500001 
1508.000000	99.502256 
1507.000000	99.506521 
1506.000000	99.507796 
1505.000000	99.507571 
1504.000000	99.507510 
1503.000000	99.506878 
1502.000000	99.506489 
1501.000000	99.506742 
1500.000000	99.505570 
1499.000000	99.500260 
1498.000000	99.491209 
1497.000000	99.482620 
1496.000000	99.478284 
1495.000000	99.480753 
1494.000000	99.489896 
1493.000000	99.501816 
1492.000000	99.512099 
1491.000000	99.517783 
1490.000000	99.518113 
1489.000000	99.514553 
1488.000000	99.508753 
1487.000000	99.502382 
1486.000000	99.497647 
1485.000000	99.493988 
1484.000000	99.490840 
1483.000000	99.488877 
1482.000000	99.488746 
1481.000000	99.490117 
1480.000000	99.491019 
1479.000000	99.490352 
1478.000000	99.488252 
1477.000000	99.485516 
1476.000000	99.482893 
1475.000000	99.482905 
1474.000000	99.487563 
1473.000000	99.494364 
1472.000000	99.498311 
1471.000000	99.498897 
1470.000000	99.499155 
1469.000000	99.499303 
1468.000000	99.498348 
1467.000000	99.496805 
1466.000000	99.496229 
1465.000000	99.496660 
1464.000000	99.497185 
1463.000000	99.497044 
1462.000000	99.496174 
1461.000000	99.494405 
1460.000000	99.491657 
1459.000000	99.488296 
1458.000000	99.484868 
1457.000000	99.480356 
1456.000000	99.474519 
1455.000000	99.470049 
1454.000000	99.466753 
1453.000000	99.465637 
1452.000000	99.468570 
1451.000000	99.474076 
1450.000000	99.478485 
1449.000000	99.479199 
1448.000000	99.476030 
1447.000000	99.471921 
1446.000000	99.469877 
1445.000000	99.470798 
1444.000000	99.474259 
1443.000000	99.478091 
1442.000000	99.480927 
1441.000000	99.482709 
1440.000000	99.484174 
1439.000000	99.485635 
1438.000000	99.488259 
1437.000000	99.492081 
1436.000000	99.493597 
1435.000000	99.491232 
1434.000000	99.486704 
1433.000000	99.481729 
1432.000000	99.477542 
1431.000000	99.474879 
1430.000000	99.473719 
1429.000000	99.473423 
1428.000000	99.472124 
1427.000000	99.469303 
1426.000000	99.465959 
1425.000000	99.463889 
1424.000000	99.463849 
1423.000000	99.463399 
1422.000000	99.460492 
1421.000000	99.455239 
1420.000000	99.448701 
1419.000000	99.440380 
1418.000000	99.431531 
1417.000000	99.425295 
1416.000000	99.420075 
1415.000000	99.412622 
1414.000000	99.402521 
1413.000000	99.392141 
1412.000000	99.383834 
1411.000000	99.377436 
1410.000000	99.371707 
1409.000000	99.366458 
1408.000000	99.362033 
1407.000000	99.359412 
1406.000000	99.359336 
1405.000000	99.361791 
1404.000000	99.366908 
1403.000000	99.374752 
1402.000000	99.385644 
1401.000000	99.398915 
1400.000000	99.411141 
1399.000000	99.416500 
1398.000000	99.411547 
1397.000000	99.396979 
1396.000000	99.375339 
1395.000000	99.353711 
1394.000000	99.343582 
1393.000000	99.351676 
1392.000000	99.372723 
1391.000000	99.395001 
1390.000000	99.410328 
1389.000000	99.416927 
1388.000000	99.416366 
1387.000000	99.410709 
1386.000000	99.402925 
1385.000000	99.396399 
1384.000000	99.392842 
1383.000000	99.391548 
1382.000000	99.391313 
1381.000000	99.391924 
1380.000000	99.394045 
1379.000000	99.398324 
1378.000000	99.404419 
1377.000000	99.411036 
1376.000000	99.416542 
1375.000000	99.420017 
1374.000000	99.422256 
1373.000000	99.425893 
1372.000000	99.432436 
1371.000000	99.440402 
1370.000000	99.446925 
1369.000000	99.450286 
1368.000000	99.451060 
1367.000000	99.450660 
1366.000000	99.450585 
1365.000000	99.452355 
1364.000000	99.456940 
1363.000000	99.463286 
1362.000000	99.468562 
1361.000000	99.470775 
1360.000000	99.470473 
1359.000000	99.470135 
1358.000000	99.472423 
1357.000000	99.478200 
1356.000000	99.485492 
1355.000000	99.490892 
1354.000000	99.492971 
1353.000000	99.493434 
1352.000000	99.494150 
1351.000000	99.495167 
1350.000000	99.495569 
1349.000000	99.495561 
1348.000000	99.496398 
1347.000000	99.497817 
1346.000000	99.498306 
1345.000000	99.497269 
1344.000000	99.495670 
1343.000000	99.494314 
1342.000000	99.493435 
1341.000000	99.493905 
1340.000000	99.497012 
1339.000000	99.502071 
1338.000000	99.506272 
1337.000000	99.507953 
1336.000000	99.508160 
1335.000000	99.508395 
1334.000000	99.508606 
1333.000000	99.508039 
1332.000000	99.506786 
1331.000000	99.505509 
1330.000000	99.504448 
1329.000000	99.503683 
1328.000000	99.503564 
1327.000000	99.503926 
1326.000000	99.503519 
1325.000000	99.501597 
1324.000000	99.499420 
1323.000000	99.498702 
1322.000000	99.499507 
1321.000000	99.500787 
1320.000000	99.502572 
1319.000000	99.505903 
1318.000000	99.510386 
1317.000000	99.513290 
1316.000000	99.512207 
1315.000000	99.507893 
1314.000000	99.503574 
1313.000000	99.501549 
1312.000000	99.501202 
1311.000000	99.500762 
1310.000000	99.500047 
1309.000000	99.500336 
1308.000000	99.501712 
1307.000000	99.502105 
1306.000000	99.499669 
1305.000000	99.495521 
1304.000000	99.493027 
1303.000000	99.494237 
1302.000000	99.497921 
1301.000000	99.501000 
1300.000000	99.501442 
1299.000000	99.499738 
1298.000000	99.498252 
1297.000000	99.499062 
1296.000000	99.501928 
1295.000000	99.504307 
1294.000000	99.503770 
1293.000000	99.500350 
1292.000000	99.496067 
1291.000000	99.492651 
1290.000000	99.490542 
1289.000000	99.489773 
1288.000000	99.490437 
1287.000000	99.491818 
1286.000000	99.492190 
1285.000000	99.490355 
1284.000000	99.486791 
1283.000000	99.482678 
1282.000000	99.478449 
1281.000000	99.473980 
1280.000000	99.469704 
1279.000000	99.466370 
1278.000000	99.463759 
1277.000000	99.460783 
1276.000000	99.457071 
1275.000000	99.453528 
1274.000000	99.450809 
1273.000000	99.448118 
1272.000000	99.444333 
1271.000000	99.439872 
1270.000000	99.436367 
1269.000000	99.434401 
1268.000000	99.432471 
1267.000000	99.428615 
1266.000000	99.422657 
1265.000000	99.416381 
1264.000000	99.411550 
1263.000000	99.408142 
1262.000000	99.404628 
1261.000000	99.399781 
1260.000000	99.394099 
1259.000000	99.389209 
1258.000000	99.385973 
1257.000000	99.383721 
1256.000000	99.381611 
1255.000000	99.380128 
1254.000000	99.380322 
1253.000000	99.381704 
1252.000000	99.382099 
1251.000000	99.380237 
1250.000000	99.377640 
1249.000000	99.377109 
1248.000000	99.379740 
1247.000000	99.383943 
1246.000000	99.386643 
1245.000000	99.384670 
1244.000000	99.376169 
1243.000000	99.362925 
1242.000000	99.351208 
1241.000000	99.347809 
1240.000000	99.353898 
1239.000000	99.363794 
1238.000000	99.370558 
1237.000000	99.371805 
1236.000000	99.369386 
1235.000000	99.365282 
1234.000000	99.359911 
1233.000000	99.353616 
1232.000000	99.347360 
1231.000000	99.341428 
1230.000000	99.335088 
1229.000000	99.328371 
1228.000000	99.323115 
1227.000000	99.321201 
1226.000000	99.322164 
1225.000000	99.323448 
1224.000000	99.323053 
1223.000000	99.321311 
1222.000000	99.319912 
1221.000000	99.319744 
1220.000000	99.320266 
1219.000000	99.320718 
1218.000000	99.320949 
1217.000000	99.320535 
1216.000000	99.317871 
1215.000000	99.311387 
1214.000000	99.301591 
1213.000000	99.290826 
1212.000000	99.280910 
1211.000000	99.272188 
1210.000000	99.264993 
1209.000000	99.260310 
1208.000000	99.257974 
1207.000000	99.255486 
1206.000000	99.250197 
1205.000000	99.242141 
1204.000000	99.233468 
1203.000000	99.225540 
1202.000000	99.217923 
1201.000000	99.209964 
1200.000000	99.201926 
1199.000000	99.194307 
1198.000000	99.187137 
1197.000000	99.180208 
1196.000000	99.173071 
1195.000000	99.164637 
1194.000000	99.153892 
1193.000000	99.141516 
1192.000000	99.129909 
1191.000000	99.120865 
1190.000000	99.113608 
1189.000000	99.105632 
1188.000000	99.095257 
1187.000000	99.083106 
1186.000000	99.071414 
1185.000000	99.061937 
1184.000000	99.054201 
1183.000000	99.045855 
1182.000000	99.035276 
1181.000000	99.023668 
1180.000000	99.013634 
1179.000000	99.005660 
1178.000000	98.997330 
1177.000000	98.986501 
1176.000000	98.973844 
1175.000000	98.961181 
1174.000000	98.948506 
1173.000000	98.934288 
1172.000000	98.918300 
1171.000000	98.902462 
1170.000000	98.888631 
1169.000000	98.876631 
1168.000000	98.864820 
1167.000000	98.852018 
1166.000000	98.839076 
1165.000000	98.829301 
1164.000000	98.826914 
1163.000000	98.833682 
1162.000000	98.846780 
1161.000000	98.860929 
1160.000000	98.872639 
1159.000000	98.881208 
1158.000000	98.885739 
1157.000000	98.883203 
1156.000000	98.870984 
1155.000000	98.850901 
1154.000000	98.829421 
1153.000000	98.813232 
1152.000000	98.804409 
1151.000000	98.799352 
1150.000000	98.792136 
1149.000000	98.779515 
1148.000000	98.763283 
1147.000000	98.747760 
1146.000000	98.735023 
1145.000000	98.723061 
1144.000000	98.708720 
1143.000000	98.691578 
1142.000000	98.674305 
1141.000000	98.659784 
1140.000000	98.648630 
1139.000000	98.639169 
1138.000000	98.628955 
1137.000000	98.616365 
1136.000000	98.601505 
1135.000000	98.585913 
1134.000000	98.570916 
1133.000000	98.555966 
1132.000000	98.539060 
1131.000000	98.519493 
1130.000000	98.500094 
1129.000000	98.485534 
1128.000000	98.477234 
1127.000000	98.470155 
1126.000000	98.456363 
1125.000000	98.432923 
1124.000000	98.405397 
1123.000000	98.382330 
1122.000000	98.366778 
1121.000000	98.354567 
1120.000000	98.340402 
1119.000000	98.323509 
1118.000000	98.306650 
1117.000000	98.291514 
1116.000000	98.276850 
1115.000000	98.260579 
1114.000000	98.242406 
1113.000000	98.224141 
1112.000000	98.207861 
1111.000000	98.193631 
1110.000000	98.178878 
1109.000000	98.160713 
1108.000000	98.139273 
1107.000000	98.118198 
1106.000000	98.101086 
1105.000000	98.087771 
1104.000000	98.074930 
1103.000000	98.060262 
1102.000000	98.045146 
1101.000000	98.032728 
1100.000000	98.023821 
1099.000000	98.015826 
1098.000000	98.006052 
1097.000000	97.995113 
1096.000000	97.985853 
1095.000000	97.979086 
1094.000000	97.971944 
1093.000000	97.960660 
1092.000000	97.943337 
1091.000000	97.919598 
1090.000000	97.889937 
1089.000000	97.857262 
1088.000000	97.827336 
1087.000000	97.804844 
1086.000000	97.789062 
1085.000000	97.775315 
1084.000000	97.760307 
1083.000000	97.743909 
1082.000000	97.726249 
1081.000000	97.705989 
1080.000000	97.682393 
1079.000000	97.657102 
1078.000000	97.632861 
1077.000000	97.611811 
1076.000000	97.595515 
1075.000000	97.585054 
1074.000000	97.580130 
1073.000000	97.578765 
1072.000000	97.577462 
1071.000000	97.570328 
1070.000000	97.549519 
1069.000000	97.510634 
1068.000000	97.459304 
1067.000000	97.410116 
1066.000000	97.376334 
1065.000000	97.360643 
1064.000000	97.355955 
1063.000000	97.352371 
1062.000000	97.341630 
1061.000000	97.318193 
1060.000000	97.281119 
1059.000000	97.236309 
1058.000000	97.194185 
1057.000000	97.162443 
1056.000000	97.140715 
1055.000000	97.122545 
1054.000000	97.102183 
1053.000000	97.079159 
1052.000000	97.056664 
1051.000000	97.036540 
1050.000000	97.016854 
1049.000000	96.994114 
1048.000000	96.966522 
1047.000000	96.935073 
1046.000000	96.903024 
1045.000000	96.874286 
1044.000000	96.850384 
1043.000000	96.828451 
1042.000000	96.804215 
1041.000000	96.777823 
1040.000000	96.754536 
1039.000000	96.738602 
1038.000000	96.729068 
1037.000000	96.723290 
1036.000000	96.721455 
1035.000000	96.724654 
1034.000000	96.730916 
1033.000000	96.736427 
1032.000000	96.738814 
1031.000000	96.736535 
1030.000000	96.728036 
1029.000000	96.715963 
1028.000000	96.709945 
1027.000000	96.719212 
1026.000000	96.741792 
1025.000000	96.765260 
1024.000000	96.778715 
1023.000000	96.780737 
1022.000000	96.776397 
1021.000000	96.771237 
1020.000000	96.769171 
1019.000000	96.772119 
1018.000000	96.779081 
1017.000000	96.787298 
1016.000000	96.795181 
1015.000000	96.802533 
1014.000000	96.808334 
1013.000000	96.811112 
1012.000000	96.811622 
1011.000000	96.812377 
1010.000000	96.814368 
1009.000000	96.817013 
1008.000000	96.821402 
1007.000000	96.830276 
1006.000000	96.844056 
1005.000000	96.860010 
1004.000000	96.876278 
1003.000000	96.893838 
1002.000000	96.913395 
1001.000000	96.933103 
1000.000000	96.950780 
999.000000	 96.966167 
998.000000	 96.979873 
997.000000	 96.992362 
996.000000	 97.005343 
995.000000	 97.021952 
994.000000	 97.043568 
993.000000	 97.067678 
992.000000	 97.090343 
991.000000	 97.109780 
990.000000	 97.126598 
989.000000	 97.141827 
988.000000	 97.156244 
987.000000	 97.171227 
986.000000	 97.188986 
985.000000	 97.211478 
984.000000	 97.238950 
983.000000	 97.269325 
982.000000	 97.299567 
981.000000	 97.328332 
980.000000	 97.356918 
979.000000	 97.387185 
978.000000	 97.419515 
977.000000	 97.453466 
976.000000	 97.488814 
975.000000	 97.524421 
974.000000	 97.557689 
973.000000	 97.587677 
972.000000	 97.617842 
971.000000	 97.652895 
970.000000	 97.692852 
969.000000	 97.732630 
968.000000	 97.767869 
967.000000	 97.799010 
966.000000	 97.829198 
965.000000	 97.860249 
964.000000	 97.891657 
963.000000	 97.921937 
962.000000	 97.949779 
961.000000	 97.974822 
960.000000	 97.998118 
959.000000	 98.021122 
958.000000	 98.043775 
957.000000	 98.064490 
956.000000	 98.082538 
955.000000	 98.099477 
954.000000	 98.117393 
953.000000	 98.136340 
952.000000	 98.154338 
951.000000	 98.169482 
950.000000	 98.181309 
949.000000	 98.190347 
948.000000	 98.197179 
947.000000	 98.202201 
946.000000	 98.205795 
945.000000	 98.208379 
944.000000	 98.210651 
943.000000	 98.214140 
942.000000	 98.221108 
941.000000	 98.232719 
940.000000	 98.246729 
939.000000	 98.257941 
938.000000	 98.262475 
937.000000	 98.261759 
936.000000	 98.261295 
935.000000	 98.265438 
934.000000	 98.274370 
933.000000	 98.286071 
932.000000	 98.299432 
931.000000	 98.314275 
930.000000	 98.329408 
929.000000	 98.341927 
928.000000	 98.348264 
927.000000	 98.346060 
926.000000	 98.336571 
925.000000	 98.325815 
924.000000	 98.321482 
923.000000	 98.326748 
922.000000	 98.337424 
921.000000	 98.346315 
920.000000	 98.349674 
919.000000	 98.348393 
918.000000	 98.344523 
917.000000	 98.339187 
916.000000	 98.333674 
915.000000	 98.329895 
914.000000	 98.328416 
913.000000	 98.327544 
912.000000	 98.326027 
911.000000	 98.326432 
910.000000	 98.334661 
909.000000	 98.355218 
908.000000	 98.386485 
907.000000	 98.420619 
906.000000	 98.448746 
905.000000	 98.467078 
904.000000	 98.478493 
903.000000	 98.489178 
902.000000	 98.504472 
901.000000	 98.526596 
900.000000	 98.553904 
899.000000	 98.581654 
898.000000	 98.605055 
897.000000	 98.622397 
896.000000	 98.634332 
895.000000	 98.640840 
894.000000	 98.641713 
893.000000	 98.640363 
892.000000	 98.643775 
891.000000	 98.656309 
890.000000	 98.675260 
889.000000	 98.694446 
888.000000	 98.710578 
887.000000	 98.724293 
886.000000	 98.737150 
885.000000	 98.750416 
884.000000	 98.765258 
883.000000	 98.780865 
882.000000	 98.793093 
881.000000	 98.798377 
880.000000	 98.799087 
879.000000	 98.801952 
878.000000	 98.810576 
877.000000	 98.822222 
876.000000	 98.832623 
875.000000	 98.841019 
874.000000	 98.849043 
873.000000	 98.857177 
872.000000	 98.864303 
871.000000	 98.869540 
870.000000	 98.873323 
869.000000	 98.877902 
868.000000	 98.887314 
867.000000	 98.904497 
866.000000	 98.926654 
865.000000	 98.945624 
864.000000	 98.955792 
863.000000	 98.960805 
862.000000	 98.969422 
861.000000	 98.984568 
860.000000	 98.999712 
859.000000	 99.007174 
858.000000	 99.006932 
857.000000	 99.004978 
856.000000	 99.005743 
855.000000	 99.009780 
854.000000	 99.017006 
853.000000	 99.027224 
852.000000	 99.037175 
851.000000	 99.041929 
850.000000	 99.041396 
849.000000	 99.041816 
848.000000	 99.047969 
847.000000	 99.056688 
846.000000	 99.061005 
845.000000	 99.058376 
844.000000	 99.051631 
843.000000	 99.044192 
842.000000	 99.038423 
841.000000	 99.036898 
840.000000	 99.040258 
839.000000	 99.043865 
838.000000	 99.041145 
837.000000	 99.031234 
836.000000	 99.019611 
835.000000	 99.010457 
834.000000	 99.002527 
833.000000	 98.994151 
832.000000	 98.987948 
831.000000	 98.986934 
830.000000	 98.988660 
829.000000	 98.987573 
828.000000	 98.982733 
827.000000	 98.979732 
826.000000	 98.984095 
825.000000	 98.994491 
824.000000	 99.003424 
823.000000	 99.004523 
822.000000	 98.999325 
821.000000	 98.996200 
820.000000	 99.001439 
819.000000	 99.012330 
818.000000	 99.020760 
817.000000	 99.022606 
816.000000	 99.020325 
815.000000	 99.016104 
814.000000	 99.006945 
813.000000	 98.989281 
812.000000	 98.965050 
811.000000	 98.938803 
810.000000	 98.909967 
809.000000	 98.872303 
808.000000	 98.821603 
807.000000	 98.760824 
806.000000	 98.696460 
805.000000	 98.632434 
804.000000	 98.569772 
803.000000	 98.510968 
802.000000	 98.461863 
801.000000	 98.428066 
800.000000	 98.410251 
799.000000	 98.404085 
798.000000	 98.405350 
797.000000	 98.414116 
796.000000	 98.431989 
795.000000	 98.456028 
794.000000	 98.478832 
793.000000	 98.495544 
792.000000	 98.507686 
791.000000	 98.518935 
790.000000	 98.530307 
789.000000	 98.540610 
788.000000	 98.547485 
787.000000	 98.545527 
786.000000	 98.527783 
785.000000	 98.493573 
784.000000	 98.452598 
783.000000	 98.417332 
782.000000	 98.392594 
781.000000	 98.375304 
780.000000	 98.361812 
779.000000	 98.351069 
778.000000	 98.342767 
777.000000	 98.338014 
776.000000	 98.341479 
775.000000	 98.357553 
774.000000	 98.383474 
773.000000	 98.410487 
772.000000	 98.432976 
771.000000	 98.453231 
770.000000	 98.476285 
769.000000	 98.502684 
768.000000	 98.527353 
767.000000	 98.544044 
766.000000	 98.550876 
765.000000	 98.552878 
764.000000	 98.558094 
763.000000	 98.569147 
762.000000	 98.579592 
761.000000	 98.581170 
760.000000	 98.574174 
759.000000	 98.568156 
758.000000	 98.572420 
757.000000	 98.587240 
756.000000	 98.603249 
755.000000	 98.607914 
754.000000	 98.595399 
753.000000	 98.573830 
752.000000	 98.561606 
751.000000	 98.572588 
750.000000	 98.603850 
749.000000	 98.639057 
748.000000	 98.662625 
747.000000	 98.669318 
746.000000	 98.663964 
745.000000	 98.656527 
744.000000	 98.656023 
743.000000	 98.664632 
742.000000	 98.677517 
741.000000	 98.690681 
740.000000	 98.706734 
739.000000	 98.729242 
738.000000	 98.753959 
737.000000	 98.770975 
736.000000	 98.774485 
735.000000	 98.766194 
734.000000	 98.751237 
733.000000	 98.736441 
732.000000	 98.730945 
731.000000	 98.740726 
730.000000	 98.760894 
729.000000	 98.779527 
728.000000	 98.790738 
727.000000	 98.798431 
726.000000	 98.805888 
725.000000	 98.808384 
724.000000	 98.799616 
723.000000	 98.780985 
722.000000	 98.761388 
721.000000	 98.751013 
720.000000	 98.756543 
719.000000	 98.777301 
718.000000	 98.803398 
717.000000	 98.821572 
716.000000	 98.825451 
715.000000	 98.818617 
714.000000	 98.808072 
713.000000	 98.798682 
712.000000	 98.794493 
711.000000	 98.799146 
710.000000	 98.811033 
709.000000	 98.821934 
708.000000	 98.823960 
707.000000	 98.815543 
706.000000	 98.799037 
705.000000	 98.776938 
704.000000	 98.753597 
703.000000	 98.735799 
702.000000	 98.726347 
701.000000	 98.718875 
700.000000	 98.702867 
699.000000	 98.673702 
698.000000	 98.636912 
697.000000	 98.604170 
696.000000	 98.585274 
695.000000	 98.580798 
694.000000	 98.581984 
693.000000	 98.581008 
692.000000	 98.580713 
691.000000	 98.589807 
690.000000	 98.609649 
689.000000	 98.632755 
688.000000	 98.654322 
687.000000	 98.675748 
686.000000	 98.694102 
685.000000	 98.699135 
684.000000	 98.687459 
683.000000	 98.671546 
682.000000	 98.667668 
681.000000	 98.679387 
680.000000	 98.696395 
679.000000	 98.704737 
678.000000	 98.696260 
677.000000	 98.675842 
676.000000	 98.663864 
675.000000	 98.680639 
674.000000	 98.720853 
673.000000	 98.753478 
672.000000	 98.755715 
671.000000	 98.740135 
670.000000	 98.739657 
669.000000	 98.776903 
668.000000	 98.831401 
667.000000	 98.848822 
666.000000	 98.818168 
665.000000	 98.771680 
664.000000	 98.738881 
663.000000	 98.738359 
662.000000	 98.764700 
661.000000	 98.786822 
660.000000	 98.779238 
659.000000	 98.748515 
658.000000	 98.717876 
657.000000	 98.695093 
656.000000	 98.673546 
655.000000	 98.656537 
654.000000	 98.656500 
653.000000	 98.672320 
652.000000	 98.688673 
651.000000	 98.696860 
650.000000	 98.698700 

