4000.000000	99.497031 
3999.000000	99.494420 
3998.000000	99.490681 
3997.000000	99.487588 
3996.000000	99.486215 
3995.000000	99.486608 
3994.000000	99.487948 
3993.000000	99.489167 
3992.000000	99.489596 
3991.000000	99.489037 
3990.000000	99.487575 
3989.000000	99.485491 
3988.000000	99.483198 
3987.000000	99.481101 
3986.000000	99.479537 
3985.000000	99.478830 
3984.000000	99.479196 
3983.000000	99.480578 
3982.000000	99.482574 
3981.000000	99.484580 
3980.000000	99.486066 
3979.000000	99.486718 
3978.000000	99.486460 
3977.000000	99.485405 
3976.000000	99.483790 
3975.000000	99.481913 
3974.000000	99.480015 
3973.000000	99.478246 
3972.000000	99.476773 
3971.000000	99.475873 
3970.000000	99.475821 
3969.000000	99.476636 
3968.000000	99.477892 
3967.000000	99.478845 
3966.000000	99.478876 
3965.000000	99.477902 
3964.000000	99.476439 
3963.000000	99.475293 
3962.000000	99.474991 
3961.000000	99.475413 
3960.000000	99.475943 
3959.000000	99.475988 
3958.000000	99.475410 
3957.000000	99.474517 
3956.000000	99.473681 
3955.000000	99.472988 
3954.000000	99.472255 
3953.000000	99.471351 
3952.000000	99.470380 
3951.000000	99.469551 
3950.000000	99.468947 
3949.000000	99.468424 
3948.000000	99.467785 
3947.000000	99.467081 
3946.000000	99.466640 
3945.000000	99.466725 
3944.000000	99.467158 
3943.000000	99.467361 
3942.000000	99.466921 
3941.000000	99.466109 
3940.000000	99.465604 
3939.000000	99.465607 
3938.000000	99.465536 
3937.000000	99.464678 
3936.000000	99.462910 
3935.000000	99.460815 
3934.000000	99.459211 
3933.000000	99.458647 
3932.000000	99.459200 
3931.000000	99.460460 
3930.000000	99.461766 
3929.000000	99.462515 
3928.000000	99.462463 
3927.000000	99.461830 
3926.000000	99.461006 
3925.000000	99.460120 
3924.000000	99.459076 
3923.000000	99.457879 
3922.000000	99.456544 
3921.000000	99.454883 
3920.000000	99.452818 
3919.000000	99.450776 
3918.000000	99.449317 
3917.000000	99.448572 
3916.000000	99.448315 
3915.000000	99.448491 
3914.000000	99.449226 
3913.000000	99.450300 
3912.000000	99.451060 
3911.000000	99.450852 
3910.000000	99.449439 
3909.000000	99.447176 
3908.000000	99.444766 
3907.000000	99.442933 
3906.000000	99.441991 
3905.000000	99.441629 
3904.000000	99.441115 
3903.000000	99.440119 
3902.000000	99.439265 
3901.000000	99.439324 
3900.000000	99.440249 
3899.000000	99.441353 
3898.000000	99.442121 
3897.000000	99.442374 
3896.000000	99.441894 
3895.000000	99.440475 
3894.000000	99.438733 
3893.000000	99.438157 
3892.000000	99.439297 
3891.000000	99.440644 
3890.000000	99.440730 
3889.000000	99.440377 
3888.000000	99.441003 
3887.000000	99.442574 
3886.000000	99.443482 
3885.000000	99.441883 
3884.000000	99.438433 
3883.000000	99.436174 
3882.000000	99.436747 
3881.000000	99.438923 
3880.000000	99.439948 
3879.000000	99.438249 
3878.000000	99.435422 
3877.000000	99.433922 
3876.000000	99.433923 
3875.000000	99.433354 
3874.000000	99.429968 
3873.000000	99.424337 
3872.000000	99.420121 
3871.000000	99.419936 
3870.000000	99.422074 
3869.000000	99.423154 
3868.000000	99.423755 
3867.000000	99.426984 
3866.000000	99.432784 
3865.000000	99.438333 
3864.000000	99.441240 
3863.000000	99.440880 
3862.000000	99.438233 
3861.000000	99.434270 
3860.000000	99.429129 
3859.000000	99.422409 
3858.000000	99.413179 
3857.000000	99.401582 
3856.000000	99.390777 
3855.000000	99.386596 
3854.000000	99.390810 
3853.000000	99.396517 
3852.000000	99.400677 
3851.000000	99.409789 
3850.000000	99.424020 
3849.000000	99.435916 
3848.000000	99.441356 
3847.000000	99.441440 
3846.000000	99.439037 
3845.000000	99.436410 
3844.000000	99.434336 
3843.000000	99.432486 
3842.000000	99.430544 
3841.000000	99.429187 
3840.000000	99.429506 
3839.000000	99.431468 
3838.000000	99.433179 
3837.000000	99.432949 
3836.000000	99.431274 
3835.000000	99.429912 
3834.000000	99.429752 
3833.000000	99.430736 
3832.000000	99.432601 
3831.000000	99.435050 
3830.000000	99.437965 
3829.000000	99.441176 
3828.000000	99.443771 
3827.000000	99.444319 
3826.000000	99.442048 
3825.000000	99.437954 
3824.000000	99.434339 
3823.000000	99.433008 
3822.000000	99.433655 
3821.000000	99.433841 
3820.000000	99.432295 
3819.000000	99.431334 
3818.000000	99.432814 
3817.000000	99.435583 
3816.000000	99.437614 
3815.000000	99.438099 
3814.000000	99.438299 
3813.000000	99.439328 
3812.000000	99.440179 
3811.000000	99.439663 
3810.000000	99.438287 
3809.000000	99.437550 
3808.000000	99.438075 
3807.000000	99.438582 
3806.000000	99.437657 
3805.000000	99.436354 
3804.000000	99.436751 
3803.000000	99.439170 
3802.000000	99.441911 
3801.000000	99.442392 
3800.000000	99.440568 
3799.000000	99.439836 
3798.000000	99.441834 
3797.000000	99.444750 
3796.000000	99.446483 
3795.000000	99.446901 
3794.000000	99.447616 
3793.000000	99.449796 
3792.000000	99.452860 
3791.000000	99.455330 
3790.000000	99.456281 
3789.000000	99.455952 
3788.000000	99.455659 
3787.000000	99.456998 
3786.000000	99.460498 
3785.000000	99.464763 
3784.000000	99.467524 
3783.000000	99.467726 
3782.000000	99.466237 
3781.000000	99.464595 
3780.000000	99.463299 
3779.000000	99.461479 
3778.000000	99.458420 
3777.000000	99.454908 
3776.000000	99.452064 
3775.000000	99.450067 
3774.000000	99.448617 
3773.000000	99.447712 
3772.000000	99.447200 
3771.000000	99.445997 
3770.000000	99.442684 
3769.000000	99.437809 
3768.000000	99.434586 
3767.000000	99.435612 
3766.000000	99.439819 
3765.000000	99.443828 
3764.000000	99.445575 
3763.000000	99.445854 
3762.000000	99.446413 
3761.000000	99.447984 
3760.000000	99.450287 
3759.000000	99.452070 
3758.000000	99.451593 
3757.000000	99.448193 
3756.000000	99.442753 
3755.000000	99.437168 
3754.000000	99.432750 
3753.000000	99.429418 
3752.000000	99.425956 
3751.000000	99.420213 
3750.000000	99.411185 
3749.000000	99.401468 
3748.000000	99.395285 
3747.000000	99.394979 
3746.000000	99.400758 
3745.000000	99.409813 
3744.000000	99.414644 
3743.000000	99.413055 
3742.000000	99.412924 
3741.000000	99.415981 
3740.000000	99.415596 
3739.000000	99.409772 
3738.000000	99.402817 
3737.000000	99.399375 
3736.000000	99.400207 
3735.000000	99.403787 
3734.000000	99.409499 
3733.000000	99.416875 
3732.000000	99.423668 
3731.000000	99.427754 
3730.000000	99.429726 
3729.000000	99.431186 
3728.000000	99.432637 
3727.000000	99.434053 
3726.000000	99.435521 
3725.000000	99.437297 
3724.000000	99.439339 
3723.000000	99.440503 
3722.000000	99.439761 
3721.000000	99.437946 
3720.000000	99.437110 
3719.000000	99.437819 
3718.000000	99.437977 
3717.000000	99.434780 
3716.000000	99.427376 
3715.000000	99.417773 
3714.000000	99.409464 
3713.000000	99.405271 
3712.000000	99.405298 
3711.000000	99.407106 
3710.000000	99.409224 
3709.000000	99.412136 
3708.000000	99.415396 
3707.000000	99.417051 
3706.000000	99.415671 
3705.000000	99.412030 
3704.000000	99.408640 
3703.000000	99.407631 
3702.000000	99.408596 
3701.000000	99.409180 
3700.000000	99.408529 
3699.000000	99.408008 
3698.000000	99.408223 
3697.000000	99.407645 
3696.000000	99.404621 
3695.000000	99.399570 
3694.000000	99.394413 
3693.000000	99.390258 
3692.000000	99.386873 
3691.000000	99.383862 
3690.000000	99.381082 
3689.000000	99.378205 
3688.000000	99.375401 
3687.000000	99.374738 
3686.000000	99.377837 
3685.000000	99.382605 
3684.000000	99.384995 
3683.000000	99.383159 
3682.000000	99.378105 
3681.000000	99.371359 
3680.000000	99.363023 
3679.000000	99.353098 
3678.000000	99.344097 
3677.000000	99.340125 
3676.000000	99.341454 
3675.000000	99.341614 
3674.000000	99.338209 
3673.000000	99.337199 
3672.000000	99.340738 
3671.000000	99.346715 
3670.000000	99.352984 
3669.000000	99.356884 
3668.000000	99.359460 
3667.000000	99.363265 
3666.000000	99.367078 
3665.000000	99.369169 
3664.000000	99.370142 
3663.000000	99.371237 
3662.000000	99.372297 
3661.000000	99.372041 
3660.000000	99.370059 
3659.000000	99.368097 
3658.000000	99.368427 
3657.000000	99.370618 
3656.000000	99.371122 
3655.000000	99.368069 
3654.000000	99.364173 
3653.000000	99.362358 
3652.000000	99.363123 
3651.000000	99.365888 
3650.000000	99.368928 
3649.000000	99.370266 
3648.000000	99.371234 
3647.000000	99.374708 
3646.000000	99.380726 
3645.000000	99.387289 
3644.000000	99.392954 
3643.000000	99.397355 
3642.000000	99.400430 
3641.000000	99.402172 
3640.000000	99.403080 
3639.000000	99.404188 
3638.000000	99.406069 
3637.000000	99.408418 
3636.000000	99.410309 
3635.000000	99.410569 
3634.000000	99.408453 
3633.000000	99.404440 
3632.000000	99.400499 
3631.000000	99.399109 
3630.000000	99.401519 
3629.000000	99.405569 
3628.000000	99.407361 
3627.000000	99.407651 
3626.000000	99.409792 
3625.000000	99.413773 
3624.000000	99.417462 
3623.000000	99.419490 
3622.000000	99.419760 
3621.000000	99.419070 
3620.000000	99.418428 
3619.000000	99.418270 
3618.000000	99.418611 
3617.000000	99.419661 
3616.000000	99.421362 
3615.000000	99.422940 
3614.000000	99.423430 
3613.000000	99.422240 
3612.000000	99.419590 
3611.000000	99.416570 
3610.000000	99.414629 
3609.000000	99.414840 
3608.000000	99.417263 
3607.000000	99.420914 
3606.000000	99.424521 
3605.000000	99.427280 
3604.000000	99.429023 
3603.000000	99.430155 
3602.000000	99.431156 
3601.000000	99.432106 
3600.000000	99.432815 
3599.000000	99.433217 
3598.000000	99.433371 
3597.000000	99.433188 
3596.000000	99.432513 
3595.000000	99.431444 
3594.000000	99.430522 
3593.000000	99.430504 
3592.000000	99.431793 
3591.000000	99.433907 
3590.000000	99.435838 
3589.000000	99.436857 
3588.000000	99.436711 
3587.000000	99.435424 
3586.000000	99.433445 
3585.000000	99.431475 
3584.000000	99.429920 
3583.000000	99.429024 
3582.000000	99.429107 
3581.000000	99.430081 
3580.000000	99.431185 
3579.000000	99.431568 
3578.000000	99.431114 
3577.000000	99.430496 
3576.000000	99.430517 
3575.000000	99.431362 
3574.000000	99.432528 
3573.000000	99.433327 
3572.000000	99.433384 
3571.000000	99.432678 
3570.000000	99.431403 
3569.000000	99.430043 
3568.000000	99.429323 
3567.000000	99.429765 
3566.000000	99.431285 
3565.000000	99.433321 
3564.000000	99.435128 
3563.000000	99.436206 
3562.000000	99.436582 
3561.000000	99.436559 
3560.000000	99.436224 
3559.000000	99.435425 
3558.000000	99.434177 
3557.000000	99.432862 
3556.000000	99.432004 
3555.000000	99.431883 
3554.000000	99.432407 
3553.000000	99.433231 
3552.000000	99.433971 
3551.000000	99.434392 
3550.000000	99.434408 
3549.000000	99.434056 
3548.000000	99.433561 
3547.000000	99.433295 
3546.000000	99.433463 
3545.000000	99.433881 
3544.000000	99.434128 
3543.000000	99.433954 
3542.000000	99.433456 
3541.000000	99.432945 
3540.000000	99.432705 
3539.000000	99.432825 
3538.000000	99.433217 
3537.000000	99.433672 
3536.000000	99.433905 
3535.000000	99.433681 
3534.000000	99.432945 
3533.000000	99.431863 
3532.000000	99.430753 
3531.000000	99.429909 
3530.000000	99.429454 
3529.000000	99.429339 
3528.000000	99.429449 
3527.000000	99.429678 
3526.000000	99.429910 
3525.000000	99.429999 
3524.000000	99.429838 
3523.000000	99.429474 
3522.000000	99.429085 
3521.000000	99.428821 
3520.000000	99.428668 
3519.000000	99.428494 
3518.000000	99.428187 
3517.000000	99.427742 
3516.000000	99.427229 
3515.000000	99.426726 
3514.000000	99.426289 
3513.000000	99.425948 
3512.000000	99.425672 
3511.000000	99.425337 
3510.000000	99.424822 
3509.000000	99.424162 
3508.000000	99.423529 
3507.000000	99.423022 
3506.000000	99.422506 
3505.000000	99.421756 
3504.000000	99.420741 
3503.000000	99.419752 
3502.000000	99.419163 
3501.000000	99.419058 
3500.000000	99.419211 
3499.000000	99.419256 
3498.000000	99.419003 
3497.000000	99.418488 
3496.000000	99.417906 
3495.000000	99.417486 
3494.000000	99.417327 
3493.000000	99.417354 
3492.000000	99.417385 
3491.000000	99.417270 
3490.000000	99.416983 
3489.000000	99.416580 
3488.000000	99.416115 
3487.000000	99.415605 
3486.000000	99.415053 
3485.000000	99.414468 
3484.000000	99.413880 
3483.000000	99.413355 
3482.000000	99.412981 
3481.000000	99.412787 
3480.000000	99.412701 
3479.000000	99.412617 
3478.000000	99.412486 
3477.000000	99.412313 
3476.000000	99.412095 
3475.000000	99.411813 
3474.000000	99.411490 
3473.000000	99.411222 
3472.000000	99.411103 
3471.000000	99.411139 
3470.000000	99.411236 
3469.000000	99.411267 
3468.000000	99.411182 
3467.000000	99.411020 
3466.000000	99.410858 
3465.000000	99.410740 
3464.000000	99.410656 
3463.000000	99.410572 
3462.000000	99.410477 
3461.000000	99.410392 
3460.000000	99.410339 
3459.000000	99.410303 
3458.000000	99.410236 
3457.000000	99.410092 
3456.000000	99.409853 
3455.000000	99.409539 
3454.000000	99.409222 
3453.000000	99.408994 
3452.000000	99.408931 
3451.000000	99.409030 
3450.000000	99.409171 
3449.000000	99.409194 
3448.000000	99.408993 
3447.000000	99.408585 
3446.000000	99.408113 
3445.000000	99.407772 
3444.000000	99.407666 
3443.000000	99.407740 
3442.000000	99.407842 
3441.000000	99.407884 
3440.000000	99.407887 
3439.000000	99.407873 
3438.000000	99.407778 
3437.000000	99.407564 
3436.000000	99.407392 
3435.000000	99.407573 
3434.000000	99.408281 
3433.000000	99.409309 
3432.000000	99.410158 
3431.000000	99.410433 
3430.000000	99.410063 
3429.000000	99.409213 
3428.000000	99.408174 
3427.000000	99.407259 
3426.000000	99.406703 
3425.000000	99.406509 
3424.000000	99.406401 
3423.000000	99.406085 
3422.000000	99.405572 
3421.000000	99.405178 
3420.000000	99.405199 
3419.000000	99.405635 
3418.000000	99.406246 
3417.000000	99.406790 
3416.000000	99.407136 
3415.000000	99.407177 
3414.000000	99.406769 
3413.000000	99.405890 
3412.000000	99.404838 
3411.000000	99.404141 
3410.000000	99.404161 
3409.000000	99.404798 
3408.000000	99.405563 
3407.000000	99.405992 
3406.000000	99.406002 
3405.000000	99.405831 
3404.000000	99.405721 
3403.000000	99.405775 
3402.000000	99.406116 
3401.000000	99.407013 
3400.000000	99.408579 
3399.000000	99.410325 
3398.000000	99.411339 
3397.000000	99.411162 
3396.000000	99.410319 
3395.000000	99.409785 
3394.000000	99.409933 
3393.000000	99.410337 
3392.000000	99.410518 
3391.000000	99.410484 
3390.000000	99.410373 
3389.000000	99.410019 
3388.000000	99.409232 
3387.000000	99.408336 
3386.000000	99.408013 
3385.000000	99.408530 
3384.000000	99.409265 
3383.000000	99.409190 
3382.000000	99.407888 
3381.000000	99.405993 
3380.000000	99.404614 
3379.000000	99.404291 
3378.000000	99.404708 
3377.000000	99.405392 
3376.000000	99.406442 
3375.000000	99.408284 
3374.000000	99.410828 
3373.000000	99.413206 
3372.000000	99.414519 
3371.000000	99.414672 
3370.000000	99.414374 
3369.000000	99.414443 
3368.000000	99.415075 
3367.000000	99.415704 
3366.000000	99.415464 
3365.000000	99.413856 
3364.000000	99.411124 
3363.000000	99.408137 
3362.000000	99.405863 
3361.000000	99.404869 
3360.000000	99.405164 
3359.000000	99.406299 
3358.000000	99.407648 
3357.000000	99.408845 
3356.000000	99.409962 
3355.000000	99.411154 
3354.000000	99.412169 
3353.000000	99.412464 
3352.000000	99.411883 
3351.000000	99.411060 
3350.000000	99.410958 
3349.000000	99.411961 
3348.000000	99.413533 
3347.000000	99.414693 
3346.000000	99.414914 
3345.000000	99.414489 
3344.000000	99.414126 
3343.000000	99.414158 
3342.000000	99.414237 
3341.000000	99.413900 
3340.000000	99.413233 
3339.000000	99.412801 
3338.000000	99.412903 
3337.000000	99.413235 
3336.000000	99.413383 
3335.000000	99.413407 
3334.000000	99.413686 
3333.000000	99.414338 
3332.000000	99.415045 
3331.000000	99.415443 
3330.000000	99.415506 
3329.000000	99.415463 
3328.000000	99.415516 
3327.000000	99.415703 
3326.000000	99.415979 
3325.000000	99.416305 
3324.000000	99.416650 
3323.000000	99.416968 
3322.000000	99.417197 
3321.000000	99.417287 
3320.000000	99.417228 
3319.000000	99.417054 
3318.000000	99.416850 
3317.000000	99.416726 
3316.000000	99.416793 
3315.000000	99.417122 
3314.000000	99.417693 
3313.000000	99.418354 
3312.000000	99.418868 
3311.000000	99.419074 
3310.000000	99.418986 
3309.000000	99.418713 
3308.000000	99.418299 
3307.000000	99.417782 
3306.000000	99.417400 
3305.000000	99.417485 
3304.000000	99.418077 
3303.000000	99.418755 
3302.000000	99.419081 
3301.000000	99.419173 
3300.000000	99.419605 
3299.000000	99.420690 
3298.000000	99.421967 
3297.000000	99.422563 
3296.000000	99.422046 
3295.000000	99.420795 
3294.000000	99.419650 
3293.000000	99.419187 
3292.000000	99.419399 
3291.000000	99.419971 
3290.000000	99.420714 
3289.000000	99.421637 
3288.000000	99.422651 
3287.000000	99.423422 
3286.000000	99.423665 
3285.000000	99.423437 
3284.000000	99.422968 
3283.000000	99.422227 
3282.000000	99.420941 
3281.000000	99.419145 
3280.000000	99.417469 
3279.000000	99.416628 
3278.000000	99.416693 
3277.000000	99.417094 
3276.000000	99.417397 
3275.000000	99.417872 
3274.000000	99.419076 
3273.000000	99.421045 
3272.000000	99.423104 
3271.000000	99.424447 
3270.000000	99.424867 
3269.000000	99.424757 
3268.000000	99.424554 
3267.000000	99.424352 
3266.000000	99.424137 
3265.000000	99.424164 
3264.000000	99.424800 
3263.000000	99.426000 
3262.000000	99.427174 
3261.000000	99.427713 
3260.000000	99.427590 
3259.000000	99.427295 
3258.000000	99.427243 
3257.000000	99.427360 
3256.000000	99.427327 
3255.000000	99.427077 
3254.000000	99.426909 
3253.000000	99.427126 
3252.000000	99.427617 
3251.000000	99.427895 
3250.000000	99.427625 
3249.000000	99.427024 
3248.000000	99.426675 
3247.000000	99.426865 
3246.000000	99.427303 
3245.000000	99.427517 
3244.000000	99.427473 
3243.000000	99.427573 
3242.000000	99.428119 
3241.000000	99.428999 
3240.000000	99.429871 
3239.000000	99.430492 
3238.000000	99.430807 
3237.000000	99.430808 
3236.000000	99.430474 
3235.000000	99.429882 
3234.000000	99.429298 
3233.000000	99.429071 
3232.000000	99.429403 
3231.000000	99.430199 
3230.000000	99.431104 
3229.000000	99.431785 
3228.000000	99.432162 
3227.000000	99.432278 
3226.000000	99.432029 
3225.000000	99.431204 
3224.000000	99.429905 
3223.000000	99.428759 
3222.000000	99.428435 
3221.000000	99.429019 
3220.000000	99.430000 
3219.000000	99.430931 
3218.000000	99.431890 
3217.000000	99.433099 
3216.000000	99.434351 
3215.000000	99.435068 
3214.000000	99.434932 
3213.000000	99.434285 
3212.000000	99.433808 
3211.000000	99.433785 
3210.000000	99.433948 
3209.000000	99.434051 
3208.000000	99.434276 
3207.000000	99.434819 
3206.000000	99.435332 
3205.000000	99.435270 
3204.000000	99.434807 
3203.000000	99.434909 
3202.000000	99.436258 
3201.000000	99.438423 
3200.000000	99.440290 
3199.000000	99.441221 
3198.000000	99.441437 
3197.000000	99.441399 
3196.000000	99.441224 
3195.000000	99.440783 
3194.000000	99.440035 
3193.000000	99.439131 
3192.000000	99.438324 
3191.000000	99.437838 
3190.000000	99.437725 
3189.000000	99.437852 
3188.000000	99.438160 
3187.000000	99.438868 
3186.000000	99.440165 
3185.000000	99.441711 
3184.000000	99.442707 
3183.000000	99.442570 
3182.000000	99.441385 
3181.000000	99.439696 
3180.000000	99.438033 
3179.000000	99.436796 
3178.000000	99.436346 
3177.000000	99.436778 
3176.000000	99.437617 
3175.000000	99.438038 
3174.000000	99.437738 
3173.000000	99.437490 
3172.000000	99.438416 
3171.000000	99.440569 
3170.000000	99.442616 
3169.000000	99.443318 
3168.000000	99.443015 
3167.000000	99.443235 
3166.000000	99.444857 
3165.000000	99.447170 
3164.000000	99.448774 
3163.000000	99.449150 
3162.000000	99.448968 
3161.000000	99.449104 
3160.000000	99.449751 
3159.000000	99.450561 
3158.000000	99.451319 
3157.000000	99.452128 
3156.000000	99.453021 
3155.000000	99.453676 
3154.000000	99.453689 
3153.000000	99.453058 
3152.000000	99.452247 
3151.000000	99.451760 
3150.000000	99.451716 
3149.000000	99.451943 
3148.000000	99.452336 
3147.000000	99.452968 
3146.000000	99.453815 
3145.000000	99.454574 
3144.000000	99.454946 
3143.000000	99.455016 
3142.000000	99.455169 
3141.000000	99.455562 
3140.000000	99.455857 
3139.000000	99.455640 
3138.000000	99.454912 
3137.000000	99.454099 
3136.000000	99.453640 
3135.000000	99.453613 
3134.000000	99.453831 
3133.000000	99.454135 
3132.000000	99.454522 
3131.000000	99.454979 
3130.000000	99.455272 
3129.000000	99.455092 
3128.000000	99.454388 
3127.000000	99.453505 
3126.000000	99.452936 
3125.000000	99.452841 
3124.000000	99.452992 
3123.000000	99.453041 
3122.000000	99.452859 
3121.000000	99.452542 
3120.000000	99.452202 
3119.000000	99.451879 
3118.000000	99.451618 
3117.000000	99.451512 
3116.000000	99.451620 
3115.000000	99.451901 
3114.000000	99.452215 
3113.000000	99.452358 
3112.000000	99.452141 
3111.000000	99.451516 
3110.000000	99.450663 
3109.000000	99.449885 
3108.000000	99.449391 
3107.000000	99.449276 
3106.000000	99.449596 
3105.000000	99.450296 
3104.000000	99.451116 
3103.000000	99.451788 
3102.000000	99.452397 
3101.000000	99.453312 
3100.000000	99.454613 
3099.000000	99.455720 
3098.000000	99.455880 
3097.000000	99.454982 
3096.000000	99.453793 
3095.000000	99.453290 
3094.000000	99.453700 
3093.000000	99.454458 
3092.000000	99.454970 
3091.000000	99.455227 
3090.000000	99.455516 
3089.000000	99.455825 
3088.000000	99.455902 
3087.000000	99.455806 
3086.000000	99.456016 
3085.000000	99.456803 
3084.000000	99.457784 
3083.000000	99.458324 
3082.000000	99.458277 
3081.000000	99.458117 
3080.000000	99.458364 
3079.000000	99.459077 
3078.000000	99.459844 
3077.000000	99.460169 
3076.000000	99.459884 
3075.000000	99.459221 
3074.000000	99.458525 
3073.000000	99.457930 
3072.000000	99.457491 
3071.000000	99.457594 
3070.000000	99.458798 
3069.000000	99.460779 
3068.000000	99.461733 
3067.000000	99.459728 
3066.000000	99.454797 
3065.000000	99.449382 
3064.000000	99.446066 
3063.000000	99.445177 
3062.000000	99.445134 
3061.000000	99.444733 
3060.000000	99.444477 
3059.000000	99.445369 
3058.000000	99.447088 
3057.000000	99.448064 
3056.000000	99.447243 
3055.000000	99.445125 
3054.000000	99.442857 
3053.000000	99.440930 
3052.000000	99.439336 
3051.000000	99.438576 
3050.000000	99.439463 
3049.000000	99.441624 
3048.000000	99.442947 
3047.000000	99.441331 
3046.000000	99.436844 
3045.000000	99.431786 
3044.000000	99.428595 
3043.000000	99.427918 
3042.000000	99.428551 
3041.000000	99.428664 
3040.000000	99.427067 
3039.000000	99.423815 
3038.000000	99.420104 
3037.000000	99.417502 
3036.000000	99.416876 
3035.000000	99.417878 
3034.000000	99.419400 
3033.000000	99.420466 
3032.000000	99.420614 
3031.000000	99.419625 
3030.000000	99.417045 
3029.000000	99.411952 
3028.000000	99.403491 
3027.000000	99.391997 
3026.000000	99.379628 
3025.000000	99.369371 
3024.000000	99.362914 
3023.000000	99.359410 
3022.000000	99.356459 
3021.000000	99.352267 
3020.000000	99.346793 
3019.000000	99.341042 
3018.000000	99.335746 
3017.000000	99.330923 
3016.000000	99.326281 
3015.000000	99.321437 
3014.000000	99.315745 
3013.000000	99.308539 
3012.000000	99.300028 
3011.000000	99.291616 
3010.000000	99.284638 
3009.000000	99.278614 
3008.000000	99.271306 
3007.000000	99.260951 
3006.000000	99.248314 
3005.000000	99.236297 
3004.000000	99.227530 
3003.000000	99.222457 
3002.000000	99.219509 
3001.000000	99.216502 
3000.000000	99.211689 
2999.000000	99.204038 
2998.000000	99.193515 
2997.000000	99.181751 
2996.000000	99.171916 
2995.000000	99.166580 
2994.000000	99.164803 
2993.000000	99.161751 
2992.000000	99.152663 
2991.000000	99.137824 
2990.000000	99.122890 
2989.000000	99.113552 
2988.000000	99.110605 
2987.000000	99.110709 
2986.000000	99.110959 
2985.000000	99.111561 
2984.000000	99.114004 
2983.000000	99.118302 
2982.000000	99.122925 
2981.000000	99.126482 
2980.000000	99.128457 
2979.000000	99.128615 
2978.000000	99.126674 
2977.000000	99.122751 
2976.000000	99.117620 
2975.000000	99.112351 
2974.000000	99.107802 
2973.000000	99.104260 
2972.000000	99.101247 
2971.000000	99.097943 
2970.000000	99.094339 
2969.000000	99.091883 
2968.000000	99.092375 
2967.000000	99.095958 
2966.000000	99.100499 
2965.000000	99.103255 
2964.000000	99.103212 
2963.000000	99.101879 
2962.000000	99.101969 
2961.000000	99.105107 
2960.000000	99.110406 
2959.000000	99.115242 
2958.000000	99.117763 
2957.000000	99.118566 
2956.000000	99.119510 
2955.000000	99.121047 
2954.000000	99.121646 
2953.000000	99.120445 
2952.000000	99.119675 
2951.000000	99.123250 
2950.000000	99.132558 
2949.000000	99.144225 
2948.000000	99.152573 
2947.000000	99.154143 
2946.000000	99.149689 
2945.000000	99.142588 
2944.000000	99.135879 
2943.000000	99.130777 
2942.000000	99.127142 
2941.000000	99.124247 
2940.000000	99.120964 
2939.000000	99.116055 
2938.000000	99.109055 
2937.000000	99.100849 
2936.000000	99.093091 
2935.000000	99.086971 
2934.000000	99.082498 
2933.000000	99.078611 
2932.000000	99.073634 
2931.000000	99.066055 
2930.000000	99.055582 
2929.000000	99.043645 
2928.000000	99.032443 
2927.000000	99.023349 
2926.000000	99.016551 
2925.000000	99.012150 
2924.000000	99.011001 
2923.000000	99.014091 
2922.000000	99.021307 
2921.000000	99.030991 
2920.000000	99.040664 
2919.000000	99.048300 
2918.000000	99.053322 
2917.000000	99.056707 
2916.000000	99.060138 
2915.000000	99.064906 
2914.000000	99.071473 
2913.000000	99.079630 
2912.000000	99.088438 
2911.000000	99.096118 
2910.000000	99.100920 
2909.000000	99.102741 
2908.000000	99.103498 
2907.000000	99.105301 
2906.000000	99.108379 
2905.000000	99.111128 
2904.000000	99.111996 
2903.000000	99.111112 
2902.000000	99.110380 
2901.000000	99.112433 
2900.000000	99.119008 
2899.000000	99.129544 
2898.000000	99.141022 
2897.000000	99.149830 
2896.000000	99.154431 
2895.000000	99.156278 
2894.000000	99.158181 
2893.000000	99.161811 
2892.000000	99.166686 
2891.000000	99.171210 
2890.000000	99.174375 
2889.000000	99.176506 
2888.000000	99.178605 
2887.000000	99.181285 
2886.000000	99.184438 
2885.000000	99.187740 
2884.000000	99.191066 
2883.000000	99.194342 
2882.000000	99.197414 
2881.000000	99.200489 
2880.000000	99.204583 
2879.000000	99.211019 
2878.000000	99.220129 
2877.000000	99.230298 
2876.000000	99.238559 
2875.000000	99.242673 
2874.000000	99.242635 
2873.000000	99.240670 
2872.000000	99.239763 
2871.000000	99.241623 
2870.000000	99.245855 
2869.000000	99.250658 
2868.000000	99.254336 
2867.000000	99.256513 
2866.000000	99.258235 
2865.000000	99.260981 
2864.000000	99.265286 
2863.000000	99.270055 
2862.000000	99.273293 
2861.000000	99.273776 
2860.000000	99.272149 
2859.000000	99.270346 
2858.000000	99.269941 
2857.000000	99.271193 
2856.000000	99.273482 
2855.000000	99.276370 
2854.000000	99.280111 
2853.000000	99.285249 
2852.000000	99.291939 
2851.000000	99.299683 
2850.000000	99.307727 
2849.000000	99.315687 
2848.000000	99.323656 
2847.000000	99.331638 
2846.000000	99.339162 
2845.000000	99.345675 
2844.000000	99.351200 
2843.000000	99.356396 
2842.000000	99.362069 
2841.000000	99.368734 
2840.000000	99.376255 
2839.000000	99.383491 
2838.000000	99.388566 
2837.000000	99.390167 
2836.000000	99.388796 
2835.000000	99.386591 
2834.000000	99.385800 
2833.000000	99.387581 
2832.000000	99.391950 
2831.000000	99.398103 
2830.000000	99.404806 
2829.000000	99.411071 
2828.000000	99.416707 
2827.000000	99.421807 
2826.000000	99.425696 
2825.000000	99.427150 
2824.000000	99.426052 
2823.000000	99.424213 
2822.000000	99.424066 
2821.000000	99.426666 
2820.000000	99.431274 
2819.000000	99.436473 
2818.000000	99.441248 
2817.000000	99.445234 
2816.000000	99.448437 
2815.000000	99.450858 
2814.000000	99.452226 
2813.000000	99.452103 
2812.000000	99.450405 
2811.000000	99.447777 
2810.000000	99.445386 
2809.000000	99.444374 
2808.000000	99.445344 
2807.000000	99.447984 
2806.000000	99.451015 
2805.000000	99.452966 
2804.000000	99.453414 
2803.000000	99.453383 
2802.000000	99.454280 
2801.000000	99.456451 
2800.000000	99.458909 
2799.000000	99.460326 
2798.000000	99.460085 
2797.000000	99.458492 
2796.000000	99.456289 
2795.000000	99.454098 
2794.000000	99.452243 
2793.000000	99.450953 
2792.000000	99.450487 
2791.000000	99.450957 
2790.000000	99.452151 
2789.000000	99.453739 
2788.000000	99.455501 
2787.000000	99.457134 
2786.000000	99.458127 
2785.000000	99.458319 
2784.000000	99.458448 
2783.000000	99.459512 
2782.000000	99.461494 
2781.000000	99.463161 
2780.000000	99.463407 
2779.000000	99.462430 
2778.000000	99.461410 
2777.000000	99.461301 
2776.000000	99.462198 
2775.000000	99.463623 
2774.000000	99.464932 
2773.000000	99.465616 
2772.000000	99.465592 
2771.000000	99.465310 
2770.000000	99.465406 
2769.000000	99.466171 
2768.000000	99.467426 
2767.000000	99.468806 
2766.000000	99.470013 
2765.000000	99.470824 
2764.000000	99.471193 
2763.000000	99.471439 
2762.000000	99.472086 
2761.000000	99.473370 
2760.000000	99.475010 
2759.000000	99.476483 
2758.000000	99.477407 
2757.000000	99.477609 
2756.000000	99.477150 
2755.000000	99.476433 
2754.000000	99.476064 
2753.000000	99.476382 
2752.000000	99.477213 
2751.000000	99.478122 
2750.000000	99.478750 
2749.000000	99.478828 
2748.000000	99.478113 
2747.000000	99.476596 
2746.000000	99.474748 
2745.000000	99.473316 
2744.000000	99.472779 
2743.000000	99.473113 
2742.000000	99.474050 
2741.000000	99.475444 
2740.000000	99.477284 
2739.000000	99.479384 
2738.000000	99.481261 
2737.000000	99.482467 
2736.000000	99.483034 
2735.000000	99.483441 
2734.000000	99.484049 
2733.000000	99.484693 
2732.000000	99.484985 
2731.000000	99.484836 
2730.000000	99.484531 
2729.000000	99.484329 
2728.000000	99.484164 
2727.000000	99.483792 
2726.000000	99.483030 
2725.000000	99.481883 
2724.000000	99.480677 
2723.000000	99.480013 
2722.000000	99.480352 
2721.000000	99.481584 
2720.000000	99.483079 
2719.000000	99.484206 
2718.000000	99.484756 
2717.000000	99.484852 
2716.000000	99.484706 
2715.000000	99.484569 
2714.000000	99.484701 
2713.000000	99.485185 
2712.000000	99.485782 
2711.000000	99.486124 
2710.000000	99.486093 
2709.000000	99.485934 
2708.000000	99.485977 
2707.000000	99.486299 
2706.000000	99.486697 
2705.000000	99.486947 
2704.000000	99.487032 
2703.000000	99.487073 
2702.000000	99.487105 
2701.000000	99.487024 
2700.000000	99.486768 
2699.000000	99.486419 
2698.000000	99.486141 
2697.000000	99.485991 
2696.000000	99.485898 
2695.000000	99.485813 
2694.000000	99.485784 
2693.000000	99.485849 
2692.000000	99.485928 
2691.000000	99.485884 
2690.000000	99.485694 
2689.000000	99.485488 
2688.000000	99.485425 
2687.000000	99.485517 
2686.000000	99.485615 
2685.000000	99.485554 
2684.000000	99.485311 
2683.000000	99.485041 
2682.000000	99.484910 
2681.000000	99.484917 
2680.000000	99.484908 
2679.000000	99.484779 
2678.000000	99.484560 
2677.000000	99.484253 
2676.000000	99.483758 
2675.000000	99.483050 
2674.000000	99.482323 
2673.000000	99.481833 
2672.000000	99.481618 
2671.000000	99.481426 
2670.000000	99.480938 
2669.000000	99.480121 
2668.000000	99.479406 
2667.000000	99.479399 
2666.000000	99.480296 
2665.000000	99.481615 
2664.000000	99.482658 
2663.000000	99.483376 
2662.000000	99.484406 
2661.000000	99.486038 
2660.000000	99.487391 
2659.000000	99.487180 
2658.000000	99.485209 
2657.000000	99.482763 
2656.000000	99.481326 
2655.000000	99.481151 
2654.000000	99.481431 
2653.000000	99.481411 
2652.000000	99.480937 
2651.000000	99.480147 
2650.000000	99.479275 
2649.000000	99.478776 
2648.000000	99.478978 
2647.000000	99.479420 
2646.000000	99.479074 
2645.000000	99.477622 
2644.000000	99.476010 
2643.000000	99.475269 
2642.000000	99.475214 
2641.000000	99.474939 
2640.000000	99.474402 
2639.000000	99.474650 
2638.000000	99.476408 
2637.000000	99.479250 
2636.000000	99.482277 
2635.000000	99.484984 
2634.000000	99.487180 
2633.000000	99.488607 
2632.000000	99.489197 
2631.000000	99.489298 
2630.000000	99.489101 
2629.000000	99.488235 
2628.000000	99.486483 
2627.000000	99.484698 
2626.000000	99.484338 
2625.000000	99.485941 
2624.000000	99.488506 
2623.000000	99.490465 
2622.000000	99.491084 
2621.000000	99.490618 
2620.000000	99.489565 
2619.000000	99.488280 
2618.000000	99.487102 
2617.000000	99.486273 
2616.000000	99.485577 
2615.000000	99.484425 
2614.000000	99.482596 
2613.000000	99.480820 
2612.000000	99.480354 
2611.000000	99.481898 
2610.000000	99.485037 
2609.000000	99.488433 
2608.000000	99.490710 
2607.000000	99.491379 
2606.000000	99.490998 
2605.000000	99.490502 
2604.000000	99.490198 
2603.000000	99.489576 
2602.000000	99.488208 
2601.000000	99.486527 
2600.000000	99.485431 
2599.000000	99.485266 
2598.000000	99.485595 
2597.000000	99.485989 
2596.000000	99.486570 
2595.000000	99.487464 
2594.000000	99.488094 
2593.000000	99.487634 
2592.000000	99.486170 
2591.000000	99.484891 
2590.000000	99.484884 
2589.000000	99.486076 
2588.000000	99.487593 
2587.000000	99.488813 
2586.000000	99.489679 
2585.000000	99.490060 
2584.000000	99.489486 
2583.000000	99.487803 
2582.000000	99.485716 
2581.000000	99.484253 
2580.000000	99.483774 
2579.000000	99.483788 
2578.000000	99.483553 
2577.000000	99.482720 
2576.000000	99.481523 
2575.000000	99.480551 
2574.000000	99.480297 
2573.000000	99.480749 
2572.000000	99.481381 
2571.000000	99.481608 
2570.000000	99.481245 
2569.000000	99.480424 
2568.000000	99.479244 
2567.000000	99.477812 
2566.000000	99.476661 
2565.000000	99.476650 
2564.000000	99.478101 
2563.000000	99.480210 
2562.000000	99.481618 
2561.000000	99.481703 
2560.000000	99.480996 
2559.000000	99.480420 
2558.000000	99.480260 
2557.000000	99.480064 
2556.000000	99.479506 
2555.000000	99.479075 
2554.000000	99.479641 
2553.000000	99.481406 
2552.000000	99.483501 
2551.000000	99.484704 
2550.000000	99.484693 
2549.000000	99.484335 
2548.000000	99.484651 
2547.000000	99.485652 
2546.000000	99.486490 
2545.000000	99.486662 
2544.000000	99.486542 
2543.000000	99.486703 
2542.000000	99.487147 
2541.000000	99.487427 
2540.000000	99.487307 
2539.000000	99.487013 
2538.000000	99.486815 
2537.000000	99.486725 
2536.000000	99.486733 
2535.000000	99.486939 
2534.000000	99.487353 
2533.000000	99.487772 
2532.000000	99.487999 
2531.000000	99.488060 
2530.000000	99.488138 
2529.000000	99.488342 
2528.000000	99.488610 
2527.000000	99.488834 
2526.000000	99.489027 
2525.000000	99.489330 
2524.000000	99.489837 
2523.000000	99.490477 
2522.000000	99.491086 
2521.000000	99.491539 
2520.000000	99.491828 
2519.000000	99.492018 
2518.000000	99.492177 
2517.000000	99.492350 
2516.000000	99.492570 
2515.000000	99.492844 
2514.000000	99.493138 
2513.000000	99.493393 
2512.000000	99.493568 
2511.000000	99.493672 
2510.000000	99.493751 
2509.000000	99.493851 
2508.000000	99.493985 
2507.000000	99.494131 
2506.000000	99.494249 
2505.000000	99.494315 
2504.000000	99.494347 
2503.000000	99.494386 
2502.000000	99.494417 
2501.000000	99.494345 
2500.000000	99.494130 
2499.000000	99.493826 
2498.000000	99.493533 
2497.000000	99.493296 
2496.000000	99.493108 
2495.000000	99.492937 
2494.000000	99.492741 
2493.000000	99.492495 
2492.000000	99.492196 
2491.000000	99.491873 
2490.000000	99.491588 
2489.000000	99.491392 
2488.000000	99.491290 
2487.000000	99.491239 
2486.000000	99.491167 
2485.000000	99.491033 
2484.000000	99.490839 
2483.000000	99.490633 
2482.000000	99.490457 
2481.000000	99.490292 
2480.000000	99.490072 
2479.000000	99.489791 
2478.000000	99.489547 
2477.000000	99.489411 
2476.000000	99.489282 
2475.000000	99.488970 
2474.000000	99.488443 
2473.000000	99.487887 
2472.000000	99.487483 
2471.000000	99.487217 
2470.000000	99.486947 
2469.000000	99.486552 
2468.000000	99.485940 
2467.000000	99.484981 
2466.000000	99.483629 
2465.000000	99.482159 
2464.000000	99.481161 
2463.000000	99.481194 
2462.000000	99.482299 
2461.000000	99.483771 
2460.000000	99.484584 
2459.000000	99.484229 
2458.000000	99.483188 
2457.000000	99.482573 
2456.000000	99.483069 
2455.000000	99.484276 
2454.000000	99.485081 
2453.000000	99.484709 
2452.000000	99.483444 
2451.000000	99.482468 
2450.000000	99.482925 
2449.000000	99.484894 
2448.000000	99.487248 
2447.000000	99.488686 
2446.000000	99.488906 
2445.000000	99.488624 
2444.000000	99.488598 
2443.000000	99.489096 
2442.000000	99.490224 
2441.000000	99.491929 
2440.000000	99.493378 
2439.000000	99.493164 
2438.000000	99.490717 
2437.000000	99.487103 
2436.000000	99.484006 
2435.000000	99.481929 
2434.000000	99.480092 
2433.000000	99.477962 
2432.000000	99.476149 
2431.000000	99.475501 
2430.000000	99.475860 
2429.000000	99.476280 
2428.000000	99.476351 
2427.000000	99.476787 
2426.000000	99.478355 
2425.000000	99.480548 
2424.000000	99.481737 
2423.000000	99.480846 
2422.000000	99.478550 
2421.000000	99.476693 
2420.000000	99.476448 
2419.000000	99.477324 
2418.000000	99.478115 
2417.000000	99.478480 
2416.000000	99.478860 
2415.000000	99.479387 
2414.000000	99.479632 
2413.000000	99.479321 
2412.000000	99.478762 
2411.000000	99.478435 
2410.000000	99.478478 
2409.000000	99.478703 
2408.000000	99.478937 
2407.000000	99.479166 
2406.000000	99.479439 
2405.000000	99.479767 
2404.000000	99.480121 
2403.000000	99.480459 
2402.000000	99.480759 
2401.000000	99.481041 
2400.000000	99.481341 
2399.000000	99.481686 
2398.000000	99.482084 
2397.000000	99.482548 
2396.000000	99.483095 
2395.000000	99.483729 
2394.000000	99.484445 
2393.000000	99.485227 
2392.000000	99.486054 
2391.000000	99.486902 
2390.000000	99.487752 
2389.000000	99.488588 
2388.000000	99.489403 
2387.000000	99.490195 
2386.000000	99.490967 
2385.000000	99.491724 
2384.000000	99.492466 
2383.000000	99.493197 
2382.000000	99.493921 
2381.000000	99.494658 
2380.000000	99.495443 
2379.000000	99.496294 
2378.000000	99.497151 
2377.000000	99.497899 
2376.000000	99.498435 
2375.000000	99.498846 
2374.000000	99.499423 
2373.000000	99.500380 
2372.000000	99.501626 
2371.000000	99.502921 
2370.000000	99.504251 
2369.000000	99.505671 
2368.000000	99.506937 
2367.000000	99.507664 
2366.000000	99.507811 
2365.000000	99.507748 
2364.000000	99.507860 
2363.000000	99.508163 
2362.000000	99.508488 
2361.000000	99.508976 
2360.000000	99.509873 
2359.000000	99.511250 
2358.000000	99.512984 
2357.000000	99.514795 
2356.000000	99.516826 
2355.000000	99.519023 
2354.000000	99.520835 
2353.000000	99.521396 
2352.000000	99.520591 
2351.000000	99.519474 
2350.000000	99.518404 
2349.000000	99.516945 
2348.000000	99.514627 
2347.000000	99.511816 
2346.000000	99.509946 
2345.000000	99.509528 
2344.000000	99.510590 
2343.000000	99.512274 
2342.000000	99.514268 
2341.000000	99.516261 
2340.000000	99.517306 
2339.000000	99.517329 
2338.000000	99.517019 
2337.000000	99.517521 
2336.000000	99.518580 
2335.000000	99.519550 
2334.000000	99.519604 
2333.000000	99.519221 
2332.000000	99.518409 
2331.000000	99.517657 
2330.000000	99.516316 
2329.000000	99.514982 
2328.000000	99.514090 
2327.000000	99.514038 
2326.000000	99.514337 
2325.000000	99.513806 
2324.000000	99.512144 
2323.000000	99.510038 
2322.000000	99.508944 
2321.000000	99.509641 
2320.000000	99.511474 
2319.000000	99.513313 
2318.000000	99.513917 
2317.000000	99.513098 
2316.000000	99.510836 
2315.000000	99.507904 
2314.000000	99.504834 
2313.000000	99.502359 
2312.000000	99.500560 
2311.000000	99.499657 
2310.000000	99.499555 
2309.000000	99.500067 
2308.000000	99.500281 
2307.000000	99.499300 
2306.000000	99.496729 
2305.000000	99.493206 
2304.000000	99.489730 
2303.000000	99.487113 
2302.000000	99.485459 
2301.000000	99.484742 
2300.000000	99.484736 
2299.000000	99.485153 
2298.000000	99.485371 
2297.000000	99.485064 
2296.000000	99.484342 
2295.000000	99.483646 
2294.000000	99.483044 
2293.000000	99.482183 
2292.000000	99.480710 
2291.000000	99.478672 
2290.000000	99.476500 
2289.000000	99.474650 
2288.000000	99.473326 
2287.000000	99.472292 
2286.000000	99.471124 
2285.000000	99.469706 
2284.000000	99.468587 
2283.000000	99.468344 
2282.000000	99.468587 
2281.000000	99.467882 
2280.000000	99.465244 
2279.000000	99.461585 
2278.000000	99.459150 
2277.000000	99.459236 
2276.000000	99.461007 
2275.000000	99.462632 
2274.000000	99.463128 
2273.000000	99.462712 
2272.000000	99.461633 
2271.000000	99.459640 
2270.000000	99.457017 
2269.000000	99.455433 
2268.000000	99.456683 
2267.000000	99.460736 
2266.000000	99.465513 
2265.000000	99.468799 
2264.000000	99.469901 
2263.000000	99.469418 
2262.000000	99.468331 
2261.000000	99.467564 
2260.000000	99.467627 
2259.000000	99.467726 
2258.000000	99.466001 
2257.000000	99.461648 
2256.000000	99.456601 
2255.000000	99.454153 
2254.000000	99.455585 
2253.000000	99.459009 
2252.000000	99.461412 
2251.000000	99.461343 
2250.000000	99.459215 
2249.000000	99.456088 
2248.000000	99.452948 
2247.000000	99.450718 
2246.000000	99.449880 
2245.000000	99.449918 
2244.000000	99.449700 
2243.000000	99.448579 
2242.000000	99.446919 
2241.000000	99.445477 
2240.000000	99.444491 
2239.000000	99.443481 
2238.000000	99.441874 
2237.000000	99.439589 
2236.000000	99.436796 
2235.000000	99.433298 
2234.000000	99.428831 
2233.000000	99.424280 
2232.000000	99.421919 
2231.000000	99.423523 
2230.000000	99.428590 
2229.000000	99.434765 
2228.000000	99.439839 
2227.000000	99.442885 
2226.000000	99.443641 
2225.000000	99.442103 
2224.000000	99.439026 
2223.000000	99.435893 
2222.000000	99.433850 
2221.000000	99.433014 
2220.000000	99.432985 
2219.000000	99.433519 
2218.000000	99.434458 
2217.000000	99.435496 
2216.000000	99.436478 
2215.000000	99.437550 
2214.000000	99.438595 
2213.000000	99.438785 
2212.000000	99.437219 
2211.000000	99.434025 
2210.000000	99.430548 
2209.000000	99.428434 
2208.000000	99.428528 
2207.000000	99.430459 
2206.000000	99.432808 
2205.000000	99.433881 
2204.000000	99.432828 
2203.000000	99.430100 
2202.000000	99.427140 
2201.000000	99.425424 
2200.000000	99.425386 
2199.000000	99.426223 
2198.000000	99.426728 
2197.000000	99.426530 
2196.000000	99.426342 
2195.000000	99.426870 
2194.000000	99.427831 
2193.000000	99.428424 
2192.000000	99.428451 
2191.000000	99.428388 
2190.000000	99.428518 
2189.000000	99.428664 
2188.000000	99.428831 
2187.000000	99.429525 
2186.000000	99.431102 
2185.000000	99.433106 
2184.000000	99.434554 
2183.000000	99.434744 
2182.000000	99.433545 
2181.000000	99.431419 
2180.000000	99.429304 
2179.000000	99.427923 
2178.000000	99.427073 
2177.000000	99.426065 
2176.000000	99.424869 
2175.000000	99.424207 
2174.000000	99.424382 
2173.000000	99.424742 
2172.000000	99.424595 
2171.000000	99.424042 
2170.000000	99.423565 
2169.000000	99.423407 
2168.000000	99.423685 
2167.000000	99.424510 
2166.000000	99.425523 
2165.000000	99.425925 
2164.000000	99.425524 
2163.000000	99.425238 
2162.000000	99.426061 
2161.000000	99.427777 
2160.000000	99.429094 
2159.000000	99.428948 
2158.000000	99.427150 
2157.000000	99.424332 
2156.000000	99.421841 
2155.000000	99.421007 
2154.000000	99.421951 
2153.000000	99.423216 
2152.000000	99.423309 
2151.000000	99.422530 
2150.000000	99.422425 
2149.000000	99.423927 
2148.000000	99.426758 
2147.000000	99.430023 
2146.000000	99.432615 
2145.000000	99.433540 
2144.000000	99.432757 
2143.000000	99.431582 
2142.000000	99.431310 
2141.000000	99.431631 
2140.000000	99.431365 
2139.000000	99.430397 
2138.000000	99.429783 
2137.000000	99.429947 
2136.000000	99.429933 
2135.000000	99.428957 
2134.000000	99.427811 
2133.000000	99.427972 
2132.000000	99.429693 
2131.000000	99.431508 
2130.000000	99.431684 
2129.000000	99.430273 
2128.000000	99.429734 
2127.000000	99.432764 
2126.000000	99.439229 
2125.000000	99.445547 
2124.000000	99.448484 
2123.000000	99.448765 
2122.000000	99.449480 
2121.000000	99.451335 
2120.000000	99.451683 
2119.000000	99.448654 
2118.000000	99.443640 
2117.000000	99.439141 
2116.000000	99.435991 
2115.000000	99.433804 
2114.000000	99.432609 
2113.000000	99.432708 
2112.000000	99.433704 
2111.000000	99.434674 
2110.000000	99.434940 
2109.000000	99.434164 
2108.000000	99.432363 
2107.000000	99.430181 
2106.000000	99.428442 
2105.000000	99.427079 
2104.000000	99.425331 
2103.000000	99.423366 
2102.000000	99.422715 
2101.000000	99.424454 
2100.000000	99.427831 
2099.000000	99.431120 
2098.000000	99.433259 
2097.000000	99.434213 
2096.000000	99.434309 
2095.000000	99.433664 
2094.000000	99.431867 
2093.000000	99.428190 
2092.000000	99.422739 
2091.000000	99.417503 
2090.000000	99.415102 
2089.000000	99.416043 
2088.000000	99.418130 
2087.000000	99.418701 
2086.000000	99.417243 
2085.000000	99.415238 
2084.000000	99.414334 
2083.000000	99.415204 
2082.000000	99.417588 
2081.000000	99.420495 
2080.000000	99.422591 
2079.000000	99.423234 
2078.000000	99.422805 
2077.000000	99.422144 
2076.000000	99.421853 
2075.000000	99.422055 
2074.000000	99.422516 
2073.000000	99.422851 
2072.000000	99.422835 
2071.000000	99.422606 
2070.000000	99.422414 
2069.000000	99.422211 
2068.000000	99.421744 
2067.000000	99.421073 
2066.000000	99.420692 
2065.000000	99.420886 
2064.000000	99.421264 
2063.000000	99.421330 
2062.000000	99.421255 
2061.000000	99.421560 
2060.000000	99.422371 
2059.000000	99.423370 
2058.000000	99.424143 
2057.000000	99.424290 
2056.000000	99.423464 
2055.000000	99.421744 
2054.000000	99.419842 
2053.000000	99.418733 
2052.000000	99.419109 
2051.000000	99.420982 
2050.000000	99.423318 
2049.000000	99.424142 
2048.000000	99.421927 
2047.000000	99.417196 
2046.000000	99.412453 
2045.000000	99.409952 
2044.000000	99.410039 
2043.000000	99.411570 
2042.000000	99.412991 
2041.000000	99.413013 
2040.000000	99.411496 
2039.000000	99.410232 
2038.000000	99.411604 
2037.000000	99.415546 
2036.000000	99.418712 
2035.000000	99.418017 
2034.000000	99.413922 
2033.000000	99.409240 
2032.000000	99.405514 
2031.000000	99.401940 
2030.000000	99.397543 
2029.000000	99.392636 
2028.000000	99.387935 
2027.000000	99.383668 
2026.000000	99.380366 
2025.000000	99.379753 
2024.000000	99.383539 
2023.000000	99.390975 
2022.000000	99.397818 
2021.000000	99.399492 
2020.000000	99.395811 
2019.000000	99.391283 
2018.000000	99.390169 
2017.000000	99.391853 
2016.000000	99.392742 
2015.000000	99.391991 
2014.000000	99.392473 
2013.000000	99.396184 
2012.000000	99.401728 
2011.000000	99.406593 
2010.000000	99.409900 
2009.000000	99.411685 
2008.000000	99.411580 
2007.000000	99.409747 
2006.000000	99.407528 
2005.000000	99.405973 
2004.000000	99.404759 
2003.000000	99.403494 
2002.000000	99.402886 
2001.000000	99.403565 
2000.000000	99.404735 
1999.000000	99.404948 
1998.000000	99.403796 
1997.000000	99.402111 
1996.000000	99.400899 
1995.000000	99.400603 
1994.000000	99.401215 
1993.000000	99.402492 
1992.000000	99.403952 
1991.000000	99.405053 
1990.000000	99.405591 
1989.000000	99.405725 
1988.000000	99.405683 
1987.000000	99.405567 
1986.000000	99.405444 
1985.000000	99.405447 
1984.000000	99.405702 
1983.000000	99.406192 
1982.000000	99.406795 
1981.000000	99.407313 
1980.000000	99.407561 
1979.000000	99.407486 
1978.000000	99.407236 
1977.000000	99.407106 
1976.000000	99.407172 
1975.000000	99.407219 
1974.000000	99.407083 
1973.000000	99.406999 
1972.000000	99.407344 
1971.000000	99.408177 
1970.000000	99.409112 
1969.000000	99.409645 
1968.000000	99.409623 
1967.000000	99.409324 
1966.000000	99.409248 
1965.000000	99.409577 
1964.000000	99.410063 
1963.000000	99.410371 
1962.000000	99.410501 
1961.000000	99.410761 
1960.000000	99.411431 
1959.000000	99.412678 
1958.000000	99.414667 
1957.000000	99.417342 
1956.000000	99.420051 
1955.000000	99.421939 
1954.000000	99.422991 
1953.000000	99.424191 
1952.000000	99.426105 
1951.000000	99.427903 
1950.000000	99.428542 
1949.000000	99.428297 
1948.000000	99.428330 
1947.000000	99.428795 
1946.000000	99.428294 
1945.000000	99.425454 
1944.000000	99.420539 
1943.000000	99.415479 
1942.000000	99.412366 
1941.000000	99.411855 
1940.000000	99.412840 
1939.000000	99.413664 
1938.000000	99.413951 
1937.000000	99.415008 
1936.000000	99.417979 
1935.000000	99.421978 
1934.000000	99.424787 
1933.000000	99.425480 
1932.000000	99.425555 
1931.000000	99.427084 
1930.000000	99.430044 
1929.000000	99.432017 
1928.000000	99.431236 
1927.000000	99.428625 
1926.000000	99.426754 
1925.000000	99.427001 
1924.000000	99.428440 
1923.000000	99.429944 
1922.000000	99.431750 
1921.000000	99.434706 
1920.000000	99.438412 
1919.000000	99.440955 
1918.000000	99.440661 
1917.000000	99.437901 
1916.000000	99.434630 
1915.000000	99.432103 
1914.000000	99.430281 
1913.000000	99.429273 
1912.000000	99.429785 
1911.000000	99.431995 
1910.000000	99.434665 
1909.000000	99.436130 
1908.000000	99.436303 
1907.000000	99.436519 
1906.000000	99.437792 
1905.000000	99.439735 
1904.000000	99.441249 
1903.000000	99.441895 
1902.000000	99.441923 
1901.000000	99.441691 
1900.000000	99.441631 
1899.000000	99.442239 
1898.000000	99.443613 
1897.000000	99.445085 
1896.000000	99.445717 
1895.000000	99.445294 
1894.000000	99.444359 
1893.000000	99.443522 
1892.000000	99.443165 
1891.000000	99.443598 
1890.000000	99.444779 
1889.000000	99.446111 
1888.000000	99.447271 
1887.000000	99.448669 
1886.000000	99.450426 
1885.000000	99.451608 
1884.000000	99.451151 
1883.000000	99.449371 
1882.000000	99.447761 
1881.000000	99.447632 
1880.000000	99.449777 
1879.000000	99.454525 
1878.000000	99.461233 
1877.000000	99.467885 
1876.000000	99.472120 
1875.000000	99.472998 
1874.000000	99.471188 
1873.000000	99.467733 
1872.000000	99.463542 
1871.000000	99.459853 
1870.000000	99.457911 
1869.000000	99.457589 
1868.000000	99.457618 
1867.000000	99.457612 
1866.000000	99.457944 
1865.000000	99.458161 
1864.000000	99.457153 
1863.000000	99.454643 
1862.000000	99.451762 
1861.000000	99.450006 
1860.000000	99.450178 
1859.000000	99.452325 
1858.000000	99.455723 
1857.000000	99.458764 
1856.000000	99.459944 
1855.000000	99.459291 
1854.000000	99.458142 
1853.000000	99.457293 
1852.000000	99.456433 
1851.000000	99.455150 
1850.000000	99.454109 
1849.000000	99.454735 
1848.000000	99.457428 
1847.000000	99.460946 
1846.000000	99.463519 
1845.000000	99.464572 
1844.000000	99.465045 
1843.000000	99.466033 
1842.000000	99.467181 
1841.000000	99.467311 
1840.000000	99.466289 
1839.000000	99.465127 
1838.000000	99.464816 
1837.000000	99.465246 
1836.000000	99.465621 
1835.000000	99.465644 
1834.000000	99.465607 
1833.000000	99.465689 
1832.000000	99.465718 
1831.000000	99.465484 
1830.000000	99.465082 
1829.000000	99.464907 
1828.000000	99.465154 
1827.000000	99.465635 
1826.000000	99.466067 
1825.000000	99.466337 
1824.000000	99.466486 
1823.000000	99.466584 
1822.000000	99.466666 
1821.000000	99.466779 
1820.000000	99.466988 
1819.000000	99.467293 
1818.000000	99.467631 
1817.000000	99.467904 
1816.000000	99.468060 
1815.000000	99.468136 
1814.000000	99.468199 
1813.000000	99.468284 
1812.000000	99.468374 
1811.000000	99.468454 
1810.000000	99.468533 
1809.000000	99.468567 
1808.000000	99.468482 
1807.000000	99.468277 
1806.000000	99.468023 
1805.000000	99.467800 
1804.000000	99.467640 
1803.000000	99.467552 
1802.000000	99.467502 
1801.000000	99.467399 
1800.000000	99.467142 
1799.000000	99.466716 
1798.000000	99.466267 
1797.000000	99.465963 
1796.000000	99.465864 
1795.000000	99.465908 
1794.000000	99.465955 
1793.000000	99.465871 
1792.000000	99.465564 
1791.000000	99.465097 
1790.000000	99.464677 
1789.000000	99.464390 
1788.000000	99.464246 
1787.000000	99.464335 
1786.000000	99.464798 
1785.000000	99.465510 
1784.000000	99.466019 
1783.000000	99.466002 
1782.000000	99.465346 
1781.000000	99.464239 
1780.000000	99.462964 
1779.000000	99.461581 
1778.000000	99.460113 
1777.000000	99.458676 
1776.000000	99.457684 
1775.000000	99.457333 
1774.000000	99.457421 
1773.000000	99.457970 
1772.000000	99.459223 
1771.000000	99.460714 
1770.000000	99.461323 
1769.000000	99.460201 
1768.000000	99.457663 
1767.000000	99.455239 
1766.000000	99.454216 
1765.000000	99.454502 
1764.000000	99.455014 
1763.000000	99.454697 
1762.000000	99.453133 
1761.000000	99.451051 
1760.000000	99.449305 
1759.000000	99.447886 
1758.000000	99.446788 
1757.000000	99.446741 
1756.000000	99.448687 
1755.000000	99.451603 
1754.000000	99.452892 
1753.000000	99.450995 
1752.000000	99.446782 
1751.000000	99.442477 
1750.000000	99.439632 
1749.000000	99.437778 
1748.000000	99.435857 
1747.000000	99.433864 
1746.000000	99.431829 
1745.000000	99.430186 
1744.000000	99.429630 
1743.000000	99.430442 
1742.000000	99.432143 
1741.000000	99.433355 
1740.000000	99.432779 
1739.000000	99.431304 
1738.000000	99.431065 
1737.000000	99.431942 
1736.000000	99.432743 
1735.000000	99.434241 
1734.000000	99.437537 
1733.000000	99.441683 
1732.000000	99.445275 
1731.000000	99.446967 
1730.000000	99.447594 
1729.000000	99.448288 
1728.000000	99.448869 
1727.000000	99.448481 
1726.000000	99.447307 
1725.000000	99.447188 
1724.000000	99.448829 
1723.000000	99.451026 
1722.000000	99.452596 
1721.000000	99.453112 
1720.000000	99.452958 
1719.000000	99.453002 
1718.000000	99.453878 
1717.000000	99.454651 
1716.000000	99.454510 
1715.000000	99.454669 
1714.000000	99.456356 
1713.000000	99.458764 
1712.000000	99.460101 
1711.000000	99.459946 
1710.000000	99.459188 
1709.000000	99.458683 
1708.000000	99.458514 
1707.000000	99.458294 
1706.000000	99.457944 
1705.000000	99.457683 
1704.000000	99.457772 
1703.000000	99.458171 
1702.000000	99.458688 
1701.000000	99.459220 
1700.000000	99.459627 
1699.000000	99.460054 
1698.000000	99.460515 
1697.000000	99.460710 
1696.000000	99.460676 
1695.000000	99.460606 
1694.000000	99.460655 
1693.000000	99.460780 
1692.000000	99.460910 
1691.000000	99.461019 
1690.000000	99.461115 
1689.000000	99.461224 
1688.000000	99.461373 
1687.000000	99.461549 
1686.000000	99.461731 
1685.000000	99.461900 
1684.000000	99.462034 
1683.000000	99.462162 
1682.000000	99.462300 
1681.000000	99.462397 
1680.000000	99.462459 
1679.000000	99.462522 
1678.000000	99.462594 
1677.000000	99.462669 
1676.000000	99.462746 
1675.000000	99.462830 
1674.000000	99.462921 
1673.000000	99.463017 
1672.000000	99.463114 
1671.000000	99.463211 
1670.000000	99.463313 
1669.000000	99.463429 
1668.000000	99.463564 
1667.000000	99.463721 
1666.000000	99.463893 
1665.000000	99.464073 
1664.000000	99.464255 
1663.000000	99.464437 
1662.000000	99.464616 
1661.000000	99.464788 
1660.000000	99.464954 
1659.000000	99.465113 
1658.000000	99.465266 
1657.000000	99.465414 
1656.000000	99.465566 
1655.000000	99.465732 
1654.000000	99.465947 
1653.000000	99.466218 
1652.000000	99.466521 
1651.000000	99.466873 
1650.000000	99.467149 
1649.000000	99.467323 
1648.000000	99.467454 
1647.000000	99.467613 
1646.000000	99.467834 
1645.000000	99.468121 
1644.000000	99.468392 
1643.000000	99.468568 
1642.000000	99.468626 
1641.000000	99.468583 
1640.000000	99.468513 
1639.000000	99.468502 
1638.000000	99.468632 
1637.000000	99.468975 
1636.000000	99.469529 
1635.000000	99.470078 
1634.000000	99.470458 
1633.000000	99.470630 
1632.000000	99.470560 
1631.000000	99.470412 
1630.000000	99.470426 
1629.000000	99.470723 
1628.000000	99.471227 
1627.000000	99.471797 
1626.000000	99.472286 
1625.000000	99.472610 
1624.000000	99.472767 
1623.000000	99.472764 
1622.000000	99.472591 
1621.000000	99.472352 
1620.000000	99.472205 
1619.000000	99.472184 
1618.000000	99.472384 
1617.000000	99.472899 
1616.000000	99.474049 
1615.000000	99.476034 
1614.000000	99.478087 
1613.000000	99.479493 
1612.000000	99.480628 
1611.000000	99.482007 
1610.000000	99.482883 
1609.000000	99.482141 
1608.000000	99.480205 
1607.000000	99.478724 
1606.000000	99.478336 
1605.000000	99.478589 
1604.000000	99.479300 
1603.000000	99.480299 
1602.000000	99.481397 
1601.000000	99.482788 
1600.000000	99.484986 
1599.000000	99.487750 
1598.000000	99.489890 
1597.000000	99.490722 
1596.000000	99.490747 
1595.000000	99.490700 
1594.000000	99.490507 
1593.000000	99.489924 
1592.000000	99.489564 
1591.000000	99.490230 
1590.000000	99.491685 
1589.000000	99.493123 
1588.000000	99.494400 
1587.000000	99.495735 
1586.000000	99.496605 
1585.000000	99.496073 
1584.000000	99.494718 
1583.000000	99.493527 
1582.000000	99.492225 
1581.000000	99.490547 
1580.000000	99.489097 
1579.000000	99.487976 
1578.000000	99.486333 
1577.000000	99.483862 
1576.000000	99.481493 
1575.000000	99.480663 
1574.000000	99.480973 
1573.000000	99.480980 
1572.000000	99.480765 
1571.000000	99.481499 
1570.000000	99.483479 
1569.000000	99.485556 
1568.000000	99.487191 
1567.000000	99.487878 
1566.000000	99.487094 
1565.000000	99.485386 
1564.000000	99.484131 
1563.000000	99.483908 
1562.000000	99.483900 
1561.000000	99.483228 
1560.000000	99.482696 
1559.000000	99.482406 
1558.000000	99.481884 
1557.000000	99.482707 
1556.000000	99.483460 
1555.000000	99.483504 
1554.000000	99.483309 
1553.000000	99.483497 
1552.000000	99.483885 
1551.000000	99.483730 
1550.000000	99.483057 
1549.000000	99.482401 
1548.000000	99.482046 
1547.000000	99.481600 
1546.000000	99.480557 
1545.000000	99.479262 
1544.000000	99.478677 
1543.000000	99.479327 
1542.000000	99.481148 
1541.000000	99.483464 
1540.000000	99.484893 
1539.000000	99.485124 
1538.000000	99.485115 
1537.000000	99.485130 
1536.000000	99.485040 
1535.000000	99.485050 
1534.000000	99.485172 
1533.000000	99.485271 
1532.000000	99.485388 
1531.000000	99.485595 
1530.000000	99.485874 
1529.000000	99.486141 
1528.000000	99.486364 
1527.000000	99.486662 
1526.000000	99.487152 
1525.000000	99.487792 
1524.000000	99.488387 
1523.000000	99.488777 
1522.000000	99.488941 
1521.000000	99.488888 
1520.000000	99.488676 
1519.000000	99.488332 
1518.000000	99.487896 
1517.000000	99.487552 
1516.000000	99.487415 
1515.000000	99.487411 
1514.000000	99.487392 
1513.000000	99.487305 
1512.000000	99.487175 
1511.000000	99.487029 
1510.000000	99.486876 
1509.000000	99.486707 
1508.000000	99.486516 
1507.000000	99.486288 
1506.000000	99.486015 
1505.000000	99.485700 
1504.000000	99.485347 
1503.000000	99.484966 
1502.000000	99.484559 
1501.000000	99.484118 
1500.000000	99.483625 
1499.000000	99.483065 
1498.000000	99.482438 
1497.000000	99.481765 
1496.000000	99.481067 
1495.000000	99.480352 
1494.000000	99.479632 
1493.000000	99.478933 
1492.000000	99.478255 
1491.000000	99.477555 
1490.000000	99.476785 
1489.000000	99.475947 
1488.000000	99.475056 
1487.000000	99.474139 
1486.000000	99.473266 
1485.000000	99.472411 
1484.000000	99.471513 
1483.000000	99.470556 
1482.000000	99.469615 
1481.000000	99.468781 
1480.000000	99.467963 
1479.000000	99.466973 
1478.000000	99.465712 
1477.000000	99.464299 
1476.000000	99.462959 
1475.000000	99.462003 
1474.000000	99.461462 
1473.000000	99.460847 
1472.000000	99.459587 
1471.000000	99.457846 
1470.000000	99.456170 
1469.000000	99.454370 
1468.000000	99.451951 
1467.000000	99.449086 
1466.000000	99.446866 
1465.000000	99.446477 
1464.000000	99.447955 
1463.000000	99.449578 
1462.000000	99.449831 
1461.000000	99.448474 
1460.000000	99.446064 
1459.000000	99.442901 
1458.000000	99.438803 
1457.000000	99.434184 
1456.000000	99.430917 
1455.000000	99.429916 
1454.000000	99.429417 
1453.000000	99.429876 
1452.000000	99.432956 
1451.000000	99.438151 
1450.000000	99.443296 
1449.000000	99.446536 
1448.000000	99.447174 
1447.000000	99.446093 
1446.000000	99.444146 
1445.000000	99.441958 
1444.000000	99.440111 
1443.000000	99.438432 
1442.000000	99.437192 
1441.000000	99.436915 
1440.000000	99.437784 
1439.000000	99.439040 
1438.000000	99.440653 
1437.000000	99.442543 
1436.000000	99.443104 
1435.000000	99.441666 
1434.000000	99.439417 
1433.000000	99.437650 
1432.000000	99.436900 
1431.000000	99.436662 
1430.000000	99.436247 
1429.000000	99.435434 
1428.000000	99.433461 
1427.000000	99.429906 
1426.000000	99.425038 
1425.000000	99.420878 
1424.000000	99.419736 
1423.000000	99.420890 
1422.000000	99.421831 
1421.000000	99.420587 
1420.000000	99.416309 
1419.000000	99.408963 
1418.000000	99.401166 
1417.000000	99.395929 
1416.000000	99.392557 
1415.000000	99.389135 
1414.000000	99.385152 
1413.000000	99.381524 
1412.000000	99.378950 
1411.000000	99.376687 
1410.000000	99.373894 
1409.000000	99.370734 
1408.000000	99.367651 
1407.000000	99.365245 
1406.000000	99.363944 
1405.000000	99.364138 
1404.000000	99.366137 
1403.000000	99.369538 
1402.000000	99.373874 
1401.000000	99.378771 
1400.000000	99.383382 
1399.000000	99.385914 
1398.000000	99.384893 
1397.000000	99.380175 
1396.000000	99.372861 
1395.000000	99.366101 
1394.000000	99.363978 
1393.000000	99.368104 
1392.000000	99.376080 
1391.000000	99.383726 
1390.000000	99.388482 
1389.000000	99.390114 
1388.000000	99.389470 
1387.000000	99.387520 
1386.000000	99.385301 
1385.000000	99.383782 
1384.000000	99.383364 
1383.000000	99.383657 
1382.000000	99.384153 
1381.000000	99.384896 
1380.000000	99.386638 
1379.000000	99.390157 
1378.000000	99.395196 
1377.000000	99.400367 
1376.000000	99.404194 
1375.000000	99.406210 
1374.000000	99.407226 
1373.000000	99.408754 
1372.000000	99.411594 
1371.000000	99.415362 
1370.000000	99.419109 
1369.000000	99.422198 
1368.000000	99.424668 
1367.000000	99.426821 
1366.000000	99.428939 
1365.000000	99.431102 
1364.000000	99.433199 
1363.000000	99.435079 
1362.000000	99.436847 
1361.000000	99.438842 
1360.000000	99.441345 
1359.000000	99.444580 
1358.000000	99.448747 
1357.000000	99.453561 
1356.000000	99.457858 
1355.000000	99.460372 
1354.000000	99.461442 
1353.000000	99.462922 
1352.000000	99.465739 
1351.000000	99.468782 
1350.000000	99.470375 
1349.000000	99.470659 
1348.000000	99.471194 
1347.000000	99.472586 
1346.000000	99.474126 
1345.000000	99.475072 
1344.000000	99.475287 
1343.000000	99.474662 
1342.000000	99.473349 
1341.000000	99.472570 
1340.000000	99.473986 
1339.000000	99.477684 
1338.000000	99.481917 
1337.000000	99.485279 
1336.000000	99.487857 
1335.000000	99.490032 
1334.000000	99.491453 
1333.000000	99.491637 
1332.000000	99.490838 
1331.000000	99.489670 
1330.000000	99.488430 
1329.000000	99.487398 
1328.000000	99.487093 
1327.000000	99.487649 
1326.000000	99.488387 
1325.000000	99.488838 
1324.000000	99.489549 
1323.000000	99.491074 
1322.000000	99.492949 
1321.000000	99.494266 
1320.000000	99.494892 
1319.000000	99.495335 
1318.000000	99.495680 
1317.000000	99.495312 
1316.000000	99.493826 
1315.000000	99.491669 
1314.000000	99.489680 
1313.000000	99.488185 
1312.000000	99.486761 
1311.000000	99.485057 
1310.000000	99.483682 
1309.000000	99.483847 
1308.000000	99.485850 
1307.000000	99.488341 
1306.000000	99.489448 
1305.000000	99.488780 
1304.000000	99.487672 
1303.000000	99.487442 
1302.000000	99.488156 
1301.000000	99.489150 
1300.000000	99.490200 
1299.000000	99.491633 
1298.000000	99.493635 
1297.000000	99.495766 
1296.000000	99.497211 
1295.000000	99.497288 
1294.000000	99.495857 
1293.000000	99.493491 
1292.000000	99.491245 
1291.000000	99.490200 
1290.000000	99.490888 
1289.000000	99.492685 
1288.000000	99.493745 
1287.000000	99.492212 
1286.000000	99.487978 
1285.000000	99.482892 
1284.000000	99.478764 
1283.000000	99.475566 
1282.000000	99.472154 
1281.000000	99.468328 
1280.000000	99.465290 
1279.000000	99.463837 
1278.000000	99.462988 
1277.000000	99.461140 
1276.000000	99.458134 
1275.000000	99.455493 
1274.000000	99.454524 
1273.000000	99.454691 
1272.000000	99.454159 
1271.000000	99.451774 
1270.000000	99.448135 
1269.000000	99.444619 
1268.000000	99.441688 
1267.000000	99.438544 
1266.000000	99.434288 
1265.000000	99.428960 
1264.000000	99.423325 
1263.000000	99.418097 
1262.000000	99.413541 
1261.000000	99.409563 
1260.000000	99.406029 
1259.000000	99.403081 
1258.000000	99.401227 
1257.000000	99.400925 
1256.000000	99.401939 
1255.000000	99.403374 
1254.000000	99.404511 
1253.000000	99.405428 
1252.000000	99.406626 
1251.000000	99.408249 
1250.000000	99.409862 
1249.000000	99.410865 
1248.000000	99.410948 
1247.000000	99.410180 
1246.000000	99.408653 
1245.000000	99.406040 
1244.000000	99.401845 
1243.000000	99.396636 
1242.000000	99.392733 
1241.000000	99.392601 
1240.000000	99.396441 
1239.000000	99.401654 
1238.000000	99.405042 
1237.000000	99.405660 
1236.000000	99.404822 
1235.000000	99.404069 
1234.000000	99.403734 
1233.000000	99.403235 
1232.000000	99.401934 
1231.000000	99.399539 
1230.000000	99.396383 
1229.000000	99.393630 
1228.000000	99.392664 
1227.000000	99.393905 
1226.000000	99.396375 
1225.000000	99.398552 
1224.000000	99.399574 
1223.000000	99.399530 
1222.000000	99.399033 
1221.000000	99.398869 
1220.000000	99.399756 
1219.000000	99.401900 
1218.000000	99.404677 
1217.000000	99.407022 
1216.000000	99.408347 
1215.000000	99.408971 
1214.000000	99.409538 
1213.000000	99.410109 
1212.000000	99.410146 
1211.000000	99.409536 
1210.000000	99.409241 
1209.000000	99.410367 
1208.000000	99.412626 
1207.000000	99.414379 
1206.000000	99.414473 
1205.000000	99.413427 
1204.000000	99.412397 
1203.000000	99.411633 
1202.000000	99.410762 
1201.000000	99.410128 
1200.000000	99.410720 
1199.000000	99.412669 
1198.000000	99.414762 
1197.000000	99.415829 
1196.000000	99.415715 
1195.000000	99.414616 
1194.000000	99.412558 
1193.000000	99.409849 
1192.000000	99.407360 
1191.000000	99.405657 
1190.000000	99.404155 
1189.000000	99.401904 
1188.000000	99.399087 
1187.000000	99.397089 
1186.000000	99.396968 
1185.000000	99.398272 
1184.000000	99.399515 
1183.000000	99.399527 
1182.000000	99.398109 
1181.000000	99.395718 
1180.000000	99.392971 
1179.000000	99.390495 
1178.000000	99.388869 
1177.000000	99.388301 
1176.000000	99.388257 
1175.000000	99.387557 
1174.000000	99.385035 
1173.000000	99.380367 
1172.000000	99.374467 
1171.000000	99.369047 
1170.000000	99.365399 
1169.000000	99.363408 
1168.000000	99.361867 
1167.000000	99.359738 
1166.000000	99.357186 
1165.000000	99.355321 
1164.000000	99.355108 
1163.000000	99.356609 
1162.000000	99.358996 
1161.000000	99.361136 
1160.000000	99.362390 
1159.000000	99.362989 
1158.000000	99.363393 
1157.000000	99.363113 
1156.000000	99.360762 
1155.000000	99.355932 
1154.000000	99.350610 
1153.000000	99.347725 
1152.000000	99.348030 
1151.000000	99.349169 
1150.000000	99.348167 
1149.000000	99.344333 
1148.000000	99.339428 
1147.000000	99.335527 
1146.000000	99.333191 
1145.000000	99.331454 
1144.000000	99.328932 
1143.000000	99.324928 
1142.000000	99.319955 
1141.000000	99.315412 
1140.000000	99.312570 
1139.000000	99.311572 
1138.000000	99.311181 
1137.000000	99.309616 
1136.000000	99.306065 
1135.000000	99.301664 
1134.000000	99.298518 
1133.000000	99.297150 
1132.000000	99.295410 
1131.000000	99.290906 
1130.000000	99.284373 
1129.000000	99.279468 
1128.000000	99.278673 
1127.000000	99.280223 
1126.000000	99.279665 
1125.000000	99.273905 
1124.000000	99.263107 
1123.000000	99.249710 
1122.000000	99.236526 
1121.000000	99.225427 
1120.000000	99.216987 
1119.000000	99.210778 
1118.000000	99.205883 
1117.000000	99.201296 
1116.000000	99.196270 
1115.000000	99.190833 
1114.000000	99.186010 
1113.000000	99.182844 
1112.000000	99.180724 
1111.000000	99.177055 
1110.000000	99.169083 
1109.000000	99.156191 
1108.000000	99.140845 
1107.000000	99.127399 
1106.000000	99.119175 
1105.000000	99.115820 
1104.000000	99.113485 
1103.000000	99.108430 
1102.000000	99.100489 
1101.000000	99.092229 
1100.000000	99.085208 
1099.000000	99.078795 
1098.000000	99.072605 
1097.000000	99.067806 
1096.000000	99.064935 
1095.000000	99.061895 
1094.000000	99.055609 
1093.000000	99.044705 
1092.000000	99.029517 
1091.000000	99.010798 
1090.000000	98.990015 
1089.000000	98.969992 
1088.000000	98.953334 
1087.000000	98.940173 
1086.000000	98.928626 
1085.000000	98.917343 
1084.000000	98.906476 
1083.000000	98.896340 
1082.000000	98.886442 
1081.000000	98.875921 
1080.000000	98.863874 
1079.000000	98.849446 
1078.000000	98.833037 
1077.000000	98.817513 
1076.000000	98.806697 
1075.000000	98.802175 
1074.000000	98.802567 
1073.000000	98.805782 
1072.000000	98.810085 
1071.000000	98.812259 
1070.000000	98.807215 
1069.000000	98.792073 
1068.000000	98.770501 
1067.000000	98.751475 
1066.000000	98.742500 
1065.000000	98.744417 
1064.000000	98.752321 
1063.000000	98.760051 
1062.000000	98.763630 
1061.000000	98.761471 
1060.000000	98.753272 
1059.000000	98.740332 
1058.000000	98.726568 
1057.000000	98.717205 
1056.000000	98.714998 
1055.000000	98.717836 
1054.000000	98.720578 
1053.000000	98.719399 
1052.000000	98.714219 
1051.000000	98.707524 
1050.000000	98.701731 
1049.000000	98.697516 
1048.000000	98.693963 
1047.000000	98.690473 
1046.000000	98.688801 
1045.000000	98.692152 
1044.000000	98.701312 
1043.000000	98.712561 
1042.000000	98.720918 
1041.000000	98.725085 
1040.000000	98.727489 
1039.000000	98.730216 
1038.000000	98.733482 
1037.000000	98.738021 
1036.000000	98.745970 
1035.000000	98.758128 
1034.000000	98.772275 
1033.000000	98.785319 
1032.000000	98.795446 
1031.000000	98.801515 
1030.000000	98.802928 
1029.000000	98.801933 
1028.000000	98.804028 
1027.000000	98.813181 
1026.000000	98.827082 
1025.000000	98.839102 
1024.000000	98.844856 
1023.000000	98.845339 
1022.000000	98.844601 
1021.000000	98.846250 
1020.000000	98.852050 
1019.000000	98.861796 
1018.000000	98.873372 
1017.000000	98.884083 
1016.000000	98.892788 
1015.000000	98.900270 
1014.000000	98.907493 
1013.000000	98.914364 
1012.000000	98.920463 
1011.000000	98.926078 
1010.000000	98.931908 
1009.000000	98.938143 
1008.000000	98.944426 
1007.000000	98.950585 
1006.000000	98.957014 
1005.000000	98.964346 
1004.000000	98.972931 
1003.000000	98.982577 
1002.000000	98.992626 
1001.000000	99.002195 
1000.000000	99.010527 
999.000000	 99.017309 
998.000000	 99.022865 
997.000000	 99.028086 
996.000000	 99.034007 
995.000000	 99.041252 
994.000000	 99.049634 
993.000000	 99.058065 
992.000000	 99.065310 
991.000000	 99.071191 
990.000000	 99.076901 
989.000000	 99.083525 
988.000000	 99.090391 
987.000000	 99.095867 
986.000000	 99.099907 
985.000000	 99.104652 
984.000000	 99.111722 
983.000000	 99.119908 
982.000000	 99.126694 
981.000000	 99.131452 
980.000000	 99.135831 
979.000000	 99.141393 
978.000000	 99.148352 
977.000000	 99.156446 
976.000000	 99.165522 
975.000000	 99.174915 
974.000000	 99.183579 
973.000000	 99.191473 
972.000000	 99.199794 
971.000000	 99.209235 
970.000000	 99.218865 
969.000000	 99.227366 
968.000000	 99.234537 
967.000000	 99.240833 
966.000000	 99.246131 
965.000000	 99.249884 
964.000000	 99.252288 
963.000000	 99.254703 
962.000000	 99.258869 
961.000000	 99.265684 
960.000000	 99.274330 
959.000000	 99.282486 
958.000000	 99.287954 
957.000000	 99.290436 
956.000000	 99.291500 
955.000000	 99.292827 
954.000000	 99.295060 
953.000000	 99.298424 
952.000000	 99.303412 
951.000000	 99.309997 
950.000000	 99.316683 
949.000000	 99.321225 
948.000000	 99.322424 
947.000000	 99.320873 
946.000000	 99.318223 
945.000000	 99.316046 
944.000000	 99.315383 
943.000000	 99.316937 
942.000000	 99.321024 
941.000000	 99.326859 
940.000000	 99.332086 
939.000000	 99.333910 
938.000000	 99.331419 
937.000000	 99.326679 
936.000000	 99.323143 
935.000000	 99.322821 
934.000000	 99.325290 
933.000000	 99.329056 
932.000000	 99.333188 
931.000000	 99.337583 
930.000000	 99.342178 
929.000000	 99.346299 
928.000000	 99.348739 
927.000000	 99.348575 
926.000000	 99.346186 
925.000000	 99.343403 
924.000000	 99.342255 
923.000000	 99.343456 
922.000000	 99.346169 
921.000000	 99.348879 
920.000000	 99.350201 
919.000000	 99.349285 
918.000000	 99.346289 
917.000000	 99.342649 
916.000000	 99.340255 
915.000000	 99.339835 
914.000000	 99.340555 
913.000000	 99.341318 
912.000000	 99.342007 
911.000000	 99.343374 
910.000000	 99.346024 
909.000000	 99.349780 
908.000000	 99.353836 
907.000000	 99.357317 
906.000000	 99.359764 
905.000000	 99.361229 
904.000000	 99.362028 
903.000000	 99.362595 
902.000000	 99.363589 
901.000000	 99.365696 
900.000000	 99.368920 
899.000000	 99.372230 
898.000000	 99.374362 
897.000000	 99.374971 
896.000000	 99.374656 
895.000000	 99.374020 
894.000000	 99.373255 
893.000000	 99.372747 
892.000000	 99.373474 
891.000000	 99.376259 
890.000000	 99.380915 
889.000000	 99.386376 
888.000000	 99.391482 
887.000000	 99.395588 
886.000000	 99.398670 
885.000000	 99.401156 
884.000000	 99.403554 
883.000000	 99.405995 
882.000000	 99.408165 
881.000000	 99.409772 
880.000000	 99.411019 
879.000000	 99.412554 
878.000000	 99.415043 
877.000000	 99.418761 
876.000000	 99.423272 
875.000000	 99.427345 
874.000000	 99.429653 
873.000000	 99.429846 
872.000000	 99.428907 
871.000000	 99.428528 
870.000000	 99.429711 
869.000000	 99.432238 
868.000000	 99.435410 
867.000000	 99.438915 
866.000000	 99.442742 
865.000000	 99.446490 
864.000000	 99.449444 
863.000000	 99.451529 
862.000000	 99.453611 
861.000000	 99.456408 
860.000000	 99.459518 
859.000000	 99.462086 
858.000000	 99.464042 
857.000000	 99.465967 
856.000000	 99.467928 
855.000000	 99.469370 
854.000000	 99.470264 
853.000000	 99.471429 
852.000000	 99.473255 
851.000000	 99.475085 
850.000000	 99.476487 
849.000000	 99.478210 
848.000000	 99.480911 
847.000000	 99.483632 
846.000000	 99.484814 
845.000000	 99.484464 
844.000000	 99.484134 
843.000000	 99.484829 
842.000000	 99.486154 
841.000000	 99.487510 
840.000000	 99.488673 
839.000000	 99.489008 
838.000000	 99.487652 
837.000000	 99.485098 
836.000000	 99.483373 
835.000000	 99.483815 
834.000000	 99.485591 
833.000000	 99.487279 
832.000000	 99.489193 
831.000000	 99.492863 
830.000000	 99.498246 
829.000000	 99.502478 
828.000000	 99.502159 
827.000000	 99.496682 
826.000000	 99.489339 
825.000000	 99.484557 
824.000000	 99.483502 
823.000000	 99.483554 
822.000000	 99.482165 
821.000000	 99.480123 
820.000000	 99.479897 
819.000000	 99.481986 
818.000000	 99.484636 
817.000000	 99.486554 
816.000000	 99.487952 
815.000000	 99.488623 
814.000000	 99.486958 
813.000000	 99.482011 
812.000000	 99.475233 
811.000000	 99.468878 
810.000000	 99.463445 
809.000000	 99.458016 
808.000000	 99.452426 
807.000000	 99.447598 
806.000000	 99.443772 
805.000000	 99.439830 
804.000000	 99.435198 
803.000000	 99.431581 
802.000000	 99.431558 
801.000000	 99.435314 
800.000000	 99.439407 
799.000000	 99.439805 
798.000000	 99.436309 
797.000000	 99.432639 
796.000000	 99.431632 
795.000000	 99.431882 
794.000000	 99.430505 
793.000000	 99.427695 
792.000000	 99.426140 
791.000000	 99.426654 
790.000000	 99.427247 
789.000000	 99.426495 
788.000000	 99.425343 
787.000000	 99.424781 
786.000000	 99.423836 
785.000000	 99.420844 
784.000000	 99.415570 
783.000000	 99.409426 
782.000000	 99.404450 
781.000000	 99.402239 
780.000000	 99.402952 
779.000000	 99.404767 
778.000000	 99.405079 
777.000000	 99.403158 
776.000000	 99.400977 
775.000000	 99.401010 
774.000000	 99.403842 
773.000000	 99.408265 
772.000000	 99.412921 
771.000000	 99.417120 
770.000000	 99.420574 
769.000000	 99.423116 
768.000000	 99.424654 
767.000000	 99.425270 
766.000000	 99.425526 
765.000000	 99.426502 
764.000000	 99.429025 
763.000000	 99.432768 
762.000000	 99.436351 
761.000000	 99.438569 
760.000000	 99.439328 
759.000000	 99.439361 
758.000000	 99.439488 
757.000000	 99.440151 
756.000000	 99.441288 
755.000000	 99.442389 
754.000000	 99.442928 
753.000000	 99.443036 
752.000000	 99.443633 
751.000000	 99.445494 
750.000000	 99.448454 
749.000000	 99.451596 
748.000000	 99.454001 
747.000000	 99.455526 
746.000000	 99.456586 
745.000000	 99.457724 
744.000000	 99.459140 
743.000000	 99.460681 
742.000000	 99.462191 
741.000000	 99.463722 
740.000000	 99.465386 
739.000000	 99.467139 
738.000000	 99.468782 
737.000000	 99.470125 
736.000000	 99.471114 
735.000000	 99.471819 
734.000000	 99.472364 
733.000000	 99.472864 
732.000000	 99.473388 
731.000000	 99.473959 
730.000000	 99.474558 
729.000000	 99.475117 
728.000000	 99.475583 
727.000000	 99.475951 
726.000000	 99.476219 
725.000000	 99.476356 
724.000000	 99.476349 
723.000000	 99.476243 
722.000000	 99.476101 
721.000000	 99.475987 
720.000000	 99.475989 
719.000000	 99.476179 
718.000000	 99.476538 
717.000000	 99.476955 
716.000000	 99.477306 
715.000000	 99.477497 
714.000000	 99.477472 
713.000000	 99.477245 
712.000000	 99.477021 
711.000000	 99.477027 
710.000000	 99.477274 
709.000000	 99.477577 
708.000000	 99.477736 
707.000000	 99.477699 
706.000000	 99.477565 
705.000000	 99.477490 
704.000000	 99.477526 
703.000000	 99.477653 
702.000000	 99.477825 
701.000000	 99.477980 
700.000000	 99.478076 
699.000000	 99.478103 
698.000000	 99.478062 
697.000000	 99.477975 
696.000000	 99.477878 
695.000000	 99.477811 
694.000000	 99.477799 
693.000000	 99.477851 
692.000000	 99.477976 
691.000000	 99.478195 
690.000000	 99.478517 
689.000000	 99.478929 
688.000000	 99.479407 
687.000000	 99.479935 
686.000000	 99.480502 
685.000000	 99.481106 
684.000000	 99.481745 
683.000000	 99.482407 
682.000000	 99.483079 
681.000000	 99.483752 
680.000000	 99.484427 
679.000000	 99.485114 
678.000000	 99.485821 
677.000000	 99.486534 
676.000000	 99.487223 
675.000000	 99.487851 
674.000000	 99.488401 
673.000000	 99.488889 
672.000000	 99.489361 
671.000000	 99.489858 
670.000000	 99.490387 
669.000000	 99.490903 
668.000000	 99.491323 
667.000000	 99.491573 
666.000000	 99.491662 
665.000000	 99.491665 
664.000000	 99.491664 
663.000000	 99.491702 
662.000000	 99.491771 
661.000000	 99.491832 
660.000000	 99.491849 
659.000000	 99.491827 
658.000000	 99.491772 
657.000000	 99.491631 
656.000000	 99.491419 
655.000000	 99.491293 
654.000000	 99.491484 
653.000000	 99.492077 
652.000000	 99.492916 
651.000000	 99.493817 
650.000000	 99.494662 

