4000.000000	99.489942 
3999.000000	99.483478 
3998.000000	99.473558 
3997.000000	99.465469 
3996.000000	99.462863 
3995.000000	99.465791 
3994.000000	99.471506 
3993.000000	99.476799 
3992.000000	99.479649 
3991.000000	99.479429 
3990.000000	99.476457 
3989.000000	99.471666 
3988.000000	99.466288 
3987.000000	99.461460 
3986.000000	99.458105 
3985.000000	99.457105 
3984.000000	99.459174 
3983.000000	99.464301 
3982.000000	99.471414 
3981.000000	99.478751 
3980.000000	99.484651 
3979.000000	99.488063 
3978.000000	99.488639 
3977.000000	99.486622 
3976.000000	99.482716 
3975.000000	99.477812 
3974.000000	99.472639 
3973.000000	99.467669 
3972.000000	99.463500 
3971.000000	99.461219 
3970.000000	99.462103 
3969.000000	99.466539 
3968.000000	99.473030 
3967.000000	99.478528 
3966.000000	99.480170 
3965.000000	99.477324 
3964.000000	99.472190 
3963.000000	99.468369 
3962.000000	99.468318 
3961.000000	99.471600 
3960.000000	99.475457 
3959.000000	99.477119 
3958.000000	99.475872 
3957.000000	99.473139 
3956.000000	99.470677 
3955.000000	99.468907 
3954.000000	99.466928 
3953.000000	99.464039 
3952.000000	99.460715 
3951.000000	99.458071 
3950.000000	99.456614 
3949.000000	99.455590 
3948.000000	99.453907 
3947.000000	99.451828 
3946.000000	99.451335 
3945.000000	99.454148 
3944.000000	99.459216 
3943.000000	99.462964 
3942.000000	99.462942 
3941.000000	99.460907 
3940.000000	99.460686 
3939.000000	99.463183 
3938.000000	99.465203 
3937.000000	99.463158 
3936.000000	99.456693 
3935.000000	99.448865 
3934.000000	99.443571 
3933.000000	99.443287 
3932.000000	99.448098 
3931.000000	99.455823 
3930.000000	99.463382 
3929.000000	99.468203 
3928.000000	99.469499 
3927.000000	99.468449 
3926.000000	99.466763 
3925.000000	99.465031 
3924.000000	99.462766 
3923.000000	99.459875 
3922.000000	99.456369 
3921.000000	99.451352 
3920.000000	99.444421 
3919.000000	99.437378 
3918.000000	99.432717 
3917.000000	99.431094 
3916.000000	99.431592 
3915.000000	99.434174 
3914.000000	99.439645 
3913.000000	99.447191 
3912.000000	99.453556 
3911.000000	99.455105 
3910.000000	99.450261 
3909.000000	99.440683 
3908.000000	99.430012 
3907.000000	99.422211 
3906.000000	99.419161 
3905.000000	99.419222 
3904.000000	99.418256 
3903.000000	99.414304 
3902.000000	99.410832 
3901.000000	99.412478 
3900.000000	99.419443 
3899.000000	99.427970 
3898.000000	99.434729 
3897.000000	99.438372 
3896.000000	99.437705 
3895.000000	99.432328 
3894.000000	99.426182 
3893.000000	99.426008 
3892.000000	99.433077 
3891.000000	99.440279 
3890.000000	99.441975 
3889.000000	99.441865 
3888.000000	99.445416 
3887.000000	99.452301 
3886.000000	99.456531 
3885.000000	99.451643 
3884.000000	99.440430 
3883.000000	99.433668 
3882.000000	99.436710 
3881.000000	99.444990 
3880.000000	99.449221 
3879.000000	99.444457 
3878.000000	99.436208 
3877.000000	99.432373 
3876.000000	99.433329 
3875.000000	99.432501 
3874.000000	99.423032 
3873.000000	99.406934 
3872.000000	99.395357 
3871.000000	99.395932 
3870.000000	99.403155 
3869.000000	99.407007 
3868.000000	99.409275 
3867.000000	99.418859 
3866.000000	99.435427 
3865.000000	99.451018 
3864.000000	99.459111 
3863.000000	99.458204 
3862.000000	99.451184 
3861.000000	99.440798 
3860.000000	99.427430 
3859.000000	99.410010 
3858.000000	99.386108 
3857.000000	99.356131 
3856.000000	99.328182 
3855.000000	99.317520 
3854.000000	99.328653 
3853.000000	99.343086 
3852.000000	99.353111 
3851.000000	99.376422 
3850.000000	99.414023 
3849.000000	99.445924 
3848.000000	99.460458 
3847.000000	99.460272 
3846.000000	99.453279 
3845.000000	99.445684 
3844.000000	99.439608 
3843.000000	99.434101 
3842.000000	99.428237 
3841.000000	99.423945 
3840.000000	99.424430 
3839.000000	99.429753 
3838.000000	99.434442 
3837.000000	99.433356 
3836.000000	99.427778 
3835.000000	99.422966 
3834.000000	99.421751 
3833.000000	99.424111 
3832.000000	99.429378 
3831.000000	99.436750 
3830.000000	99.446021 
3829.000000	99.456825 
3828.000000	99.466140 
3827.000000	99.468520 
3826.000000	99.460267 
3825.000000	99.444283 
3824.000000	99.429135 
3823.000000	99.422494 
3822.000000	99.423915 
3821.000000	99.423158 
3820.000000	99.414038 
3819.000000	99.406871 
3818.000000	99.411290 
3817.000000	99.422568 
3816.000000	99.430623 
3815.000000	99.430581 
3814.000000	99.428903 
3813.000000	99.432372 
3812.000000	99.435223 
3811.000000	99.429762 
3810.000000	99.419329 
3809.000000	99.413622 
3808.000000	99.415977 
3807.000000	99.418077 
3806.000000	99.411860 
3805.000000	99.403395 
3804.000000	99.404203 
3803.000000	99.415834 
3802.000000	99.428628 
3801.000000	99.429169 
3800.000000	99.418216 
3799.000000	99.413210 
3798.000000	99.421229 
3797.000000	99.432691 
3796.000000	99.438330 
3795.000000	99.438249 
3794.000000	99.439431 
3793.000000	99.446237 
3792.000000	99.455983 
3791.000000	99.463114 
3790.000000	99.464729 
3789.000000	99.462217 
3788.000000	99.460171 
3787.000000	99.463402 
3786.000000	99.472989 
3785.000000	99.484378 
3784.000000	99.491143 
3783.000000	99.490822 
3782.000000	99.486278 
3781.000000	99.481731 
3780.000000	99.478444 
3779.000000	99.474050 
3778.000000	99.466612 
3777.000000	99.458197 
3776.000000	99.451706 
3775.000000	99.447548 
3774.000000	99.444889 
3773.000000	99.443683 
3772.000000	99.443514 
3771.000000	99.441581 
3770.000000	99.434237 
3769.000000	99.422917 
3768.000000	99.415858 
3767.000000	99.419673 
3766.000000	99.431448 
3765.000000	99.442525 
3764.000000	99.447788 
3763.000000	99.449355 
3762.000000	99.451580 
3761.000000	99.456224 
3760.000000	99.462575 
3759.000000	99.467680 
3758.000000	99.467528 
3757.000000	99.460609 
3756.000000	99.449058 
3755.000000	99.437293 
3754.000000	99.428301 
3753.000000	99.421871 
3752.000000	99.415126 
3751.000000	99.402985 
3750.000000	99.383055 
3749.000000	99.361330 
3748.000000	99.347679 
3747.000000	99.347806 
3746.000000	99.362339 
3745.000000	99.384599 
3744.000000	99.396833 
3743.000000	99.393697 
3742.000000	99.393982 
3741.000000	99.401851 
3740.000000	99.401397 
3739.000000	99.387938 
3738.000000	99.371840 
3737.000000	99.364113 
3736.000000	99.366428 
3735.000000	99.375016 
3734.000000	99.388378 
3733.000000	99.405401 
3732.000000	99.420905 
3731.000000	99.430072 
3730.000000	99.434364 
3729.000000	99.437502 
3728.000000	99.440642 
3727.000000	99.443738 
3726.000000	99.447008 
3725.000000	99.451059 
3724.000000	99.455851 
3723.000000	99.458851 
3722.000000	99.457750 
3721.000000	99.454384 
3720.000000	99.453358 
3719.000000	99.456007 
3718.000000	99.457581 
3717.000000	99.451459 
3716.000000	99.435404 
3715.000000	99.414054 
3714.000000	99.395620 
3713.000000	99.386899 
3712.000000	99.388207 
3711.000000	99.393702 
3710.000000	99.399895 
3709.000000	99.407921 
3708.000000	99.416737 
3707.000000	99.421822 
3706.000000	99.419883 
3705.000000	99.412821 
3704.000000	99.406485 
3703.000000	99.405670 
3702.000000	99.409345 
3701.000000	99.412167 
3700.000000	99.412272 
3699.000000	99.412709 
3698.000000	99.414840 
3697.000000	99.415295 
3696.000000	99.410400 
3695.000000	99.401048 
3694.000000	99.391511 
3693.000000	99.384247 
3692.000000	99.378734 
3691.000000	99.374085 
3690.000000	99.369960 
3689.000000	99.365599 
3688.000000	99.361355 
3687.000000	99.361812 
3686.000000	99.370554 
3685.000000	99.382870 
3684.000000	99.389791 
3683.000000	99.387273 
3682.000000	99.377702 
3681.000000	99.364582 
3680.000000	99.348268 
3679.000000	99.328902 
3678.000000	99.311755 
3677.000000	99.305151 
3676.000000	99.309186 
3675.000000	99.310539 
3674.000000	99.304548 
3673.000000	99.302918 
3672.000000	99.310042 
3671.000000	99.321815 
3670.000000	99.334079 
3669.000000	99.341640 
3668.000000	99.346555 
3667.000000	99.354009 
3666.000000	99.361551 
3665.000000	99.365569 
3664.000000	99.367230 
3663.000000	99.369114 
3662.000000	99.370889 
3661.000000	99.369748 
3660.000000	99.364667 
3659.000000	99.359417 
3658.000000	99.359167 
3657.000000	99.363117 
3656.000000	99.363107 
3655.000000	99.354554 
3654.000000	99.343650 
3653.000000	99.337405 
3652.000000	99.337225 
3651.000000	99.341886 
3650.000000	99.347245 
3649.000000	99.348253 
3648.000000	99.348163 
3647.000000	99.354674 
3646.000000	99.368310 
3645.000000	99.383896 
3644.000000	99.397459 
3643.000000	99.407836 
3642.000000	99.414651 
3641.000000	99.417682 
3640.000000	99.418256 
3639.000000	99.419503 
3638.000000	99.423418 
3637.000000	99.429291 
3636.000000	99.434112 
3635.000000	99.433346 
3634.000000	99.423125 
3633.000000	99.403993 
3632.000000	99.383381 
3631.000000	99.372581 
3630.000000	99.378926 
3629.000000	99.393282 
3628.000000	99.397476 
3627.000000	99.394669 
3626.000000	99.400780 
3625.000000	99.415861 
3624.000000	99.429722 
3623.000000	99.435781 
3622.000000	99.433553 
3621.000000	99.426910 
3620.000000	99.420621 
3619.000000	99.416752 
3618.000000	99.415376 
3617.000000	99.417523 
3616.000000	99.422938 
3615.000000	99.427914 
3614.000000	99.427724 
3613.000000	99.419420 
3612.000000	99.404096 
3611.000000	99.387104 
3610.000000	99.375437 
3609.000000	99.374313 
3608.000000	99.384019 
3607.000000	99.399669 
3606.000000	99.415152 
3605.000000	99.426577 
3604.000000	99.433109 
3603.000000	99.436729 
3602.000000	99.439800 
3601.000000	99.442714 
3600.000000	99.444586 
3599.000000	99.445122 
3598.000000	99.444626 
3597.000000	99.442645 
3596.000000	99.438397 
3595.000000	99.432290 
3594.000000	99.426906 
3593.000000	99.425837 
3592.000000	99.430868 
3591.000000	99.439552 
3590.000000	99.447244 
3589.000000	99.450849 
3588.000000	99.449541 
3587.000000	99.443452 
3586.000000	99.434316 
3585.000000	99.425143 
3584.000000	99.417711 
3583.000000	99.413174 
3582.000000	99.413153 
3581.000000	99.417467 
3580.000000	99.422538 
3579.000000	99.424066 
3578.000000	99.421194 
3577.000000	99.417235 
3576.000000	99.416536 
3575.000000	99.420426 
3574.000000	99.426374 
3573.000000	99.430504 
3572.000000	99.430384 
3571.000000	99.425534 
3570.000000	99.416818 
3569.000000	99.407006 
3568.000000	99.400894 
3567.000000	99.402625 
3566.000000	99.412399 
3565.000000	99.426657 
3564.000000	99.439983 
3563.000000	99.448316 
3562.000000	99.451666 
3561.000000	99.452276 
3560.000000	99.450610 
3559.000000	99.444936 
3558.000000	99.434728 
3557.000000	99.423040 
3556.000000	99.414860 
3555.000000	99.413535 
3554.000000	99.418642 
3553.000000	99.426830 
3552.000000	99.434239 
3551.000000	99.438456 
3550.000000	99.438593 
3549.000000	99.434956 
3548.000000	99.429765 
3547.000000	99.426922 
3546.000000	99.428848 
3545.000000	99.433623 
3544.000000	99.436717 
3543.000000	99.435358 
3542.000000	99.430649 
3541.000000	99.425997 
3540.000000	99.424388 
3539.000000	99.426897 
3538.000000	99.432688 
3537.000000	99.439574 
3536.000000	99.444502 
3535.000000	99.444627 
3534.000000	99.438830 
3533.000000	99.428705 
3532.000000	99.417904 
3531.000000	99.410054 
3530.000000	99.406801 
3529.000000	99.407563 
3528.000000	99.411105 
3527.000000	99.416538 
3526.000000	99.422728 
3525.000000	99.427594 
3524.000000	99.429285 
3523.000000	99.428220 
3522.000000	99.427068 
3521.000000	99.428199 
3520.000000	99.431401 
3519.000000	99.434377 
3518.000000	99.435086 
3517.000000	99.433370 
3516.000000	99.430532 
3515.000000	99.428052 
3514.000000	99.427044 
3513.000000	99.428192 
3512.000000	99.431042 
3511.000000	99.433283 
3510.000000	99.432343 
3509.000000	99.428490 
3508.000000	99.425141 
3507.000000	99.424526 
3506.000000	99.423711 
3505.000000	99.416916 
3504.000000	99.402748 
3503.000000	99.387965 
3502.000000	99.382283 
3501.000000	99.389318 
3500.000000	99.403521 
3499.000000	99.415244 
3498.000000	99.417904 
3497.000000	99.411845 
3496.000000	99.403365 
3495.000000	99.400000 
3494.000000	99.405070 
3493.000000	99.415564 
3492.000000	99.425256 
3491.000000	99.429864 
3490.000000	99.429352 
3489.000000	99.426026 
3488.000000	99.421595 
3487.000000	99.416407 
3486.000000	99.410394 
3485.000000	99.403738 
3484.000000	99.397086 
3483.000000	99.391963 
3482.000000	99.390378 
3481.000000	99.393044 
3480.000000	99.398248 
3479.000000	99.403301 
3478.000000	99.406895 
3477.000000	99.409119 
3476.000000	99.409530 
3475.000000	99.406827 
3474.000000	99.401363 
3473.000000	99.396766 
3472.000000	99.397323 
3471.000000	99.403599 
3470.000000	99.411528 
3469.000000	99.416168 
3468.000000	99.415822 
3467.000000	99.412559 
3466.000000	99.409469 
3465.000000	99.408019 
3464.000000	99.407677 
3463.000000	99.407336 
3462.000000	99.406722 
3461.000000	99.406496 
3460.000000	99.407214 
3459.000000	99.408465 
3458.000000	99.409171 
3457.000000	99.408514 
3456.000000	99.406390 
3455.000000	99.403300 
3454.000000	99.400267 
3453.000000	99.398699 
3452.000000	99.399708 
3451.000000	99.403125 
3450.000000	99.407217 
3449.000000	99.409504 
3448.000000	99.408284 
3447.000000	99.403883 
3446.000000	99.398696 
3445.000000	99.395583 
3444.000000	99.395706 
3443.000000	99.397883 
3442.000000	99.400078 
3441.000000	99.401342 
3440.000000	99.402050 
3439.000000	99.402491 
3438.000000	99.402109 
3437.000000	99.400698 
3436.000000	99.399771 
3435.000000	99.401731 
3434.000000	99.407355 
3433.000000	99.414525 
3432.000000	99.419799 
3431.000000	99.421056 
3430.000000	99.418455 
3429.000000	99.413423 
3428.000000	99.407633 
3427.000000	99.402742 
3426.000000	99.399993 
3425.000000	99.399287 
3424.000000	99.399019 
3423.000000	99.397547 
3422.000000	99.394959 
3421.000000	99.393063 
3420.000000	99.393517 
3419.000000	99.396259 
3418.000000	99.399870 
3417.000000	99.403013 
3416.000000	99.405018 
3415.000000	99.405332 
3414.000000	99.403255 
3413.000000	99.398792 
3412.000000	99.393577 
3411.000000	99.390247 
3410.000000	99.390444 
3409.000000	99.393432 
3408.000000	99.396776 
3407.000000	99.398417 
3406.000000	99.398112 
3405.000000	99.396991 
3404.000000	99.396145 
3403.000000	99.396022 
3402.000000	99.397145 
3401.000000	99.400587 
3400.000000	99.406672 
3399.000000	99.413291 
3398.000000	99.416835 
3397.000000	99.415684 
3396.000000	99.412127 
3395.000000	99.409876 
3394.000000	99.410206 
3393.000000	99.411489 
3392.000000	99.412018 
3391.000000	99.411820 
3390.000000	99.411363 
3389.000000	99.410020 
3388.000000	99.407094 
3387.000000	99.403723 
3386.000000	99.402381 
3385.000000	99.404042 
3384.000000	99.406457 
3383.000000	99.405957 
3382.000000	99.401093 
3381.000000	99.394194 
3380.000000	99.389151 
3379.000000	99.387826 
3378.000000	99.389041 
3377.000000	99.391118 
3376.000000	99.394429 
3375.000000	99.400507 
3374.000000	99.409058 
3373.000000	99.417067 
3372.000000	99.421372 
3371.000000	99.421625 
3370.000000	99.420356 
3369.000000	99.420453 
3368.000000	99.422657 
3367.000000	99.424999 
3366.000000	99.424261 
3365.000000	99.418399 
3364.000000	99.408174 
3363.000000	99.396770 
3362.000000	99.387857 
3361.000000	99.383708 
3360.000000	99.384464 
3359.000000	99.388447 
3358.000000	99.393314 
3357.000000	99.397682 
3356.000000	99.401876 
3355.000000	99.406582 
3354.000000	99.410726 
3353.000000	99.411696 
3352.000000	99.408415 
3351.000000	99.403673 
3350.000000	99.402319 
3349.000000	99.406755 
3348.000000	99.414469 
3347.000000	99.420280 
3346.000000	99.421026 
3345.000000	99.418105 
3344.000000	99.415474 
3343.000000	99.415154 
3342.000000	99.415166 
3341.000000	99.412432 
3340.000000	99.407188 
3339.000000	99.403060 
3338.000000	99.402458 
3337.000000	99.403564 
3336.000000	99.403230 
3335.000000	99.401726 
3334.000000	99.402474 
3333.000000	99.407160 
3332.000000	99.413111 
3331.000000	99.416305 
3330.000000	99.415655 
3329.000000	99.413336 
3328.000000	99.411839 
3327.000000	99.411978 
3326.000000	99.413391 
3325.000000	99.415639 
3324.000000	99.418316 
3323.000000	99.420652 
3322.000000	99.421497 
3321.000000	99.419809 
3320.000000	99.415370 
3319.000000	99.409299 
3318.000000	99.403772 
3317.000000	99.400915 
3316.000000	99.401769 
3315.000000	99.406051 
3314.000000	99.412376 
3313.000000	99.418547 
3312.000000	99.422353 
3311.000000	99.422872 
3310.000000	99.420917 
3309.000000	99.417793 
3308.000000	99.414001 
3307.000000	99.409857 
3306.000000	99.406914 
3305.000000	99.407246 
3304.000000	99.410787 
3303.000000	99.414581 
3302.000000	99.415911 
3301.000000	99.415697 
3300.000000	99.417469 
3299.000000	99.422842 
3298.000000	99.428995 
3297.000000	99.431203 
3296.000000	99.427475 
3295.000000	99.420275 
3294.000000	99.413995 
3293.000000	99.411329 
3292.000000	99.411988 
3291.000000	99.414297 
3290.000000	99.417322 
3289.000000	99.421091 
3288.000000	99.425198 
3287.000000	99.428197 
3286.000000	99.428891 
3285.000000	99.427620 
3284.000000	99.425394 
3283.000000	99.422016 
3282.000000	99.416238 
3281.000000	99.408189 
3280.000000	99.400583 
3279.000000	99.396463 
3278.000000	99.396067 
3277.000000	99.396902 
3276.000000	99.397065 
3275.000000	99.397760 
3274.000000	99.401863 
3273.000000	99.410148 
3272.000000	99.419616 
3271.000000	99.425958 
3270.000000	99.427435 
3269.000000	99.425766 
3268.000000	99.423310 
3267.000000	99.420574 
3266.000000	99.417441 
3265.000000	99.415806 
3264.000000	99.418806 
3263.000000	99.426659 
3262.000000	99.434902 
3261.000000	99.438379 
3260.000000	99.436466 
3259.000000	99.433105 
3258.000000	99.431843 
3257.000000	99.432141 
3256.000000	99.431026 
3255.000000	99.427578 
3254.000000	99.424672 
3253.000000	99.425735 
3252.000000	99.429998 
3251.000000	99.432112 
3250.000000	99.427669 
3249.000000	99.418837 
3248.000000	99.412727 
3247.000000	99.413431 
3246.000000	99.417382 
3245.000000	99.418282 
3244.000000	99.415350 
3243.000000	99.414105 
3242.000000	99.419208 
3241.000000	99.429207 
3240.000000	99.438974 
3239.000000	99.444974 
3238.000000	99.446578 
3237.000000	99.443784 
3236.000000	99.436268 
3235.000000	99.425210 
3234.000000	99.414664 
3233.000000	99.409782 
3232.000000	99.413069 
3231.000000	99.422233 
3230.000000	99.431990 
3229.000000	99.438319 
3228.000000	99.440751 
3227.000000	99.440249 
3226.000000	99.435998 
3225.000000	99.426294 
3224.000000	99.412786 
3223.000000	99.401595 
3222.000000	99.398356 
3221.000000	99.402853 
3220.000000	99.410125 
3219.000000	99.416535 
3218.000000	99.422873 
3217.000000	99.430948 
3216.000000	99.439042 
3215.000000	99.442692 
3214.000000	99.439884 
3213.000000	99.433774 
3212.000000	99.429309 
3211.000000	99.428137 
3210.000000	99.428223 
3209.000000	99.427952 
3208.000000	99.428394 
3207.000000	99.430556 
3206.000000	99.432402 
3205.000000	99.431104 
3204.000000	99.427802 
3203.000000	99.427511 
3202.000000	99.433367 
3201.000000	99.442729 
3200.000000	99.450188 
3199.000000	99.453105 
3198.000000	99.452845 
3197.000000	99.451594 
3196.000000	99.449880 
3195.000000	99.447169 
3194.000000	99.443342 
3193.000000	99.439035 
3192.000000	99.435237 
3191.000000	99.432786 
3190.000000	99.431820 
3189.000000	99.431771 
3188.000000	99.432394 
3187.000000	99.434483 
3186.000000	99.438713 
3185.000000	99.443797 
3184.000000	99.446774 
3183.000000	99.445513 
3182.000000	99.440426 
3181.000000	99.433560 
3180.000000	99.426837 
3179.000000	99.421660 
3178.000000	99.419266 
3177.000000	99.420022 
3176.000000	99.422212 
3175.000000	99.422814 
3174.000000	99.420650 
3173.000000	99.418470 
3172.000000	99.420495 
3171.000000	99.427213 
3170.000000	99.433758 
3169.000000	99.434979 
3168.000000	99.431803 
3167.000000	99.430692 
3166.000000	99.436169 
3165.000000	99.445453 
3164.000000	99.451798 
3163.000000	99.452071 
3162.000000	99.449319 
3161.000000	99.448221 
3160.000000	99.450086 
3159.000000	99.453150 
3158.000000	99.456177 
3157.000000	99.459827 
3156.000000	99.464423 
3155.000000	99.467814 
3154.000000	99.466763 
3153.000000	99.460503 
3152.000000	99.452127 
3151.000000	99.445798 
3150.000000	99.443069 
3149.000000	99.442834 
3148.000000	99.444374 
3147.000000	99.448565 
3146.000000	99.455323 
3145.000000	99.461643 
3144.000000	99.464295 
3143.000000	99.464025 
3142.000000	99.464914 
3141.000000	99.468875 
3140.000000	99.472365 
3139.000000	99.469890 
3138.000000	99.460324 
3137.000000	99.448626 
3136.000000	99.441163 
3135.000000	99.440206 
3134.000000	99.443595 
3133.000000	99.448996 
3132.000000	99.456603 
3131.000000	99.466411 
3130.000000	99.474200 
3129.000000	99.473352 
3128.000000	99.462176 
3127.000000	99.447662 
3126.000000	99.439601 
3125.000000	99.441241 
3124.000000	99.447386 
3123.000000	99.451233 
3122.000000	99.450710 
3121.000000	99.447826 
3120.000000	99.444597 
3119.000000	99.441670 
3118.000000	99.439684 
3117.000000	99.439776 
3116.000000	99.442461 
3115.000000	99.446868 
3114.000000	99.451072 
3113.000000	99.452779 
3112.000000	99.450332 
3111.000000	99.444023 
3110.000000	99.436277 
3109.000000	99.429869 
3108.000000	99.426137 
3107.000000	99.425266 
3106.000000	99.427349 
3105.000000	99.431931 
3104.000000	99.437141 
3103.000000	99.441099 
3102.000000	99.444499 
3101.000000	99.450067 
3100.000000	99.458328 
3099.000000	99.465077 
3098.000000	99.464903 
3097.000000	99.457350 
3096.000000	99.448242 
3095.000000	99.444098 
3094.000000	99.445996 
3093.000000	99.449912 
3092.000000	99.452196 
3091.000000	99.452953 
3090.000000	99.453884 
3089.000000	99.454900 
3088.000000	99.454662 
3087.000000	99.453582 
3086.000000	99.454090 
3085.000000	99.457411 
3084.000000	99.461586 
3083.000000	99.463673 
3082.000000	99.463138 
3081.000000	99.462202 
3080.000000	99.463225 
3079.000000	99.466416 
3078.000000	99.469898 
3077.000000	99.471478 
3076.000000	99.470437 
3075.000000	99.467850 
3074.000000	99.465227 
3073.000000	99.463133 
3072.000000	99.461749 
3071.000000	99.462402 
3070.000000	99.466714 
3069.000000	99.473173 
3068.000000	99.476032 
3067.000000	99.469998 
3066.000000	99.456315 
3065.000000	99.442513 
3064.000000	99.435292 
3063.000000	99.434731 
3062.000000	99.436235 
3061.000000	99.436801 
3060.000000	99.437645 
3059.000000	99.440907 
3058.000000	99.445709 
3057.000000	99.448734 
3056.000000	99.448044 
3055.000000	99.444895 
3054.000000	99.441621 
3053.000000	99.439128 
3052.000000	99.437352 
3051.000000	99.437147 
3050.000000	99.439874 
3049.000000	99.444760 
3048.000000	99.448115 
3047.000000	99.446441 
3046.000000	99.440051 
3045.000000	99.432912 
3044.000000	99.429005 
3043.000000	99.429261 
3042.000000	99.431622 
3041.000000	99.433145 
3040.000000	99.431985 
3039.000000	99.428301 
3038.000000	99.424008 
3037.000000	99.421510 
3036.000000	99.422072 
3035.000000	99.425126 
3034.000000	99.429000 
3033.000000	99.432226 
3032.000000	99.434140 
3031.000000	99.434474 
3030.000000	99.432545 
3029.000000	99.426960 
3028.000000	99.416451 
3027.000000	99.401550 
3026.000000	99.385464 
3025.000000	99.372585 
3024.000000	99.365364 
3023.000000	99.362525 
3022.000000	99.360536 
3021.000000	99.356780 
3020.000000	99.351198 
3019.000000	99.345254 
3018.000000	99.340013 
3017.000000	99.335506 
3016.000000	99.331300 
3015.000000	99.326834 
3014.000000	99.321154 
3013.000000	99.313272 
3012.000000	99.303484 
3011.000000	99.293859 
3010.000000	99.286364 
3009.000000	99.280287 
3008.000000	99.272320 
3007.000000	99.259843 
3006.000000	99.243977 
3005.000000	99.229010 
3004.000000	99.218829 
3003.000000	99.214097 
3002.000000	99.212481 
3001.000000	99.210740 
3000.000000	99.206294 
2999.000000	99.197615 
2998.000000	99.184658 
2997.000000	99.169830 
2996.000000	99.157804 
2995.000000	99.152386 
2994.000000	99.152142 
2993.000000	99.149932 
2992.000000	99.138815 
2991.000000	99.119271 
2990.000000	99.099544 
2989.000000	99.087963 
2988.000000	99.085669 
2987.000000	99.087669 
2986.000000	99.089711 
2985.000000	99.092104 
2984.000000	99.097024 
2983.000000	99.104501 
2982.000000	99.112338 
2981.000000	99.118551 
2980.000000	99.122425 
2979.000000	99.123635 
2978.000000	99.121783 
2977.000000	99.117051 
2976.000000	99.110556 
2975.000000	99.103830 
2974.000000	99.098094 
2973.000000	99.093752 
2972.000000	99.090121 
2971.000000	99.086043 
2970.000000	99.081512 
2969.000000	99.078593 
2968.000000	99.079836 
2967.000000	99.085418 
2966.000000	99.092291 
2965.000000	99.096601 
2964.000000	99.096965 
2963.000000	99.095521 
2962.000000	99.096032 
2961.000000	99.100695 
2960.000000	99.108243 
2959.000000	99.115073 
2958.000000	99.118694 
2957.000000	99.119961 
2956.000000	99.121398 
2955.000000	99.123607 
2954.000000	99.124547 
2953.000000	99.123100 
2952.000000	99.122236 
2951.000000	99.127071 
2950.000000	99.139354 
2949.000000	99.154647 
2948.000000	99.165557 
2947.000000	99.167580 
2946.000000	99.161822 
2945.000000	99.152748 
2944.000000	99.144263 
2943.000000	99.137904 
2942.000000	99.133468 
2941.000000	99.130006 
2940.000000	99.126071 
2939.000000	99.120094 
2938.000000	99.111487 
2937.000000	99.101372 
2936.000000	99.091837 
2935.000000	99.084373 
2934.000000	99.078983 
2933.000000	99.074319 
2932.000000	99.068276 
2931.000000	99.058961 
2930.000000	99.046021 
2929.000000	99.031255 
2928.000000	99.017405 
2927.000000	99.006172 
2926.000000	98.997763 
2925.000000	98.992279 
2924.000000	98.990782 
2923.000000	98.994517 
2922.000000	99.003328 
2921.000000	99.015143 
2920.000000	99.026907 
2919.000000	99.036096 
2918.000000	99.041942 
2917.000000	99.045649 
2916.000000	99.049362 
2915.000000	99.054761 
2914.000000	99.062484 
2913.000000	99.072320 
2912.000000	99.083104 
2911.000000	99.092502 
2910.000000	99.098128 
2909.000000	99.099732 
2908.000000	99.099813 
2907.000000	99.101248 
2906.000000	99.104404 
2905.000000	99.107044 
2904.000000	99.106879 
2903.000000	99.103949 
2902.000000	99.100967 
2901.000000	99.101970 
2900.000000	99.109912 
2899.000000	99.124285 
2898.000000	99.140555 
2897.000000	99.152867 
2896.000000	99.158391 
2895.000000	99.159225 
2894.000000	99.160027 
2893.000000	99.163784 
2892.000000	99.169816 
2891.000000	99.175293 
2890.000000	99.178229 
2889.000000	99.179040 
2888.000000	99.179577 
2887.000000	99.181103 
2886.000000	99.183481 
2885.000000	99.186060 
2884.000000	99.188572 
2883.000000	99.190834 
2882.000000	99.192428 
2881.000000	99.193908 
2880.000000	99.198194 
2879.000000	99.209256 
2878.000000	99.228050 
2877.000000	99.249737 
2876.000000	99.265826 
2875.000000	99.270024 
2874.000000	99.262767 
2873.000000	99.250737 
2872.000000	99.242055 
2871.000000	99.240988 
2870.000000	99.246104 
2869.000000	99.252540 
2868.000000	99.256128 
2867.000000	99.256194 
2866.000000	99.255378 
2865.000000	99.257042 
2864.000000	99.262186 
2863.000000	99.268253 
2862.000000	99.271020 
2861.000000	99.268206 
2860.000000	99.261469 
2859.000000	99.254822 
2858.000000	99.251240 
2857.000000	99.250973 
2856.000000	99.252661 
2855.000000	99.255403 
2854.000000	99.259583 
2853.000000	99.266115 
2852.000000	99.275232 
2851.000000	99.286034 
2850.000000	99.297206 
2849.000000	99.308112 
2848.000000	99.318926 
2847.000000	99.329667 
2846.000000	99.339551 
2845.000000	99.347681 
2844.000000	99.354140 
2843.000000	99.360043 
2842.000000	99.366716 
2841.000000	99.374969 
2840.000000	99.384555 
2839.000000	99.393651 
2838.000000	99.399310 
2837.000000	99.399545 
2836.000000	99.395276 
2835.000000	99.389881 
2834.000000	99.386783 
2833.000000	99.387709 
2832.000000	99.392617 
2831.000000	99.400249 
2830.000000	99.408720 
2829.000000	99.416555 
2828.000000	99.423504 
2827.000000	99.429719 
2826.000000	99.434167 
2825.000000	99.434980 
2824.000000	99.431947 
2823.000000	99.427814 
2822.000000	99.426273 
2821.000000	99.428960 
2820.000000	99.434780 
2819.000000	99.441594 
2818.000000	99.447867 
2817.000000	99.453031 
2816.000000	99.457083 
2815.000000	99.460020 
2814.000000	99.461378 
2813.000000	99.460387 
2812.000000	99.456832 
2811.000000	99.451704 
2810.000000	99.446899 
2809.000000	99.444350 
2808.000000	99.445157 
2807.000000	99.448868 
2806.000000	99.453348 
2805.000000	99.456050 
2804.000000	99.456187 
2803.000000	99.455513 
2802.000000	99.456515 
2801.000000	99.459865 
2800.000000	99.463842 
2799.000000	99.466012 
2798.000000	99.465140 
2797.000000	99.461690 
2796.000000	99.456991 
2795.000000	99.452194 
2794.000000	99.447921 
2793.000000	99.444644 
2792.000000	99.442934 
2791.000000	99.443078 
2790.000000	99.444714 
2789.000000	99.447235 
2788.000000	99.450253 
2787.000000	99.453139 
2786.000000	99.454669 
2785.000000	99.454298 
2784.000000	99.453712 
2783.000000	99.455592 
2782.000000	99.460160 
2781.000000	99.464137 
2780.000000	99.464107 
2779.000000	99.460259 
2778.000000	99.455960 
2777.000000	99.454323 
2776.000000	99.456036 
2775.000000	99.459755 
2774.000000	99.463261 
2773.000000	99.464524 
2772.000000	99.463041 
2771.000000	99.460504 
2770.000000	99.459441 
2769.000000	99.460976 
2768.000000	99.464308 
2767.000000	99.468005 
2766.000000	99.470980 
2765.000000	99.472508 
2764.000000	99.472508 
2763.000000	99.472130 
2762.000000	99.473151 
2761.000000	99.476292 
2760.000000	99.480535 
2759.000000	99.484189 
2758.000000	99.486063 
2757.000000	99.485664 
2756.000000	99.483238 
2755.000000	99.480076 
2754.000000	99.478049 
2753.000000	99.478194 
2752.000000	99.479942 
2751.000000	99.481947 
2750.000000	99.483122 
2749.000000	99.482647 
2748.000000	99.479778 
2747.000000	99.474541 
2746.000000	99.468431 
2745.000000	99.463692 
2744.000000	99.461676 
2743.000000	99.462181 
2742.000000	99.464344 
2741.000000	99.467738 
2740.000000	99.472342 
2739.000000	99.477648 
2738.000000	99.482318 
2737.000000	99.485110 
2736.000000	99.486135 
2735.000000	99.486751 
2734.000000	99.487992 
2733.000000	99.489429 
2732.000000	99.489926 
2731.000000	99.489196 
2730.000000	99.488043 
2729.000000	99.487193 
2728.000000	99.486445 
2727.000000	99.484981 
2726.000000	99.482047 
2725.000000	99.477472 
2724.000000	99.472247 
2723.000000	99.468634 
2722.000000	99.468839 
2721.000000	99.472980 
2720.000000	99.478746 
2719.000000	99.483355 
2718.000000	99.485500 
2717.000000	99.485370 
2716.000000	99.483775 
2715.000000	99.482020 
2714.000000	99.481857 
2713.000000	99.484203 
2712.000000	99.487722 
2711.000000	99.489669 
2710.000000	99.488752 
2709.000000	99.486677 
2708.000000	99.486362 
2707.000000	99.488835 
2706.000000	99.492406 
2705.000000	99.494856 
2704.000000	99.495829 
2703.000000	99.496536 
2702.000000	99.497407 
2701.000000	99.496989 
2700.000000	99.493816 
2699.000000	99.488773 
2698.000000	99.484483 
2697.000000	99.482305 
2696.000000	99.481181 
2695.000000	99.480081 
2694.000000	99.480239 
2693.000000	99.483224 
2692.000000	99.487309 
2691.000000	99.488133 
2690.000000	99.484058 
2689.000000	99.479280 
2688.000000	99.479567 
2687.000000	99.485357 
2686.000000	99.491008 
2685.000000	99.491342 
2684.000000	99.487265 
2683.000000	99.483860 
2682.000000	99.484173 
2681.000000	99.486679 
2680.000000	99.488420 
2679.000000	99.488523 
2678.000000	99.487821 
2677.000000	99.486541 
2676.000000	99.484008 
2675.000000	99.480328 
2674.000000	99.477018 
2673.000000	99.475520 
2672.000000	99.475642 
2671.000000	99.475754 
2670.000000	99.474331 
2669.000000	99.471431 
2668.000000	99.469038 
2667.000000	99.469685 
2666.000000	99.474021 
2665.000000	99.479798 
2664.000000	99.484153 
2663.000000	99.486984 
2662.000000	99.490864 
2661.000000	99.496847 
2660.000000	99.501620 
2659.000000	99.500518 
2658.000000	99.493162 
2657.000000	99.484464 
2656.000000	99.479567 
2655.000000	99.479137 
2654.000000	99.480244 
2653.000000	99.480364 
2652.000000	99.479044 
2651.000000	99.476738 
2650.000000	99.474158 
2649.000000	99.472697 
2648.000000	99.473373 
2647.000000	99.474740 
2646.000000	99.473609 
2645.000000	99.468993 
2644.000000	99.463815 
2643.000000	99.461257 
2642.000000	99.460704 
2641.000000	99.459328 
2640.000000	99.456981 
2639.000000	99.457009 
2638.000000	99.461949 
2637.000000	99.470608 
2636.000000	99.480111 
2635.000000	99.488811 
2634.000000	99.496031 
2633.000000	99.500822 
2632.000000	99.502835 
2631.000000	99.503171 
2630.000000	99.502401 
2629.000000	99.498841 
2628.000000	99.491275 
2627.000000	99.483081 
2626.000000	99.480742 
2625.000000	99.487123 
2624.000000	99.498024 
2623.000000	99.506484 
2622.000000	99.509036 
2621.000000	99.506663 
2620.000000	99.501530 
2619.000000	99.495178 
2618.000000	99.489168 
2617.000000	99.484721 
2616.000000	99.480801 
2615.000000	99.474348 
2614.000000	99.464039 
2613.000000	99.453454 
2612.000000	99.449413 
2611.000000	99.456594 
2610.000000	99.473381 
2609.000000	99.492432 
2608.000000	99.505547 
2607.000000	99.509315 
2606.000000	99.506911 
2605.000000	99.503998 
2604.000000	99.502456 
2603.000000	99.498993 
2602.000000	99.490578 
2601.000000	99.479795 
2600.000000	99.472716 
2599.000000	99.472012 
2598.000000	99.474896 
2597.000000	99.478427 
2596.000000	99.483523 
2595.000000	99.491152 
2594.000000	99.497096 
2593.000000	99.495102 
2592.000000	99.485620 
2591.000000	99.477446 
2590.000000	99.478682 
2589.000000	99.488581 
2588.000000	99.500378 
2587.000000	99.509619 
2586.000000	99.516206 
2585.000000	99.519597 
2584.000000	99.516772 
2583.000000	99.506697 
2582.000000	99.493973 
2581.000000	99.485387 
2580.000000	99.483493 
2579.000000	99.484949 
2578.000000	99.484585 
2577.000000	99.479985 
2576.000000	99.472822 
2575.000000	99.467170 
2574.000000	99.466373 
2573.000000	99.470305 
2572.000000	99.475355 
2571.000000	99.477636 
2570.000000	99.476005 
2569.000000	99.471484 
2568.000000	99.464824 
2567.000000	99.456694 
2566.000000	99.450240 
2565.000000	99.450693 
2564.000000	99.460148 
2563.000000	99.473615 
2562.000000	99.482541 
2561.000000	99.482775 
2560.000000	99.477783 
2559.000000	99.473597 
2558.000000	99.472028 
2557.000000	99.470137 
2556.000000	99.465804 
2555.000000	99.462033 
2554.000000	99.464505 
2553.000000	99.474897 
2552.000000	99.487647 
2551.000000	99.494649 
2550.000000	99.493483 
2549.000000	99.489873 
2548.000000	99.490943 
2547.000000	99.497076 
2546.000000	99.502374 
2545.000000	99.502729 
2544.000000	99.500539 
2543.000000	99.500294 
2542.000000	99.502155 
2541.000000	99.502520 
2540.000000	99.499536 
2539.000000	99.494997 
2538.000000	99.490979 
2537.000000	99.487558 
2536.000000	99.484624 
2535.000000	99.483440 
2534.000000	99.484673 
2533.000000	99.486332 
2532.000000	99.485586 
2531.000000	99.482201 
2530.000000	99.478725 
2529.000000	99.477126 
2528.000000	99.476276 
2527.000000	99.473463 
2526.000000	99.468386 
2525.000000	99.465039 
2524.000000	99.468649 
2523.000000	99.480119 
2522.000000	99.494159 
2521.000000	99.503704 
2520.000000	99.505623 
2519.000000	99.501422 
2518.000000	99.493980 
2517.000000	99.486164 
2516.000000	99.481947 
2515.000000	99.485034 
2514.000000	99.494332 
2513.000000	99.502761 
2512.000000	99.503006 
2511.000000	99.494442 
2510.000000	99.483741 
2509.000000	99.479181 
2508.000000	99.484305 
2507.000000	99.495514 
2506.000000	99.505369 
2505.000000	99.509989 
2504.000000	99.513688 
2503.000000	99.523618 
2502.000000	99.538519 
2501.000000	99.546178 
2500.000000	99.535672 
2499.000000	99.510726 
2498.000000	99.487373 
2497.000000	99.478780 
2496.000000	99.485060 
2495.000000	99.496735 
2494.000000	99.503671 
2493.000000	99.499940 
2492.000000	99.485187 
2491.000000	99.465663 
2490.000000	99.452526 
2489.000000	99.454846 
2488.000000	99.472136 
2487.000000	99.494104 
2486.000000	99.508546 
2485.000000	99.510545 
2484.000000	99.505097 
2483.000000	99.500967 
2482.000000	99.501723 
2481.000000	99.503285 
2480.000000	99.500709 
2479.000000	99.495507 
2478.000000	99.493581 
2477.000000	99.496616 
2476.000000	99.499188 
2475.000000	99.495807 
2474.000000	99.487897 
2473.000000	99.481519 
2472.000000	99.480003 
2471.000000	99.481480 
2470.000000	99.482580 
2469.000000	99.481603 
2468.000000	99.477860 
2467.000000	99.470513 
2466.000000	99.459807 
2465.000000	99.448901 
2464.000000	99.443243 
2463.000000	99.447129 
2462.000000	99.459758 
2461.000000	99.474289 
2460.000000	99.482166 
2459.000000	99.480123 
2458.000000	99.473131 
2457.000000	99.469604 
2456.000000	99.473490 
2455.000000	99.481241 
2454.000000	99.485910 
2453.000000	99.483603 
2452.000000	99.476661 
2451.000000	99.471726 
2450.000000	99.474315 
2449.000000	99.484044 
2448.000000	99.494931 
2447.000000	99.501067 
2446.000000	99.501703 
2445.000000	99.500356 
2444.000000	99.500249 
2443.000000	99.502425 
2442.000000	99.507279 
2441.000000	99.514569 
2440.000000	99.521025 
2439.000000	99.520966 
2438.000000	99.511867 
2437.000000	99.498000 
2436.000000	99.486177 
2435.000000	99.478492 
2434.000000	99.471674 
2433.000000	99.463355 
2432.000000	99.456068 
2431.000000	99.453608 
2430.000000	99.455496 
2429.000000	99.457567 
2428.000000	99.457914 
2427.000000	99.459937 
2426.000000	99.467793 
2425.000000	99.479456 
2424.000000	99.486457 
2423.000000	99.482106 
2422.000000	99.469321 
2421.000000	99.458426 
2420.000000	99.456668 
2419.000000	99.461728 
2418.000000	99.466661 
2417.000000	99.468993 
2416.000000	99.471883 
2415.000000	99.477024 
2414.000000	99.480559 
2413.000000	99.478014 
2412.000000	99.470696 
2411.000000	99.464322 
2410.000000	99.462327 
2409.000000	99.463110 
2408.000000	99.463625 
2407.000000	99.463290 
2406.000000	99.463841 
2405.000000	99.467161 
2404.000000	99.473945 
2403.000000	99.482873 
2402.000000	99.490222 
2401.000000	99.491700 
2400.000000	99.486116 
2399.000000	99.476614 
2398.000000	99.467385 
2397.000000	99.460001 
2396.000000	99.454190 
2395.000000	99.451285 
2394.000000	99.454454 
2393.000000	99.464578 
2392.000000	99.477378 
2391.000000	99.486371 
2390.000000	99.488610 
2389.000000	99.486548 
2388.000000	99.484480 
2387.000000	99.484572 
2386.000000	99.486587 
2385.000000	99.489353 
2384.000000	99.490693 
2383.000000	99.487576 
2382.000000	99.479954 
2381.000000	99.474664 
2380.000000	99.480972 
2379.000000	99.498501 
2378.000000	99.512170 
2377.000000	99.505263 
2376.000000	99.478974 
2375.000000	99.453948 
2374.000000	99.449664 
2373.000000	99.465488 
2372.000000	99.486218 
2371.000000	99.501807 
2370.000000	99.514198 
2369.000000	99.526110 
2368.000000	99.532924 
2367.000000	99.529183 
2366.000000	99.517273 
2365.000000	99.504991 
2364.000000	99.497727 
2363.000000	99.494424 
2362.000000	99.492083 
2361.000000	99.491946 
2360.000000	99.495979 
2359.000000	99.503904 
2358.000000	99.513771 
2357.000000	99.522974 
2356.000000	99.532848 
2355.000000	99.543142 
2354.000000	99.550459 
2353.000000	99.549866 
2352.000000	99.541580 
2351.000000	99.532495 
2350.000000	99.524537 
2349.000000	99.515016 
2348.000000	99.501334 
2347.000000	99.485659 
2346.000000	99.475620 
2345.000000	99.473495 
2344.000000	99.478967 
2343.000000	99.487375 
2342.000000	99.497115 
2341.000000	99.506655 
2340.000000	99.511483 
2339.000000	99.511457 
2338.000000	99.510020 
2337.000000	99.512470 
2336.000000	99.517495 
2335.000000	99.522160 
2334.000000	99.522936 
2333.000000	99.521999 
2332.000000	99.519315 
2331.000000	99.517202 
2330.000000	99.512399 
2329.000000	99.507560 
2328.000000	99.504922 
2327.000000	99.506864 
2326.000000	99.511078 
2325.000000	99.510901 
2324.000000	99.504086 
2323.000000	99.494258 
2322.000000	99.490401 
2321.000000	99.498238 
2320.000000	99.514070 
2319.000000	99.530743 
2318.000000	99.540020 
2317.000000	99.540531 
2316.000000	99.531751 
2315.000000	99.518342 
2314.000000	99.503418 
2313.000000	99.492246 
2312.000000	99.485904 
2311.000000	99.486633 
2310.000000	99.494024 
2309.000000	99.506676 
2308.000000	99.517099 
2307.000000	99.517633 
2306.000000	99.504710 
2305.000000	99.484143 
2304.000000	99.464542 
2303.000000	99.452480 
2302.000000	99.448297 
2301.000000	99.451047 
2300.000000	99.458369 
2299.000000	99.467912 
2298.000000	99.475443 
2297.000000	99.479148 
2296.000000	99.480047 
2295.000000	99.481054 
2294.000000	99.482554 
2293.000000	99.482332 
2292.000000	99.478258 
2291.000000	99.470752 
2290.000000	99.462531 
2289.000000	99.456284 
2288.000000	99.453119 
2287.000000	99.451540 
2286.000000	99.449070 
2285.000000	99.445071 
2284.000000	99.442642 
2283.000000	99.444997 
2282.000000	99.449883 
2281.000000	99.449368 
2280.000000	99.438189 
2279.000000	99.421473 
2278.000000	99.411269 
2277.000000	99.414699 
2276.000000	99.427126 
2275.000000	99.438581 
2274.000000	99.443849 
2273.000000	99.444251 
2272.000000	99.441283 
2271.000000	99.433902 
2270.000000	99.423635 
2269.000000	99.418323 
2268.000000	99.426112 
2267.000000	99.446227 
2266.000000	99.468743 
2265.000000	99.483905 
2264.000000	99.489240 
2263.000000	99.487928 
2262.000000	99.484356 
2261.000000	99.482429 
2260.000000	99.484269 
2259.000000	99.486544 
2258.000000	99.481265 
2257.000000	99.464793 
2256.000000	99.445317 
2255.000000	99.436861 
2254.000000	99.444819 
2253.000000	99.460880 
2252.000000	99.472445 
2251.000000	99.473829 
2250.000000	99.466988 
2249.000000	99.456235 
2248.000000	99.445485 
2247.000000	99.438431 
2246.000000	99.437016 
2245.000000	99.439211 
2244.000000	99.440419 
2243.000000	99.437955 
2242.000000	99.433279 
2241.000000	99.429547 
2240.000000	99.427782 
2239.000000	99.425940 
2238.000000	99.421545 
2237.000000	99.414193 
2236.000000	99.404566 
2235.000000	99.391739 
2234.000000	99.374348 
2233.000000	99.355893 
2232.000000	99.346178 
2231.000000	99.353898 
2230.000000	99.377986 
2229.000000	99.408464 
2228.000000	99.435175 
2227.000000	99.452963 
2226.000000	99.459519 
2225.000000	99.453927 
2224.000000	99.439477 
2223.000000	99.423923 
2222.000000	99.413853 
2221.000000	99.410382 
2220.000000	99.411534 
2219.000000	99.416132 
2218.000000	99.423398 
2217.000000	99.431525 
2216.000000	99.439514 
2215.000000	99.448402 
2214.000000	99.457617 
2213.000000	99.461529 
2212.000000	99.453260 
2211.000000	99.432541 
2210.000000	99.408331 
2209.000000	99.393339 
2208.000000	99.395596 
2207.000000	99.413127 
2206.000000	99.434550 
2205.000000	99.445575 
2204.000000	99.438252 
2203.000000	99.416306 
2202.000000	99.392242 
2201.000000	99.378491 
2200.000000	99.378762 
2199.000000	99.386152 
2198.000000	99.390429 
2197.000000	99.388448 
2196.000000	99.386429 
2195.000000	99.390720 
2194.000000	99.399064 
2193.000000	99.404322 
2192.000000	99.404559 
2191.000000	99.404196 
2190.000000	99.406002 
2189.000000	99.408222 
2188.000000	99.410754 
2187.000000	99.418111 
2186.000000	99.433053 
2185.000000	99.451108 
2184.000000	99.464162 
2183.000000	99.466798 
2182.000000	99.458161 
2181.000000	99.441950 
2180.000000	99.425798 
2179.000000	99.415856 
2178.000000	99.410511 
2177.000000	99.403648 
2176.000000	99.394879 
2175.000000	99.390839 
2174.000000	99.394536 
2173.000000	99.399895 
2172.000000	99.400248 
2171.000000	99.396408 
2170.000000	99.392932 
2169.000000	99.392135 
2168.000000	99.395358 
2167.000000	99.404075 
2166.000000	99.414873 
2165.000000	99.419151 
2164.000000	99.414280 
2163.000000	99.410194 
2162.000000	99.417915 
2161.000000	99.434845 
2160.000000	99.447058 
2159.000000	99.443335 
2158.000000	99.422511 
2157.000000	99.392314 
2156.000000	99.366732 
2155.000000	99.358573 
2154.000000	99.367435 
2153.000000	99.378280 
2152.000000	99.377805 
2151.000000	99.369269 
2150.000000	99.366403 
2149.000000	99.377234 
2148.000000	99.398964 
2147.000000	99.423711 
2146.000000	99.442295 
2145.000000	99.446849 
2144.000000	99.437979 
2143.000000	99.426742 
2142.000000	99.422855 
2141.000000	99.423436 
2140.000000	99.419555 
2139.000000	99.410723 
2138.000000	99.404631 
2137.000000	99.403900 
2136.000000	99.401960 
2135.000000	99.394069 
2134.000000	99.385529 
2133.000000	99.385117 
2132.000000	99.393712 
2131.000000	99.402502 
2130.000000	99.402011 
2129.000000	99.393144 
2128.000000	99.389289 
2127.000000	99.403950 
2126.000000	99.434475 
2125.000000	99.462266 
2124.000000	99.472958 
2123.000000	99.471738 
2122.000000	99.472957 
2121.000000	99.479309 
2120.000000	99.479943 
2119.000000	99.467578 
2118.000000	99.447989 
2117.000000	99.430890 
2116.000000	99.419294 
2115.000000	99.411531 
2114.000000	99.407657 
2113.000000	99.408842 
2112.000000	99.413547 
2111.000000	99.418253 
2110.000000	99.420345 
2109.000000	99.418532 
2108.000000	99.412897 
2107.000000	99.405932 
2106.000000	99.400754 
2105.000000	99.397047 
2104.000000	99.391842 
2103.000000	99.385684 
2102.000000	99.384347 
2101.000000	99.392118 
2100.000000	99.406219 
2099.000000	99.420005 
2098.000000	99.429369 
2097.000000	99.434185 
2096.000000	99.435779 
2095.000000	99.434662 
2094.000000	99.429102 
2093.000000	99.415851 
2092.000000	99.395082 
2091.000000	99.374699 
2090.000000	99.365583 
2089.000000	99.370382 
2088.000000	99.379914 
2087.000000	99.382985 
2086.000000	99.377131 
2085.000000	99.368306 
2084.000000	99.363608 
2083.000000	99.366892 
2082.000000	99.378302 
2081.000000	99.393868 
2080.000000	99.406646 
2079.000000	99.411512 
2078.000000	99.409133 
2077.000000	99.404341 
2076.000000	99.401524 
2075.000000	99.402146 
2074.000000	99.404809 
2073.000000	99.406587 
2072.000000	99.405554 
2071.000000	99.402792 
2070.000000	99.400569 
2069.000000	99.398630 
2068.000000	99.394935 
2067.000000	99.390296 
2066.000000	99.388713 
2065.000000	99.391712 
2064.000000	99.395692 
2063.000000	99.397210 
2062.000000	99.397794 
2061.000000	99.401198 
2060.000000	99.408300 
2059.000000	99.416854 
2058.000000	99.424060 
2057.000000	99.427317 
2056.000000	99.424509 
2055.000000	99.416167 
2054.000000	99.406761 
2053.000000	99.402523 
2052.000000	99.407799 
2051.000000	99.422313 
2050.000000	99.439202 
2049.000000	99.446168 
2048.000000	99.434263 
2047.000000	99.407944 
2046.000000	99.382718 
2045.000000	99.371387 
2044.000000	99.375006 
2043.000000	99.386262 
2042.000000	99.396406 
2041.000000	99.398812 
2040.000000	99.393229 
2039.000000	99.389167 
2038.000000	99.398493 
2037.000000	99.420308 
2036.000000	99.438117 
2035.000000	99.437139 
2034.000000	99.420080 
2033.000000	99.400669 
2032.000000	99.385977 
2031.000000	99.372057 
2030.000000	99.354326 
2029.000000	99.334233 
2028.000000	99.314955 
2027.000000	99.297201 
2026.000000	99.282843 
2025.000000	99.279711 
2024.000000	99.296974 
2023.000000	99.332387 
2022.000000	99.366287 
2021.000000	99.375054 
2020.000000	99.355595 
2019.000000	99.330716 
2018.000000	99.323673 
2017.000000	99.331871 
2016.000000	99.335583 
2015.000000	99.329591 
2014.000000	99.330299 
2013.000000	99.350699 
2012.000000	99.383394 
2011.000000	99.413498 
2010.000000	99.435355 
2009.000000	99.448725 
2008.000000	99.450088 
2007.000000	99.438697 
2006.000000	99.423169 
2005.000000	99.411677 
2004.000000	99.401853 
2003.000000	99.390074 
2002.000000	99.383911 
2001.000000	99.392837 
2000.000000	99.410453 
1999.000000	99.417424 
1998.000000	99.402724 
1997.000000	99.374233 
1996.000000	99.347962 
1995.000000	99.335164 
1994.000000	99.341052 
1993.000000	99.365590 
1992.000000	99.399365 
1991.000000	99.426264 
1990.000000	99.436195 
1989.000000	99.431078 
1988.000000	99.416740 
1987.000000	99.394624 
1986.000000	99.365294 
1985.000000	99.336700 
1984.000000	99.323553 
1983.000000	99.336400 
1982.000000	99.370664 
1981.000000	99.405212 
1980.000000	99.415823 
1979.000000	99.395833 
1978.000000	99.364200 
1977.000000	99.346808 
1976.000000	99.346884 
1975.000000	99.343925 
1974.000000	99.325413 
1973.000000	99.308202 
1972.000000	99.319380 
1971.000000	99.361140 
1970.000000	99.404521 
1969.000000	99.418491 
1968.000000	99.399788 
1967.000000	99.372050 
1966.000000	99.358447 
1965.000000	99.360755 
1964.000000	99.365589 
1963.000000	99.363589 
1962.000000	99.357371 
1961.000000	99.354313 
1960.000000	99.358138 
1959.000000	99.369164 
1958.000000	99.387371 
1957.000000	99.409854 
1956.000000	99.428410 
1955.000000	99.436044 
1954.000000	99.435602 
1953.000000	99.436960 
1952.000000	99.444006 
1951.000000	99.450109 
1950.000000	99.448661 
1949.000000	99.442418 
1948.000000	99.438727 
1947.000000	99.438000 
1946.000000	99.432153 
1945.000000	99.414524 
1944.000000	99.388037 
1943.000000	99.363218 
1942.000000	99.349551 
1941.000000	99.348340 
1940.000000	99.353171 
1939.000000	99.356826 
1938.000000	99.357990 
1937.000000	99.361533 
1936.000000	99.371577 
1935.000000	99.384889 
1934.000000	99.393570 
1933.000000	99.394673 
1932.000000	99.393715 
1931.000000	99.397720 
1930.000000	99.406286 
1929.000000	99.411511 
1928.000000	99.408056 
1927.000000	99.399037 
1926.000000	99.392322 
1925.000000	99.392026 
1924.000000	99.395525 
1923.000000	99.399377 
1922.000000	99.404509 
1921.000000	99.414132 
1920.000000	99.427324 
1919.000000	99.437189 
1918.000000	99.436398 
1917.000000	99.425086 
1916.000000	99.410582 
1915.000000	99.398188 
1914.000000	99.387965 
1913.000000	99.380625 
1912.000000	99.380183 
1911.000000	99.388747 
1910.000000	99.400522 
1909.000000	99.406027 
1908.000000	99.403875 
1907.000000	99.401697 
1906.000000	99.405909 
1905.000000	99.414226 
1904.000000	99.419731 
1903.000000	99.419786 
1902.000000	99.416209 
1901.000000	99.411328 
1900.000000	99.407711 
1899.000000	99.408106 
1898.000000	99.412910 
1897.000000	99.418234 
1896.000000	99.418961 
1895.000000	99.414298 
1894.000000	99.407501 
1893.000000	99.401766 
1892.000000	99.398763 
1891.000000	99.399565 
1890.000000	99.403642 
1889.000000	99.408168 
1888.000000	99.411738 
1887.000000	99.416159 
1886.000000	99.421902 
1885.000000	99.425117 
1884.000000	99.421627 
1883.000000	99.412992 
1882.000000	99.405243 
1881.000000	99.403398 
1880.000000	99.410249 
1879.000000	99.426605 
1878.000000	99.449539 
1877.000000	99.471576 
1876.000000	99.484595 
1875.000000	99.485882 
1874.000000	99.478281 
1873.000000	99.465388 
1872.000000	99.450082 
1871.000000	99.436509 
1870.000000	99.429043 
1869.000000	99.427385 
1868.000000	99.427039 
1867.000000	99.426590 
1866.000000	99.427424 
1865.000000	99.427863 
1864.000000	99.423584 
1863.000000	99.413291 
1862.000000	99.401188 
1861.000000	99.393167 
1860.000000	99.392720 
1859.000000	99.400474 
1858.000000	99.413840 
1857.000000	99.426182 
1856.000000	99.430649 
1855.000000	99.426827 
1854.000000	99.420496 
1853.000000	99.415292 
1852.000000	99.409703 
1851.000000	99.401579 
1850.000000	99.394022 
1849.000000	99.394711 
1848.000000	99.406781 
1847.000000	99.424262 
1846.000000	99.437430 
1845.000000	99.442291 
1844.000000	99.443917 
1843.000000	99.449222 
1842.000000	99.456376 
1841.000000	99.457147 
1840.000000	99.449225 
1839.000000	99.439246 
1838.000000	99.435687 
1837.000000	99.439267 
1836.000000	99.443329 
1835.000000	99.444075 
1834.000000	99.444093 
1833.000000	99.445987 
1832.000000	99.446845 
1831.000000	99.440243 
1830.000000	99.426002 
1829.000000	99.415027 
1828.000000	99.416434 
1827.000000	99.426549 
1826.000000	99.435896 
1825.000000	99.439146 
1824.000000	99.436750 
1823.000000	99.431321 
1822.000000	99.424282 
1821.000000	99.417796 
1820.000000	99.416035 
1819.000000	99.421316 
1818.000000	99.431328 
1817.000000	99.439874 
1816.000000	99.442482 
1815.000000	99.441253 
1814.000000	99.440559 
1813.000000	99.442103 
1812.000000	99.444392 
1811.000000	99.446673 
1810.000000	99.450425 
1809.000000	99.453636 
1808.000000	99.451237 
1807.000000	99.442450 
1806.000000	99.432521 
1805.000000	99.426922 
1804.000000	99.427053 
1803.000000	99.431979 
1802.000000	99.438848 
1801.000000	99.442707 
1800.000000	99.438764 
1799.000000	99.428081 
1798.000000	99.418173 
1797.000000	99.414891 
1796.000000	99.418341 
1795.000000	99.424933 
1794.000000	99.430524 
1793.000000	99.432114 
1792.000000	99.428315 
1791.000000	99.421794 
1790.000000	99.417485 
1789.000000	99.416539 
1788.000000	99.418324 
1787.000000	99.423675 
1786.000000	99.433643 
1785.000000	99.445415 
1784.000000	99.453349 
1783.000000	99.454926 
1782.000000	99.450433 
1781.000000	99.442661 
1780.000000	99.434516 
1779.000000	99.426525 
1778.000000	99.418882 
1777.000000	99.412393 
1776.000000	99.409709 
1775.000000	99.411501 
1774.000000	99.415783 
1773.000000	99.422390 
1772.000000	99.432524 
1771.000000	99.443230 
1770.000000	99.448436 
1769.000000	99.444157 
1768.000000	99.433015 
1767.000000	99.423153 
1766.000000	99.420486 
1765.000000	99.423875 
1764.000000	99.427944 
1763.000000	99.428150 
1762.000000	99.423165 
1761.000000	99.416400 
1760.000000	99.411268 
1759.000000	99.407574 
1758.000000	99.405152 
1757.000000	99.406495 
1756.000000	99.414631 
1755.000000	99.425591 
1754.000000	99.430589 
1753.000000	99.424939 
1752.000000	99.412342 
1751.000000	99.400184 
1750.000000	99.392938 
1749.000000	99.388827 
1748.000000	99.384646 
1747.000000	99.380377 
1746.000000	99.376064 
1745.000000	99.372783 
1744.000000	99.372199 
1743.000000	99.374874 
1742.000000	99.379514 
1741.000000	99.382722 
1740.000000	99.381430 
1739.000000	99.377789 
1738.000000	99.376946 
1737.000000	99.378635 
1736.000000	99.379980 
1735.000000	99.382924 
1734.000000	99.390279 
1733.000000	99.399830 
1732.000000	99.408163 
1731.000000	99.411824 
1730.000000	99.412819 
1729.000000	99.413988 
1728.000000	99.414857 
1727.000000	99.413122 
1726.000000	99.409147 
1725.000000	99.407887 
1724.000000	99.411480 
1723.000000	99.416769 
1722.000000	99.420423 
1721.000000	99.421044 
1720.000000	99.419598 
1719.000000	99.418676 
1718.000000	99.420390 
1717.000000	99.421844 
1716.000000	99.420194 
1715.000000	99.419505 
1714.000000	99.424508 
1713.000000	99.432792 
1712.000000	99.437506 
1711.000000	99.436339 
1710.000000	99.432429 
1709.000000	99.429277 
1708.000000	99.427450 
1707.000000	99.424956 
1706.000000	99.420867 
1705.000000	99.416220 
1704.000000	99.413326 
1703.000000	99.413001 
1702.000000	99.414487 
1701.000000	99.417381 
1700.000000	99.419555 
1699.000000	99.424266 
1698.000000	99.434227 
1697.000000	99.438878 
1696.000000	99.430797 
1695.000000	99.416310 
1694.000000	99.409267 
1693.000000	99.410459 
1692.000000	99.412553 
1691.000000	99.412770 
1690.000000	99.411658 
1689.000000	99.411026 
1688.000000	99.413907 
1687.000000	99.419508 
1686.000000	99.425426 
1685.000000	99.429320 
1684.000000	99.428312 
1683.000000	99.427297 
1682.000000	99.429902 
1681.000000	99.429309 
1680.000000	99.426016 
1679.000000	99.424157 
1678.000000	99.424352 
1677.000000	99.424351 
1676.000000	99.423256 
1675.000000	99.421503 
1674.000000	99.419646 
1673.000000	99.419052 
1672.000000	99.418862 
1671.000000	99.418475 
1670.000000	99.417016 
1669.000000	99.413468 
1668.000000	99.412038 
1667.000000	99.414964 
1666.000000	99.419082 
1665.000000	99.421273 
1664.000000	99.420767 
1663.000000	99.419616 
1662.000000	99.419069 
1661.000000	99.418913 
1660.000000	99.419517 
1659.000000	99.420257 
1658.000000	99.420018 
1657.000000	99.418750 
1656.000000	99.417104 
1655.000000	99.415592 
1654.000000	99.417585 
1653.000000	99.422455 
1652.000000	99.428224 
1651.000000	99.437941 
1650.000000	99.440983 
1649.000000	99.436323 
1648.000000	99.430067 
1647.000000	99.427492 
1646.000000	99.430292 
1645.000000	99.437443 
1644.000000	99.443434 
1643.000000	99.444481 
1642.000000	99.439799 
1641.000000	99.430411 
1640.000000	99.419897 
1639.000000	99.412093 
1638.000000	99.410337 
1637.000000	99.416561 
1636.000000	99.428704 
1635.000000	99.438205 
1634.000000	99.440776 
1633.000000	99.437293 
1632.000000	99.428740 
1631.000000	99.420144 
1630.000000	99.416157 
1629.000000	99.417540 
1628.000000	99.421486 
1627.000000	99.425329 
1626.000000	99.427406 
1625.000000	99.427344 
1624.000000	99.425764 
1623.000000	99.423149 
1622.000000	99.419704 
1621.000000	99.416317 
1620.000000	99.413966 
1619.000000	99.412618 
1618.000000	99.412617 
1617.000000	99.414261 
1616.000000	99.419033 
1615.000000	99.427517 
1614.000000	99.435584 
1613.000000	99.440094 
1612.000000	99.443121 
1611.000000	99.446943 
1610.000000	99.448572 
1609.000000	99.444120 
1608.000000	99.435877 
1607.000000	99.429873 
1606.000000	99.427903 
1605.000000	99.428102 
1604.000000	99.429671 
1603.000000	99.431980 
1602.000000	99.434439 
1601.000000	99.437565 
1600.000000	99.442653 
1599.000000	99.448940 
1598.000000	99.453383 
1597.000000	99.454465 
1596.000000	99.453656 
1595.000000	99.452828 
1594.000000	99.451796 
1593.000000	99.449968 
1592.000000	99.448722 
1591.000000	99.449833 
1590.000000	99.452730 
1589.000000	99.455626 
1588.000000	99.458215 
1587.000000	99.461029 
1586.000000	99.462974 
1585.000000	99.461924 
1584.000000	99.459056 
1583.000000	99.456575 
1582.000000	99.453835 
1581.000000	99.450084 
1580.000000	99.446733 
1579.000000	99.444081 
1578.000000	99.439891 
1577.000000	99.433183 
1576.000000	99.426418 
1575.000000	99.423862 
1574.000000	99.424650 
1573.000000	99.424531 
1572.000000	99.423681 
1571.000000	99.425913 
1570.000000	99.432570 
1569.000000	99.440041 
1568.000000	99.446447 
1567.000000	99.449726 
1566.000000	99.447393 
1565.000000	99.441116 
1564.000000	99.436329 
1563.000000	99.435687 
1562.000000	99.435935 
1561.000000	99.433243 
1560.000000	99.431078 
1559.000000	99.429928 
1558.000000	99.427622 
1557.000000	99.431633 
1556.000000	99.435455 
1555.000000	99.435898 
1554.000000	99.435116 
1553.000000	99.436255 
1552.000000	99.438471 
1551.000000	99.437851 
1550.000000	99.434405 
1549.000000	99.430893 
1548.000000	99.428836 
1547.000000	99.426053 
1546.000000	99.419545 
1545.000000	99.410945 
1544.000000	99.405694 
1543.000000	99.407858 
1542.000000	99.418052 
1541.000000	99.432592 
1540.000000	99.441884 
1539.000000	99.442294 
1538.000000	99.440778 
1537.000000	99.439409 
1536.000000	99.436883 
1535.000000	99.435040 
1534.000000	99.434128 
1533.000000	99.432742 
1532.000000	99.431368 
1531.000000	99.431080 
1530.000000	99.431861 
1529.000000	99.432624 
1528.000000	99.432876 
1527.000000	99.434520 
1526.000000	99.439745 
1525.000000	99.448227 
1524.000000	99.456801 
1523.000000	99.462641 
1522.000000	99.465354 
1521.000000	99.464838 
1520.000000	99.461581 
1519.000000	99.454702 
1518.000000	99.443031 
1517.000000	99.431368 
1516.000000	99.426375 
1515.000000	99.428808 
1514.000000	99.432659 
1513.000000	99.433545 
1512.000000	99.431561 
1511.000000	99.428757 
1510.000000	99.427152 
1509.000000	99.427875 
1508.000000	99.433756 
1507.000000	99.444018 
1506.000000	99.449282 
1505.000000	99.444473 
1504.000000	99.433909 
1503.000000	99.425358 
1502.000000	99.426581 
1501.000000	99.438215 
1500.000000	99.450716 
1499.000000	99.451933 
1498.000000	99.439426 
1497.000000	99.422343 
1496.000000	99.410878 
1495.000000	99.410312 
1494.000000	99.419386 
1493.000000	99.432060 
1492.000000	99.441819 
1491.000000	99.444720 
1490.000000	99.441842 
1489.000000	99.437222 
1488.000000	99.432518 
1487.000000	99.428897 
1486.000000	99.428127 
1485.000000	99.428264 
1484.000000	99.427516 
1483.000000	99.425790 
1482.000000	99.424696 
1481.000000	99.425390 
1480.000000	99.425820 
1479.000000	99.423451 
1478.000000	99.417994 
1477.000000	99.411798 
1476.000000	99.407262 
1475.000000	99.406383 
1474.000000	99.408249 
1473.000000	99.409041 
1472.000000	99.405926 
1471.000000	99.400814 
1470.000000	99.396712 
1469.000000	99.392619 
1468.000000	99.386705 
1467.000000	99.379961 
1466.000000	99.376000 
1465.000000	99.377873 
1464.000000	99.384608 
1463.000000	99.390779 
1462.000000	99.392729 
1461.000000	99.390537 
1460.000000	99.386058 
1459.000000	99.380193 
1458.000000	99.372665 
1457.000000	99.364436 
1456.000000	99.359164 
1455.000000	99.358384 
1454.000000	99.358510 
1453.000000	99.360359 
1452.000000	99.367026 
1451.000000	99.377484 
1450.000000	99.387639 
1449.000000	99.394082 
1448.000000	99.395666 
1447.000000	99.394154 
1446.000000	99.391170 
1445.000000	99.387851 
1444.000000	99.385200 
1443.000000	99.382888 
1442.000000	99.381346 
1441.000000	99.381417 
1440.000000	99.383376 
1439.000000	99.385980 
1438.000000	99.389177 
1437.000000	99.392902 
1436.000000	99.394657 
1435.000000	99.393266 
1434.000000	99.390542 
1433.000000	99.388645 
1432.000000	99.388554 
1431.000000	99.389443 
1430.000000	99.390115 
1429.000000	99.390149 
1428.000000	99.388100 
1427.000000	99.383074 
1426.000000	99.375440 
1425.000000	99.369004 
1424.000000	99.368358 
1423.000000	99.372325 
1422.000000	99.376038 
1421.000000	99.375451 
1420.000000	99.368622 
1419.000000	99.355281 
1418.000000	99.340735 
1417.000000	99.331342 
1416.000000	99.325770 
1415.000000	99.319979 
1414.000000	99.312831 
1413.000000	99.306309 
1412.000000	99.301976 
1411.000000	99.298206 
1410.000000	99.293078 
1409.000000	99.286891 
1408.000000	99.280598 
1407.000000	99.275553 
1406.000000	99.272776 
1405.000000	99.273318 
1404.000000	99.278168 
1403.000000	99.286630 
1402.000000	99.297797 
1401.000000	99.310920 
1400.000000	99.323848 
1399.000000	99.331438 
1398.000000	99.328894 
1397.000000	99.315030 
1396.000000	99.292547 
1395.000000	99.270627 
1394.000000	99.262319 
1393.000000	99.273783 
1392.000000	99.297683 
1391.000000	99.320708 
1390.000000	99.334446 
1389.000000	99.337812 
1388.000000	99.333473 
1387.000000	99.324641 
1386.000000	99.314752 
1385.000000	99.306997 
1384.000000	99.302678 
1383.000000	99.300468 
1382.000000	99.298653 
1381.000000	99.297325 
1380.000000	99.298942 
1379.000000	99.306148 
1378.000000	99.318221 
1377.000000	99.330658 
1376.000000	99.338539 
1375.000000	99.340189 
1374.000000	99.338286 
1373.000000	99.337987 
1372.000000	99.342127 
1371.000000	99.349464 
1370.000000	99.356745 
1369.000000	99.361734 
1368.000000	99.364542 
1367.000000	99.366230 
1366.000000	99.367806 
1365.000000	99.369563 
1364.000000	99.371118 
1363.000000	99.371982 
1362.000000	99.372558 
1361.000000	99.374000 
1360.000000	99.377097 
1359.000000	99.382308 
1358.000000	99.389891 
1357.000000	99.398711 
1356.000000	99.405608 
1355.000000	99.407781 
1354.000000	99.406636 
1353.000000	99.406701 
1352.000000	99.409847 
1351.000000	99.413591 
1350.000000	99.414557 
1349.000000	99.413019 
1348.000000	99.412154 
1347.000000	99.413176 
1346.000000	99.414635 
1345.000000	99.415004 
1344.000000	99.413958 
1343.000000	99.411232 
1342.000000	99.407102 
1341.000000	99.404051 
1340.000000	99.405547 
1339.000000	99.411776 
1338.000000	99.419066 
1337.000000	99.424522 
1336.000000	99.428364 
1335.000000	99.431396 
1334.000000	99.432975 
1333.000000	99.432269 
1332.000000	99.429823 
1331.000000	99.426781 
1330.000000	99.423702 
1329.000000	99.421106 
1328.000000	99.419922 
1327.000000	99.420361 
1326.000000	99.421163 
1325.000000	99.421475 
1324.000000	99.422280 
1323.000000	99.424541 
1322.000000	99.427414 
1321.000000	99.429316 
1320.000000	99.430045 
1319.000000	99.430495 
1318.000000	99.430818 
1317.000000	99.429987 
1316.000000	99.427346 
1315.000000	99.423655 
1314.000000	99.420307 
1313.000000	99.417822 
1312.000000	99.415488 
1311.000000	99.412733 
1310.000000	99.410550 
1309.000000	99.410888 
1308.000000	99.414195 
1307.000000	99.418261 
1306.000000	99.420109 
1305.000000	99.419160 
1304.000000	99.417562 
1303.000000	99.417373 
1302.000000	99.418654 
1301.000000	99.420353 
1300.000000	99.422119 
1299.000000	99.424434 
1298.000000	99.427557 
1297.000000	99.430845 
1296.000000	99.433114 
1295.000000	99.433388 
1294.000000	99.431501 
1293.000000	99.428305 
1292.000000	99.425318 
1291.000000	99.424059 
1290.000000	99.425259 
1289.000000	99.428030 
1288.000000	99.429790 
1287.000000	99.427943 
1286.000000	99.422343 
1285.000000	99.415604 
1284.000000	99.410293 
1283.000000	99.406365 
1282.000000	99.402140 
1281.000000	99.397283 
1280.000000	99.393537 
1279.000000	99.392110 
1278.000000	99.391614 
1277.000000	99.389631 
1276.000000	99.385858 
1275.000000	99.382613 
1274.000000	99.381991 
1273.000000	99.383232 
1272.000000	99.383421 
1271.000000	99.380631 
1270.000000	99.375763 
1269.000000	99.371047 
1268.000000	99.367275 
1267.000000	99.363102 
1266.000000	99.356949 
1265.000000	99.348815 
1264.000000	99.339997 
1263.000000	99.331743 
1262.000000	99.324533 
1261.000000	99.318213 
1260.000000	99.312534 
1259.000000	99.307752 
1258.000000	99.304863 
1257.000000	99.304858 
1256.000000	99.307432 
1255.000000	99.310929 
1254.000000	99.313929 
1253.000000	99.316584 
1252.000000	99.319984 
1251.000000	99.324528 
1250.000000	99.329304 
1249.000000	99.332879 
1248.000000	99.334376 
1247.000000	99.333776 
1246.000000	99.331130 
1245.000000	99.325373 
1244.000000	99.314904 
1243.000000	99.300987 
1242.000000	99.290053 
1241.000000	99.289798 
1240.000000	99.301472 
1239.000000	99.317460 
1238.000000	99.328124 
1237.000000	99.330325 
1236.000000	99.327982 
1235.000000	99.325820 
1234.000000	99.324861 
1233.000000	99.323332 
1232.000000	99.319270 
1231.000000	99.311783 
1230.000000	99.301900 
1229.000000	99.293142 
1228.000000	99.289738 
1227.000000	99.293001 
1226.000000	99.299905 
1225.000000	99.305816 
1224.000000	99.308115 
1223.000000	99.307067 
1222.000000	99.304552 
1221.000000	99.303010 
1220.000000	99.304705 
1219.000000	99.310331 
1218.000000	99.317941 
1217.000000	99.324195 
1216.000000	99.327265 
1215.000000	99.328184 
1214.000000	99.328961 
1213.000000	99.329791 
1212.000000	99.329113 
1211.000000	99.326694 
1210.000000	99.325316 
1209.000000	99.327867 
1208.000000	99.333281 
1207.000000	99.337163 
1206.000000	99.336793 
1205.000000	99.333769 
1204.000000	99.330992 
1203.000000	99.328996 
1202.000000	99.326889 
1201.000000	99.325415 
1200.000000	99.326599 
1199.000000	99.330554 
1198.000000	99.334774 
1197.000000	99.336965 
1196.000000	99.336871 
1195.000000	99.334997 
1194.000000	99.331376 
1193.000000	99.326527 
1192.000000	99.322143 
1191.000000	99.319343 
1190.000000	99.316968 
1189.000000	99.313095 
1188.000000	99.308066 
1187.000000	99.304713 
1186.000000	99.305269 
1185.000000	99.308859 
1184.000000	99.312437 
1183.000000	99.313536 
1182.000000	99.311701 
1181.000000	99.307860 
1180.000000	99.303286 
1179.000000	99.299308 
1178.000000	99.297188 
1177.000000	99.297407 
1176.000000	99.298833 
1175.000000	99.298886 
1174.000000	99.294981 
1173.000000	99.286403 
1172.000000	99.275197 
1171.000000	99.265090 
1170.000000	99.258877 
1169.000000	99.256305 
1168.000000	99.254679 
1167.000000	99.251740 
1166.000000	99.247866 
1165.000000	99.245463 
1164.000000	99.246616 
1163.000000	99.251471 
1162.000000	99.258289 
1161.000000	99.264671 
1160.000000	99.269227 
1159.000000	99.272454 
1158.000000	99.275365 
1157.000000	99.276898 
1156.000000	99.273987 
1155.000000	99.265687 
1154.000000	99.256357 
1153.000000	99.252428 
1152.000000	99.255542 
1151.000000	99.260524 
1150.000000	99.260887 
1149.000000	99.255201 
1148.000000	99.247352 
1147.000000	99.241802 
1146.000000	99.239753 
1145.000000	99.239116 
1144.000000	99.236879 
1143.000000	99.231513 
1142.000000	99.224131 
1141.000000	99.217783 
1140.000000	99.215231 
1139.000000	99.216755 
1138.000000	99.219624 
1137.000000	99.219960 
1136.000000	99.216073 
1135.000000	99.210482 
1134.000000	99.207647 
1133.000000	99.208599 
1132.000000	99.208863 
1131.000000	99.203584 
1130.000000	99.194383 
1129.000000	99.188709 
1128.000000	99.191501 
1127.000000	99.199146 
1126.000000	99.202706 
1125.000000	99.195945 
1124.000000	99.179319 
1123.000000	99.157858 
1122.000000	99.137154 
1121.000000	99.120844 
1120.000000	99.109992 
1119.000000	99.103666 
1118.000000	99.099984 
1117.000000	99.096960 
1116.000000	99.093165 
1115.000000	99.088657 
1114.000000	99.085320 
1113.000000	99.085032 
1112.000000	99.086701 
1111.000000	99.085693 
1110.000000	99.077051 
1109.000000	99.059753 
1108.000000	99.038255 
1107.000000	99.020258 
1106.000000	99.011672 
1105.000000	99.011831 
1104.000000	99.013842 
1103.000000	99.011077 
1102.000000	99.003251 
1101.000000	98.994929 
1100.000000	98.988886 
1099.000000	98.984017 
1098.000000	98.979643 
1097.000000	98.977835 
1096.000000	98.979580 
1095.000000	98.981175 
1094.000000	98.977094 
1093.000000	98.964780 
1092.000000	98.944756 
1091.000000	98.918324 
1090.000000	98.888111 
1089.000000	98.859243 
1088.000000	98.836477 
1087.000000	98.820060 
1086.000000	98.806552 
1085.000000	98.793483 
1084.000000	98.781103 
1083.000000	98.769948 
1082.000000	98.759117 
1081.000000	98.747074 
1080.000000	98.732234 
1079.000000	98.713095 
1078.000000	98.690349 
1077.000000	98.668997 
1076.000000	98.655739 
1075.000000	98.653355 
1074.000000	98.659392 
1073.000000	98.670197 
1072.000000	98.682778 
1071.000000	98.691489 
1070.000000	98.687302 
1069.000000	98.665090 
1068.000000	98.631397 
1067.000000	98.602010 
1066.000000	98.590207 
1065.000000	98.597435 
1064.000000	98.614831 
1063.000000	98.631554 
1062.000000	98.640757 
1061.000000	98.639747 
1060.000000	98.628080 
1059.000000	98.608109 
1058.000000	98.586635 
1057.000000	98.572601 
1056.000000	98.570634 
1055.000000	98.576971 
1054.000000	98.582820 
1053.000000	98.581793 
1052.000000	98.573857 
1051.000000	98.563220 
1050.000000	98.553899 
1049.000000	98.546976 
1048.000000	98.540894 
1047.000000	98.534634 
1046.000000	98.531034 
1045.000000	98.535368 
1044.000000	98.548979 
1043.000000	98.565776 
1042.000000	98.577592 
1041.000000	98.582279 
1040.000000	98.583816 
1039.000000	98.585647 
1038.000000	98.588124 
1037.000000	98.592505 
1036.000000	98.602530 
1035.000000	98.619755 
1034.000000	98.640523 
1033.000000	98.659520 
1032.000000	98.673484 
1031.000000	98.680205 
1030.000000	98.678358 
1029.000000	98.671810 
1028.000000	98.670602 
1027.000000	98.682379 
1026.000000	98.703230 
1025.000000	98.720772 
1024.000000	98.726237 
1023.000000	98.721054 
1022.000000	98.712900 
1021.000000	98.709044 
1020.000000	98.713478 
1019.000000	98.726245 
1018.000000	98.743219 
1017.000000	98.758652 
1016.000000	98.769787 
1015.000000	98.778150 
1014.000000	98.785927 
1013.000000	98.792807 
1012.000000	98.797424 
1011.000000	98.800227 
1010.000000	98.803066 
1009.000000	98.806556 
1008.000000	98.809475 
1007.000000	98.810940 
1006.000000	98.812361 
1005.000000	98.817164 
1004.000000	98.828887 
1003.000000	98.848817 
1002.000000	98.874177 
1001.000000	98.898422 
1000.000000	98.914369 
999.000000	 98.918468 
998.000000	 98.913182 
997.000000	 98.905729 
996.000000	 98.904049 
995.000000	 98.912144 
994.000000	 98.927216 
993.000000	 98.941386 
992.000000	 98.948197 
991.000000	 98.948583 
990.000000	 98.949332 
989.000000	 98.954677 
988.000000	 98.961167 
987.000000	 98.963008 
986.000000	 98.960939 
985.000000	 98.962053 
984.000000	 98.970426 
983.000000	 98.981689 
982.000000	 98.988911 
981.000000	 98.991000 
980.000000	 98.992481 
979.000000	 98.997084 
978.000000	 99.005004 
977.000000	 99.015392 
976.000000	 99.027772 
975.000000	 99.040628 
974.000000	 99.051773 
973.000000	 99.061228 
972.000000	 99.071484 
971.000000	 99.083860 
970.000000	 99.096477 
969.000000	 99.106854 
968.000000	 99.114734 
967.000000	 99.121080 
966.000000	 99.125742 
965.000000	 99.127766 
964.000000	 99.127544 
963.000000	 99.127541 
962.000000	 99.130829 
961.000000	 99.138925 
960.000000	 99.150336 
959.000000	 99.160976 
958.000000	 99.167023 
957.000000	 99.168017 
956.000000	 99.166715 
955.000000	 99.165992 
954.000000	 99.166945 
953.000000	 99.170013 
952.000000	 99.176103 
951.000000	 99.185211 
950.000000	 99.194724 
949.000000	 99.200620 
948.000000	 99.200587 
947.000000	 99.195541 
946.000000	 99.188405 
945.000000	 99.182054 
944.000000	 99.178494 
943.000000	 99.179201 
942.000000	 99.184972 
941.000000	 99.194461 
940.000000	 99.203074 
939.000000	 99.204969 
938.000000	 99.197881 
937.000000	 99.185853 
936.000000	 99.176138 
935.000000	 99.173274 
934.000000	 99.176611 
933.000000	 99.183007 
932.000000	 99.190459 
931.000000	 99.198760 
930.000000	 99.207803 
929.000000	 99.216052 
928.000000	 99.220578 
927.000000	 99.218922 
926.000000	 99.211731 
925.000000	 99.203359 
924.000000	 99.198902 
923.000000	 99.200361 
922.000000	 99.205763 
921.000000	 99.211270 
920.000000	 99.213246 
919.000000	 99.209294 
918.000000	 99.199644 
917.000000	 99.188012 
916.000000	 99.179384 
915.000000	 99.175864 
914.000000	 99.175345 
913.000000	 99.174739 
912.000000	 99.173681 
911.000000	 99.174468 
910.000000	 99.179186 
909.000000	 99.187608 
908.000000	 99.197370 
907.000000	 99.205576 
906.000000	 99.210435 
905.000000	 99.211831 
904.000000	 99.210669 
903.000000	 99.208429 
902.000000	 99.207566 
901.000000	 99.210825 
900.000000	 99.218441 
899.000000	 99.226487 
898.000000	 99.229822 
897.000000	 99.226820 
896.000000	 99.219777 
895.000000	 99.211095 
894.000000	 99.201487 
893.000000	 99.192446 
892.000000	 99.188028 
891.000000	 99.192114 
890.000000	 99.204530 
889.000000	 99.221028 
888.000000	 99.236513 
887.000000	 99.247714 
886.000000	 99.254056 
885.000000	 99.257370 
884.000000	 99.260178 
883.000000	 99.263182 
882.000000	 99.264589 
881.000000	 99.262532 
880.000000	 99.257927 
879.000000	 99.254661 
878.000000	 99.257351 
877.000000	 99.268515 
876.000000	 99.285877 
875.000000	 99.301208 
874.000000	 99.304156 
873.000000	 99.290683 
872.000000	 99.268105 
871.000000	 99.249756 
870.000000	 99.243739 
869.000000	 99.248103 
868.000000	 99.256955 
867.000000	 99.267856 
866.000000	 99.280862 
865.000000	 99.293194 
864.000000	 99.299975 
863.000000	 99.300970 
862.000000	 99.302225 
861.000000	 99.308399 
860.000000	 99.316677 
859.000000	 99.321513 
858.000000	 99.322614 
857.000000	 99.323711 
856.000000	 99.325211 
855.000000	 99.323902 
854.000000	 99.319908 
853.000000	 99.317923 
852.000000	 99.319915 
851.000000	 99.322225 
850.000000	 99.322683 
849.000000	 99.325145 
848.000000	 99.332590 
847.000000	 99.340163 
846.000000	 99.340814 
845.000000	 99.335210 
844.000000	 99.330430 
843.000000	 99.330439 
842.000000	 99.333255 
841.000000	 99.336346 
840.000000	 99.338847 
839.000000	 99.338396 
838.000000	 99.331941 
837.000000	 99.321570 
836.000000	 99.314707 
835.000000	 99.315877 
834.000000	 99.321784 
833.000000	 99.327360 
832.000000	 99.333666 
831.000000	 99.345795 
830.000000	 99.363586 
829.000000	 99.377756 
828.000000	 99.377134 
827.000000	 99.359901 
826.000000	 99.337053 
825.000000	 99.322821 
824.000000	 99.320947 
823.000000	 99.322815 
822.000000	 99.320270 
821.000000	 99.315909 
820.000000	 99.317320 
819.000000	 99.325688 
818.000000	 99.335456 
817.000000	 99.342829 
816.000000	 99.348571 
815.000000	 99.352249 
814.000000	 99.349643 
813.000000	 99.338538 
812.000000	 99.323100 
811.000000	 99.309226 
810.000000	 99.298045 
809.000000	 99.287091 
808.000000	 99.275914 
807.000000	 99.266763 
806.000000	 99.260102 
805.000000	 99.253104 
804.000000	 99.244301 
803.000000	 99.237790 
802.000000	 99.240020 
801.000000	 99.251545 
800.000000	 99.263828 
799.000000	 99.266903 
798.000000	 99.260290 
797.000000	 99.253194 
796.000000	 99.252598 
795.000000	 99.255061 
794.000000	 99.253482 
793.000000	 99.248257 
792.000000	 99.246079 
791.000000	 99.249249 
790.000000	 99.252763 
789.000000	 99.252718 
788.000000	 99.251480 
787.000000	 99.251894 
786.000000	 99.251081 
785.000000	 99.243514 
784.000000	 99.227761 
783.000000	 99.207936 
782.000000	 99.190733 
781.000000	 99.182182 
780.000000	 99.183775 
779.000000	 99.189301 
778.000000	 99.188640 
777.000000	 99.178005 
776.000000	 99.164701 
775.000000	 99.159572 
774.000000	 99.166664 
773.000000	 99.182130 
772.000000	 99.200411 
771.000000	 99.218026 
770.000000	 99.232839 
769.000000	 99.242860 
768.000000	 99.246128 
767.000000	 99.241741 
766.000000	 99.232920 
765.000000	 99.228899 
764.000000	 99.239415 
763.000000	 99.264268 
762.000000	 99.290787 
761.000000	 99.304600 
760.000000	 99.301548 
759.000000	 99.288120 
758.000000	 99.273908 
757.000000	 99.265693 
756.000000	 99.264023 
755.000000	 99.260691 
754.000000	 99.243585 
753.000000	 99.211484 
752.000000	 99.183287 
751.000000	 99.185007 
750.000000	 99.223486 
749.000000	 99.276046 
748.000000	 99.309546 
747.000000	 99.309096 
746.000000	 99.287502 
745.000000	 99.268282 
744.000000	 99.262404 
743.000000	 99.263086 
742.000000	 99.261148 
741.000000	 99.260122 
740.000000	 99.271976 
739.000000	 99.300052 
738.000000	 99.332186 
737.000000	 99.351787 
736.000000	 99.350781 
735.000000	 99.330944 
734.000000	 99.299913 
733.000000	 99.270365 
732.000000	 99.256933 
731.000000	 99.265680 
730.000000	 99.287393 
729.000000	 99.306694 
728.000000	 99.316638 
727.000000	 99.319876 
726.000000	 99.318561 
725.000000	 99.310429 
724.000000	 99.294605 
723.000000	 99.274827 
722.000000	 99.255823 
721.000000	 99.241489 
720.000000	 99.236991 
719.000000	 99.246636 
718.000000	 99.267697 
717.000000	 99.290761 
716.000000	 99.307051 
715.000000	 99.312208 
714.000000	 99.304739 
713.000000	 99.287310 
712.000000	 99.270527 
711.000000	 99.267963 
710.000000	 99.282322 
709.000000	 99.300336 
708.000000	 99.305792 
707.000000	 99.295291 
706.000000	 99.278168 
705.000000	 99.264499 
704.000000	 99.258269 
703.000000	 99.260046 
702.000000	 99.269421 
701.000000	 99.282132 
700.000000	 99.288395 
699.000000	 99.279058 
698.000000	 99.255569 
697.000000	 99.231941 
696.000000	 99.223005 
695.000000	 99.229358 
694.000000	 99.236987 
693.000000	 99.234129 
692.000000	 99.225053 
691.000000	 99.223354 
690.000000	 99.235141 
689.000000	 99.254947 
688.000000	 99.275654 
687.000000	 99.293767 
686.000000	 99.304741 
685.000000	 99.303033 
684.000000	 99.290712 
683.000000	 99.278637 
682.000000	 99.274357 
681.000000	 99.273816 
680.000000	 99.268354 
679.000000	 99.256025 
678.000000	 99.242901 
677.000000	 99.237352 
676.000000	 99.246369 
675.000000	 99.269045 
674.000000	 99.290576 
673.000000	 99.292142 
672.000000	 99.273648 
671.000000	 99.261113 
670.000000	 99.284881 
669.000000	 99.353325 
668.000000	 99.427571 
667.000000	 99.440496 
666.000000	 99.384211 
665.000000	 99.310166 
664.000000	 99.259715 
663.000000	 99.251572 
662.000000	 99.278923 
661.000000	 99.307472 
660.000000	 99.304187 
659.000000	 99.267149 
658.000000	 99.220517 
657.000000	 99.184373 
656.000000	 99.163271 
655.000000	 99.158457 
654.000000	 99.172069 
653.000000	 99.199083 
652.000000	 99.229187 
651.000000	 99.256186 
650.000000	 99.275785 

