4000.000000	99.430359 
3999.000000	99.427797 
3998.000000	99.424993 
3997.000000	99.421394 
3996.000000	99.416863 
3995.000000	99.412407 
3994.000000	99.409822 
3993.000000	99.410437 
3992.000000	99.413954 
3991.000000	99.418428 
3990.000000	99.421540 
3989.000000	99.422236 
3988.000000	99.421372 
3987.000000	99.420763 
3986.000000	99.421563 
3985.000000	99.423353 
3984.000000	99.424477 
3983.000000	99.423237 
3982.000000	99.419182 
3981.000000	99.413601 
3980.000000	99.408602 
3979.000000	99.405652 
3978.000000	99.405132 
3977.000000	99.406889 
3976.000000	99.410641 
3975.000000	99.415735 
3974.000000	99.420940 
3973.000000	99.424832 
3972.000000	99.426442 
3971.000000	99.425806 
3970.000000	99.423999 
3969.000000	99.422391 
3968.000000	99.421696 
3967.000000	99.421577 
3966.000000	99.421281 
3965.000000	99.420726 
3964.000000	99.420438 
3963.000000	99.420369 
3962.000000	99.419330 
3961.000000	99.416125 
3960.000000	99.411120 
3959.000000	99.406495 
3958.000000	99.404509 
3957.000000	99.405400 
3956.000000	99.407355 
3955.000000	99.408296 
3954.000000	99.407413 
3953.000000	99.404989 
3952.000000	99.401429 
3951.000000	99.397474 
3950.000000	99.394795 
3949.000000	99.395416 
3948.000000	99.399708 
3947.000000	99.405188 
3946.000000	99.408394 
3945.000000	99.408065 
3944.000000	99.406345 
3943.000000	99.406276 
3942.000000	99.408707 
3941.000000	99.411922 
3940.000000	99.413495 
3939.000000	99.411831 
3938.000000	99.406725 
3937.000000	99.399394 
3936.000000	99.392378 
3935.000000	99.388628 
3934.000000	99.390123 
3933.000000	99.396455 
3932.000000	99.404304 
3931.000000	99.408867 
3930.000000	99.407083 
3929.000000	99.400245 
3928.000000	99.393062 
3927.000000	99.389960 
3926.000000	99.392447 
3925.000000	99.398331 
3924.000000	99.402927 
3923.000000	99.402805 
3922.000000	99.398519 
3921.000000	99.393826 
3920.000000	99.392289 
3919.000000	99.394894 
3918.000000	99.400479 
3917.000000	99.407166 
3916.000000	99.413091 
3915.000000	99.416903 
3914.000000	99.418710 
3913.000000	99.419938 
3912.000000	99.421441 
3911.000000	99.422892 
3910.000000	99.423913 
3909.000000	99.425162 
3908.000000	99.427493 
3907.000000	99.429857 
3906.000000	99.429096 
3905.000000	99.422628 
3904.000000	99.411047 
3903.000000	99.398550 
3902.000000	99.390418 
3901.000000	99.389645 
3900.000000	99.395549 
3899.000000	99.403860 
3898.000000	99.409553 
3897.000000	99.410690 
3896.000000	99.408784 
3895.000000	99.406400 
3894.000000	99.404992 
3893.000000	99.404417 
3892.000000	99.403788 
3891.000000	99.402395 
3890.000000	99.399963 
3889.000000	99.396579 
3888.000000	99.393081 
3887.000000	99.391586 
3886.000000	99.393512 
3885.000000	99.396627 
3884.000000	99.396743 
3883.000000	99.393248 
3882.000000	99.390332 
3881.000000	99.392051 
3880.000000	99.397123 
3879.000000	99.400046 
3878.000000	99.398305 
3877.000000	99.395146 
3876.000000	99.395711 
3875.000000	99.401630 
3874.000000	99.408475 
3873.000000	99.409278 
3872.000000	99.402280 
3871.000000	99.394003 
3870.000000	99.392625 
3869.000000	99.398825 
3868.000000	99.406040 
3867.000000	99.409266 
3866.000000	99.409766 
3865.000000	99.410722 
3864.000000	99.411199 
3863.000000	99.408344 
3862.000000	99.402771 
3861.000000	99.398800 
3860.000000	99.399942 
3859.000000	99.406209 
3858.000000	99.414313 
3857.000000	99.420430 
3856.000000	99.422400 
3855.000000	99.421044 
3854.000000	99.418507 
3853.000000	99.415771 
3852.000000	99.412893 
3851.000000	99.410643 
3850.000000	99.409857 
3849.000000	99.410893 
3848.000000	99.412794 
3847.000000	99.413812 
3846.000000	99.413016 
3845.000000	99.410943 
3844.000000	99.409335 
3843.000000	99.410178 
3842.000000	99.413114 
3841.000000	99.415830 
3840.000000	99.417029 
3839.000000	99.417482 
3838.000000	99.418038 
3837.000000	99.418661 
3836.000000	99.419144 
3835.000000	99.419958 
3834.000000	99.421790 
3833.000000	99.424992 
3832.000000	99.428870 
3831.000000	99.431302 
3830.000000	99.430347 
3829.000000	99.425903 
3828.000000	99.419916 
3827.000000	99.415778 
3826.000000	99.415913 
3825.000000	99.419438 
3824.000000	99.423074 
3823.000000	99.424809 
3822.000000	99.425412 
3821.000000	99.426729 
3820.000000	99.428453 
3819.000000	99.428594 
3818.000000	99.426487 
3817.000000	99.423780 
3816.000000	99.421872 
3815.000000	99.418827 
3814.000000	99.412117 
3813.000000	99.403816 
3812.000000	99.399766 
3811.000000	99.403542 
3810.000000	99.412709 
3809.000000	99.421373 
3808.000000	99.426264 
3807.000000	99.429055 
3806.000000	99.432041 
3805.000000	99.434029 
3804.000000	99.432594 
3803.000000	99.428415 
3802.000000	99.424787 
3801.000000	99.422964 
3800.000000	99.420491 
3799.000000	99.415532 
3798.000000	99.409740 
3797.000000	99.406376 
3796.000000	99.406529 
3795.000000	99.407837 
3794.000000	99.407759 
3793.000000	99.406308 
3792.000000	99.404951 
3791.000000	99.404185 
3790.000000	99.403429 
3789.000000	99.402456 
3788.000000	99.401897 
3787.000000	99.402169 
3786.000000	99.403201 
3785.000000	99.404922 
3784.000000	99.407161 
3783.000000	99.408976 
3782.000000	99.409370 
3781.000000	99.408808 
3780.000000	99.409002 
3779.000000	99.410729 
3778.000000	99.412338 
3777.000000	99.411560 
3776.000000	99.408147 
3775.000000	99.404265 
3774.000000	99.401926 
3773.000000	99.400948 
3772.000000	99.400159 
3771.000000	99.399649 
3770.000000	99.399993 
3769.000000	99.400428 
3768.000000	99.399833 
3767.000000	99.398472 
3766.000000	99.397687 
3765.000000	99.398025 
3764.000000	99.398075 
3763.000000	99.396194 
3762.000000	99.393341 
3761.000000	99.392769 
3760.000000	99.395879 
3759.000000	99.400363 
3758.000000	99.403419 
3757.000000	99.404704 
3756.000000	99.404559 
3755.000000	99.402773 
3754.000000	99.400397 
3753.000000	99.400771 
3752.000000	99.406185 
3751.000000	99.413872 
3750.000000	99.419864 
3749.000000	99.424842 
3748.000000	99.430089 
3747.000000	99.433103 
3746.000000	99.431416 
3745.000000	99.426233 
3744.000000	99.420276 
3743.000000	99.414000 
3742.000000	99.406631 
3741.000000	99.398726 
3740.000000	99.391453 
3739.000000	99.385044 
3738.000000	99.380102 
3737.000000	99.379568 
3736.000000	99.385500 
3735.000000	99.393714 
3734.000000	99.396520 
3733.000000	99.392333 
3732.000000	99.386770 
3731.000000	99.384474 
3730.000000	99.384718 
3729.000000	99.384562 
3728.000000	99.383727 
3727.000000	99.384158 
3726.000000	99.385812 
3725.000000	99.386136 
3724.000000	99.384436 
3723.000000	99.383361 
3722.000000	99.384958 
3721.000000	99.388390 
3720.000000	99.390784 
3719.000000	99.389858 
3718.000000	99.386138 
3717.000000	99.381848 
3716.000000	99.377833 
3715.000000	99.373383 
3714.000000	99.368963 
3713.000000	99.367715 
3712.000000	99.372073 
3711.000000	99.379990 
3710.000000	99.386048 
3709.000000	99.385794 
3708.000000	99.378999 
3707.000000	99.369212 
3706.000000	99.361004 
3705.000000	99.357580 
3704.000000	99.359294 
3703.000000	99.363231 
3702.000000	99.364293 
3701.000000	99.358849 
3700.000000	99.347359 
3699.000000	99.332987 
3698.000000	99.319369 
3697.000000	99.309626 
3696.000000	99.305189 
3695.000000	99.305545 
3694.000000	99.309389 
3693.000000	99.314825 
3692.000000	99.318260 
3691.000000	99.315415 
3690.000000	99.305243 
3689.000000	99.292155 
3688.000000	99.282286 
3687.000000	99.277411 
3686.000000	99.274815 
3685.000000	99.272834 
3684.000000	99.272868 
3683.000000	99.276310 
3682.000000	99.281536 
3681.000000	99.285188 
3680.000000	99.285319 
3679.000000	99.281101 
3678.000000	99.272498 
3677.000000	99.263279 
3676.000000	99.260710 
3675.000000	99.265931 
3674.000000	99.270697 
3673.000000	99.267934 
3672.000000	99.258974 
3671.000000	99.252175 
3670.000000	99.253895 
3669.000000	99.261039 
3668.000000	99.267059 
3667.000000	99.270397 
3666.000000	99.272928 
3665.000000	99.275381 
3664.000000	99.276187 
3663.000000	99.274027 
3662.000000	99.270181 
3661.000000	99.267179 
3660.000000	99.265995 
3659.000000	99.265570 
3658.000000	99.265202 
3657.000000	99.265845 
3656.000000	99.268417 
3655.000000	99.271977 
3654.000000	99.274793 
3653.000000	99.275911 
3652.000000	99.274859 
3651.000000	99.270874 
3650.000000	99.263921 
3649.000000	99.257308 
3648.000000	99.255916 
3647.000000	99.260342 
3646.000000	99.266793 
3645.000000	99.272425 
3644.000000	99.277651 
3643.000000	99.284032 
3642.000000	99.291844 
3641.000000	99.299283 
3640.000000	99.304297 
3639.000000	99.306478 
3638.000000	99.306833 
3637.000000	99.306494 
3636.000000	99.306217 
3635.000000	99.306582 
3634.000000	99.307312 
3633.000000	99.306723 
3632.000000	99.303571 
3631.000000	99.299705 
3630.000000	99.299821 
3629.000000	99.305183 
3628.000000	99.309147 
3627.000000	99.306642 
3626.000000	99.301075 
3625.000000	99.298096 
3624.000000	99.299372 
3623.000000	99.302399 
3622.000000	99.304048 
3621.000000	99.304387 
3620.000000	99.305312 
3619.000000	99.306189 
3618.000000	99.304467 
3617.000000	99.300684 
3616.000000	99.298899 
3615.000000	99.302822 
3614.000000	99.311601 
3613.000000	99.319666 
3612.000000	99.322044 
3611.000000	99.319385 
3610.000000	99.316555 
3609.000000	99.316878 
3608.000000	99.318697 
3607.000000	99.318556 
3606.000000	99.316411 
3605.000000	99.315260 
3604.000000	99.317044 
3603.000000	99.320929 
3602.000000	99.324956 
3601.000000	99.328520 
3600.000000	99.331535 
3599.000000	99.332800 
3598.000000	99.331411 
3597.000000	99.328485 
3596.000000	99.326914 
3595.000000	99.329883 
3594.000000	99.337972 
3593.000000	99.348077 
3592.000000	99.355483 
3591.000000	99.356228 
3590.000000	99.349864 
3589.000000	99.340796 
3588.000000	99.335700 
3587.000000	99.336322 
3586.000000	99.338306 
3585.000000	99.338332 
3584.000000	99.338100 
3583.000000	99.340370 
3582.000000	99.345060 
3581.000000	99.349289 
3580.000000	99.350318 
3579.000000	99.347692 
3578.000000	99.342829 
3577.000000	99.337818 
3576.000000	99.334556 
3575.000000	99.334228 
3574.000000	99.336562 
3573.000000	99.339539 
3572.000000	99.340901 
3571.000000	99.339498 
3570.000000	99.335065 
3569.000000	99.328395 
3568.000000	99.322173 
3567.000000	99.319307 
3566.000000	99.319848 
3565.000000	99.321764 
3564.000000	99.324263 
3563.000000	99.328468 
3562.000000	99.335410 
3561.000000	99.344109 
3560.000000	99.351997 
3559.000000	99.356818 
3558.000000	99.358171 
3557.000000	99.357271 
3556.000000	99.355727 
3555.000000	99.354375 
3554.000000	99.353045 
3553.000000	99.350645 
3552.000000	99.346049 
3551.000000	99.339512 
3550.000000	99.332745 
3549.000000	99.327506 
3548.000000	99.324824 
3547.000000	99.325013 
3546.000000	99.327844 
3545.000000	99.331858 
3544.000000	99.334820 
3543.000000	99.335807 
3542.000000	99.336479 
3541.000000	99.339251 
3540.000000	99.344597 
3539.000000	99.350279 
3538.000000	99.353508 
3537.000000	99.353401 
3536.000000	99.351316 
3535.000000	99.349255 
3534.000000	99.348110 
3533.000000	99.347658 
3532.000000	99.347506 
3531.000000	99.347788 
3530.000000	99.348541 
3529.000000	99.348711 
3528.000000	99.346720 
3527.000000	99.342508 
3526.000000	99.338369 
3525.000000	99.337014 
3524.000000	99.338845 
3523.000000	99.341665 
3522.000000	99.343358 
3521.000000	99.343901 
3520.000000	99.344783 
3519.000000	99.347071 
3518.000000	99.350589 
3517.000000	99.354273 
3516.000000	99.356799 
3515.000000	99.357316 
3514.000000	99.355863 
3513.000000	99.353292 
3512.000000	99.350730 
3511.000000	99.349009 
3510.000000	99.348267 
3509.000000	99.347947 
3508.000000	99.347313 
3507.000000	99.346351 
3506.000000	99.346235 
3505.000000	99.348234 
3504.000000	99.352003 
3503.000000	99.355494 
3502.000000	99.357431 
3501.000000	99.359146 
3500.000000	99.362728 
3499.000000	99.367693 
3498.000000	99.370665 
3497.000000	99.368794 
3496.000000	99.362728 
3495.000000	99.355795 
3494.000000	99.350908 
3493.000000	99.348792 
3492.000000	99.348758 
3491.000000	99.350060 
3490.000000	99.352393 
3489.000000	99.355691 
3488.000000	99.359684 
3487.000000	99.363517 
3486.000000	99.366046 
3485.000000	99.366824 
3484.000000	99.366461 
3483.000000	99.365745 
3482.000000	99.364611 
3481.000000	99.362674 
3480.000000	99.360617 
3479.000000	99.359945 
3478.000000	99.360962 
3477.000000	99.362079 
3476.000000	99.362013 
3475.000000	99.362012 
3474.000000	99.364479 
3473.000000	99.369241 
3472.000000	99.372771 
3471.000000	99.372139 
3470.000000	99.368770 
3469.000000	99.366901 
3468.000000	99.368626 
3467.000000	99.371716 
3466.000000	99.372863 
3465.000000	99.371763 
3464.000000	99.370932 
3463.000000	99.372122 
3462.000000	99.374220 
3461.000000	99.374979 
3460.000000	99.373712 
3459.000000	99.371594 
3458.000000	99.369851 
3457.000000	99.368440 
3456.000000	99.366646 
3455.000000	99.364393 
3454.000000	99.362586 
3453.000000	99.362427 
3452.000000	99.364235 
3451.000000	99.366949 
3450.000000	99.368801 
3449.000000	99.368851 
3448.000000	99.367862 
3447.000000	99.367461 
3446.000000	99.368451 
3445.000000	99.370404 
3444.000000	99.372753 
3443.000000	99.375379 
3442.000000	99.377938 
3441.000000	99.379357 
3440.000000	99.378704 
3439.000000	99.376228 
3438.000000	99.372845 
3437.000000	99.368876 
3436.000000	99.364174 
3435.000000	99.359532 
3434.000000	99.356984 
3433.000000	99.358286 
3432.000000	99.363076 
3431.000000	99.368937 
3430.000000	99.373160 
3429.000000	99.374570 
3428.000000	99.373966 
3427.000000	99.372813 
3426.000000	99.371424 
3425.000000	99.368605 
3424.000000	99.363394 
3423.000000	99.356871 
3422.000000	99.351630 
3421.000000	99.349436 
3420.000000	99.350071 
3419.000000	99.352438 
3418.000000	99.355841 
3417.000000	99.359783 
3416.000000	99.363362 
3415.000000	99.365624 
3414.000000	99.366303 
3413.000000	99.365868 
3412.000000	99.365120 
3411.000000	99.364922 
3410.000000	99.365681 
3409.000000	99.366576 
3408.000000	99.365744 
3407.000000	99.362048 
3406.000000	99.356775 
3405.000000	99.353048 
3404.000000	99.353302 
3403.000000	99.357284 
3402.000000	99.362277 
3401.000000	99.365333 
3400.000000	99.365558 
3399.000000	99.364633 
3398.000000	99.365013 
3397.000000	99.367367 
3396.000000	99.369849 
3395.000000	99.369882 
3394.000000	99.366359 
3393.000000	99.360121 
3392.000000	99.353031 
3391.000000	99.347072 
3390.000000	99.344029 
3389.000000	99.345043 
3388.000000	99.349922 
3387.000000	99.357118 
3386.000000	99.364773 
3385.000000	99.371869 
3384.000000	99.378148 
3383.000000	99.382955 
3382.000000	99.384603 
3381.000000	99.381602 
3380.000000	99.374692 
3379.000000	99.367260 
3378.000000	99.362935 
3377.000000	99.362610 
3376.000000	99.364165 
3375.000000	99.365103 
3374.000000	99.364959 
3373.000000	99.365083 
3372.000000	99.366750 
3371.000000	99.369892 
3370.000000	99.373210 
3369.000000	99.374920 
3368.000000	99.373772 
3367.000000	99.370064 
3366.000000	99.365711 
3365.000000	99.362788 
3364.000000	99.361899 
3363.000000	99.362277 
3362.000000	99.363162 
3361.000000	99.364246 
3360.000000	99.364703 
3359.000000	99.362873 
3358.000000	99.358066 
3357.000000	99.352523 
3356.000000	99.350409 
3355.000000	99.353944 
3354.000000	99.360694 
3353.000000	99.365446 
3352.000000	99.365018 
3351.000000	99.361031 
3350.000000	99.357848 
3349.000000	99.358156 
3348.000000	99.360972 
3347.000000	99.363433 
3346.000000	99.363604 
3345.000000	99.361451 
3344.000000	99.358137 
3343.000000	99.355228 
3342.000000	99.353935 
3341.000000	99.354104 
3340.000000	99.353951 
3339.000000	99.351720 
3338.000000	99.348004 
3337.000000	99.345767 
3336.000000	99.347492 
3335.000000	99.352575 
3334.000000	99.357987 
3333.000000	99.361199 
3332.000000	99.361968 
3331.000000	99.361492 
3330.000000	99.360616 
3329.000000	99.359268 
3328.000000	99.357232 
3327.000000	99.354817 
3326.000000	99.352588 
3325.000000	99.350790 
3324.000000	99.349292 
3323.000000	99.348184 
3322.000000	99.348076 
3321.000000	99.349506 
3320.000000	99.352078 
3319.000000	99.354478 
3318.000000	99.355609 
3317.000000	99.355515 
3316.000000	99.354922 
3315.000000	99.354184 
3314.000000	99.353284 
3313.000000	99.352876 
3312.000000	99.354381 
3311.000000	99.358338 
3310.000000	99.363043 
3309.000000	99.365671 
3308.000000	99.364862 
3307.000000	99.361750 
3306.000000	99.358516 
3305.000000	99.356555 
3304.000000	99.356095 
3303.000000	99.356650 
3302.000000	99.357212 
3301.000000	99.356487 
3300.000000	99.353761 
3299.000000	99.349734 
3298.000000	99.346211 
3297.000000	99.344864 
3296.000000	99.346074 
3295.000000	99.348700 
3294.000000	99.350970 
3293.000000	99.352070 
3292.000000	99.352970 
3291.000000	99.355023 
3290.000000	99.357473 
3289.000000	99.357309 
3288.000000	99.352488 
3287.000000	99.344798 
3286.000000	99.338462 
3285.000000	99.335975 
3284.000000	99.336275 
3283.000000	99.337093 
3282.000000	99.337997 
3281.000000	99.340442 
3280.000000	99.345444 
3279.000000	99.352040 
3278.000000	99.357893 
3277.000000	99.360953 
3276.000000	99.360528 
3275.000000	99.357271 
3274.000000	99.352527 
3273.000000	99.347782 
3272.000000	99.344439 
3271.000000	99.343498 
3270.000000	99.344906 
3269.000000	99.347250 
3268.000000	99.348445 
3267.000000	99.347001 
3266.000000	99.342898 
3265.000000	99.337690 
3264.000000	99.333875 
3263.000000	99.333559 
3262.000000	99.336967 
3261.000000	99.342130 
3260.000000	99.346431 
3259.000000	99.348504 
3258.000000	99.348580 
3257.000000	99.347456 
3256.000000	99.345676 
3255.000000	99.343460 
3254.000000	99.340865 
3253.000000	99.338014 
3252.000000	99.335548 
3251.000000	99.334677 
3250.000000	99.336208 
3249.000000	99.339572 
3248.000000	99.343204 
3247.000000	99.345691 
3246.000000	99.346225 
3245.000000	99.344447 
3244.000000	99.340772 
3243.000000	99.336723 
3242.000000	99.333960 
3241.000000	99.332798 
3240.000000	99.332479 
3239.000000	99.333004 
3238.000000	99.335779 
3237.000000	99.341898 
3236.000000	99.350301 
3235.000000	99.358090 
3234.000000	99.362480 
3233.000000	99.362491 
3232.000000	99.359419 
3231.000000	99.356029 
3230.000000	99.354703 
3229.000000	99.355730 
3228.000000	99.357279 
3227.000000	99.356978 
3226.000000	99.353509 
3225.000000	99.347247 
3224.000000	99.340182 
3223.000000	99.335167 
3222.000000	99.334226 
3221.000000	99.336956 
3220.000000	99.340855 
3219.000000	99.343435 
3218.000000	99.343898 
3217.000000	99.343159 
3216.000000	99.343080 
3215.000000	99.345514 
3214.000000	99.350823 
3213.000000	99.356802 
3212.000000	99.359864 
3211.000000	99.357981 
3210.000000	99.352246 
3209.000000	99.345525 
3208.000000	99.340204 
3207.000000	99.337271 
3206.000000	99.336526 
3205.000000	99.336995 
3204.000000	99.337721 
3203.000000	99.338678 
3202.000000	99.340507 
3201.000000	99.343119 
3200.000000	99.345255 
3199.000000	99.345808 
3198.000000	99.344906 
3197.000000	99.343329 
3196.000000	99.341673 
3195.000000	99.340545 
3194.000000	99.340585 
3193.000000	99.341425 
3192.000000	99.341348 
3191.000000	99.338981 
3190.000000	99.334958 
3189.000000	99.331119 
3188.000000	99.328496 
3187.000000	99.326938 
3186.000000	99.326296 
3185.000000	99.326821 
3184.000000	99.328342 
3183.000000	99.329862 
3182.000000	99.330374 
3181.000000	99.329918 
3180.000000	99.329887 
3179.000000	99.332199 
3178.000000	99.337488 
3177.000000	99.343768 
3176.000000	99.347725 
3175.000000	99.348037 
3174.000000	99.346705 
3173.000000	99.346310 
3172.000000	99.346709 
3171.000000	99.345745 
3170.000000	99.342815 
3169.000000	99.340139 
3168.000000	99.340083 
3167.000000	99.342404 
3166.000000	99.344721 
3165.000000	99.344941 
3164.000000	99.342748 
3163.000000	99.339325 
3162.000000	99.336290 
3161.000000	99.334737 
3160.000000	99.334878 
3159.000000	99.336363 
3158.000000	99.338619 
3157.000000	99.340627 
3156.000000	99.340883 
3155.000000	99.338428 
3154.000000	99.333860 
3153.000000	99.328639 
3152.000000	99.323535 
3151.000000	99.318698 
3150.000000	99.315270 
3149.000000	99.315575 
3148.000000	99.320800 
3147.000000	99.329086 
3146.000000	99.336710 
3145.000000	99.340933 
3144.000000	99.341351 
3143.000000	99.339148 
3142.000000	99.336029 
3141.000000	99.333647 
3140.000000	99.332957 
3139.000000	99.333588 
3138.000000	99.334210 
3137.000000	99.333831 
3136.000000	99.332576 
3135.000000	99.331219 
3134.000000	99.330328 
3133.000000	99.329980 
3132.000000	99.329897 
3131.000000	99.329613 
3130.000000	99.328807 
3129.000000	99.327949 
3128.000000	99.328505 
3127.000000	99.331998 
3126.000000	99.338433 
3125.000000	99.345646 
3124.000000	99.350377 
3123.000000	99.350351 
3122.000000	99.345862 
3121.000000	99.339660 
3120.000000	99.335133 
3119.000000	99.334073 
3118.000000	99.335755 
3117.000000	99.338122 
3116.000000	99.339862 
3115.000000	99.341176 
3114.000000	99.342616 
3113.000000	99.343796 
3112.000000	99.343716 
3111.000000	99.342106 
3110.000000	99.339827 
3109.000000	99.337933 
3108.000000	99.336760 
3107.000000	99.336055 
3106.000000	99.335491 
3105.000000	99.334856 
3104.000000	99.334133 
3103.000000	99.333686 
3102.000000	99.334204 
3101.000000	99.336100 
3100.000000	99.339016 
3099.000000	99.342061 
3098.000000	99.344383 
3097.000000	99.345437 
3096.000000	99.345041 
3095.000000	99.343514 
3094.000000	99.341612 
3093.000000	99.339991 
3092.000000	99.338716 
3091.000000	99.337523 
3090.000000	99.336545 
3089.000000	99.336471 
3088.000000	99.337752 
3087.000000	99.339803 
3086.000000	99.341246 
3085.000000	99.341013 
3084.000000	99.339096 
3083.000000	99.336229 
3082.000000	99.333217 
3081.000000	99.330799 
3080.000000	99.329840 
3079.000000	99.330995 
3078.000000	99.333978 
3077.000000	99.337528 
3076.000000	99.340380 
3075.000000	99.342108 
3074.000000	99.342936 
3073.000000	99.343209 
3072.000000	99.343251 
3071.000000	99.343257 
3070.000000	99.342832 
3069.000000	99.340977 
3068.000000	99.337310 
3067.000000	99.333371 
3066.000000	99.332086 
3065.000000	99.335435 
3064.000000	99.342474 
3063.000000	99.349493 
3062.000000	99.352198 
3061.000000	99.348424 
3060.000000	99.339719 
3059.000000	99.330504 
3058.000000	99.325202 
3057.000000	99.325671 
3056.000000	99.330798 
3055.000000	99.337872 
3054.000000	99.343971 
3053.000000	99.346786 
3052.000000	99.345398 
3051.000000	99.340859 
3050.000000	99.335745 
3049.000000	99.332668 
3048.000000	99.332641 
3047.000000	99.334211 
3046.000000	99.334098 
3045.000000	99.329762 
3044.000000	99.322420 
3043.000000	99.317056 
3042.000000	99.318065 
3041.000000	99.324521 
3040.000000	99.330585 
3039.000000	99.330986 
3038.000000	99.325533 
3037.000000	99.318126 
3036.000000	99.312119 
3035.000000	99.307360 
3034.000000	99.301384 
3033.000000	99.292632 
3032.000000	99.282151 
3031.000000	99.272334 
3030.000000	99.264553 
3029.000000	99.258544 
3028.000000	99.253931 
3027.000000	99.251282 
3026.000000	99.250851 
3025.000000	99.250768 
3024.000000	99.247749 
3023.000000	99.240074 
3022.000000	99.229225 
3021.000000	99.218106 
3020.000000	99.208090 
3019.000000	99.198227 
3018.000000	99.187199 
3017.000000	99.175384 
3016.000000	99.164575 
3015.000000	99.155700 
3014.000000	99.147537 
3013.000000	99.138306 
3012.000000	99.128191 
3011.000000	99.119111 
3010.000000	99.111816 
3009.000000	99.104518 
3008.000000	99.095201 
3007.000000	99.084197 
3006.000000	99.073208 
3005.000000	99.062434 
3004.000000	99.050260 
3003.000000	99.035848 
3002.000000	99.020756 
3001.000000	99.007650 
3000.000000	98.998100 
2999.000000	98.991807 
2998.000000	98.987274 
2997.000000	98.983164 
2996.000000	98.979480 
2995.000000	98.976942 
2994.000000	98.974273 
2993.000000	98.966734 
2992.000000	98.949370 
2991.000000	98.922643 
2990.000000	98.893951 
2989.000000	98.872855 
2988.000000	98.864866 
2987.000000	98.869393 
2986.000000	98.881781 
2985.000000	98.896280 
2984.000000	98.908081 
2983.000000	98.914625 
2982.000000	98.916020 
2981.000000	98.914397 
2980.000000	98.912614 
2979.000000	98.912867 
2978.000000	98.915462 
2977.000000	98.918508 
2976.000000	98.919318 
2975.000000	98.916559 
2974.000000	98.911114 
2973.000000	98.905248 
2972.000000	98.901543 
2971.000000	98.902219 
2970.000000	98.908220 
2969.000000	98.918496 
2968.000000	98.930811 
2967.000000	98.943472 
2966.000000	98.955733 
2965.000000	98.966759 
2964.000000	98.975512 
2963.000000	98.982036 
2962.000000	98.987753 
2961.000000	98.993758 
2960.000000	98.999658 
2959.000000	99.004654 
2958.000000	99.008940 
2957.000000	99.013285 
2956.000000	99.017981 
2955.000000	99.023116 
2954.000000	99.029343 
2953.000000	99.037311 
2952.000000	99.046423 
2951.000000	99.054923 
2950.000000	99.061351 
2949.000000	99.065504 
2948.000000	99.068022 
2947.000000	99.069650 
2946.000000	99.071142 
2945.000000	99.073595 
2944.000000	99.078149 
2943.000000	99.084763 
2942.000000	99.091273 
2941.000000	99.094584 
2940.000000	99.093655 
2939.000000	99.091196 
2938.000000	99.091613 
2937.000000	99.097203 
2936.000000	99.106691 
2935.000000	99.116991 
2934.000000	99.125462 
2933.000000	99.130683 
2932.000000	99.132518 
2931.000000	99.132003 
2930.000000	99.130542 
2929.000000	99.128888 
2928.000000	99.127261 
2927.000000	99.126081 
2926.000000	99.125548 
2925.000000	99.124682 
2924.000000	99.122132 
2923.000000	99.118124 
2922.000000	99.114264 
2921.000000	99.111003 
2920.000000	99.106688 
2919.000000	99.099803 
2918.000000	99.091115 
2917.000000	99.082799 
2916.000000	99.076217 
2915.000000	99.071160 
2914.000000	99.066561 
2913.000000	99.061346 
2912.000000	99.055248 
2911.000000	99.049184 
2910.000000	99.044207 
2909.000000	99.040005 
2908.000000	99.035281 
2907.000000	99.029813 
2906.000000	99.024579 
2905.000000	99.019220 
2904.000000	99.011032 
2903.000000	98.998342 
2902.000000	98.984328 
2901.000000	98.976307 
2900.000000	98.979591 
2899.000000	98.993426 
2898.000000	99.011337 
2897.000000	99.025464 
2896.000000	99.031608 
2895.000000	99.031605 
2894.000000	99.031058 
2893.000000	99.034098 
2892.000000	99.040326 
2891.000000	99.046535 
2890.000000	99.050329 
2889.000000	99.051388 
2888.000000	99.050485 
2887.000000	99.048898 
2886.000000	99.048523 
2885.000000	99.050979 
2884.000000	99.056303 
2883.000000	99.063346 
2882.000000	99.071483 
2881.000000	99.080917 
2880.000000	99.091145 
2879.000000	99.100365 
2878.000000	99.107246 
2877.000000	99.112742 
2876.000000	99.119226 
2875.000000	99.127779 
2874.000000	99.136931 
2873.000000	99.144297 
2872.000000	99.148997 
2871.000000	99.151997 
2870.000000	99.154416 
2869.000000	99.156647 
2868.000000	99.159638 
2867.000000	99.165824 
2866.000000	99.177072 
2865.000000	99.191712 
2864.000000	99.205164 
2863.000000	99.214177 
2862.000000	99.219490 
2861.000000	99.223905 
2860.000000	99.229097 
2859.000000	99.235234 
2858.000000	99.242277 
2857.000000	99.249935 
2856.000000	99.256812 
2855.000000	99.261228 
2854.000000	99.263080 
2853.000000	99.263981 
2852.000000	99.265530 
2851.000000	99.268146 
2850.000000	99.271521 
2849.000000	99.275270 
2848.000000	99.278893 
2847.000000	99.281839 
2846.000000	99.283967 
2845.000000	99.285609 
2844.000000	99.287022 
2843.000000	99.288187 
2842.000000	99.289384 
2841.000000	99.291578 
2840.000000	99.295776 
2839.000000	99.301918 
2838.000000	99.308522 
2837.000000	99.313628 
2836.000000	99.316206 
2835.000000	99.316730 
2834.000000	99.316401 
2833.000000	99.316046 
2832.000000	99.315827 
2831.000000	99.315616 
2830.000000	99.315111 
2829.000000	99.313810 
2828.000000	99.311611 
2827.000000	99.309521 
2826.000000	99.309175 
2825.000000	99.311337 
2824.000000	99.315224 
2823.000000	99.319301 
2822.000000	99.322278 
2821.000000	99.323505 
2820.000000	99.323232 
2819.000000	99.322651 
2818.000000	99.322826 
2817.000000	99.323356 
2816.000000	99.322923 
2815.000000	99.321369 
2814.000000	99.320153 
2813.000000	99.320346 
2812.000000	99.321373 
2811.000000	99.322598 
2810.000000	99.324927 
2809.000000	99.329430 
2808.000000	99.335037 
2807.000000	99.339061 
2806.000000	99.339880 
2805.000000	99.338032 
2804.000000	99.334970 
2803.000000	99.332023 
2802.000000	99.330504 
2801.000000	99.331355 
2800.000000	99.334049 
2799.000000	99.336669 
2798.000000	99.337596 
2797.000000	99.336622 
2796.000000	99.334392 
2795.000000	99.331691 
2794.000000	99.329644 
2793.000000	99.329559 
2792.000000	99.331557 
2791.000000	99.333797 
2790.000000	99.334055 
2789.000000	99.332157 
2788.000000	99.330287 
2787.000000	99.330684 
2786.000000	99.333378 
2785.000000	99.336251 
2784.000000	99.337085 
2783.000000	99.335401 
2782.000000	99.332594 
2781.000000	99.330562 
2780.000000	99.330262 
2779.000000	99.331370 
2778.000000	99.333061 
2777.000000	99.334883 
2776.000000	99.336901 
2775.000000	99.339242 
2774.000000	99.341834 
2773.000000	99.344629 
2772.000000	99.347781 
2771.000000	99.351322 
2770.000000	99.354723 
2769.000000	99.357160 
2768.000000	99.358328 
2767.000000	99.358729 
2766.000000	99.358968 
2765.000000	99.358865 
2764.000000	99.357461 
2763.000000	99.353894 
2762.000000	99.348392 
2761.000000	99.342650 
2760.000000	99.339131 
2759.000000	99.339373 
2758.000000	99.342669 
2757.000000	99.346769 
2756.000000	99.349970 
2755.000000	99.352016 
2754.000000	99.352877 
2753.000000	99.351948 
2752.000000	99.349458 
2751.000000	99.347721 
2750.000000	99.349224 
2749.000000	99.353407 
2748.000000	99.356741 
2747.000000	99.356467 
2746.000000	99.353207 
2745.000000	99.349472 
2744.000000	99.346734 
2743.000000	99.344902 
2742.000000	99.343934 
2741.000000	99.344731 
2740.000000	99.348177 
2739.000000	99.353792 
2738.000000	99.359619 
2737.000000	99.363541 
2736.000000	99.364909 
2735.000000	99.364772 
2734.000000	99.364348 
2733.000000	99.363588 
2732.000000	99.361772 
2731.000000	99.359107 
2730.000000	99.356720 
2729.000000	99.355074 
2728.000000	99.353483 
2727.000000	99.351595 
2726.000000	99.350311 
2725.000000	99.350629 
2724.000000	99.352414 
2723.000000	99.355069 
2722.000000	99.358604 
2721.000000	99.362955 
2720.000000	99.366674 
2719.000000	99.367591 
2718.000000	99.365107 
2717.000000	99.361126 
2716.000000	99.358410 
2715.000000	99.358314 
2714.000000	99.360240 
2713.000000	99.362726 
2712.000000	99.364608 
2711.000000	99.365369 
2710.000000	99.365046 
2709.000000	99.364199 
2708.000000	99.363657 
2707.000000	99.363687 
2706.000000	99.363345 
2705.000000	99.361379 
2704.000000	99.358106 
2703.000000	99.355639 
2702.000000	99.355541 
2701.000000	99.356762 
2700.000000	99.356969 
2699.000000	99.355651 
2698.000000	99.354703 
2697.000000	99.355730 
2696.000000	99.357863 
2695.000000	99.358796 
2694.000000	99.357404 
2693.000000	99.354810 
2692.000000	99.353227 
2691.000000	99.353925 
2690.000000	99.355968 
2689.000000	99.356930 
2688.000000	99.355446 
2687.000000	99.353034 
2686.000000	99.352778 
2685.000000	99.356092 
2684.000000	99.361420 
2683.000000	99.365974 
2682.000000	99.367844 
2681.000000	99.366414 
2680.000000	99.362190 
2679.000000	99.357028 
2678.000000	99.353653 
2677.000000	99.353926 
2676.000000	99.357631 
2675.000000	99.363065 
2674.000000	99.368126 
2673.000000	99.370739 
2672.000000	99.369507 
2671.000000	99.364938 
2670.000000	99.359454 
2669.000000	99.355377 
2668.000000	99.353225 
2667.000000	99.352376 
2666.000000	99.352565 
2665.000000	99.353874 
2664.000000	99.355848 
2663.000000	99.357755 
2662.000000	99.359662 
2661.000000	99.362398 
2660.000000	99.366278 
2659.000000	99.370389 
2658.000000	99.373307 
2657.000000	99.374392 
2656.000000	99.374367 
2655.000000	99.374565 
2654.000000	99.375455 
2653.000000	99.376252 
2652.000000	99.376603 
2651.000000	99.378125 
2650.000000	99.382748 
2649.000000	99.389281 
2648.000000	99.393373 
2647.000000	99.392097 
2646.000000	99.387489 
2645.000000	99.384206 
2644.000000	99.384376 
2643.000000	99.386067 
2642.000000	99.386206 
2641.000000	99.383552 
2640.000000	99.379073 
2639.000000	99.374941 
2638.000000	99.373341 
2637.000000	99.375023 
2636.000000	99.378521 
2635.000000	99.381483 
2634.000000	99.382927 
2633.000000	99.383757 
2632.000000	99.385280 
2631.000000	99.388026 
2630.000000	99.391839 
2629.000000	99.396099 
2628.000000	99.399671 
2627.000000	99.401490 
2626.000000	99.401586 
2625.000000	99.401185 
2624.000000	99.401684 
2623.000000	99.403745 
2622.000000	99.407025 
2621.000000	99.410211 
2620.000000	99.411659 
2619.000000	99.410882 
2618.000000	99.409380 
2617.000000	99.409324 
2616.000000	99.411339 
2615.000000	99.414114 
2614.000000	99.416008 
2613.000000	99.416392 
2612.000000	99.415582 
2611.000000	99.414236 
2610.000000	99.412850 
2609.000000	99.411250 
2608.000000	99.408752 
2607.000000	99.405583 
2606.000000	99.403881 
2605.000000	99.406031 
2604.000000	99.411537 
2603.000000	99.416569 
2602.000000	99.417505 
2601.000000	99.414659 
2600.000000	99.411927 
2599.000000	99.412680 
2598.000000	99.416199 
2597.000000	99.418074 
2596.000000	99.414134 
2595.000000	99.404230 
2594.000000	99.392447 
2593.000000	99.383779 
2592.000000	99.380707 
2591.000000	99.382685 
2590.000000	99.387870 
2589.000000	99.394326 
2588.000000	99.399834 
2587.000000	99.401976 
2586.000000	99.399548 
2585.000000	99.393870 
2584.000000	99.388096 
2583.000000	99.384873 
2582.000000	99.384652 
2581.000000	99.386133 
2580.000000	99.387887 
2579.000000	99.389151 
2578.000000	99.389313 
2577.000000	99.387526 
2576.000000	99.383446 
2575.000000	99.378106 
2574.000000	99.373608 
2573.000000	99.371928 
2572.000000	99.374028 
2571.000000	99.379510 
2570.000000	99.386577 
2569.000000	99.392741 
2568.000000	99.396259 
2567.000000	99.396847 
2566.000000	99.394856 
2565.000000	99.390558 
2564.000000	99.384905 
2563.000000	99.380059 
2562.000000	99.377790 
2561.000000	99.377609 
2560.000000	99.377538 
2559.000000	99.376423 
2558.000000	99.374508 
2557.000000	99.372494 
2556.000000	99.371635 
2555.000000	99.374094 
2554.000000	99.380777 
2553.000000	99.388520 
2552.000000	99.391778 
2551.000000	99.388198 
2550.000000	99.380944 
2549.000000	99.374673 
2548.000000	99.370799 
2547.000000	99.367834 
2546.000000	99.364889 
2545.000000	99.363124 
2544.000000	99.364109 
2543.000000	99.367608 
2542.000000	99.370792 
2541.000000	99.369864 
2540.000000	99.363894 
2539.000000	99.357182 
2538.000000	99.355884 
2537.000000	99.361362 
2536.000000	99.368593 
2535.000000	99.372102 
2534.000000	99.371319 
2533.000000	99.368456 
2532.000000	99.363638 
2531.000000	99.355626 
2530.000000	99.346613 
2529.000000	99.342472 
2528.000000	99.346751 
2527.000000	99.356409 
2526.000000	99.365020 
2525.000000	99.369210 
2524.000000	99.370767 
2523.000000	99.373249 
2522.000000	99.378025 
2521.000000	99.383711 
2520.000000	99.387977 
2519.000000	99.388700 
2518.000000	99.384046 
2517.000000	99.373412 
2516.000000	99.359193 
2515.000000	99.346379 
2514.000000	99.338974 
2513.000000	99.337260 
2512.000000	99.339468 
2511.000000	99.344957 
2510.000000	99.353822 
2509.000000	99.364031 
2508.000000	99.371721 
2507.000000	99.374950 
2506.000000	99.375149 
2505.000000	99.374270 
2504.000000	99.372563 
2503.000000	99.370159 
2502.000000	99.368891 
2501.000000	99.370990 
2500.000000	99.376887 
2499.000000	99.384976 
2498.000000	99.392203 
2497.000000	99.394392 
2496.000000	99.388360 
2495.000000	99.375472 
2494.000000	99.361829 
2493.000000	99.353285 
2492.000000	99.351095 
2491.000000	99.353360 
2490.000000	99.359012 
2489.000000	99.368340 
2488.000000	99.380455 
2487.000000	99.392121 
2486.000000	99.399045 
2485.000000	99.397870 
2484.000000	99.388284 
2483.000000	99.374402 
2482.000000	99.362783 
2481.000000	99.357320 
2480.000000	99.356606 
2479.000000	99.357166 
2478.000000	99.357748 
2477.000000	99.358957 
2476.000000	99.360468 
2475.000000	99.361223 
2474.000000	99.361577 
2473.000000	99.362735 
2472.000000	99.364333 
2471.000000	99.364802 
2470.000000	99.364069 
2469.000000	99.363774 
2468.000000	99.364645 
2467.000000	99.365504 
2466.000000	99.365185 
2465.000000	99.363838 
2464.000000	99.362146 
2463.000000	99.360784 
2462.000000	99.360789 
2461.000000	99.362735 
2460.000000	99.365097 
2459.000000	99.365004 
2458.000000	99.361310 
2457.000000	99.355811 
2456.000000	99.351080 
2455.000000	99.348450 
2454.000000	99.348417 
2453.000000	99.351105 
2452.000000	99.354925 
2451.000000	99.356072 
2450.000000	99.351354 
2449.000000	99.341734 
2448.000000	99.332206 
2447.000000	99.327926 
2446.000000	99.330583 
2445.000000	99.337770 
2444.000000	99.344845 
2443.000000	99.347569 
2442.000000	99.344321 
2441.000000	99.337107 
2440.000000	99.330476 
2439.000000	99.328527 
2438.000000	99.332010 
2437.000000	99.338104 
2436.000000	99.343159 
2435.000000	99.345589 
2434.000000	99.346107 
2433.000000	99.346082 
2432.000000	99.346670 
2431.000000	99.348928 
2430.000000	99.352910 
2429.000000	99.356210 
2428.000000	99.355188 
2427.000000	99.348970 
2426.000000	99.341324 
2425.000000	99.337395 
2424.000000	99.339261 
2423.000000	99.345624 
2422.000000	99.354636 
2421.000000	99.364839 
2420.000000	99.373506 
2419.000000	99.376543 
2418.000000	99.371717 
2417.000000	99.361364 
2416.000000	99.350838 
2415.000000	99.344188 
2414.000000	99.341707 
2413.000000	99.341245 
2412.000000	99.341119 
2411.000000	99.341471 
2410.000000	99.343255 
2409.000000	99.346423 
2408.000000	99.349304 
2407.000000	99.349703 
2406.000000	99.346700 
2405.000000	99.341629 
2404.000000	99.337240 
2403.000000	99.335446 
2402.000000	99.335637 
2401.000000	99.335380 
2400.000000	99.332749 
2399.000000	99.327630 
2398.000000	99.321115 
2397.000000	99.314812 
2396.000000	99.310862 
2395.000000	99.310852 
2394.000000	99.313617 
2393.000000	99.315522 
2392.000000	99.314583 
2391.000000	99.313194 
2390.000000	99.314939 
2389.000000	99.319774 
2388.000000	99.324751 
2387.000000	99.328770 
2386.000000	99.333468 
2385.000000	99.339201 
2384.000000	99.343414 
2383.000000	99.344390 
2382.000000	99.343950 
2381.000000	99.344408 
2380.000000	99.344839 
2379.000000	99.342831 
2378.000000	99.338768 
2377.000000	99.335866 
2376.000000	99.336273 
2375.000000	99.339054 
2374.000000	99.341671 
2373.000000	99.341805 
2372.000000	99.338234 
2371.000000	99.332002 
2370.000000	99.326621 
2369.000000	99.325483 
2368.000000	99.328866 
2367.000000	99.334321 
2366.000000	99.339773 
2365.000000	99.345370 
2364.000000	99.351946 
2363.000000	99.358521 
2362.000000	99.361988 
2361.000000	99.359649 
2360.000000	99.352907 
2359.000000	99.346529 
2358.000000	99.343629 
2357.000000	99.343673 
2356.000000	99.345560 
2355.000000	99.349602 
2354.000000	99.353275 
2353.000000	99.352875 
2352.000000	99.348715 
2351.000000	99.345641 
2350.000000	99.347325 
2349.000000	99.351991 
2348.000000	99.355586 
2347.000000	99.355392 
2346.000000	99.352799 
2345.000000	99.352282 
2344.000000	99.356312 
2343.000000	99.363245 
2342.000000	99.367765 
2341.000000	99.366648 
2340.000000	99.361529 
2339.000000	99.357895 
2338.000000	99.358909 
2337.000000	99.361382 
2336.000000	99.359764 
2335.000000	99.352098 
2334.000000	99.342934 
2333.000000	99.338902 
2332.000000	99.343195 
2331.000000	99.350528 
2330.000000	99.353523 
2329.000000	99.349893 
2328.000000	99.347343 
2327.000000	99.353574 
2326.000000	99.368673 
2325.000000	99.383767 
2324.000000	99.390038 
2323.000000	99.386998 
2322.000000	99.381938 
2321.000000	99.381398 
2320.000000	99.384133 
2319.000000	99.384075 
2318.000000	99.378845 
2317.000000	99.371421 
2316.000000	99.366089 
2315.000000	99.362932 
2314.000000	99.360446 
2313.000000	99.357922 
2312.000000	99.357234 
2311.000000	99.358648 
2310.000000	99.360426 
2309.000000	99.359659 
2308.000000	99.356309 
2307.000000	99.352698 
2306.000000	99.351839 
2305.000000	99.354258 
2304.000000	99.358575 
2303.000000	99.362408 
2302.000000	99.364083 
2301.000000	99.362813 
2300.000000	99.360427 
2299.000000	99.360582 
2298.000000	99.365764 
2297.000000	99.373010 
2296.000000	99.376391 
2295.000000	99.373147 
2294.000000	99.366966 
2293.000000	99.363150 
2292.000000	99.363462 
2291.000000	99.366244 
2290.000000	99.369910 
2289.000000	99.373685 
2288.000000	99.376431 
2287.000000	99.377104 
2286.000000	99.375819 
2285.000000	99.372958 
2284.000000	99.368102 
2283.000000	99.361892 
2282.000000	99.357411 
2281.000000	99.357333 
2280.000000	99.360247 
2279.000000	99.362486 
2278.000000	99.362720 
2277.000000	99.362320 
2276.000000	99.362001 
2275.000000	99.361061 
2274.000000	99.359656 
2273.000000	99.358722 
2272.000000	99.357930 
2271.000000	99.356633 
2270.000000	99.356892 
2269.000000	99.361905 
2268.000000	99.370690 
2267.000000	99.377506 
2266.000000	99.377946 
2265.000000	99.372925 
2264.000000	99.365447 
2263.000000	99.356511 
2262.000000	99.346423 
2261.000000	99.337635 
2260.000000	99.333061 
2259.000000	99.332548 
2258.000000	99.333354 
2257.000000	99.333875 
2256.000000	99.334782 
2255.000000	99.336507 
2254.000000	99.337513 
2253.000000	99.336123 
2252.000000	99.333110 
2251.000000	99.330866 
2250.000000	99.329976 
2249.000000	99.327929 
2248.000000	99.322153 
2247.000000	99.314345 
2246.000000	99.309138 
2245.000000	99.309010 
2244.000000	99.312076 
2243.000000	99.315513 
2242.000000	99.319069 
2241.000000	99.324278 
2240.000000	99.332387 
2239.000000	99.344121 
2238.000000	99.358495 
2237.000000	99.369743 
2236.000000	99.368953 
2235.000000	99.353310 
2234.000000	99.332479 
2233.000000	99.321341 
2232.000000	99.325618 
2231.000000	99.337463 
2230.000000	99.345032 
2229.000000	99.343294 
2228.000000	99.335338 
2227.000000	99.326599 
2226.000000	99.319870 
2225.000000	99.314850 
2224.000000	99.311489 
2223.000000	99.313042 
2222.000000	99.323174 
2221.000000	99.338245 
2220.000000	99.346295 
2219.000000	99.338922 
2218.000000	99.322758 
2217.000000	99.313545 
2216.000000	99.318579 
2215.000000	99.330587 
2214.000000	99.339569 
2213.000000	99.343804 
2212.000000	99.346129 
2211.000000	99.346034 
2210.000000	99.341950 
2209.000000	99.337888 
2208.000000	99.340298 
2207.000000	99.348030 
2206.000000	99.351329 
2205.000000	99.343272 
2204.000000	99.329132 
2203.000000	99.321468 
2202.000000	99.326816 
2201.000000	99.338652 
2200.000000	99.343556 
2199.000000	99.334126 
2198.000000	99.316016 
2197.000000	99.302548 
2196.000000	99.302632 
2195.000000	99.314292 
2194.000000	99.328935 
2193.000000	99.339147 
2192.000000	99.341956 
2191.000000	99.338284 
2190.000000	99.333137 
2189.000000	99.334704 
2188.000000	99.347565 
2187.000000	99.364795 
2186.000000	99.370834 
2185.000000	99.356313 
2184.000000	99.329097 
2183.000000	99.307203 
2182.000000	99.301363 
2181.000000	99.307204 
2180.000000	99.313746 
2179.000000	99.315452 
2178.000000	99.314649 
2177.000000	99.316150 
2176.000000	99.322035 
2175.000000	99.329320 
2174.000000	99.331142 
2173.000000	99.323470 
2172.000000	99.313179 
2171.000000	99.315670 
2170.000000	99.339605 
2169.000000	99.374850 
2168.000000	99.400186 
2167.000000	99.403583 
2166.000000	99.391562 
2165.000000	99.379730 
2164.000000	99.378853 
2163.000000	99.389981 
2162.000000	99.406268 
2161.000000	99.415302 
2160.000000	99.404700 
2159.000000	99.371875 
2158.000000	99.327398 
2157.000000	99.285575 
2156.000000	99.254171 
2155.000000	99.235610 
2154.000000	99.232233 
2153.000000	99.244506 
2152.000000	99.266145 
2151.000000	99.285672 
2150.000000	99.294034 
2149.000000	99.290915 
2148.000000	99.284574 
2147.000000	99.284576 
2146.000000	99.292255 
2145.000000	99.298121 
2144.000000	99.291313 
2143.000000	99.271952 
2142.000000	99.251256 
2141.000000	99.239447 
2140.000000	99.237224 
2139.000000	99.240351 
2138.000000	99.247780 
2137.000000	99.260753 
2136.000000	99.276164 
2135.000000	99.286043 
2134.000000	99.285044 
2133.000000	99.276376 
2132.000000	99.268815 
2131.000000	99.267881 
2130.000000	99.270418 
2129.000000	99.268160 
2128.000000	99.257089 
2127.000000	99.242498 
2126.000000	99.233721 
2125.000000	99.235106 
2124.000000	99.244233 
2123.000000	99.257690 
2122.000000	99.274160 
2121.000000	99.291131 
2120.000000	99.303449 
2119.000000	99.308459 
2118.000000	99.309971 
2117.000000	99.313960 
2116.000000	99.321588 
2115.000000	99.328787 
2114.000000	99.331375 
2113.000000	99.328138 
2112.000000	99.320237 
2111.000000	99.310749 
2110.000000	99.304635 
2109.000000	99.305953 
2108.000000	99.313557 
2107.000000	99.320912 
2106.000000	99.321486 
2105.000000	99.314594 
2104.000000	99.306117 
2103.000000	99.303217 
2102.000000	99.307453 
2101.000000	99.312832 
2100.000000	99.311730 
2099.000000	99.302913 
2098.000000	99.292324 
2097.000000	99.286041 
2096.000000	99.284843 
2095.000000	99.286641 
2094.000000	99.291003 
2093.000000	99.298270 
2092.000000	99.306391 
2091.000000	99.312417 
2090.000000	99.316689 
2089.000000	99.322245 
2088.000000	99.329069 
2087.000000	99.331334 
2086.000000	99.322719 
2085.000000	99.304707 
2084.000000	99.288196 
2083.000000	99.284914 
2082.000000	99.296362 
2081.000000	99.311988 
2080.000000	99.319877 
2079.000000	99.318883 
2078.000000	99.318359 
2077.000000	99.326499 
2076.000000	99.341478 
2075.000000	99.354221 
2074.000000	99.356651 
2073.000000	99.346425 
2072.000000	99.327382 
2071.000000	99.307693 
2070.000000	99.295354 
2069.000000	99.292357 
2068.000000	99.293151 
2067.000000	99.290278 
2066.000000	99.281548 
2065.000000	99.272077 
2064.000000	99.270315 
2063.000000	99.281118 
2062.000000	99.300087 
2061.000000	99.314935 
2060.000000	99.316659 
2059.000000	99.310094 
2058.000000	99.308845 
2057.000000	99.318495 
2056.000000	99.330089 
2055.000000	99.333132 
2054.000000	99.329832 
2053.000000	99.331334 
2052.000000	99.342940 
2051.000000	99.358318 
2050.000000	99.366856 
2049.000000	99.363189 
2048.000000	99.351090 
2047.000000	99.340710 
2046.000000	99.340985 
2045.000000	99.351428 
2044.000000	99.361266 
2043.000000	99.359458 
2042.000000	99.345822 
2041.000000	99.330751 
2040.000000	99.324468 
2039.000000	99.328571 
2038.000000	99.337220 
2037.000000	99.343276 
2036.000000	99.342873 
2035.000000	99.335469 
2034.000000	99.320592 
2033.000000	99.297310 
2032.000000	99.270000 
2031.000000	99.252033 
2030.000000	99.256640 
2029.000000	99.281666 
2028.000000	99.308521 
2027.000000	99.319425 
2026.000000	99.311275 
2025.000000	99.292367 
2024.000000	99.273415 
2023.000000	99.264442 
2022.000000	99.271534 
2021.000000	99.289280 
2020.000000	99.302036 
2019.000000	99.300137 
2018.000000	99.290497 
2017.000000	99.285090 
2016.000000	99.284028 
2015.000000	99.279148 
2014.000000	99.269517 
2013.000000	99.262190 
2012.000000	99.260021 
2011.000000	99.258725 
2010.000000	99.256182 
2009.000000	99.255797 
2008.000000	99.258807 
2007.000000	99.260769 
2006.000000	99.258415 
2005.000000	99.254716 
2004.000000	99.255434 
2003.000000	99.264509 
2002.000000	99.282331 
2001.000000	99.303279 
2000.000000	99.315799 
1999.000000	99.310733 
1998.000000	99.290103 
1997.000000	99.264771 
1996.000000	99.244500 
1995.000000	99.233462 
1994.000000	99.233169 
1993.000000	99.242801 
1992.000000	99.255076 
1991.000000	99.258666 
1990.000000	99.249129 
1989.000000	99.233945 
1988.000000	99.225666 
1987.000000	99.232515 
1986.000000	99.254252 
1985.000000	99.282654 
1984.000000	99.305626 
1983.000000	99.315167 
1982.000000	99.313206 
1981.000000	99.307585 
1980.000000	99.302300 
1979.000000	99.294909 
1978.000000	99.283396 
1977.000000	99.270693 
1976.000000	99.260071 
1975.000000	99.250471 
1974.000000	99.240297 
1973.000000	99.232243 
1972.000000	99.230235 
1971.000000	99.233742 
1970.000000	99.239116 
1969.000000	99.245648 
1968.000000	99.256204 
1967.000000	99.270654 
1966.000000	99.282235 
1965.000000	99.283545 
1964.000000	99.274785 
1963.000000	99.263888 
1962.000000	99.259479 
1961.000000	99.264301 
1960.000000	99.273905 
1959.000000	99.280305 
1958.000000	99.277637 
1957.000000	99.266622 
1956.000000	99.253873 
1955.000000	99.245034 
1954.000000	99.238585 
1953.000000	99.228867 
1952.000000	99.215543 
1951.000000	99.206423 
1950.000000	99.208672 
1949.000000	99.219796 
1948.000000	99.230681 
1947.000000	99.236102 
1946.000000	99.237621 
1945.000000	99.237015 
1944.000000	99.232794 
1943.000000	99.225047 
1942.000000	99.218490 
1941.000000	99.216319 
1940.000000	99.215674 
1939.000000	99.213064 
1938.000000	99.210270 
1937.000000	99.212117 
1936.000000	99.220030 
1935.000000	99.229966 
1934.000000	99.236089 
1933.000000	99.235036 
1932.000000	99.227693 
1931.000000	99.219164 
1930.000000	99.216734 
1929.000000	99.224026 
1928.000000	99.236123 
1927.000000	99.242914 
1926.000000	99.237596 
1925.000000	99.221198 
1924.000000	99.201088 
1923.000000	99.187189 
1922.000000	99.187296 
1921.000000	99.201797 
1920.000000	99.222990 
1919.000000	99.240182 
1918.000000	99.246128 
1917.000000	99.240720 
1916.000000	99.229159 
1915.000000	99.218357 
1914.000000	99.214687 
1913.000000	99.221054 
1912.000000	99.233975 
1911.000000	99.245643 
1910.000000	99.250536 
1909.000000	99.249158 
1908.000000	99.245996 
1907.000000	99.245555 
1906.000000	99.249562 
1905.000000	99.255217 
1904.000000	99.255975 
1903.000000	99.246576 
1902.000000	99.228242 
1901.000000	99.207944 
1900.000000	99.193513 
1899.000000	99.189616 
1898.000000	99.195771 
1897.000000	99.206111 
1896.000000	99.212780 
1895.000000	99.212851 
1894.000000	99.211158 
1893.000000	99.213439 
1892.000000	99.218863 
1891.000000	99.222192 
1890.000000	99.221394 
1889.000000	99.220212 
1888.000000	99.222725 
1887.000000	99.229127 
1886.000000	99.236480 
1885.000000	99.240144 
1884.000000	99.236064 
1883.000000	99.224693 
1882.000000	99.212122 
1881.000000	99.205196 
1880.000000	99.206036 
1879.000000	99.211858 
1878.000000	99.218036 
1877.000000	99.220296 
1876.000000	99.216838 
1875.000000	99.210735 
1874.000000	99.208375 
1873.000000	99.212526 
1872.000000	99.217896 
1871.000000	99.216335 
1870.000000	99.206043 
1869.000000	99.193627 
1868.000000	99.184701 
1867.000000	99.177630 
1866.000000	99.170319 
1865.000000	99.165032 
1864.000000	99.165822 
1863.000000	99.174989 
1862.000000	99.191304 
1861.000000	99.209475 
1860.000000	99.222447 
1859.000000	99.227314 
1858.000000	99.228343 
1857.000000	99.231387 
1856.000000	99.236838 
1855.000000	99.240955 
1854.000000	99.241402 
1853.000000	99.238479 
1852.000000	99.233017 
1851.000000	99.226145 
1850.000000	99.220474 
1849.000000	99.218622 
1848.000000	99.220292 
1847.000000	99.223017 
1846.000000	99.225589 
1845.000000	99.227734 
1844.000000	99.227589 
1843.000000	99.224104 
1842.000000	99.220589 
1841.000000	99.220849 
1840.000000	99.224887 
1839.000000	99.229451 
1838.000000	99.231550 
1837.000000	99.231214 
1836.000000	99.230545 
1835.000000	99.231250 
1834.000000	99.233365 
1833.000000	99.235923 
1832.000000	99.238493 
1831.000000	99.240612 
1830.000000	99.241068 
1829.000000	99.239541 
1828.000000	99.238175 
1827.000000	99.239050 
1826.000000	99.241309 
1825.000000	99.242602 
1824.000000	99.242140 
1823.000000	99.241524 
1822.000000	99.242436 
1821.000000	99.243655 
1820.000000	99.241774 
1819.000000	99.235047 
1818.000000	99.226120 
1817.000000	99.219723 
1816.000000	99.217151 
1815.000000	99.215843 
1814.000000	99.214273 
1813.000000	99.214544 
1812.000000	99.220005 
1811.000000	99.230527 
1810.000000	99.242852 
1809.000000	99.254268 
1808.000000	99.262260 
1807.000000	99.264327 
1806.000000	99.261266 
1805.000000	99.257603 
1804.000000	99.256697 
1803.000000	99.257504 
1802.000000	99.257863 
1801.000000	99.258662 
1800.000000	99.260465 
1799.000000	99.260370 
1798.000000	99.256930 
1797.000000	99.252576 
1796.000000	99.249918 
1795.000000	99.249403 
1794.000000	99.250154 
1793.000000	99.251060 
1792.000000	99.251891 
1791.000000	99.252651 
1790.000000	99.253464 
1789.000000	99.255375 
1788.000000	99.259119 
1787.000000	99.263790 
1786.000000	99.267341 
1785.000000	99.267732 
1784.000000	99.263584 
1783.000000	99.256564 
1782.000000	99.251498 
1781.000000	99.251664 
1780.000000	99.254076 
1779.000000	99.252452 
1778.000000	99.245846 
1777.000000	99.239087 
1776.000000	99.236481 
1775.000000	99.239570 
1774.000000	99.247998 
1773.000000	99.258805 
1772.000000	99.266803 
1771.000000	99.269562 
1770.000000	99.269064 
1769.000000	99.267285 
1768.000000	99.265318 
1767.000000	99.263556 
1766.000000	99.262416 
1765.000000	99.263106 
1764.000000	99.266204 
1763.000000	99.270642 
1762.000000	99.273972 
1761.000000	99.274570 
1760.000000	99.273391 
1759.000000	99.272549 
1758.000000	99.273436 
1757.000000	99.275638 
1756.000000	99.277168 
1755.000000	99.276562 
1754.000000	99.273600 
1753.000000	99.268637 
1752.000000	99.264280 
1751.000000	99.266329 
1750.000000	99.276553 
1749.000000	99.288032 
1748.000000	99.293486 
1747.000000	99.292427 
1746.000000	99.289052 
1745.000000	99.286744 
1744.000000	99.286402 
1743.000000	99.287170 
1742.000000	99.287382 
1741.000000	99.286499 
1740.000000	99.285426 
1739.000000	99.285303 
1738.000000	99.286387 
1737.000000	99.287650 
1736.000000	99.287188 
1735.000000	99.282456 
1734.000000	99.273595 
1733.000000	99.266794 
1732.000000	99.267282 
1731.000000	99.273674 
1730.000000	99.281690 
1729.000000	99.287563 
1728.000000	99.290143 
1727.000000	99.291035 
1726.000000	99.291575 
1725.000000	99.290701 
1724.000000	99.287052 
1723.000000	99.282530 
1722.000000	99.281508 
1721.000000	99.286433 
1720.000000	99.295033 
1719.000000	99.301483 
1718.000000	99.300662 
1717.000000	99.295510 
1716.000000	99.291285 
1715.000000	99.286833 
1714.000000	99.281317 
1713.000000	99.277295 
1712.000000	99.275810 
1711.000000	99.275544 
1710.000000	99.275641 
1709.000000	99.276976 
1708.000000	99.280465 
1707.000000	99.285542 
1706.000000	99.292249 
1705.000000	99.300622 
1704.000000	99.306328 
1703.000000	99.302684 
1702.000000	99.288945 
1701.000000	99.274103 
1700.000000	99.268828 
1699.000000	99.269385 
1698.000000	99.269853 
1697.000000	99.272522 
1696.000000	99.280208 
1695.000000	99.288370 
1694.000000	99.293346 
1693.000000	99.296273 
1692.000000	99.296323 
1691.000000	99.292899 
1690.000000	99.288235 
1689.000000	99.284936 
1688.000000	99.281992 
1687.000000	99.276588 
1686.000000	99.270455 
1685.000000	99.269582 
1684.000000	99.275558 
1683.000000	99.281728 
1682.000000	99.284771 
1681.000000	99.284992 
1680.000000	99.284506 
1679.000000	99.285173 
1678.000000	99.287226 
1677.000000	99.289692 
1676.000000	99.291352 
1675.000000	99.292238 
1674.000000	99.293222 
1673.000000	99.295399 
1672.000000	99.298953 
1671.000000	99.303872 
1670.000000	99.309239 
1669.000000	99.311787 
1668.000000	99.310143 
1667.000000	99.306542 
1666.000000	99.301595 
1665.000000	99.294904 
1664.000000	99.288708 
1663.000000	99.287704 
1662.000000	99.293636 
1661.000000	99.301916 
1660.000000	99.307070 
1659.000000	99.309125 
1658.000000	99.311306 
1657.000000	99.313285 
1656.000000	99.309863 
1655.000000	99.300425 
1654.000000	99.295183 
1653.000000	99.298870 
1652.000000	99.299084 
1651.000000	99.299479 
1650.000000	99.299714 
1649.000000	99.295490 
1648.000000	99.287752 
1647.000000	99.281060 
1646.000000	99.277496 
1645.000000	99.277853 
1644.000000	99.282073 
1643.000000	99.287366 
1642.000000	99.290985 
1641.000000	99.292772 
1640.000000	99.293365 
1639.000000	99.292576 
1638.000000	99.290608 
1637.000000	99.289209 
1636.000000	99.288794 
1635.000000	99.287829 
1634.000000	99.288864 
1633.000000	99.293748 
1632.000000	99.299645 
1631.000000	99.304134 
1630.000000	99.307000 
1629.000000	99.308468 
1628.000000	99.308336 
1627.000000	99.307418 
1626.000000	99.307576 
1625.000000	99.310002 
1624.000000	99.314003 
1623.000000	99.317852 
1622.000000	99.320712 
1621.000000	99.322289 
1620.000000	99.321317 
1619.000000	99.317750 
1618.000000	99.315119 
1617.000000	99.316615 
1616.000000	99.319951 
1615.000000	99.322212 
1614.000000	99.322207 
1613.000000	99.318952 
1612.000000	99.313615 
1611.000000	99.308857 
1610.000000	99.306380 
1609.000000	99.305576 
1608.000000	99.304833 
1607.000000	99.303440 
1606.000000	99.301306 
1605.000000	99.298704 
1604.000000	99.296888 
1603.000000	99.297811 
1602.000000	99.301630 
1601.000000	99.305620 
1600.000000	99.307613 
1599.000000	99.308943 
1598.000000	99.312098 
1597.000000	99.317264 
1596.000000	99.322808 
1595.000000	99.327971 
1594.000000	99.333044 
1593.000000	99.337012 
1592.000000	99.338008 
1591.000000	99.336419 
1590.000000	99.335181 
1589.000000	99.336147 
1588.000000	99.338499 
1587.000000	99.340977 
1586.000000	99.342754 
1585.000000	99.342249 
1584.000000	99.337950 
1583.000000	99.330888 
1582.000000	99.325082 
1581.000000	99.323364 
1580.000000	99.324571 
1579.000000	99.326150 
1578.000000	99.327812 
1577.000000	99.329891 
1576.000000	99.329963 
1575.000000	99.328675 
1574.000000	99.330379 
1573.000000	99.333202 
1572.000000	99.333442 
1571.000000	99.332206 
1570.000000	99.333475 
1569.000000	99.337435 
1568.000000	99.340598 
1567.000000	99.341417 
1566.000000	99.340371 
1565.000000	99.338743 
1564.000000	99.337973 
1563.000000	99.338380 
1562.000000	99.339273 
1561.000000	99.339821 
1560.000000	99.339049 
1559.000000	99.337284 
1558.000000	99.334047 
1557.000000	99.333163 
1556.000000	99.335408 
1555.000000	99.336366 
1554.000000	99.334021 
1553.000000	99.330245 
1552.000000	99.328732 
1551.000000	99.331455 
1550.000000	99.337742 
1549.000000	99.343602 
1548.000000	99.344640 
1547.000000	99.340053 
1546.000000	99.331552 
1545.000000	99.322621 
1544.000000	99.316674 
1543.000000	99.314141 
1542.000000	99.315420 
1541.000000	99.322370 
1540.000000	99.327864 
1539.000000	99.322835 
1538.000000	99.316211 
1537.000000	99.315662 
1536.000000	99.317280 
1535.000000	99.317202 
1534.000000	99.317151 
1533.000000	99.319379 
1532.000000	99.320936 
1531.000000	99.318362 
1530.000000	99.314293 
1529.000000	99.313827 
1528.000000	99.317446 
1527.000000	99.320807 
1526.000000	99.320116 
1525.000000	99.316427 
1524.000000	99.313038 
1523.000000	99.312563 
1522.000000	99.317499 
1521.000000	99.326500 
1520.000000	99.331460 
1519.000000	99.328425 
1518.000000	99.320992 
1517.000000	99.315367 
1516.000000	99.313910 
1515.000000	99.313645 
1514.000000	99.312466 
1513.000000	99.310486 
1512.000000	99.307838 
1511.000000	99.303923 
1510.000000	99.298034 
1509.000000	99.291638 
1508.000000	99.291478 
1507.000000	99.303266 
1506.000000	99.312760 
1505.000000	99.310576 
1504.000000	99.306856 
1503.000000	99.305010 
1502.000000	99.304324 
1501.000000	99.306529 
1500.000000	99.313847 
1499.000000	99.325335 
1498.000000	99.336524 
1497.000000	99.344882 
1496.000000	99.350357 
1495.000000	99.350819 
1494.000000	99.344090 
1493.000000	99.330984 
1492.000000	99.314317 
1491.000000	99.298568 
1490.000000	99.288883 
1489.000000	99.287346 
1488.000000	99.289286 
1487.000000	99.289498 
1486.000000	99.289451 
1485.000000	99.291763 
1484.000000	99.295398 
1483.000000	99.297809 
1482.000000	99.296771 
1481.000000	99.292166 
1480.000000	99.285765 
1479.000000	99.279602 
1478.000000	99.275090 
1477.000000	99.272927 
1476.000000	99.272698 
1475.000000	99.271926 
1474.000000	99.270791 
1473.000000	99.274059 
1472.000000	99.282702 
1471.000000	99.289266 
1470.000000	99.290325 
1469.000000	99.289761 
1468.000000	99.291385 
1467.000000	99.295017 
1466.000000	99.298792 
1465.000000	99.301982 
1464.000000	99.303968 
1463.000000	99.304041 
1462.000000	99.302858 
1461.000000	99.302355 
1460.000000	99.303177 
1459.000000	99.303893 
1458.000000	99.300738 
1457.000000	99.291610 
1456.000000	99.280142 
1455.000000	99.271598 
1454.000000	99.267563 
1453.000000	99.266853 
1452.000000	99.267937 
1451.000000	99.269431 
1450.000000	99.270980 
1449.000000	99.273814 
1448.000000	99.278320 
1447.000000	99.282031 
1446.000000	99.283319 
1445.000000	99.283812 
1444.000000	99.284858 
1443.000000	99.285144 
1442.000000	99.283231 
1441.000000	99.280316 
1440.000000	99.279715 
1439.000000	99.283976 
1438.000000	99.291387 
1437.000000	99.296491 
1436.000000	99.294607 
1435.000000	99.286014 
1434.000000	99.275804 
1433.000000	99.269456 
1432.000000	99.268890 
1431.000000	99.272820 
1430.000000	99.277570 
1429.000000	99.280115 
1428.000000	99.280180 
1427.000000	99.278615 
1426.000000	99.275710 
1425.000000	99.270894 
1424.000000	99.265667 
1423.000000	99.262598 
1422.000000	99.260704 
1421.000000	99.257394 
1420.000000	99.251842 
1419.000000	99.245587 
1418.000000	99.237807 
1417.000000	99.227138 
1416.000000	99.216568 
1415.000000	99.208214 
1414.000000	99.199697 
1413.000000	99.187633 
1412.000000	99.173503 
1411.000000	99.162398 
1410.000000	99.155500 
1409.000000	99.150434 
1408.000000	99.147075 
1407.000000	99.146781 
1406.000000	99.148749 
1405.000000	99.151244 
1404.000000	99.155409 
1403.000000	99.162152 
1402.000000	99.168342 
1401.000000	99.171149 
1400.000000	99.172126 
1399.000000	99.175075 
1398.000000	99.177360 
1397.000000	99.170567 
1396.000000	99.151806 
1395.000000	99.130305 
1394.000000	99.120413 
1393.000000	99.127725 
1392.000000	99.148844 
1391.000000	99.176240 
1390.000000	99.201007 
1389.000000	99.215947 
1388.000000	99.218835 
1387.000000	99.213173 
1386.000000	99.204018 
1385.000000	99.195187 
1384.000000	99.189578 
1383.000000	99.188485 
1382.000000	99.190486 
1381.000000	99.193654 
1380.000000	99.197373 
1379.000000	99.201975 
1378.000000	99.207174 
1377.000000	99.211814 
1376.000000	99.215835 
1375.000000	99.221412 
1374.000000	99.230412 
1373.000000	99.240571 
1372.000000	99.248430 
1371.000000	99.254904 
1370.000000	99.263854 
1369.000000	99.275179 
1368.000000	99.285354 
1367.000000	99.292513 
1366.000000	99.297846 
1365.000000	99.302582 
1364.000000	99.305742 
1363.000000	99.307010 
1362.000000	99.309030 
1361.000000	99.313365 
1360.000000	99.317912 
1359.000000	99.320630 
1358.000000	99.322608 
1357.000000	99.326064 
1356.000000	99.331113 
1355.000000	99.335772 
1354.000000	99.338619 
1353.000000	99.339814 
1352.000000	99.339063 
1351.000000	99.335541 
1350.000000	99.331417 
1349.000000	99.329406 
1348.000000	99.330376 
1347.000000	99.333687 
1346.000000	99.339012 
1345.000000	99.345426 
1344.000000	99.350633 
1343.000000	99.353000 
1342.000000	99.353537 
1341.000000	99.353861 
1340.000000	99.353642 
1339.000000	99.351894 
1338.000000	99.349435 
1337.000000	99.348393 
1336.000000	99.349625 
1335.000000	99.351857 
1334.000000	99.353742 
1333.000000	99.355215 
1332.000000	99.356349 
1331.000000	99.356695 
1330.000000	99.356126 
1329.000000	99.354843 
1328.000000	99.353094 
1327.000000	99.351614 
1326.000000	99.351820 
1325.000000	99.353489 
1324.000000	99.355168 
1323.000000	99.356053 
1322.000000	99.356200 
1321.000000	99.355069 
1320.000000	99.351907 
1319.000000	99.347849 
1318.000000	99.345605 
1317.000000	99.346259 
1316.000000	99.347593 
1315.000000	99.346615 
1314.000000	99.342844 
1313.000000	99.338727 
1312.000000	99.337141 
1311.000000	99.339157 
1310.000000	99.343960 
1309.000000	99.349762 
1308.000000	99.354510 
1307.000000	99.356328 
1306.000000	99.354648 
1305.000000	99.350407 
1304.000000	99.346172 
1303.000000	99.344590 
1302.000000	99.346429 
1301.000000	99.349936 
1300.000000	99.352455 
1299.000000	99.352401 
1298.000000	99.349821 
1297.000000	99.345954 
1296.000000	99.342606 
1295.000000	99.341705 
1294.000000	99.344041 
1293.000000	99.348240 
1292.000000	99.351376 
1291.000000	99.350903 
1290.000000	99.346532 
1289.000000	99.340642 
1288.000000	99.336522 
1287.000000	99.335460 
1286.000000	99.335352 
1285.000000	99.333055 
1284.000000	99.328164 
1283.000000	99.323246 
1282.000000	99.320299 
1281.000000	99.318544 
1280.000000	99.316311 
1279.000000	99.313586 
1278.000000	99.311048 
1277.000000	99.307999 
1276.000000	99.303050 
1275.000000	99.296891 
1274.000000	99.292314 
1273.000000	99.291126 
1272.000000	99.292124 
1271.000000	99.292286 
1270.000000	99.289121 
1269.000000	99.282159 
1268.000000	99.273283 
1267.000000	99.265480 
1266.000000	99.259996 
1265.000000	99.255238 
1264.000000	99.249195 
1263.000000	99.241862 
1262.000000	99.234241 
1261.000000	99.226392 
1260.000000	99.218331 
1259.000000	99.211903 
1258.000000	99.208967 
1257.000000	99.208478 
1256.000000	99.207545 
1255.000000	99.205211 
1254.000000	99.203053 
1253.000000	99.202112 
1252.000000	99.201376 
1251.000000	99.199905 
1250.000000	99.198404 
1249.000000	99.198086 
1248.000000	99.199746 
1247.000000	99.204052 
1246.000000	99.210151 
1245.000000	99.213714 
1244.000000	99.209528 
1243.000000	99.198069 
1242.000000	99.187561 
1241.000000	99.186818 
1240.000000	99.196487 
1239.000000	99.208652 
1238.000000	99.214468 
1237.000000	99.211030 
1236.000000	99.201575 
1235.000000	99.191069 
1234.000000	99.182225 
1233.000000	99.174754 
1232.000000	99.167436 
1231.000000	99.160042 
1230.000000	99.152935 
1229.000000	99.145860 
1228.000000	99.138731 
1227.000000	99.133445 
1226.000000	99.132865 
1225.000000	99.136912 
1224.000000	99.141071 
1223.000000	99.140204 
1222.000000	99.133335 
1221.000000	99.123785 
1220.000000	99.115522 
1219.000000	99.110536 
1218.000000	99.108657 
1217.000000	99.108050 
1216.000000	99.105831 
1215.000000	99.099715 
1214.000000	99.089921 
1213.000000	99.078946 
1212.000000	99.068926 
1211.000000	99.059305 
1210.000000	99.047592 
1209.000000	99.032524 
1208.000000	99.016063 
1207.000000	99.001830 
1206.000000	98.991662 
1205.000000	98.984284 
1204.000000	98.977236 
1203.000000	98.968910 
1202.000000	98.958098 
1201.000000	98.943114 
1200.000000	98.923484 
1199.000000	98.902301 
1198.000000	98.884624 
1197.000000	98.872753 
1196.000000	98.864205 
1195.000000	98.854602 
1194.000000	98.841468 
1193.000000	98.824992 
1192.000000	98.806789 
1191.000000	98.789019 
1190.000000	98.773631 
1189.000000	98.761217 
1188.000000	98.750768 
1187.000000	98.740744 
1186.000000	98.729796 
1185.000000	98.716422 
1184.000000	98.699096 
1183.000000	98.677664 
1182.000000	98.654204 
1181.000000	98.631759 
1180.000000	98.612286 
1179.000000	98.595800 
1178.000000	98.580700 
1177.000000	98.564612 
1176.000000	98.545775 
1175.000000	98.524293 
1174.000000	98.501934 
1173.000000	98.480536 
1172.000000	98.461111 
1171.000000	98.444148 
1170.000000	98.429556 
1169.000000	98.416160 
1168.000000	98.402313 
1167.000000	98.387492 
1166.000000	98.372760 
1165.000000	98.359937 
1164.000000	98.351368 
1163.000000	98.349984 
1162.000000	98.357405 
1161.000000	98.371029 
1160.000000	98.384492 
1159.000000	98.392480 
1158.000000	98.394447 
1157.000000	98.392650 
1156.000000	98.387601 
1155.000000	98.377221 
1154.000000	98.360165 
1153.000000	98.338185 
1152.000000	98.314811 
1151.000000	98.292769 
1150.000000	98.272999 
1149.000000	98.255131 
1148.000000	98.237996 
1147.000000	98.219767 
1146.000000	98.198476 
1145.000000	98.173377 
1144.000000	98.146253 
1143.000000	98.120963 
1142.000000	98.100655 
1141.000000	98.085032 
1140.000000	98.070734 
1139.000000	98.054462 
1138.000000	98.035480 
1137.000000	98.015416 
1136.000000	97.996488 
1135.000000	97.980115 
1134.000000	97.966427 
1133.000000	97.954415 
1132.000000	97.942453 
1131.000000	97.928717 
1130.000000	97.911354 
1129.000000	97.889014 
1128.000000	97.862003 
1127.000000	97.832796 
1126.000000	97.804700 
1125.000000	97.779762 
1124.000000	97.758097 
1123.000000	97.738629 
1122.000000	97.719643 
1121.000000	97.699152 
1120.000000	97.676033 
1119.000000	97.651038 
1118.000000	97.625907 
1117.000000	97.601468 
1116.000000	97.577405 
1115.000000	97.553643 
1114.000000	97.530562 
1113.000000	97.507588 
1112.000000	97.483214 
1111.000000	97.457598 
1110.000000	97.433956 
1109.000000	97.415517 
1108.000000	97.401344 
1107.000000	97.386374 
1106.000000	97.366454 
1105.000000	97.342348 
1104.000000	97.317818 
1103.000000	97.294917 
1102.000000	97.273028 
1101.000000	97.251973 
1100.000000	97.234314 
1099.000000	97.221475 
1098.000000	97.211535 
1097.000000	97.201115 
1096.000000	97.188990 
1095.000000	97.175794 
1094.000000	97.161084 
1093.000000	97.142987 
1092.000000	97.120570 
1091.000000	97.094445 
1090.000000	97.064862 
1089.000000	97.031259 
1088.000000	96.994505 
1087.000000	96.958073 
1086.000000	96.925988 
1085.000000	96.900264 
1084.000000	96.880233 
1083.000000	96.862823 
1082.000000	96.843427 
1081.000000	96.818664 
1080.000000	96.789354 
1079.000000	96.759856 
1078.000000	96.734165 
1077.000000	96.713604 
1076.000000	96.697903 
1075.000000	96.686289 
1074.000000	96.676988 
1073.000000	96.667343 
1072.000000	96.654414 
1071.000000	96.633695 
1070.000000	96.598318 
1069.000000	96.543939 
1068.000000	96.476556 
1067.000000	96.412642 
1066.000000	96.367921 
1065.000000	96.345654 
1064.000000	96.336290 
1063.000000	96.326010 
1062.000000	96.304137 
1061.000000	96.265871 
1060.000000	96.213170 
1059.000000	96.154587 
1058.000000	96.101572 
1057.000000	96.061621 
1056.000000	96.033255 
1055.000000	96.007123 
1054.000000	95.973149 
1053.000000	95.928831 
1052.000000	95.881027 
1051.000000	95.838353 
1050.000000	95.802328 
1049.000000	95.768300 
1048.000000	95.733768 
1047.000000	95.701101 
1046.000000	95.671894 
1045.000000	95.643435 
1044.000000	95.612682 
1043.000000	95.580578 
1042.000000	95.550163 
1041.000000	95.522187 
1040.000000	95.495001 
1039.000000	95.468307 
1038.000000	95.445333 
1037.000000	95.431028 
1036.000000	95.428385 
1035.000000	95.436172 
1034.000000	95.449753 
1033.000000	95.463649 
1032.000000	95.472495 
1031.000000	95.470875 
1030.000000	95.456660 
1029.000000	95.436879 
1028.000000	95.426614 
1027.000000	95.437085 
1026.000000	95.464862 
1025.000000	95.495918 
1024.000000	95.519237 
1023.000000	95.532959 
1022.000000	95.539212 
1021.000000	95.539082 
1020.000000	95.534207 
1019.000000	95.528616 
1018.000000	95.525590 
1017.000000	95.524576 
1016.000000	95.523371 
1015.000000	95.522074 
1014.000000	95.523374 
1013.000000	95.529571 
1012.000000	95.539936 
1011.000000	95.550510 
1010.000000	95.557061 
1009.000000	95.559565 
1008.000000	95.563039 
1007.000000	95.572452 
1006.000000	95.587796 
1005.000000	95.606076 
1004.000000	95.626480 
1003.000000	95.650146 
1002.000000	95.675592 
1001.000000	95.698527 
1000.000000	95.716845 
999.000000	 95.732435 
998.000000	 95.747060 
997.000000	 95.759695 
996.000000	 95.769953 
995.000000	 95.781811 
994.000000	 95.801198 
993.000000	 95.829983 
992.000000	 95.863492 
991.000000	 95.894117 
990.000000	 95.917683 
989.000000	 95.936794 
988.000000	 95.957436 
987.000000	 95.982070 
986.000000	 96.007633 
985.000000	 96.031361 
984.000000	 96.056124 
983.000000	 96.087132 
982.000000	 96.124845 
981.000000	 96.164626 
980.000000	 96.202902 
979.000000	 96.240210 
978.000000	 96.278238 
977.000000	 96.317492 
976.000000	 96.358778 
975.000000	 96.403717 
974.000000	 96.452074 
973.000000	 96.500765 
972.000000	 96.547111 
971.000000	 96.591447 
970.000000	 96.635343 
969.000000	 96.678960 
968.000000	 96.721746 
967.000000	 96.764337 
966.000000	 96.807590 
965.000000	 96.849983 
964.000000	 96.887972 
963.000000	 96.919795 
962.000000	 96.948012 
961.000000	 96.977173 
960.000000	 97.009184 
959.000000	 97.041988 
958.000000	 97.072903 
957.000000	 97.101974 
956.000000	 97.131007 
955.000000	 97.160419 
954.000000	 97.188866 
953.000000	 97.215642 
952.000000	 97.241322 
951.000000	 97.265629 
950.000000	 97.286720 
949.000000	 97.303592 
948.000000	 97.317626 
947.000000	 97.330798 
946.000000	 97.343941 
945.000000	 97.357808 
944.000000	 97.373877 
943.000000	 97.391918 
942.000000	 97.408056 
941.000000	 97.417887 
940.000000	 97.421491 
939.000000	 97.423549 
938.000000	 97.428483 
937.000000	 97.436969 
936.000000	 97.447033 
935.000000	 97.456487 
934.000000	 97.463665 
933.000000	 97.467627 
932.000000	 97.469282 
931.000000	 97.471842 
930.000000	 97.478921 
929.000000	 97.491699 
928.000000	 97.507951 
927.000000	 97.523742 
926.000000	 97.536210 
925.000000	 97.545034 
924.000000	 97.551322 
923.000000	 97.555372 
922.000000	 97.556159 
921.000000	 97.553123 
920.000000	 97.547704 
919.000000	 97.542587 
918.000000	 97.539813 
917.000000	 97.539916 
916.000000	 97.542323 
915.000000	 97.546001 
914.000000	 97.550272 
913.000000	 97.555692 
912.000000	 97.563629 
911.000000	 97.574288 
910.000000	 97.585776 
909.000000	 97.596079 
908.000000	 97.605660 
907.000000	 97.617214 
906.000000	 97.632907 
905.000000	 97.652407 
904.000000	 97.673602 
903.000000	 97.695104 
902.000000	 97.718381 
901.000000	 97.747179 
900.000000	 97.783668 
899.000000	 97.824677 
898.000000	 97.862728 
897.000000	 97.891610 
896.000000	 97.910405 
895.000000	 97.922655 
894.000000	 97.933554 
893.000000	 97.948185 
892.000000	 97.969845 
891.000000	 97.997798 
890.000000	 98.027442 
889.000000	 98.054483 
888.000000	 98.078450 
887.000000	 98.100713 
886.000000	 98.120058 
885.000000	 98.132898 
884.000000	 98.138682 
883.000000	 98.143017 
882.000000	 98.153056 
881.000000	 98.169959 
880.000000	 98.188221 
879.000000	 98.203414 
878.000000	 98.218209 
877.000000	 98.237594 
876.000000	 98.259070 
875.000000	 98.272434 
874.000000	 98.271865 
873.000000	 98.265136 
872.000000	 98.266985 
871.000000	 98.284323 
870.000000	 98.310460 
869.000000	 98.333040 
868.000000	 98.345016 
867.000000	 98.348708 
866.000000	 98.352631 
865.000000	 98.364921 
864.000000	 98.387348 
863.000000	 98.414311 
862.000000	 98.438234 
861.000000	 98.455795 
860.000000	 98.468468 
859.000000	 98.479324 
858.000000	 98.492070 
857.000000	 98.511274 
856.000000	 98.538619 
855.000000	 98.568134 
854.000000	 98.589211 
853.000000	 98.596479 
852.000000	 98.594448 
851.000000	 98.591467 
850.000000	 98.591837 
849.000000	 98.595116 
848.000000	 98.600133 
847.000000	 98.606741 
846.000000	 98.614629 
845.000000	 98.622627 
844.000000	 98.629233 
843.000000	 98.633064 
842.000000	 98.633247 
841.000000	 98.629867 
840.000000	 98.623969 
839.000000	 98.617510 
838.000000	 98.613333 
837.000000	 98.613236 
836.000000	 98.614456 
835.000000	 98.610417 
834.000000	 98.598291 
833.000000	 98.584005 
832.000000	 98.574968 
831.000000	 98.568914 
830.000000	 98.556820 
829.000000	 98.538613 
828.000000	 98.528172 
827.000000	 98.536747 
826.000000	 98.556795 
825.000000	 98.570746 
824.000000	 98.572960 
823.000000	 98.573252 
822.000000	 98.579391 
821.000000	 98.586277 
820.000000	 98.584788 
819.000000	 98.573842 
818.000000	 98.560635 
817.000000	 98.552732 
816.000000	 98.551564 
815.000000	 98.551123 
814.000000	 98.541911 
813.000000	 98.518383 
812.000000	 98.483586 
811.000000	 98.445116 
810.000000	 98.405945 
809.000000	 98.360615 
808.000000	 98.300738 
807.000000	 98.222422 
806.000000	 98.128140 
805.000000	 98.024146 
804.000000	 97.918762 
803.000000	 97.822054 
802.000000	 97.743233 
801.000000	 97.686102 
800.000000	 97.647130 
799.000000	 97.619027 
798.000000	 97.597781 
797.000000	 97.586843 
796.000000	 97.592920 
795.000000	 97.617113 
794.000000	 97.652442 
793.000000	 97.690656 
792.000000	 97.727095 
791.000000	 97.756606 
790.000000	 97.770639 
789.000000	 97.764934 
788.000000	 97.747274 
787.000000	 97.730590 
786.000000	 97.718508 
785.000000	 97.703332 
784.000000	 97.678661 
783.000000	 97.647864 
782.000000	 97.618400 
781.000000	 97.593585 
780.000000	 97.573106 
779.000000	 97.557312 
778.000000	 97.547824 
777.000000	 97.547134 
776.000000	 97.559716 
775.000000	 97.589459 
774.000000	 97.633071 
773.000000	 97.679676 
772.000000	 97.720020 
771.000000	 97.752946 
770.000000	 97.780090 
769.000000	 97.798367 
768.000000	 97.803314 
767.000000	 97.798518 
766.000000	 97.795801 
765.000000	 97.804029 
764.000000	 97.820765 
763.000000	 97.836191 
762.000000	 97.843170 
761.000000	 97.842441 
760.000000	 97.840019 
759.000000	 97.841561 
758.000000	 97.848597 
757.000000	 97.858579 
756.000000	 97.867930 
755.000000	 97.875491 
754.000000	 97.883664 
753.000000	 97.896517 
752.000000	 97.916567 
751.000000	 97.942005 
750.000000	 97.966286 
749.000000	 97.981406 
748.000000	 97.983784 
747.000000	 97.978362 
746.000000	 97.976098 
745.000000	 97.985053 
744.000000	 98.002764 
743.000000	 98.018557 
742.000000	 98.024803 
741.000000	 98.024840 
740.000000	 98.028162 
739.000000	 98.039531 
738.000000	 98.055958 
737.000000	 98.073237 
736.000000	 98.090683 
735.000000	 98.108575 
734.000000	 98.126047 
733.000000	 98.144141 
732.000000	 98.166311 
731.000000	 98.191380 
730.000000	 98.209806 
729.000000	 98.212732 
728.000000	 98.202239 
727.000000	 98.188260 
726.000000	 98.178033 
725.000000	 98.173160 
724.000000	 98.174771 
723.000000	 98.184756 
722.000000	 98.200934 
721.000000	 98.216108 
720.000000	 98.223620 
719.000000	 98.221269 
718.000000	 98.210311 
717.000000	 98.194921 
716.000000	 98.183194 
715.000000	 98.183062 
714.000000	 98.194074 
713.000000	 98.206885 
712.000000	 98.213287 
711.000000	 98.213911 
710.000000	 98.214313 
709.000000	 98.216756 
708.000000	 98.218263 
707.000000	 98.214706 
706.000000	 98.205417 
705.000000	 98.193916 
704.000000	 98.183558 
703.000000	 98.172329 
702.000000	 98.152605 
701.000000	 98.118433 
700.000000	 98.071856 
699.000000	 98.018350 
698.000000	 97.959378 
697.000000	 97.894437 
696.000000	 97.829333 
695.000000	 97.776954 
694.000000	 97.747925 
693.000000	 97.746327 
692.000000	 97.773314 
691.000000	 97.823866 
690.000000	 97.880597 
689.000000	 97.921465 
688.000000	 97.940061 
687.000000	 97.951742 
686.000000	 97.972101 
685.000000	 97.998969 
684.000000	 98.021642 
683.000000	 98.036291 
682.000000	 98.045785 
681.000000	 98.053427 
680.000000	 98.063871 
679.000000	 98.081016 
678.000000	 98.096927 
677.000000	 98.095093 
676.000000	 98.073548 
675.000000	 98.050699 
674.000000	 98.044461 
673.000000	 98.051300 
672.000000	 98.049899 
671.000000	 98.022882 
670.000000	 97.970139 
669.000000	 97.911692 
668.000000	 97.882165 
667.000000	 97.900198 
666.000000	 97.955399 
665.000000	 98.025095 
664.000000	 98.080152 
663.000000	 98.102186 
662.000000	 98.098708 
661.000000	 98.098756 
660.000000	 98.120033 
659.000000	 98.146461 
658.000000	 98.145160 
657.000000	 98.102844 
656.000000	 98.037448 
655.000000	 97.978006 
654.000000	 97.944246 
653.000000	 97.933652 
652.000000	 97.921980 
651.000000	 97.888556 
650.000000	 97.845529 

