4000.000000	99.333223 
3999.000000	99.332867 
3998.000000	99.332494 
3997.000000	99.332673 
3996.000000	99.333306 
3995.000000	99.333785 
3994.000000	99.333713 
3993.000000	99.333251 
3992.000000	99.332719 
3991.000000	99.332036 
3990.000000	99.330820 
3989.000000	99.328952 
3988.000000	99.326901 
3987.000000	99.325430 
3986.000000	99.325078 
3985.000000	99.325869 
3984.000000	99.327362 
3983.000000	99.329051 
3982.000000	99.330812 
3981.000000	99.332868 
3980.000000	99.335249 
3979.000000	99.337337 
3978.000000	99.338192 
3977.000000	99.337357 
3976.000000	99.335226 
3975.000000	99.332675 
3974.000000	99.330413 
3973.000000	99.328729 
3972.000000	99.327718 
3971.000000	99.327497 
3970.000000	99.328159 
3969.000000	99.329531 
3968.000000	99.331061 
3967.000000	99.332060 
3966.000000	99.332121 
3965.000000	99.331291 
3964.000000	99.329922 
3963.000000	99.328513 
3962.000000	99.327576 
3961.000000	99.327413 
3960.000000	99.327822 
3959.000000	99.328140 
3958.000000	99.327871 
3957.000000	99.327169 
3956.000000	99.326602 
3955.000000	99.326482 
3954.000000	99.326591 
3953.000000	99.326540 
3952.000000	99.326158 
3951.000000	99.325545 
3950.000000	99.324838 
3949.000000	99.324079 
3948.000000	99.323343 
3947.000000	99.322840 
3946.000000	99.322734 
3945.000000	99.322911 
3944.000000	99.323026 
3943.000000	99.322819 
3942.000000	99.322331 
3941.000000	99.321791 
3940.000000	99.321327 
3939.000000	99.320881 
3938.000000	99.320381 
3937.000000	99.319829 
3936.000000	99.319262 
3935.000000	99.318695 
3934.000000	99.318143 
3933.000000	99.317666 
3932.000000	99.317338 
3931.000000	99.317178 
3930.000000	99.317092 
3929.000000	99.316933 
3928.000000	99.316616 
3927.000000	99.316130 
3926.000000	99.315521 
3925.000000	99.314909 
3924.000000	99.314437 
3923.000000	99.314129 
3922.000000	99.313792 
3921.000000	99.313238 
3920.000000	99.312553 
3919.000000	99.311985 
3918.000000	99.311610 
3917.000000	99.311318 
3916.000000	99.311073 
3915.000000	99.310967 
3914.000000	99.310983 
3913.000000	99.310932 
3912.000000	99.310670 
3911.000000	99.310180 
3910.000000	99.309589 
3909.000000	99.309039 
3908.000000	99.308635 
3907.000000	99.308390 
3906.000000	99.308237 
3905.000000	99.308082 
3904.000000	99.307884 
3903.000000	99.307691 
3902.000000	99.307540 
3901.000000	99.307359 
3900.000000	99.307067 
3899.000000	99.306693 
3898.000000	99.306344 
3897.000000	99.306079 
3896.000000	99.305894 
3895.000000	99.305777 
3894.000000	99.305767 
3893.000000	99.305840 
3892.000000	99.305877 
3891.000000	99.305781 
3890.000000	99.305615 
3889.000000	99.305472 
3888.000000	99.305337 
3887.000000	99.305164 
3886.000000	99.304965 
3885.000000	99.304789 
3884.000000	99.304681 
3883.000000	99.304624 
3882.000000	99.304557 
3881.000000	99.304450 
3880.000000	99.304319 
3879.000000	99.304205 
3878.000000	99.304138 
3877.000000	99.304102 
3876.000000	99.304062 
3875.000000	99.303996 
3874.000000	99.303911 
3873.000000	99.303840 
3872.000000	99.303788 
3871.000000	99.303711 
3870.000000	99.303589 
3869.000000	99.303502 
3868.000000	99.303557 
3867.000000	99.303743 
3866.000000	99.303915 
3865.000000	99.304008 
3864.000000	99.304071 
3863.000000	99.304135 
3862.000000	99.304165 
3861.000000	99.304132 
3860.000000	99.304068 
3859.000000	99.303978 
3858.000000	99.303827 
3857.000000	99.303650 
3856.000000	99.303624 
3855.000000	99.303886 
3854.000000	99.304257 
3853.000000	99.304380 
3852.000000	99.304479 
3851.000000	99.304826 
3850.000000	99.305237 
3849.000000	99.305514 
3848.000000	99.305706 
3847.000000	99.305897 
3846.000000	99.306099 
3845.000000	99.306289 
3844.000000	99.306457 
3843.000000	99.306602 
3842.000000	99.306728 
3841.000000	99.306834 
3840.000000	99.306926 
3839.000000	99.307014 
3838.000000	99.307090 
3837.000000	99.307137 
3836.000000	99.307152 
3835.000000	99.307147 
3834.000000	99.307141 
3833.000000	99.307146 
3832.000000	99.307165 
3831.000000	99.307196 
3830.000000	99.307228 
3829.000000	99.307255 
3828.000000	99.307274 
3827.000000	99.307287 
3826.000000	99.307295 
3825.000000	99.307305 
3824.000000	99.307321 
3823.000000	99.307346 
3822.000000	99.307369 
3821.000000	99.307383 
3820.000000	99.307388 
3819.000000	99.307391 
3818.000000	99.307393 
3817.000000	99.307381 
3816.000000	99.307348 
3815.000000	99.307299 
3814.000000	99.307258 
3813.000000	99.307225 
3812.000000	99.307156 
3811.000000	99.307034 
3810.000000	99.306929 
3809.000000	99.306917 
3808.000000	99.306962 
3807.000000	99.306921 
3806.000000	99.306790 
3805.000000	99.306764 
3804.000000	99.306828 
3803.000000	99.306737 
3802.000000	99.306360 
3801.000000	99.305744 
3800.000000	99.305367 
3799.000000	99.305512 
3798.000000	99.305550 
3797.000000	99.305011 
3796.000000	99.304362 
3795.000000	99.304362 
3794.000000	99.305179 
3793.000000	99.306341 
3792.000000	99.307385 
3791.000000	99.308237 
3790.000000	99.308841 
3789.000000	99.309172 
3788.000000	99.309557 
3787.000000	99.310494 
3786.000000	99.311921 
3785.000000	99.313127 
3784.000000	99.313677 
3783.000000	99.313788 
3782.000000	99.313644 
3781.000000	99.312970 
3780.000000	99.311570 
3779.000000	99.309774 
3778.000000	99.308414 
3777.000000	99.307886 
3776.000000	99.307764 
3775.000000	99.307626 
3774.000000	99.307769 
3773.000000	99.308511 
3772.000000	99.309421 
3771.000000	99.309651 
3770.000000	99.309014 
3769.000000	99.308312 
3768.000000	99.308334 
3767.000000	99.308711 
3766.000000	99.308601 
3765.000000	99.307997 
3764.000000	99.307756 
3763.000000	99.308415 
3762.000000	99.309465 
3761.000000	99.310180 
3760.000000	99.310489 
3759.000000	99.310460 
3758.000000	99.309938 
3757.000000	99.308910 
3756.000000	99.307789 
3755.000000	99.306887 
3754.000000	99.306205 
3753.000000	99.305965 
3752.000000	99.306424 
3751.000000	99.306576 
3750.000000	99.304843 
3749.000000	99.301841 
3748.000000	99.299745 
3747.000000	99.299013 
3746.000000	99.298572 
3745.000000	99.297243 
3744.000000	99.294446 
3743.000000	99.292855 
3742.000000	99.294170 
3741.000000	99.294890 
3740.000000	99.293067 
3739.000000	99.290935 
3738.000000	99.290466 
3737.000000	99.290788 
3736.000000	99.290261 
3735.000000	99.289270 
3734.000000	99.288877 
3733.000000	99.288453 
3732.000000	99.287273 
3731.000000	99.286711 
3730.000000	99.287956 
3729.000000	99.289486 
3728.000000	99.289229 
3727.000000	99.287856 
3726.000000	99.287892 
3725.000000	99.290279 
3724.000000	99.292641 
3723.000000	99.292227 
3722.000000	99.289127 
3721.000000	99.285692 
3720.000000	99.283936 
3719.000000	99.283559 
3718.000000	99.282931 
3717.000000	99.280976 
3716.000000	99.277818 
3715.000000	99.273819 
3714.000000	99.269252 
3713.000000	99.264829 
3712.000000	99.260740 
3711.000000	99.256476 
3710.000000	99.252725 
3709.000000	99.250549 
3708.000000	99.249471 
3707.000000	99.248170 
3706.000000	99.246003 
3705.000000	99.243205 
3704.000000	99.240278 
3703.000000	99.237405 
3702.000000	99.234105 
3701.000000	99.230029 
3700.000000	99.226145 
3699.000000	99.222928 
3698.000000	99.219062 
3697.000000	99.213827 
3696.000000	99.208830 
3695.000000	99.206003 
3694.000000	99.204933 
3693.000000	99.203693 
3692.000000	99.201408 
3691.000000	99.198355 
3690.000000	99.194171 
3689.000000	99.187990 
3688.000000	99.181796 
3687.000000	99.179760 
3686.000000	99.182204 
3685.000000	99.185094 
3684.000000	99.185932 
3683.000000	99.185635 
3682.000000	99.185142 
3681.000000	99.183053 
3680.000000	99.177659 
3679.000000	99.170306 
3678.000000	99.163705 
3677.000000	99.158726 
3676.000000	99.153455 
3675.000000	99.147470 
3674.000000	99.146497 
3673.000000	99.152443 
3672.000000	99.158722 
3671.000000	99.161677 
3670.000000	99.162261 
3669.000000	99.161305 
3668.000000	99.160218 
3667.000000	99.159178 
3666.000000	99.157730 
3665.000000	99.157052 
3664.000000	99.158358 
3663.000000	99.161056 
3662.000000	99.163423 
3661.000000	99.164496 
3660.000000	99.164958 
3659.000000	99.166286 
3658.000000	99.168830 
3657.000000	99.171387 
3656.000000	99.172747 
3655.000000	99.174648 
3654.000000	99.178974 
3653.000000	99.184341 
3652.000000	99.189255 
3651.000000	99.194250 
3650.000000	99.198281 
3649.000000	99.198026 
3648.000000	99.193701 
3647.000000	99.190085 
3646.000000	99.190843 
3645.000000	99.195645 
3644.000000	99.202127 
3643.000000	99.208337 
3642.000000	99.213797 
3641.000000	99.218784 
3640.000000	99.223535 
3639.000000	99.228137 
3638.000000	99.232885 
3637.000000	99.238010 
3636.000000	99.242511 
3635.000000	99.244579 
3634.000000	99.243732 
3633.000000	99.241829 
3632.000000	99.241195 
3631.000000	99.242796 
3630.000000	99.246097 
3629.000000	99.248485 
3628.000000	99.248487 
3627.000000	99.248889 
3626.000000	99.250882 
3625.000000	99.253038 
3624.000000	99.255338 
3623.000000	99.258421 
3622.000000	99.261801 
3621.000000	99.264267 
3620.000000	99.265149 
3619.000000	99.264779 
3618.000000	99.264507 
3617.000000	99.265691 
3616.000000	99.268209 
3615.000000	99.270756 
3614.000000	99.272119 
3613.000000	99.271937 
3612.000000	99.270795 
3611.000000	99.269687 
3610.000000	99.269352 
3609.000000	99.270147 
3608.000000	99.271938 
3607.000000	99.274136 
3606.000000	99.276120 
3605.000000	99.277582 
3604.000000	99.278608 
3603.000000	99.279402 
3602.000000	99.279979 
3601.000000	99.280391 
3600.000000	99.281005 
3599.000000	99.282077 
3598.000000	99.283212 
3597.000000	99.283876 
3596.000000	99.283956 
3595.000000	99.283774 
3594.000000	99.283691 
3593.000000	99.284054 
3592.000000	99.285128 
3591.000000	99.286983 
3590.000000	99.289295 
3589.000000	99.291202 
3588.000000	99.291583 
3587.000000	99.290117 
3586.000000	99.287922 
3585.000000	99.286414 
3584.000000	99.285861 
3583.000000	99.285840 
3582.000000	99.285942 
3581.000000	99.285911 
3580.000000	99.285619 
3579.000000	99.285126 
3578.000000	99.284627 
3577.000000	99.284375 
3576.000000	99.284530 
3575.000000	99.285035 
3574.000000	99.285664 
3573.000000	99.286219 
3572.000000	99.286706 
3571.000000	99.287212 
3570.000000	99.287677 
3569.000000	99.287877 
3568.000000	99.287649 
3567.000000	99.287158 
3566.000000	99.286975 
3565.000000	99.287536 
3564.000000	99.288551 
3563.000000	99.289395 
3562.000000	99.289781 
3561.000000	99.289809 
3560.000000	99.289662 
3559.000000	99.289422 
3558.000000	99.289120 
3557.000000	99.288877 
3556.000000	99.288959 
3555.000000	99.289534 
3554.000000	99.290419 
3553.000000	99.291137 
3552.000000	99.291383 
3551.000000	99.291290 
3550.000000	99.291157 
3549.000000	99.291089 
3548.000000	99.291057 
3547.000000	99.291102 
3546.000000	99.291274 
3545.000000	99.291544 
3544.000000	99.291829 
3543.000000	99.292063 
3542.000000	99.292269 
3541.000000	99.292520 
3540.000000	99.292861 
3539.000000	99.293254 
3538.000000	99.293617 
3537.000000	99.293875 
3536.000000	99.294014 
3535.000000	99.294077 
3534.000000	99.294117 
3533.000000	99.294165 
3532.000000	99.294224 
3531.000000	99.294280 
3530.000000	99.294321 
3529.000000	99.294346 
3528.000000	99.294357 
3527.000000	99.294356 
3526.000000	99.294346 
3525.000000	99.294326 
3524.000000	99.294294 
3523.000000	99.294246 
3522.000000	99.294180 
3521.000000	99.294097 
3520.000000	99.294000 
3519.000000	99.293893 
3518.000000	99.293780 
3517.000000	99.293662 
3516.000000	99.293540 
3515.000000	99.293411 
3514.000000	99.293272 
3513.000000	99.293122 
3512.000000	99.292962 
3511.000000	99.292794 
3510.000000	99.292621 
3509.000000	99.292446 
3508.000000	99.292270 
3507.000000	99.292090 
3506.000000	99.291900 
3505.000000	99.291695 
3504.000000	99.291474 
3503.000000	99.291246 
3502.000000	99.291022 
3501.000000	99.290809 
3500.000000	99.290603 
3499.000000	99.290391 
3498.000000	99.290161 
3497.000000	99.289910 
3496.000000	99.289644 
3495.000000	99.289376 
3494.000000	99.289115 
3493.000000	99.288862 
3492.000000	99.288619 
3491.000000	99.288386 
3490.000000	99.288165 
3489.000000	99.287956 
3488.000000	99.287756 
3487.000000	99.287561 
3486.000000	99.287370 
3485.000000	99.287181 
3484.000000	99.286993 
3483.000000	99.286807 
3482.000000	99.286621 
3481.000000	99.286437 
3480.000000	99.286255 
3479.000000	99.286078 
3478.000000	99.285907 
3477.000000	99.285740 
3476.000000	99.285574 
3475.000000	99.285406 
3474.000000	99.285237 
3473.000000	99.285073 
3472.000000	99.284920 
3471.000000	99.284777 
3470.000000	99.284640 
3469.000000	99.284509 
3468.000000	99.284380 
3467.000000	99.284239 
3466.000000	99.284071 
3465.000000	99.283860 
3464.000000	99.283607 
3463.000000	99.283339 
3462.000000	99.283103 
3461.000000	99.282931 
3460.000000	99.282809 
3459.000000	99.282720 
3458.000000	99.282679 
3457.000000	99.282690 
3456.000000	99.282711 
3455.000000	99.282664 
3454.000000	99.282524 
3453.000000	99.282371 
3452.000000	99.282313 
3451.000000	99.282375 
3450.000000	99.282469 
3449.000000	99.282469 
3448.000000	99.282313 
3447.000000	99.282044 
3446.000000	99.281768 
3445.000000	99.281592 
3444.000000	99.281550 
3443.000000	99.281595 
3442.000000	99.281631 
3441.000000	99.281583 
3440.000000	99.281456 
3439.000000	99.281306 
3438.000000	99.281178 
3437.000000	99.281057 
3436.000000	99.280907 
3435.000000	99.280735 
3434.000000	99.280610 
3433.000000	99.280600 
3432.000000	99.280705 
3431.000000	99.280854 
3430.000000	99.280946 
3429.000000	99.280925 
3428.000000	99.280810 
3427.000000	99.280664 
3426.000000	99.280538 
3425.000000	99.280446 
3424.000000	99.280393 
3423.000000	99.280382 
3422.000000	99.280406 
3421.000000	99.280427 
3420.000000	99.280404 
3419.000000	99.280333 
3418.000000	99.280261 
3417.000000	99.280242 
3416.000000	99.280280 
3415.000000	99.280326 
3414.000000	99.280321 
3413.000000	99.280260 
3412.000000	99.280193 
3411.000000	99.280181 
3410.000000	99.280266 
3409.000000	99.280466 
3408.000000	99.280760 
3407.000000	99.281061 
3406.000000	99.281248 
3405.000000	99.281259 
3404.000000	99.281160 
3403.000000	99.281127 
3402.000000	99.281305 
3401.000000	99.281699 
3400.000000	99.282149 
3399.000000	99.282440 
3398.000000	99.282471 
3397.000000	99.282338 
3396.000000	99.282217 
3395.000000	99.282177 
3394.000000	99.282177 
3393.000000	99.282211 
3392.000000	99.282344 
3391.000000	99.282567 
3390.000000	99.282727 
3389.000000	99.282707 
3388.000000	99.282569 
3387.000000	99.282466 
3386.000000	99.282441 
3385.000000	99.282414 
3384.000000	99.282332 
3383.000000	99.282264 
3382.000000	99.282323 
3381.000000	99.282529 
3380.000000	99.282776 
3379.000000	99.282917 
3378.000000	99.282923 
3377.000000	99.282930 
3376.000000	99.283109 
3375.000000	99.283488 
3374.000000	99.283962 
3373.000000	99.284414 
3372.000000	99.284792 
3371.000000	99.285048 
3370.000000	99.285135 
3369.000000	99.285086 
3368.000000	99.285026 
3367.000000	99.285028 
3366.000000	99.285037 
3365.000000	99.284971 
3364.000000	99.284857 
3363.000000	99.284806 
3362.000000	99.284876 
3361.000000	99.285008 
3360.000000	99.285106 
3359.000000	99.285131 
3358.000000	99.285130 
3357.000000	99.285182 
3356.000000	99.285315 
3355.000000	99.285496 
3354.000000	99.285659 
3353.000000	99.285769 
3352.000000	99.285835 
3351.000000	99.285889 
3350.000000	99.285964 
3349.000000	99.286075 
3348.000000	99.286220 
3347.000000	99.286388 
3346.000000	99.286550 
3345.000000	99.286676 
3344.000000	99.286760 
3343.000000	99.286819 
3342.000000	99.286872 
3341.000000	99.286922 
3340.000000	99.286971 
3339.000000	99.287024 
3338.000000	99.287085 
3337.000000	99.287149 
3336.000000	99.287209 
3335.000000	99.287266 
3334.000000	99.287329 
3333.000000	99.287413 
3332.000000	99.287523 
3331.000000	99.287646 
3330.000000	99.287753 
3329.000000	99.287832 
3328.000000	99.287917 
3327.000000	99.288066 
3326.000000	99.288294 
3325.000000	99.288531 
3324.000000	99.288677 
3323.000000	99.288717 
3322.000000	99.288764 
3321.000000	99.288907 
3320.000000	99.289059 
3319.000000	99.289023 
3318.000000	99.288745 
3317.000000	99.288439 
3316.000000	99.288382 
3315.000000	99.288619 
3314.000000	99.288943 
3313.000000	99.289162 
3312.000000	99.289307 
3311.000000	99.289549 
3310.000000	99.289996 
3309.000000	99.290579 
3308.000000	99.291117 
3307.000000	99.291461 
3306.000000	99.291582 
3305.000000	99.291530 
3304.000000	99.291302 
3303.000000	99.290821 
3302.000000	99.290151 
3301.000000	99.289640 
3300.000000	99.289677 
3299.000000	99.290317 
3298.000000	99.291218 
3297.000000	99.292012 
3296.000000	99.292647 
3295.000000	99.293295 
3294.000000	99.294054 
3293.000000	99.294840 
3292.000000	99.295453 
3291.000000	99.295639 
3290.000000	99.295205 
3289.000000	99.294213 
3288.000000	99.293037 
3287.000000	99.292163 
3286.000000	99.291887 
3285.000000	99.292184 
3284.000000	99.292726 
3283.000000	99.293022 
3282.000000	99.292763 
3281.000000	99.292076 
3280.000000	99.291376 
3279.000000	99.290904 
3278.000000	99.290620 
3277.000000	99.290513 
3276.000000	99.290731 
3275.000000	99.291289 
3274.000000	99.291863 
3273.000000	99.292078 
3272.000000	99.291881 
3271.000000	99.291471 
3270.000000	99.290988 
3269.000000	99.290463 
3268.000000	99.290028 
3267.000000	99.289954 
3266.000000	99.290388 
3265.000000	99.291179 
3264.000000	99.291995 
3263.000000	99.292576 
3262.000000	99.292863 
3261.000000	99.292945 
3260.000000	99.292918 
3259.000000	99.292811 
3258.000000	99.292620 
3257.000000	99.292385 
3256.000000	99.292169 
3255.000000	99.291987 
3254.000000	99.291806 
3253.000000	99.291640 
3252.000000	99.291563 
3251.000000	99.291608 
3250.000000	99.291697 
3249.000000	99.291727 
3248.000000	99.291691 
3247.000000	99.291652 
3246.000000	99.291602 
3245.000000	99.291443 
3244.000000	99.291151 
3243.000000	99.290898 
3242.000000	99.290955 
3241.000000	99.291458 
3240.000000	99.292267 
3239.000000	99.292960 
3238.000000	99.293176 
3237.000000	99.292905 
3236.000000	99.292493 
3235.000000	99.292282 
3234.000000	99.292291 
3233.000000	99.292354 
3232.000000	99.292449 
3231.000000	99.292737 
3230.000000	99.293267 
3229.000000	99.293793 
3228.000000	99.293952 
3227.000000	99.293556 
3226.000000	99.292692 
3225.000000	99.291663 
3224.000000	99.290857 
3223.000000	99.290557 
3222.000000	99.290781 
3221.000000	99.291329 
3220.000000	99.291996 
3219.000000	99.292661 
3218.000000	99.293181 
3217.000000	99.293352 
3216.000000	99.293078 
3215.000000	99.292528 
3214.000000	99.292031 
3213.000000	99.291833 
3212.000000	99.292036 
3211.000000	99.292721 
3210.000000	99.293975 
3209.000000	99.295691 
3208.000000	99.297388 
3207.000000	99.298390 
3206.000000	99.298349 
3205.000000	99.297654 
3204.000000	99.297270 
3203.000000	99.297932 
3202.000000	99.299506 
3201.000000	99.301189 
3200.000000	99.302257 
3199.000000	99.302479 
3198.000000	99.301966 
3197.000000	99.301024 
3196.000000	99.300202 
3195.000000	99.300057 
3194.000000	99.300514 
3193.000000	99.300721 
3192.000000	99.299911 
3191.000000	99.298300 
3190.000000	99.296930 
3189.000000	99.296656 
3188.000000	99.297535 
3187.000000	99.299072 
3186.000000	99.300662 
3185.000000	99.301773 
3184.000000	99.302048 
3183.000000	99.301533 
3182.000000	99.300727 
3181.000000	99.300166 
3180.000000	99.299968 
3179.000000	99.299822 
3178.000000	99.299370 
3177.000000	99.298516 
3176.000000	99.297502 
3175.000000	99.296806 
3174.000000	99.296919 
3173.000000	99.298064 
3172.000000	99.300006 
3171.000000	99.302095 
3170.000000	99.303627 
3169.000000	99.304283 
3168.000000	99.304346 
3167.000000	99.304491 
3166.000000	99.305237 
3165.000000	99.306486 
3164.000000	99.307640 
3163.000000	99.308193 
3162.000000	99.308156 
3161.000000	99.307932 
3160.000000	99.307911 
3159.000000	99.308194 
3158.000000	99.308587 
3157.000000	99.308781 
3156.000000	99.308603 
3155.000000	99.308175 
3154.000000	99.307847 
3153.000000	99.307932 
3152.000000	99.308461 
3151.000000	99.309176 
3150.000000	99.309725 
3149.000000	99.309936 
3148.000000	99.309958 
3147.000000	99.310117 
3146.000000	99.310563 
3145.000000	99.311063 
3144.000000	99.311236 
3143.000000	99.310984 
3142.000000	99.310617 
3141.000000	99.310529 
3140.000000	99.310769 
3139.000000	99.311067 
3138.000000	99.311187 
3137.000000	99.311170 
3136.000000	99.311203 
3135.000000	99.311348 
3134.000000	99.311478 
3133.000000	99.311454 
3132.000000	99.311275 
3131.000000	99.311046 
3130.000000	99.310881 
3129.000000	99.310822 
3128.000000	99.310825 
3127.000000	99.310837 
3126.000000	99.310861 
3125.000000	99.310926 
3124.000000	99.311010 
3123.000000	99.311038 
3122.000000	99.310963 
3121.000000	99.310837 
3120.000000	99.310779 
3119.000000	99.310881 
3118.000000	99.311123 
3117.000000	99.311359 
3116.000000	99.311429 
3115.000000	99.311305 
3114.000000	99.311095 
3113.000000	99.310899 
3112.000000	99.310701 
3111.000000	99.310466 
3110.000000	99.310292 
3109.000000	99.310334 
3108.000000	99.310571 
3107.000000	99.310752 
3106.000000	99.310653 
3105.000000	99.310342 
3104.000000	99.310136 
3103.000000	99.310286 
3102.000000	99.310788 
3101.000000	99.311456 
3100.000000	99.312060 
3099.000000	99.312440 
3098.000000	99.312539 
3097.000000	99.312416 
3096.000000	99.312245 
3095.000000	99.312236 
3094.000000	99.312520 
3093.000000	99.313088 
3092.000000	99.313809 
3091.000000	99.314462 
3090.000000	99.314744 
3089.000000	99.314425 
3088.000000	99.313698 
3087.000000	99.313291 
3086.000000	99.313840 
3085.000000	99.315108 
3084.000000	99.316124 
3083.000000	99.316258 
3082.000000	99.315878 
3081.000000	99.315813 
3080.000000	99.316380 
3079.000000	99.317166 
3078.000000	99.317493 
3077.000000	99.316792 
3076.000000	99.314852 
3075.000000	99.312222 
3074.000000	99.310202 
3073.000000	99.309888 
3072.000000	99.311235 
3071.000000	99.313390 
3070.000000	99.315655 
3069.000000	99.317415 
3068.000000	99.317364 
3067.000000	99.314100 
3066.000000	99.308134 
3065.000000	99.302501 
3064.000000	99.300291 
3063.000000	99.301685 
3062.000000	99.304078 
3061.000000	99.305004 
3060.000000	99.304432 
3059.000000	99.304229 
3058.000000	99.305954 
3057.000000	99.309386 
3056.000000	99.312822 
3055.000000	99.314585 
3054.000000	99.314313 
3053.000000	99.312908 
3052.000000	99.311425 
3051.000000	99.310142 
3050.000000	99.308636 
3049.000000	99.306312 
3048.000000	99.302618 
3047.000000	99.297231 
3046.000000	99.290676 
3045.000000	99.284589 
3044.000000	99.280635 
3043.000000	99.278971 
3042.000000	99.278146 
3041.000000	99.276532 
3040.000000	99.273539 
3039.000000	99.269514 
3038.000000	99.265109 
3037.000000	99.260985 
3036.000000	99.257634 
3035.000000	99.255007 
3034.000000	99.252517 
3033.000000	99.249482 
3032.000000	99.245273 
3031.000000	99.239174 
3030.000000	99.230508 
3029.000000	99.219165 
3028.000000	99.206092 
3027.000000	99.193131 
3026.000000	99.182158 
3025.000000	99.174097 
3024.000000	99.168334 
3023.000000	99.162870 
3022.000000	99.155340 
3021.000000	99.144462 
3020.000000	99.130852 
3019.000000	99.116553 
3018.000000	99.103668 
3017.000000	99.093125 
3016.000000	99.084248 
3015.000000	99.075374 
3014.000000	99.065087 
3013.000000	99.052985 
3012.000000	99.039208 
3011.000000	99.023453 
3010.000000	99.005188 
3009.000000	98.985116 
3008.000000	98.965775 
3007.000000	98.949948 
3006.000000	98.938412 
3005.000000	98.929436 
3004.000000	98.920159 
3003.000000	98.908204 
3002.000000	98.892672 
3001.000000	98.874783 
3000.000000	98.857586 
2999.000000	98.843849 
2998.000000	98.833738 
2997.000000	98.825292 
2996.000000	98.817287 
2995.000000	98.810140 
2994.000000	98.802846 
2993.000000	98.790645 
2992.000000	98.768628 
2991.000000	98.738375 
2990.000000	98.709086 
2989.000000	98.690403 
2988.000000	98.684877 
2987.000000	98.687957 
2986.000000	98.693775 
2985.000000	98.699736 
2984.000000	98.705905 
2983.000000	98.712150 
2982.000000	98.717172 
2981.000000	98.719605 
2980.000000	98.719177 
2979.000000	98.716887 
2978.000000	98.714329 
2977.000000	98.712560 
2976.000000	98.711356 
2975.000000	98.709748 
2974.000000	98.707353 
2973.000000	98.704841 
2972.000000	98.703047 
2971.000000	98.702216 
2970.000000	98.702512 
2969.000000	98.704861 
2968.000000	98.710651 
2967.000000	98.720535 
2966.000000	98.733687 
2965.000000	98.748184 
2964.000000	98.762049 
2963.000000	98.774167 
2962.000000	98.784487 
2961.000000	98.793405 
2960.000000	98.801071 
2959.000000	98.807539 
2958.000000	98.813515 
2957.000000	98.820212 
2956.000000	98.827914 
2955.000000	98.834972 
2954.000000	98.839071 
2953.000000	98.839928 
2952.000000	98.840465 
2951.000000	98.844742 
2950.000000	98.854240 
2949.000000	98.866173 
2948.000000	98.875826 
2947.000000	98.880661 
2946.000000	98.881994 
2945.000000	98.882948 
2944.000000	98.885289 
2943.000000	98.888736 
2942.000000	98.892626 
2941.000000	98.896711 
2940.000000	98.900169 
2939.000000	98.901328 
2938.000000	98.899327 
2937.000000	98.895521 
2936.000000	98.892591 
2935.000000	98.892482 
2934.000000	98.895263 
2933.000000	98.899348 
2932.000000	98.902297 
2931.000000	98.902008 
2930.000000	98.898049 
2929.000000	98.891944 
2928.000000	98.885870 
2927.000000	98.881146 
2926.000000	98.878114 
2925.000000	98.876778 
2924.000000	98.876839 
2923.000000	98.877441 
2922.000000	98.877743 
2921.000000	98.877767 
2920.000000	98.878114 
2919.000000	98.878833 
2918.000000	98.879057 
2917.000000	98.877763 
2916.000000	98.874556 
2915.000000	98.869872 
2914.000000	98.864978 
2913.000000	98.861605 
2912.000000	98.860732 
2911.000000	98.861423 
2910.000000	98.861372 
2909.000000	98.859048 
2908.000000	98.855037 
2907.000000	98.850989 
2906.000000	98.847457 
2905.000000	98.843066 
2904.000000	98.835847 
2903.000000	98.825600 
2902.000000	98.815401 
2901.000000	98.810540 
2900.000000	98.815166 
2899.000000	98.829068 
2898.000000	98.847030 
2897.000000	98.861998 
2896.000000	98.870007 
2895.000000	98.872403 
2894.000000	98.873612 
2893.000000	98.876885 
2892.000000	98.882009 
2891.000000	98.886619 
2890.000000	98.889201 
2889.000000	98.890517 
2888.000000	98.892391 
2887.000000	98.895718 
2886.000000	98.899961 
2885.000000	98.904210 
2884.000000	98.908282 
2883.000000	98.912799 
2882.000000	98.918516 
2881.000000	98.925764 
2880.000000	98.934508 
2879.000000	98.944751 
2878.000000	98.956566 
2877.000000	98.969428 
2876.000000	98.981602 
2875.000000	98.990788 
2874.000000	98.995817 
2873.000000	98.997711 
2872.000000	98.999014 
2871.000000	99.002129 
2870.000000	99.008193 
2869.000000	99.016907 
2868.000000	99.026983 
2867.000000	99.037129 
2866.000000	99.047159 
2865.000000	99.058024 
2864.000000	99.070287 
2863.000000	99.082725 
2862.000000	99.093019 
2861.000000	99.100008 
2860.000000	99.104906 
2859.000000	99.110244 
2858.000000	99.117734 
2857.000000	99.127121 
2856.000000	99.136754 
2855.000000	99.145230 
2854.000000	99.152547 
2853.000000	99.159777 
2852.000000	99.167610 
2851.000000	99.175508 
2850.000000	99.182569 
2849.000000	99.188724 
2848.000000	99.194553 
2847.000000	99.200284 
2846.000000	99.205540 
2845.000000	99.209850 
2844.000000	99.212942 
2843.000000	99.214859 
2842.000000	99.216393 
2841.000000	99.219074 
2840.000000	99.223804 
2839.000000	99.229445 
2838.000000	99.233576 
2837.000000	99.234824 
2836.000000	99.233992 
2835.000000	99.233101 
2834.000000	99.233980 
2833.000000	99.237647 
2832.000000	99.243839 
2831.000000	99.250642 
2830.000000	99.255481 
2829.000000	99.257263 
2828.000000	99.257318 
2827.000000	99.257918 
2826.000000	99.260098 
2825.000000	99.263156 
2824.000000	99.265863 
2823.000000	99.267753 
2822.000000	99.269421 
2821.000000	99.271792 
2820.000000	99.274900 
2819.000000	99.277489 
2818.000000	99.278308 
2817.000000	99.277754 
2816.000000	99.277545 
2815.000000	99.278655 
2814.000000	99.280313 
2813.000000	99.281344 
2812.000000	99.281687 
2811.000000	99.282059 
2810.000000	99.282814 
2809.000000	99.283863 
2808.000000	99.285234 
2807.000000	99.286934 
2806.000000	99.288469 
2805.000000	99.289204 
2804.000000	99.289203 
2803.000000	99.289260 
2802.000000	99.290040 
2801.000000	99.291456 
2800.000000	99.292843 
2799.000000	99.293533 
2798.000000	99.293347 
2797.000000	99.292726 
2796.000000	99.292380 
2795.000000	99.292705 
2794.000000	99.293576 
2793.000000	99.294631 
2792.000000	99.295565 
2791.000000	99.296171 
2790.000000	99.296429 
2789.000000	99.296664 
2788.000000	99.297341 
2787.000000	99.298525 
2786.000000	99.299761 
2785.000000	99.300630 
2784.000000	99.301197 
2783.000000	99.301736 
2782.000000	99.302224 
2781.000000	99.302419 
2780.000000	99.302343 
2779.000000	99.302400 
2778.000000	99.302938 
2777.000000	99.303894 
2776.000000	99.304911 
2775.000000	99.305659 
2774.000000	99.306032 
2773.000000	99.306115 
2772.000000	99.306123 
2771.000000	99.306324 
2770.000000	99.306910 
2769.000000	99.307915 
2768.000000	99.309199 
2767.000000	99.310510 
2766.000000	99.311582 
2765.000000	99.312261 
2764.000000	99.312592 
2763.000000	99.312765 
2762.000000	99.312955 
2761.000000	99.313244 
2760.000000	99.313727 
2759.000000	99.314525 
2758.000000	99.315593 
2757.000000	99.316602 
2756.000000	99.317257 
2755.000000	99.317662 
2754.000000	99.318171 
2753.000000	99.318834 
2752.000000	99.319274 
2751.000000	99.319220 
2750.000000	99.318918 
2749.000000	99.318862 
2748.000000	99.319188 
2747.000000	99.319584 
2746.000000	99.319711 
2745.000000	99.319533 
2744.000000	99.319267 
2743.000000	99.319181 
2742.000000	99.319494 
2741.000000	99.320293 
2740.000000	99.321412 
2739.000000	99.322452 
2738.000000	99.323071 
2737.000000	99.323259 
2736.000000	99.323271 
2735.000000	99.323350 
2734.000000	99.323533 
2733.000000	99.323720 
2732.000000	99.323857 
2731.000000	99.324016 
2730.000000	99.324307 
2729.000000	99.324754 
2728.000000	99.325290 
2727.000000	99.325860 
2726.000000	99.326470 
2725.000000	99.327113 
2724.000000	99.327681 
2723.000000	99.328051 
2722.000000	99.328239 
2721.000000	99.328379 
2720.000000	99.328548 
2719.000000	99.328699 
2718.000000	99.328775 
2717.000000	99.328818 
2716.000000	99.328932 
2715.000000	99.329188 
2714.000000	99.329591 
2713.000000	99.330094 
2712.000000	99.330575 
2711.000000	99.330890 
2710.000000	99.331009 
2709.000000	99.331043 
2708.000000	99.331158 
2707.000000	99.331392 
2706.000000	99.331619 
2705.000000	99.331710 
2704.000000	99.331678 
2703.000000	99.331658 
2702.000000	99.331746 
2701.000000	99.331929 
2700.000000	99.332130 
2699.000000	99.332283 
2698.000000	99.332358 
2697.000000	99.332352 
2696.000000	99.332276 
2695.000000	99.332171 
2694.000000	99.332113 
2693.000000	99.332164 
2692.000000	99.332302 
2691.000000	99.332411 
2690.000000	99.332407 
2689.000000	99.332365 
2688.000000	99.332456 
2687.000000	99.332741 
2686.000000	99.333059 
2685.000000	99.333189 
2684.000000	99.333095 
2683.000000	99.332948 
2682.000000	99.332931 
2681.000000	99.333073 
2680.000000	99.333279 
2679.000000	99.333406 
2678.000000	99.333318 
2677.000000	99.332980 
2676.000000	99.332540 
2675.000000	99.332227 
2674.000000	99.332146 
2673.000000	99.332192 
2672.000000	99.332181 
2671.000000	99.332012 
2670.000000	99.331693 
2669.000000	99.331256 
2668.000000	99.330735 
2667.000000	99.330252 
2666.000000	99.330027 
2665.000000	99.330225 
2664.000000	99.330769 
2663.000000	99.331366 
2662.000000	99.331782 
2661.000000	99.332006 
2660.000000	99.332123 
2659.000000	99.332145 
2658.000000	99.332042 
2657.000000	99.331865 
2656.000000	99.331742 
2655.000000	99.331750 
2654.000000	99.331846 
2653.000000	99.331918 
2652.000000	99.331888 
2651.000000	99.331753 
2650.000000	99.331577 
2649.000000	99.331453 
2648.000000	99.331436 
2647.000000	99.331500 
2646.000000	99.331592 
2645.000000	99.331702 
2644.000000	99.331850 
2643.000000	99.332011 
2642.000000	99.332136 
2641.000000	99.332216 
2640.000000	99.332302 
2639.000000	99.332437 
2638.000000	99.332620 
2637.000000	99.332814 
2636.000000	99.332971 
2635.000000	99.333058 
2634.000000	99.333084 
2633.000000	99.333097 
2632.000000	99.333143 
2631.000000	99.333222 
2630.000000	99.333311 
2629.000000	99.333392 
2628.000000	99.333463 
2627.000000	99.333528 
2626.000000	99.333594 
2625.000000	99.333662 
2624.000000	99.333726 
2623.000000	99.333781 
2622.000000	99.333816 
2621.000000	99.333823 
2620.000000	99.333803 
2619.000000	99.333769 
2618.000000	99.333735 
2617.000000	99.333700 
2616.000000	99.333662 
2615.000000	99.333639 
2614.000000	99.333647 
2613.000000	99.333684 
2612.000000	99.333734 
2611.000000	99.333780 
2610.000000	99.333815 
2609.000000	99.333829 
2608.000000	99.333806 
2607.000000	99.333735 
2606.000000	99.333616 
2605.000000	99.333471 
2604.000000	99.333328 
2603.000000	99.333193 
2602.000000	99.333047 
2601.000000	99.332875 
2600.000000	99.332684 
2599.000000	99.332503 
2598.000000	99.332341 
2597.000000	99.332175 
2596.000000	99.331968 
2595.000000	99.331703 
2594.000000	99.331394 
2593.000000	99.331065 
2592.000000	99.330749 
2591.000000	99.330475 
2590.000000	99.330252 
2589.000000	99.330071 
2588.000000	99.329900 
2587.000000	99.329708 
2586.000000	99.329472 
2585.000000	99.329178 
2584.000000	99.328825 
2583.000000	99.328441 
2582.000000	99.328080 
2581.000000	99.327794 
2580.000000	99.327588 
2579.000000	99.327420 
2578.000000	99.327233 
2577.000000	99.327013 
2576.000000	99.326779 
2575.000000	99.326554 
2574.000000	99.326350 
2573.000000	99.326154 
2572.000000	99.325931 
2571.000000	99.325650 
2570.000000	99.325312 
2569.000000	99.324938 
2568.000000	99.324565 
2567.000000	99.324238 
2566.000000	99.323989 
2565.000000	99.323809 
2564.000000	99.323663 
2563.000000	99.323519 
2562.000000	99.323348 
2561.000000	99.323110 
2560.000000	99.322836 
2559.000000	99.322707 
2558.000000	99.322890 
2557.000000	99.323213 
2556.000000	99.323189 
2555.000000	99.322628 
2554.000000	99.322116 
2553.000000	99.322527 
2552.000000	99.324009 
2551.000000	99.325695 
2550.000000	99.326663 
2549.000000	99.326941 
2548.000000	99.327113 
2547.000000	99.327200 
2546.000000	99.326614 
2545.000000	99.325203 
2544.000000	99.323722 
2543.000000	99.323055 
2542.000000	99.323343 
2541.000000	99.324138 
2540.000000	99.325011 
2539.000000	99.325661 
2538.000000	99.325705 
2537.000000	99.324811 
2536.000000	99.322985 
2535.000000	99.320637 
2534.000000	99.318555 
2533.000000	99.317757 
2532.000000	99.318901 
2531.000000	99.321504 
2530.000000	99.324058 
2529.000000	99.325456 
2528.000000	99.326052 
2527.000000	99.326958 
2526.000000	99.328668 
2525.000000	99.330808 
2524.000000	99.332906 
2523.000000	99.334755 
2522.000000	99.336051 
2521.000000	99.336297 
2520.000000	99.335323 
2519.000000	99.333632 
2518.000000	99.332095 
2517.000000	99.331384 
2516.000000	99.331558 
2515.000000	99.331999 
2514.000000	99.331871 
2513.000000	99.330889 
2512.000000	99.329479 
2511.000000	99.328115 
2510.000000	99.326874 
2509.000000	99.325920 
2508.000000	99.325890 
2507.000000	99.327177 
2506.000000	99.329023 
2505.000000	99.329958 
2504.000000	99.329310 
2503.000000	99.327683 
2502.000000	99.326210 
2501.000000	99.325525 
2500.000000	99.325654 
2499.000000	99.326398 
2498.000000	99.327429 
2497.000000	99.328279 
2496.000000	99.328580 
2495.000000	99.328323 
2494.000000	99.327718 
2493.000000	99.326933 
2492.000000	99.326071 
2491.000000	99.325299 
2490.000000	99.324809 
2489.000000	99.324655 
2488.000000	99.324746 
2487.000000	99.324965 
2486.000000	99.325226 
2485.000000	99.325450 
2484.000000	99.325573 
2483.000000	99.325550 
2482.000000	99.325336 
2481.000000	99.324895 
2480.000000	99.324273 
2479.000000	99.323616 
2478.000000	99.323057 
2477.000000	99.322616 
2476.000000	99.322238 
2475.000000	99.321913 
2474.000000	99.321706 
2473.000000	99.321680 
2472.000000	99.321821 
2471.000000	99.322063 
2470.000000	99.322325 
2469.000000	99.322488 
2468.000000	99.322407 
2467.000000	99.322005 
2466.000000	99.321382 
2465.000000	99.320825 
2464.000000	99.320565 
2463.000000	99.320586 
2462.000000	99.320643 
2461.000000	99.320483 
2460.000000	99.320095 
2459.000000	99.319665 
2458.000000	99.319386 
2457.000000	99.319303 
2456.000000	99.319330 
2455.000000	99.319345 
2454.000000	99.319274 
2453.000000	99.319115 
2452.000000	99.318914 
2451.000000	99.318731 
2450.000000	99.318600 
2449.000000	99.318523 
2448.000000	99.318466 
2447.000000	99.318387 
2446.000000	99.318268 
2445.000000	99.318133 
2444.000000	99.318028 
2443.000000	99.317970 
2442.000000	99.317929 
2441.000000	99.317855 
2440.000000	99.317725 
2439.000000	99.317545 
2438.000000	99.317326 
2437.000000	99.317083 
2436.000000	99.316845 
2435.000000	99.316638 
2434.000000	99.316453 
2433.000000	99.316261 
2432.000000	99.316054 
2431.000000	99.315858 
2430.000000	99.315697 
2429.000000	99.315573 
2428.000000	99.315480 
2427.000000	99.315426 
2426.000000	99.315414 
2425.000000	99.315418 
2424.000000	99.315394 
2423.000000	99.315325 
2422.000000	99.315223 
2421.000000	99.315147 
2420.000000	99.315143 
2419.000000	99.315217 
2418.000000	99.315319 
2417.000000	99.315388 
2416.000000	99.315419 
2415.000000	99.315443 
2414.000000	99.315472 
2413.000000	99.315487 
2412.000000	99.315474 
2411.000000	99.315461 
2410.000000	99.315500 
2409.000000	99.315619 
2408.000000	99.315807 
2407.000000	99.316053 
2406.000000	99.316359 
2405.000000	99.316700 
2404.000000	99.317023 
2403.000000	99.317281 
2402.000000	99.317456 
2401.000000	99.317580 
2400.000000	99.317719 
2399.000000	99.317931 
2398.000000	99.318228 
2397.000000	99.318592 
2396.000000	99.319010 
2395.000000	99.319480 
2394.000000	99.319986 
2393.000000	99.320484 
2392.000000	99.320948 
2391.000000	99.321407 
2390.000000	99.321915 
2389.000000	99.322491 
2388.000000	99.323104 
2387.000000	99.323699 
2386.000000	99.324217 
2385.000000	99.324622 
2384.000000	99.324946 
2383.000000	99.325295 
2382.000000	99.325767 
2381.000000	99.326370 
2380.000000	99.327007 
2379.000000	99.327512 
2378.000000	99.327712 
2377.000000	99.327571 
2376.000000	99.327333 
2375.000000	99.327382 
2374.000000	99.327919 
2373.000000	99.328799 
2372.000000	99.329728 
2371.000000	99.330626 
2370.000000	99.331651 
2369.000000	99.332854 
2368.000000	99.333886 
2367.000000	99.334189 
2366.000000	99.333478 
2365.000000	99.332093 
2364.000000	99.331033 
2363.000000	99.331081 
2362.000000	99.332120 
2361.000000	99.333552 
2360.000000	99.334905 
2359.000000	99.336099 
2358.000000	99.337189 
2357.000000	99.337958 
2356.000000	99.338398 
2355.000000	99.338691 
2354.000000	99.338832 
2353.000000	99.338716 
2352.000000	99.338544 
2351.000000	99.339049 
2350.000000	99.340047 
2349.000000	99.340364 
2348.000000	99.339029 
2347.000000	99.336178 
2346.000000	99.333539 
2345.000000	99.332522 
2344.000000	99.333461 
2343.000000	99.335677 
2342.000000	99.338518 
2341.000000	99.341953 
2340.000000	99.345274 
2339.000000	99.347728 
2338.000000	99.348755 
2337.000000	99.348545 
2336.000000	99.347639 
2335.000000	99.346705 
2334.000000	99.346111 
2333.000000	99.345997 
2332.000000	99.346133 
2331.000000	99.346425 
2330.000000	99.346525 
2329.000000	99.346448 
2328.000000	99.346853 
2327.000000	99.347877 
2326.000000	99.349209 
2325.000000	99.349305 
2324.000000	99.347740 
2323.000000	99.345530 
2322.000000	99.344727 
2321.000000	99.346482 
2320.000000	99.349694 
2319.000000	99.352427 
2318.000000	99.353154 
2317.000000	99.351892 
2316.000000	99.349293 
2315.000000	99.346331 
2314.000000	99.343788 
2313.000000	99.342131 
2312.000000	99.341368 
2311.000000	99.341045 
2310.000000	99.340929 
2309.000000	99.340847 
2308.000000	99.340598 
2307.000000	99.339471 
2306.000000	99.337173 
2305.000000	99.334161 
2304.000000	99.331428 
2303.000000	99.329343 
2302.000000	99.327538 
2301.000000	99.325556 
2300.000000	99.323431 
2299.000000	99.321396 
2298.000000	99.319660 
2297.000000	99.318408 
2296.000000	99.317899 
2295.000000	99.317892 
2294.000000	99.317583 
2293.000000	99.316133 
2292.000000	99.313656 
2291.000000	99.311036 
2290.000000	99.309102 
2289.000000	99.307972 
2288.000000	99.307305 
2287.000000	99.306673 
2286.000000	99.305775 
2285.000000	99.304453 
2284.000000	99.302716 
2283.000000	99.300611 
2282.000000	99.298057 
2281.000000	99.294994 
2280.000000	99.291781 
2279.000000	99.289307 
2278.000000	99.288371 
2277.000000	99.288992 
2276.000000	99.290332 
2275.000000	99.291248 
2274.000000	99.291032 
2273.000000	99.289689 
2272.000000	99.287648 
2271.000000	99.285312 
2270.000000	99.282977 
2269.000000	99.281177 
2268.000000	99.280674 
2267.000000	99.281722 
2266.000000	99.283453 
2265.000000	99.284393 
2264.000000	99.283702 
2263.000000	99.281720 
2262.000000	99.279637 
2261.000000	99.278708 
2260.000000	99.279493 
2259.000000	99.281283 
2258.000000	99.282363 
2257.000000	99.281604 
2256.000000	99.279578 
2255.000000	99.277679 
2254.000000	99.276126 
2253.000000	99.273853 
2252.000000	99.270586 
2251.000000	99.267997 
2250.000000	99.268045 
2249.000000	99.270874 
2248.000000	99.274660 
2247.000000	99.277149 
2246.000000	99.277141 
2245.000000	99.274681 
2244.000000	99.270715 
2243.000000	99.266556 
2242.000000	99.263248 
2241.000000	99.261172 
2240.000000	99.260016 
2239.000000	99.259000 
2238.000000	99.257383 
2237.000000	99.255047 
2236.000000	99.252489 
2235.000000	99.250138 
2234.000000	99.247971 
2233.000000	99.246156 
2232.000000	99.245577 
2231.000000	99.246959 
2230.000000	99.249791 
2229.000000	99.252887 
2228.000000	99.255754 
2227.000000	99.258548 
2226.000000	99.260841 
2225.000000	99.261488 
2224.000000	99.259994 
2223.000000	99.257289 
2222.000000	99.254911 
2221.000000	99.253730 
2220.000000	99.253574 
2219.000000	99.253723 
2218.000000	99.253666 
2217.000000	99.253674 
2216.000000	99.254592 
2215.000000	99.256701 
2214.000000	99.258860 
2213.000000	99.259320 
2212.000000	99.257508 
2211.000000	99.254608 
2210.000000	99.252598 
2209.000000	99.252601 
2208.000000	99.254252 
2207.000000	99.256043 
2206.000000	99.256384 
2205.000000	99.254757 
2204.000000	99.251910 
2203.000000	99.249118 
2202.000000	99.247178 
2201.000000	99.246252 
2200.000000	99.246194 
2199.000000	99.246478 
2198.000000	99.246175 
2197.000000	99.244802 
2196.000000	99.243184 
2195.000000	99.242750 
2194.000000	99.243848 
2193.000000	99.245415 
2192.000000	99.246252 
2191.000000	99.246169 
2190.000000	99.245640 
2189.000000	99.245069 
2188.000000	99.244706 
2187.000000	99.244784 
2186.000000	99.245370 
2185.000000	99.246290 
2184.000000	99.247402 
2183.000000	99.248604 
2182.000000	99.249392 
2181.000000	99.249084 
2180.000000	99.247798 
2179.000000	99.246662 
2178.000000	99.246534 
2177.000000	99.246939 
2176.000000	99.246739 
2175.000000	99.245446 
2174.000000	99.243459 
2173.000000	99.241580 
2172.000000	99.240621 
2171.000000	99.241067 
2170.000000	99.242691 
2169.000000	99.244595 
2168.000000	99.246120 
2167.000000	99.247364 
2166.000000	99.248504 
2165.000000	99.249313 
2164.000000	99.249626 
2163.000000	99.249714 
2162.000000	99.249884 
2161.000000	99.250115 
2160.000000	99.250334 
2159.000000	99.250617 
2158.000000	99.250918 
2157.000000	99.251094 
2156.000000	99.251325 
2155.000000	99.251977 
2154.000000	99.252982 
2153.000000	99.253826 
2152.000000	99.254227 
2151.000000	99.254479 
2150.000000	99.255048 
2149.000000	99.256056 
2148.000000	99.257284 
2147.000000	99.258424 
2146.000000	99.259253 
2145.000000	99.259696 
2144.000000	99.259914 
2143.000000	99.260244 
2142.000000	99.260823 
2141.000000	99.261415 
2140.000000	99.261734 
2139.000000	99.261803 
2138.000000	99.261832 
2137.000000	99.261881 
2136.000000	99.261867 
2135.000000	99.261854 
2134.000000	99.262046 
2133.000000	99.262504 
2132.000000	99.263064 
2131.000000	99.263459 
2130.000000	99.263565 
2129.000000	99.263420 
2128.000000	99.263187 
2127.000000	99.263033 
2126.000000	99.263018 
2125.000000	99.263054 
2124.000000	99.263043 
2123.000000	99.263098 
2122.000000	99.263455 
2121.000000	99.264102 
2120.000000	99.264626 
2119.000000	99.264632 
2118.000000	99.264175 
2117.000000	99.263661 
2116.000000	99.263380 
2115.000000	99.263376 
2114.000000	99.263656 
2113.000000	99.264235 
2112.000000	99.264904 
2111.000000	99.265232 
2110.000000	99.264949 
2109.000000	99.264246 
2108.000000	99.263596 
2107.000000	99.263269 
2106.000000	99.263012 
2105.000000	99.262106 
2104.000000	99.259931 
2103.000000	99.256754 
2102.000000	99.253861 
2101.000000	99.252550 
2100.000000	99.253067 
2099.000000	99.254604 
2098.000000	99.256247 
2097.000000	99.257712 
2096.000000	99.259034 
2095.000000	99.259796 
2094.000000	99.258893 
2093.000000	99.255482 
2092.000000	99.250516 
2091.000000	99.246963 
2090.000000	99.247365 
2089.000000	99.251112 
2088.000000	99.254713 
2087.000000	99.255387 
2086.000000	99.253989 
2085.000000	99.253536 
2084.000000	99.255455 
2083.000000	99.258181 
2082.000000	99.259343 
2081.000000	99.258434 
2080.000000	99.256920 
2079.000000	99.256412 
2078.000000	99.257556 
2077.000000	99.260554 
2076.000000	99.265681 
2075.000000	99.272516 
2074.000000	99.278993 
2073.000000	99.282487 
2072.000000	99.282222 
2071.000000	99.279774 
2070.000000	99.276906 
2069.000000	99.273685 
2068.000000	99.269463 
2067.000000	99.264691 
2066.000000	99.260554 
2065.000000	99.257271 
2064.000000	99.254227 
2063.000000	99.251830 
2062.000000	99.251626 
2061.000000	99.253998 
2060.000000	99.256891 
2059.000000	99.257820 
2058.000000	99.256490 
2057.000000	99.254569 
2056.000000	99.253256 
2055.000000	99.252012 
2054.000000	99.249853 
2053.000000	99.247087 
2052.000000	99.245162 
2051.000000	99.244948 
2050.000000	99.245640 
2049.000000	99.245454 
2048.000000	99.243295 
2047.000000	99.239545 
2046.000000	99.235389 
2045.000000	99.231891 
2044.000000	99.229789 
2043.000000	99.229358 
2042.000000	99.230049 
2041.000000	99.230586 
2040.000000	99.230146 
2039.000000	99.229267 
2038.000000	99.229041 
2037.000000	99.229510 
2036.000000	99.229375 
2035.000000	99.227343 
2034.000000	99.223340 
2033.000000	99.218486 
2032.000000	99.214214 
2031.000000	99.211470 
2030.000000	99.210476 
2029.000000	99.210728 
2028.000000	99.211139 
2027.000000	99.210616 
2026.000000	99.208975 
2025.000000	99.207525 
2024.000000	99.208085 
2023.000000	99.210910 
2022.000000	99.213831 
2021.000000	99.214237 
2020.000000	99.212083 
2019.000000	99.209995 
2018.000000	99.210235 
2017.000000	99.212303 
2016.000000	99.213969 
2015.000000	99.214053 
2014.000000	99.213226 
2013.000000	99.212515 
2012.000000	99.212261 
2011.000000	99.212565 
2010.000000	99.213837 
2009.000000	99.216413 
2008.000000	99.219868 
2007.000000	99.223023 
2006.000000	99.224757 
2005.000000	99.224845 
2004.000000	99.224169 
2003.000000	99.224022 
2002.000000	99.224933 
2001.000000	99.226231 
2000.000000	99.226824 
1999.000000	99.226211 
1998.000000	99.224690 
1997.000000	99.223022 
1996.000000	99.222048 
1995.000000	99.222320 
1994.000000	99.223820 
1993.000000	99.225870 
1992.000000	99.227440 
1991.000000	99.227884 
1990.000000	99.227316 
1989.000000	99.226353 
1988.000000	99.225655 
1987.000000	99.225487 
1986.000000	99.225639 
1985.000000	99.225752 
1984.000000	99.225722 
1983.000000	99.225759 
1982.000000	99.226039 
1981.000000	99.226363 
1980.000000	99.226265 
1979.000000	99.225466 
1978.000000	99.224199 
1977.000000	99.223090 
1976.000000	99.222620 
1975.000000	99.222818 
1974.000000	99.223408 
1973.000000	99.224241 
1972.000000	99.225452 
1971.000000	99.227088 
1970.000000	99.228629 
1969.000000	99.229173 
1968.000000	99.228274 
1967.000000	99.226455 
1966.000000	99.224922 
1965.000000	99.224413 
1964.000000	99.224806 
1963.000000	99.225621 
1962.000000	99.226486 
1961.000000	99.227128 
1960.000000	99.227313 
1959.000000	99.227111 
1958.000000	99.227085 
1957.000000	99.227873 
1956.000000	99.229525 
1955.000000	99.231342 
1954.000000	99.232420 
1953.000000	99.232345 
1952.000000	99.231381 
1951.000000	99.230208 
1950.000000	99.229510 
1949.000000	99.229680 
1948.000000	99.230683 
1947.000000	99.231885 
1946.000000	99.232116 
1945.000000	99.230375 
1944.000000	99.226895 
1943.000000	99.223564 
1942.000000	99.222591 
1941.000000	99.224526 
1940.000000	99.228006 
1939.000000	99.231478 
1938.000000	99.234801 
1937.000000	99.238849 
1936.000000	99.243802 
1935.000000	99.248241 
1934.000000	99.250382 
1933.000000	99.250182 
1932.000000	99.249682 
1931.000000	99.250915 
1930.000000	99.253664 
1929.000000	99.255915 
1928.000000	99.256445 
1927.000000	99.255827 
1926.000000	99.255181 
1925.000000	99.254901 
1924.000000	99.255062 
1923.000000	99.256191 
1922.000000	99.258465 
1921.000000	99.260764 
1920.000000	99.261481 
1919.000000	99.259987 
1918.000000	99.257033 
1917.000000	99.254118 
1916.000000	99.252462 
1915.000000	99.252482 
1914.000000	99.254040 
1913.000000	99.256743 
1912.000000	99.259972 
1911.000000	99.262898 
1910.000000	99.264562 
1909.000000	99.264586 
1908.000000	99.263972 
1907.000000	99.264276 
1906.000000	99.265950 
1905.000000	99.267893 
1904.000000	99.268868 
1903.000000	99.268893 
1902.000000	99.268675 
1901.000000	99.268510 
1900.000000	99.268359 
1899.000000	99.268437 
1898.000000	99.269114 
1897.000000	99.270340 
1896.000000	99.271565 
1895.000000	99.272268 
1894.000000	99.272333 
1893.000000	99.272008 
1892.000000	99.271764 
1891.000000	99.272059 
1890.000000	99.272838 
1889.000000	99.273477 
1888.000000	99.273644 
1887.000000	99.273761 
1886.000000	99.274349 
1885.000000	99.275459 
1884.000000	99.276910 
1883.000000	99.278698 
1882.000000	99.280597 
1881.000000	99.281896 
1880.000000	99.282375 
1879.000000	99.282930 
1878.000000	99.284626 
1877.000000	99.287333 
1876.000000	99.289844 
1875.000000	99.291358 
1874.000000	99.291961 
1873.000000	99.291814 
1872.000000	99.290948 
1871.000000	99.289666 
1870.000000	99.288333 
1869.000000	99.286759 
1868.000000	99.284999 
1867.000000	99.284179 
1866.000000	99.285039 
1865.000000	99.286800 
1864.000000	99.288037 
1863.000000	99.288050 
1862.000000	99.287159 
1861.000000	99.286034 
1860.000000	99.285336 
1859.000000	99.285687 
1858.000000	99.287165 
1857.000000	99.288887 
1856.000000	99.289905 
1855.000000	99.290395 
1854.000000	99.291215 
1853.000000	99.292471 
1852.000000	99.293521 
1851.000000	99.293948 
1850.000000	99.294098 
1849.000000	99.294609 
1848.000000	99.295556 
1847.000000	99.296357 
1846.000000	99.296368 
1845.000000	99.295516 
1844.000000	99.294479 
1843.000000	99.294262 
1842.000000	99.295038 
1841.000000	99.295966 
1840.000000	99.296283 
1839.000000	99.295841 
1838.000000	99.295017 
1837.000000	99.294314 
1836.000000	99.293988 
1835.000000	99.294035 
1834.000000	99.294252 
1833.000000	99.294450 
1832.000000	99.294581 
1831.000000	99.294494 
1830.000000	99.293979 
1829.000000	99.293394 
1828.000000	99.293435 
1827.000000	99.294127 
1826.000000	99.294839 
1825.000000	99.294990 
1824.000000	99.294608 
1823.000000	99.294160 
1822.000000	99.293732 
1821.000000	99.293130 
1820.000000	99.292683 
1819.000000	99.293202 
1818.000000	99.295020 
1817.000000	99.297130 
1816.000000	99.298140 
1815.000000	99.298087 
1814.000000	99.298141 
1813.000000	99.299056 
1812.000000	99.300375 
1811.000000	99.301421 
1810.000000	99.302271 
1809.000000	99.302918 
1808.000000	99.302805 
1807.000000	99.301659 
1806.000000	99.299850 
1805.000000	99.297910 
1804.000000	99.296239 
1803.000000	99.295179 
1802.000000	99.294687 
1801.000000	99.294335 
1800.000000	99.293986 
1799.000000	99.294292 
1798.000000	99.295779 
1797.000000	99.297794 
1796.000000	99.299228 
1795.000000	99.299803 
1794.000000	99.299977 
1793.000000	99.299966 
1792.000000	99.299384 
1791.000000	99.298385 
1790.000000	99.297748 
1789.000000	99.297746 
1788.000000	99.298240 
1787.000000	99.299162 
1786.000000	99.300368 
1785.000000	99.301285 
1784.000000	99.301364 
1783.000000	99.300762 
1782.000000	99.300044 
1781.000000	99.299695 
1780.000000	99.299710 
1779.000000	99.299784 
1778.000000	99.299795 
1777.000000	99.299827 
1776.000000	99.300014 
1775.000000	99.300306 
1774.000000	99.300566 
1773.000000	99.300791 
1772.000000	99.301029 
1771.000000	99.301318 
1770.000000	99.301616 
1769.000000	99.301799 
1768.000000	99.301838 
1767.000000	99.301834 
1766.000000	99.301929 
1765.000000	99.302198 
1764.000000	99.302603 
1763.000000	99.303038 
1762.000000	99.303387 
1761.000000	99.303658 
1760.000000	99.303936 
1759.000000	99.304269 
1758.000000	99.304670 
1757.000000	99.305136 
1756.000000	99.305611 
1755.000000	99.305985 
1754.000000	99.306226 
1753.000000	99.306421 
1752.000000	99.306696 
1751.000000	99.307017 
1750.000000	99.307251 
1749.000000	99.307376 
1748.000000	99.307478 
1747.000000	99.307626 
1746.000000	99.307799 
1745.000000	99.307965 
1744.000000	99.308118 
1743.000000	99.308266 
1742.000000	99.308419 
1741.000000	99.308577 
1740.000000	99.308735 
1739.000000	99.308892 
1738.000000	99.309045 
1737.000000	99.309191 
1736.000000	99.309328 
1735.000000	99.309454 
1734.000000	99.309561 
1733.000000	99.309640 
1732.000000	99.309692 
1731.000000	99.309725 
1730.000000	99.309746 
1729.000000	99.309765 
1728.000000	99.309786 
1727.000000	99.309814 
1726.000000	99.309845 
1725.000000	99.309874 
1724.000000	99.309895 
1723.000000	99.309902 
1722.000000	99.309893 
1721.000000	99.309870 
1720.000000	99.309838 
1719.000000	99.309795 
1718.000000	99.309735 
1717.000000	99.309648 
1716.000000	99.309537 
1715.000000	99.309413 
1714.000000	99.309289 
1713.000000	99.309170 
1712.000000	99.309056 
1711.000000	99.308946 
1710.000000	99.308837 
1709.000000	99.308728 
1708.000000	99.308620 
1707.000000	99.308516 
1706.000000	99.308417 
1705.000000	99.308322 
1704.000000	99.308228 
1703.000000	99.308135 
1702.000000	99.308046 
1701.000000	99.307963 
1700.000000	99.307885 
1699.000000	99.307813 
1698.000000	99.307755 
1697.000000	99.307709 
1696.000000	99.307669 
1695.000000	99.307633 
1694.000000	99.307596 
1693.000000	99.307562 
1692.000000	99.307534 
1691.000000	99.307521 
1690.000000	99.307525 
1689.000000	99.307543 
1688.000000	99.307565 
1687.000000	99.307586 
1686.000000	99.307602 
1685.000000	99.307613 
1684.000000	99.307620 
1683.000000	99.307626 
1682.000000	99.307637 
1681.000000	99.307653 
1680.000000	99.307676 
1679.000000	99.307706 
1678.000000	99.307741 
1677.000000	99.307781 
1676.000000	99.307833 
1675.000000	99.307901 
1674.000000	99.307987 
1673.000000	99.308086 
1672.000000	99.308188 
1671.000000	99.308284 
1670.000000	99.308372 
1669.000000	99.308450 
1668.000000	99.308526 
1667.000000	99.308602 
1666.000000	99.308682 
1665.000000	99.308766 
1664.000000	99.308856 
1663.000000	99.308951 
1662.000000	99.309049 
1661.000000	99.309150 
1660.000000	99.309252 
1659.000000	99.309355 
1658.000000	99.309452 
1657.000000	99.309540 
1656.000000	99.309617 
1655.000000	99.309686 
1654.000000	99.309755 
1653.000000	99.309830 
1652.000000	99.309921 
1651.000000	99.310031 
1650.000000	99.310153 
1649.000000	99.310275 
1648.000000	99.310395 
1647.000000	99.310513 
1646.000000	99.310629 
1645.000000	99.310749 
1644.000000	99.310888 
1643.000000	99.311059 
1642.000000	99.311265 
1641.000000	99.311494 
1640.000000	99.311720 
1639.000000	99.311913 
1638.000000	99.312064 
1637.000000	99.312221 
1636.000000	99.312440 
1635.000000	99.312708 
1634.000000	99.313052 
1633.000000	99.313379 
1632.000000	99.313488 
1631.000000	99.313390 
1630.000000	99.313241 
1629.000000	99.313172 
1628.000000	99.313243 
1627.000000	99.313483 
1626.000000	99.313774 
1625.000000	99.313972 
1624.000000	99.314131 
1623.000000	99.314360 
1622.000000	99.314690 
1621.000000	99.315131 
1620.000000	99.315698 
1619.000000	99.316338 
1618.000000	99.317037 
1617.000000	99.317461 
1616.000000	99.317796 
1615.000000	99.318835 
1614.000000	99.320310 
1613.000000	99.321532 
1612.000000	99.322694 
1611.000000	99.324019 
1610.000000	99.324695 
1609.000000	99.324013 
1608.000000	99.322822 
1607.000000	99.322520 
1606.000000	99.323015 
1605.000000	99.323513 
1604.000000	99.324003 
1603.000000	99.324808 
1602.000000	99.325826 
1601.000000	99.326794 
1600.000000	99.327774 
1599.000000	99.328818 
1598.000000	99.329666 
1597.000000	99.330159 
1596.000000	99.330399 
1595.000000	99.330386 
1594.000000	99.329922 
1593.000000	99.329261 
1592.000000	99.329229 
1591.000000	99.330235 
1590.000000	99.331613 
1589.000000	99.332465 
1588.000000	99.332808 
1587.000000	99.333231 
1586.000000	99.333838 
1585.000000	99.334207 
1584.000000	99.334415 
1583.000000	99.334640 
1582.000000	99.334569 
1581.000000	99.333983 
1580.000000	99.333173 
1579.000000	99.332386 
1578.000000	99.331658 
1577.000000	99.331205 
1576.000000	99.331207 
1575.000000	99.331720 
1574.000000	99.332322 
1573.000000	99.332491 
1572.000000	99.332308 
1571.000000	99.332259 
1570.000000	99.332418 
1569.000000	99.332575 
1568.000000	99.332876 
1567.000000	99.333142 
1566.000000	99.332966 
1565.000000	99.332316 
1564.000000	99.331595 
1563.000000	99.330911 
1562.000000	99.330235 
1561.000000	99.329614 
1560.000000	99.329911 
1559.000000	99.330439 
1558.000000	99.330508 
1557.000000	99.330931 
1556.000000	99.331482 
1555.000000	99.331802 
1554.000000	99.331830 
1553.000000	99.331613 
1552.000000	99.331331 
1551.000000	99.331080 
1550.000000	99.330937 
1549.000000	99.330894 
1548.000000	99.330886 
1547.000000	99.330835 
1546.000000	99.330689 
1545.000000	99.330456 
1544.000000	99.330234 
1543.000000	99.330166 
1542.000000	99.330324 
1541.000000	99.330601 
1540.000000	99.330660 
1539.000000	99.330487 
1538.000000	99.330382 
1537.000000	99.330393 
1536.000000	99.330442 
1535.000000	99.330599 
1534.000000	99.330776 
1533.000000	99.330674 
1532.000000	99.330260 
1531.000000	99.329812 
1530.000000	99.329503 
1529.000000	99.329273 
1528.000000	99.328977 
1527.000000	99.328618 
1526.000000	99.328305 
1525.000000	99.328075 
1524.000000	99.327899 
1523.000000	99.327909 
1522.000000	99.328245 
1521.000000	99.328504 
1520.000000	99.328230 
1519.000000	99.327415 
1518.000000	99.326259 
1517.000000	99.325045 
1516.000000	99.323971 
1515.000000	99.323115 
1514.000000	99.322495 
1513.000000	99.322199 
1512.000000	99.322197 
1511.000000	99.322150 
1510.000000	99.321865 
1509.000000	99.321388 
1508.000000	99.321060 
1507.000000	99.320672 
1506.000000	99.320079 
1505.000000	99.319615 
1504.000000	99.319229 
1503.000000	99.318725 
1502.000000	99.318172 
1501.000000	99.317518 
1500.000000	99.316423 
1499.000000	99.314648 
1498.000000	99.312612 
1497.000000	99.311024 
1496.000000	99.310013 
1495.000000	99.309681 
1494.000000	99.310197 
1493.000000	99.311292 
1492.000000	99.312369 
1491.000000	99.312802 
1490.000000	99.312113 
1489.000000	99.310303 
1488.000000	99.307767 
1487.000000	99.305343 
1486.000000	99.303688 
1485.000000	99.302413 
1484.000000	99.301112 
1483.000000	99.299879 
1482.000000	99.299043 
1481.000000	99.298509 
1480.000000	99.297740 
1479.000000	99.296621 
1478.000000	99.295541 
1477.000000	99.294585 
1476.000000	99.293315 
1475.000000	99.292199 
1474.000000	99.292416 
1473.000000	99.293798 
1472.000000	99.294494 
1471.000000	99.294036 
1470.000000	99.293446 
1469.000000	99.292814 
1468.000000	99.291690 
1467.000000	99.290415 
1466.000000	99.289869 
1465.000000	99.290048 
1464.000000	99.290339 
1463.000000	99.290482 
1462.000000	99.290653 
1461.000000	99.290444 
1460.000000	99.289170 
1459.000000	99.286144 
1458.000000	99.281053 
1457.000000	99.273111 
1456.000000	99.264279 
1455.000000	99.257922 
1454.000000	99.254354 
1453.000000	99.253857 
1452.000000	99.256771 
1451.000000	99.261626 
1450.000000	99.266406 
1449.000000	99.269753 
1448.000000	99.270365 
1447.000000	99.268512 
1446.000000	99.266002 
1445.000000	99.265016 
1444.000000	99.266278 
1443.000000	99.268372 
1442.000000	99.269883 
1441.000000	99.270337 
1440.000000	99.270052 
1439.000000	99.269537 
1438.000000	99.270914 
1437.000000	99.274500 
1436.000000	99.276250 
1435.000000	99.273835 
1434.000000	99.269335 
1433.000000	99.264813 
1432.000000	99.260813 
1431.000000	99.256678 
1430.000000	99.252093 
1429.000000	99.247780 
1428.000000	99.243733 
1427.000000	99.239731 
1426.000000	99.235775 
1425.000000	99.232627 
1424.000000	99.230281 
1423.000000	99.226938 
1422.000000	99.221513 
1421.000000	99.214516 
1420.000000	99.206589 
1419.000000	99.196971 
1418.000000	99.186882 
1417.000000	99.178424 
1416.000000	99.170163 
1415.000000	99.160093 
1414.000000	99.148824 
1413.000000	99.138833 
1412.000000	99.131793 
1411.000000	99.126751 
1410.000000	99.121787 
1409.000000	99.116215 
1408.000000	99.110661 
1407.000000	99.106652 
1406.000000	99.105316 
1405.000000	99.106806 
1404.000000	99.110534 
1403.000000	99.115678 
1402.000000	99.122162 
1401.000000	99.130136 
1400.000000	99.138377 
1399.000000	99.143487 
1398.000000	99.142096 
1397.000000	99.132785 
1396.000000	99.116633 
1395.000000	99.099779 
1394.000000	99.092063 
1393.000000	99.098383 
1392.000000	99.114206 
1391.000000	99.130677 
1390.000000	99.142009 
1389.000000	99.147417 
1388.000000	99.148320 
1387.000000	99.146006 
1386.000000	99.142111 
1385.000000	99.138910 
1384.000000	99.137718 
1383.000000	99.137920 
1382.000000	99.138392 
1381.000000	99.139228 
1380.000000	99.141688 
1379.000000	99.146452 
1378.000000	99.152689 
1377.000000	99.159134 
1376.000000	99.165295 
1375.000000	99.171237 
1374.000000	99.176974 
1373.000000	99.182870 
1372.000000	99.189408 
1371.000000	99.196567 
1370.000000	99.203712 
1369.000000	99.210310 
1368.000000	99.216308 
1367.000000	99.221732 
1366.000000	99.226789 
1365.000000	99.232210 
1364.000000	99.238796 
1363.000000	99.246230 
1362.000000	99.252998 
1361.000000	99.257997 
1360.000000	99.261619 
1359.000000	99.265149 
1358.000000	99.269587 
1357.000000	99.275014 
1356.000000	99.280551 
1355.000000	99.285091 
1354.000000	99.288709 
1353.000000	99.292838 
1352.000000	99.298141 
1351.000000	99.303324 
1350.000000	99.306360 
1349.000000	99.307404 
1348.000000	99.308093 
1347.000000	99.308999 
1346.000000	99.309652 
1345.000000	99.310032 
1344.000000	99.310585 
1343.000000	99.311088 
1342.000000	99.311282 
1341.000000	99.312429 
1340.000000	99.316243 
1339.000000	99.321783 
1338.000000	99.325860 
1337.000000	99.327213 
1336.000000	99.327654 
1335.000000	99.328779 
1334.000000	99.329793 
1333.000000	99.329326 
1332.000000	99.327711 
1331.000000	99.326381 
1330.000000	99.325992 
1329.000000	99.326330 
1328.000000	99.327190 
1327.000000	99.328283 
1326.000000	99.328721 
1325.000000	99.327978 
1324.000000	99.326765 
1323.000000	99.326187 
1322.000000	99.326710 
1321.000000	99.328360 
1320.000000	99.331176 
1319.000000	99.334709 
1318.000000	99.337623 
1317.000000	99.338576 
1316.000000	99.337328 
1315.000000	99.334716 
1314.000000	99.331912 
1313.000000	99.329794 
1312.000000	99.328627 
1311.000000	99.328108 
1310.000000	99.327834 
1309.000000	99.327802 
1308.000000	99.328165 
1307.000000	99.328743 
1306.000000	99.328984 
1305.000000	99.328654 
1304.000000	99.328099 
1303.000000	99.327784 
1302.000000	99.328010 
1301.000000	99.328906 
1300.000000	99.330309 
1299.000000	99.331770 
1298.000000	99.333150 
1297.000000	99.334832 
1296.000000	99.336815 
1295.000000	99.337927 
1294.000000	99.336829 
1293.000000	99.333633 
1292.000000	99.329743 
1291.000000	99.326412 
1290.000000	99.324173 
1289.000000	99.323343 
1288.000000	99.323818 
1287.000000	99.324303 
1286.000000	99.323076 
1285.000000	99.319784 
1284.000000	99.315487 
1283.000000	99.311051 
1282.000000	99.306437 
1281.000000	99.301680 
1280.000000	99.297647 
1279.000000	99.294933 
1278.000000	99.292868 
1277.000000	99.290491 
1276.000000	99.287784 
1275.000000	99.285103 
1274.000000	99.282001 
1273.000000	99.277624 
1272.000000	99.272085 
1271.000000	99.266557 
1270.000000	99.261879 
1269.000000	99.257690 
1268.000000	99.253117 
1267.000000	99.247746 
1266.000000	99.241746 
1265.000000	99.235461 
1264.000000	99.229207 
1263.000000	99.223304 
1262.000000	99.217993 
1261.000000	99.213318 
1260.000000	99.209231 
1259.000000	99.205622 
1258.000000	99.202214 
1257.000000	99.198684 
1256.000000	99.195126 
1255.000000	99.192165 
1254.000000	99.190204 
1253.000000	99.188678 
1252.000000	99.186675 
1251.000000	99.184421 
1250.000000	99.183507 
1249.000000	99.185189 
1248.000000	99.188919 
1247.000000	99.192824 
1246.000000	99.195079 
1245.000000	99.194326 
1244.000000	99.189700 
1243.000000	99.182139 
1242.000000	99.175510 
1241.000000	99.174240 
1240.000000	99.179123 
1239.000000	99.186221 
1238.000000	99.190587 
1237.000000	99.190805 
1236.000000	99.188733 
1235.000000	99.186204 
1234.000000	99.183572 
1233.000000	99.180841 
1232.000000	99.178212 
1231.000000	99.175280 
1230.000000	99.171403 
1229.000000	99.167474 
1228.000000	99.165917 
1227.000000	99.168123 
1226.000000	99.172793 
1225.000000	99.177386 
1224.000000	99.180535 
1223.000000	99.182418 
1222.000000	99.183650 
1221.000000	99.184813 
1220.000000	99.186653 
1219.000000	99.189803 
1218.000000	99.194246 
1217.000000	99.199310 
1216.000000	99.204043 
1215.000000	99.207497 
1214.000000	99.209083 
1213.000000	99.208896 
1212.000000	99.207467 
1211.000000	99.205294 
1210.000000	99.203067 
1209.000000	99.202054 
1208.000000	99.203277 
1207.000000	99.206058 
1206.000000	99.208302 
1205.000000	99.208635 
1204.000000	99.207501 
1203.000000	99.205932 
1202.000000	99.204264 
1201.000000	99.202581 
1200.000000	99.201457 
1199.000000	99.201275 
1198.000000	99.201418 
1197.000000	99.200895 
1196.000000	99.199121 
1195.000000	99.195751 
1194.000000	99.190808 
1193.000000	99.185352 
1192.000000	99.181152 
1191.000000	99.178878 
1190.000000	99.177166 
1189.000000	99.174339 
1188.000000	99.170597 
1187.000000	99.167613 
1186.000000	99.166328 
1185.000000	99.166001 
1184.000000	99.165250 
1183.000000	99.163270 
1182.000000	99.160180 
1181.000000	99.156913 
1180.000000	99.154679 
1179.000000	99.153837 
1178.000000	99.153323 
1177.000000	99.151787 
1176.000000	99.149092 
1175.000000	99.145968 
1174.000000	99.142320 
1173.000000	99.136948 
1172.000000	99.129320 
1171.000000	99.120840 
1170.000000	99.113603 
1169.000000	99.108185 
1168.000000	99.103304 
1167.000000	99.097650 
1166.000000	99.091718 
1165.000000	99.087592 
1164.000000	99.086954 
1163.000000	99.089433 
1162.000000	99.092962 
1161.000000	99.095868 
1160.000000	99.098348 
1159.000000	99.101473 
1158.000000	99.104844 
1157.000000	99.105801 
1156.000000	99.101455 
1155.000000	99.091612 
1154.000000	99.079739 
1153.000000	99.070617 
1152.000000	99.066391 
1151.000000	99.064860 
1150.000000	99.061874 
1149.000000	99.055488 
1148.000000	99.047502 
1147.000000	99.040958 
1146.000000	99.036572 
1145.000000	99.032175 
1144.000000	99.025330 
1143.000000	99.015787 
1142.000000	99.005483 
1141.000000	98.996754 
1140.000000	98.990660 
1139.000000	98.986492 
1138.000000	98.982360 
1137.000000	98.976436 
1136.000000	98.968173 
1135.000000	98.958523 
1134.000000	98.948779 
1133.000000	98.939021 
1132.000000	98.928021 
1131.000000	98.915107 
1130.000000	98.901996 
1129.000000	98.891831 
1128.000000	98.885610 
1127.000000	98.880059 
1126.000000	98.870319 
1125.000000	98.855061 
1124.000000	98.838117 
1123.000000	98.824507 
1122.000000	98.815334 
1121.000000	98.807334 
1120.000000	98.796822 
1119.000000	98.782905 
1118.000000	98.767102 
1117.000000	98.751259 
1116.000000	98.736402 
1115.000000	98.722774 
1114.000000	98.710006 
1113.000000	98.697335 
1112.000000	98.684092 
1111.000000	98.669835 
1110.000000	98.653790 
1109.000000	98.634944 
1108.000000	98.613661 
1107.000000	98.592746 
1106.000000	98.575622 
1105.000000	98.563087 
1104.000000	98.552214 
1103.000000	98.539095 
1102.000000	98.522714 
1101.000000	98.505672 
1100.000000	98.491111 
1099.000000	98.479875 
1098.000000	98.470660 
1097.000000	98.462024 
1096.000000	98.453102 
1095.000000	98.442511 
1094.000000	98.427999 
1093.000000	98.407863 
1092.000000	98.382184 
1091.000000	98.352457 
1090.000000	98.320735 
1089.000000	98.289396 
1088.000000	98.260718 
1087.000000	98.235592 
1086.000000	98.212909 
1085.000000	98.190966 
1084.000000	98.169155 
1083.000000	98.147482 
1082.000000	98.125040 
1081.000000	98.100417 
1080.000000	98.073760 
1079.000000	98.047348 
1078.000000	98.023895 
1077.000000	98.005115 
1076.000000	97.991842 
1075.000000	97.984231 
1074.000000	97.981429 
1073.000000	97.981743 
1072.000000	97.982779 
1071.000000	97.980191 
1070.000000	97.967343 
1069.000000	97.939667 
1068.000000	97.901422 
1067.000000	97.866440 
1066.000000	97.848713 
1065.000000	97.851663 
1064.000000	97.866915 
1063.000000	97.881699 
1062.000000	97.886499 
1061.000000	97.877144 
1060.000000	97.854200 
1059.000000	97.823579 
1058.000000	97.795592 
1057.000000	97.779058 
1056.000000	97.775033 
1055.000000	97.777036 
1054.000000	97.777500 
1053.000000	97.773482 
1052.000000	97.766538 
1051.000000	97.759317 
1050.000000	97.753530 
1049.000000	97.749511 
1048.000000	97.746011 
1047.000000	97.741375 
1046.000000	97.736235 
1045.000000	97.733774 
1044.000000	97.735889 
1043.000000	97.740353 
1042.000000	97.743656 
1041.000000	97.745779 
1040.000000	97.749993 
1039.000000	97.758725 
1038.000000	97.772165 
1037.000000	97.790227 
1036.000000	97.812625 
1035.000000	97.836860 
1034.000000	97.859276 
1033.000000	97.878471 
1032.000000	97.894410 
1031.000000	97.904135 
1030.000000	97.903383 
1029.000000	97.894983 
1028.000000	97.891478 
1027.000000	97.904631 
1026.000000	97.933597 
1025.000000	97.966159 
1024.000000	97.990646 
1023.000000	98.004118 
1022.000000	98.010583 
1021.000000	98.015630 
1020.000000	98.023262 
1019.000000	98.034702 
1018.000000	98.048177 
1017.000000	98.060844 
1016.000000	98.071754 
1015.000000	98.082382 
1014.000000	98.094436 
1013.000000	98.108046 
1012.000000	98.122045 
1011.000000	98.135148 
1010.000000	98.146960 
1009.000000	98.158515 
1008.000000	98.171658 
1007.000000	98.187346 
1006.000000	98.204779 
1005.000000	98.222451 
1004.000000	98.239494 
1003.000000	98.255716 
1002.000000	98.271136 
1001.000000	98.286039 
1000.000000	98.300844 
999.000000	 98.315435 
998.000000	 98.329187 
997.000000	 98.342135 
996.000000	 98.355670 
995.000000	 98.371400 
994.000000	 98.389344 
993.000000	 98.407749 
992.000000	 98.424729 
991.000000	 98.439460 
990.000000	 98.451850 
989.000000	 98.462254 
988.000000	 98.471961 
987.000000	 98.483008 
986.000000	 98.496794 
985.000000	 98.513312 
984.000000	 98.531533 
983.000000	 98.550006 
982.000000	 98.567471 
981.000000	 98.583405 
980.000000	 98.598205 
979.000000	 98.612832 
978.000000	 98.628537 
977.000000	 98.646676 
976.000000	 98.667460 
975.000000	 98.688372 
974.000000	 98.705405 
973.000000	 98.717175 
972.000000	 98.727053 
971.000000	 98.740114 
970.000000	 98.758282 
969.000000	 98.779067 
968.000000	 98.798315 
967.000000	 98.813418 
966.000000	 98.824751 
965.000000	 98.835022 
964.000000	 98.846722 
963.000000	 98.859767 
962.000000	 98.872335 
961.000000	 98.883912 
960.000000	 98.895816 
959.000000	 98.908251 
958.000000	 98.918990 
957.000000	 98.926397 
956.000000	 98.932139 
955.000000	 98.939278 
954.000000	 98.948824 
953.000000	 98.959633 
952.000000	 98.970445 
951.000000	 98.980178 
950.000000	 98.987201 
949.000000	 98.990377 
948.000000	 98.990560 
947.000000	 98.989663 
946.000000	 98.988595 
945.000000	 98.987343 
944.000000	 98.986544 
943.000000	 98.987526 
942.000000	 98.991011 
941.000000	 98.996663 
940.000000	 99.003211 
939.000000	 99.008176 
938.000000	 99.008887 
937.000000	 99.005575 
936.000000	 99.002715 
935.000000	 99.005312 
934.000000	 99.013902 
933.000000	 99.024555 
932.000000	 99.033379 
931.000000	 99.039410 
930.000000	 99.043382 
929.000000	 99.045564 
928.000000	 99.045382 
927.000000	 99.042331 
926.000000	 99.037084 
925.000000	 99.032243 
924.000000	 99.031441 
923.000000	 99.036353 
922.000000	 99.044576 
921.000000	 99.051442 
920.000000	 99.053981 
919.000000	 99.052318 
918.000000	 99.047930 
917.000000	 99.042200 
916.000000	 99.036694 
915.000000	 99.033206 
914.000000	 99.032432 
913.000000	 99.033159 
912.000000	 99.033528 
911.000000	 99.033069 
910.000000	 99.033352 
909.000000	 99.036620 
908.000000	 99.043659 
907.000000	 99.052649 
906.000000	 99.060271 
905.000000	 99.064493 
904.000000	 99.065988 
903.000000	 99.066855 
902.000000	 99.068713 
901.000000	 99.072245 
900.000000	 99.077530 
899.000000	 99.083686 
898.000000	 99.088661 
897.000000	 99.090738 
896.000000	 99.090235 
895.000000	 99.089064 
894.000000	 99.088851 
893.000000	 99.090237 
892.000000	 99.093645 
891.000000	 99.099510 
890.000000	 99.107653 
889.000000	 99.117261 
888.000000	 99.127354 
887.000000	 99.136784 
886.000000	 99.144301 
885.000000	 99.149545 
884.000000	 99.153608 
883.000000	 99.157564 
882.000000	 99.160833 
881.000000	 99.162462 
880.000000	 99.163796 
879.000000	 99.167853 
878.000000	 99.175509 
877.000000	 99.183975 
876.000000	 99.189867 
875.000000	 99.192534 
874.000000	 99.193488 
873.000000	 99.194091 
872.000000	 99.195011 
871.000000	 99.197052 
870.000000	 99.201057 
869.000000	 99.207376 
868.000000	 99.216044 
867.000000	 99.226740 
866.000000	 99.237727 
865.000000	 99.245957 
864.000000	 99.249913 
863.000000	 99.252016 
862.000000	 99.256509 
861.000000	 99.264410 
860.000000	 99.272333 
859.000000	 99.276982 
858.000000	 99.279156 
857.000000	 99.282118 
856.000000	 99.287256 
855.000000	 99.293334 
854.000000	 99.299332 
853.000000	 99.305449 
852.000000	 99.311019 
851.000000	 99.314206 
850.000000	 99.315156 
849.000000	 99.317129 
848.000000	 99.322432 
847.000000	 99.328786 
846.000000	 99.332049 
845.000000	 99.331329 
844.000000	 99.329138 
843.000000	 99.327718 
842.000000	 99.327996 
841.000000	 99.331272 
840.000000	 99.337979 
839.000000	 99.344222 
838.000000	 99.343756 
837.000000	 99.335340 
836.000000	 99.325252 
835.000000	 99.320210 
834.000000	 99.320208 
833.000000	 99.321542 
832.000000	 99.323944 
831.000000	 99.329916 
830.000000	 99.337889 
829.000000	 99.341549 
828.000000	 99.337833 
827.000000	 99.331550 
826.000000	 99.329164 
825.000000	 99.330273 
824.000000	 99.329078 
823.000000	 99.323325 
822.000000	 99.317903 
821.000000	 99.318801 
820.000000	 99.326111 
819.000000	 99.334532 
818.000000	 99.339439 
817.000000	 99.340769 
816.000000	 99.340811 
815.000000	 99.339880 
814.000000	 99.336039 
813.000000	 99.328789 
812.000000	 99.320526 
811.000000	 99.313041 
810.000000	 99.304301 
809.000000	 99.290652 
808.000000	 99.271450 
807.000000	 99.249948 
806.000000	 99.229909 
805.000000	 99.212630 
804.000000	 99.197429 
803.000000	 99.183807 
802.000000	 99.172578 
801.000000	 99.165170 
800.000000	 99.161912 
799.000000	 99.161393 
798.000000	 99.162567 
797.000000	 99.167032 
796.000000	 99.176867 
795.000000	 99.189844 
794.000000	 99.199406 
793.000000	 99.201263 
792.000000	 99.198196 
791.000000	 99.196697 
790.000000	 99.200357 
789.000000	 99.207658 
788.000000	 99.214087 
787.000000	 99.214604 
786.000000	 99.206230 
785.000000	 99.190992 
784.000000	 99.175423 
783.000000	 99.164921 
782.000000	 99.159388 
781.000000	 99.155841 
780.000000	 99.153318 
779.000000	 99.152681 
778.000000	 99.153384 
777.000000	 99.154023 
776.000000	 99.155499 
775.000000	 99.160230 
774.000000	 99.168151 
773.000000	 99.176511 
772.000000	 99.183949 
771.000000	 99.192026 
770.000000	 99.202224 
769.000000	 99.213534 
768.000000	 99.223523 
767.000000	 99.230473 
766.000000	 99.234513 
765.000000	 99.237854 
764.000000	 99.243498 
763.000000	 99.252052 
762.000000	 99.259966 
761.000000	 99.262668 
760.000000	 99.259440 
759.000000	 99.254142 
758.000000	 99.251488 
757.000000	 99.253240 
756.000000	 99.257686 
755.000000	 99.261417 
754.000000	 99.261842 
753.000000	 99.259473 
752.000000	 99.257919 
751.000000	 99.260681 
750.000000	 99.267776 
749.000000	 99.275880 
748.000000	 99.281628 
747.000000	 99.284177 
746.000000	 99.284898 
745.000000	 99.285719 
744.000000	 99.287797 
743.000000	 99.291105 
742.000000	 99.294941 
741.000000	 99.298878 
740.000000	 99.303027 
739.000000	 99.307348 
738.000000	 99.311165 
737.000000	 99.313687 
736.000000	 99.314689 
735.000000	 99.314481 
734.000000	 99.313677 
733.000000	 99.313253 
732.000000	 99.314303 
731.000000	 99.317207 
730.000000	 99.321104 
729.000000	 99.324590 
728.000000	 99.327142 
727.000000	 99.329171 
726.000000	 99.330767 
725.000000	 99.331238 
724.000000	 99.330230 
723.000000	 99.328430 
722.000000	 99.326878 
721.000000	 99.326173 
720.000000	 99.326526 
719.000000	 99.327970 
718.000000	 99.330128 
717.000000	 99.332134 
716.000000	 99.333119 
715.000000	 99.332639 
714.000000	 99.330892 
713.000000	 99.328688 
712.000000	 99.327319 
711.000000	 99.327633 
710.000000	 99.329082 
709.000000	 99.330072 
708.000000	 99.329591 
707.000000	 99.327985 
706.000000	 99.326041 
705.000000	 99.324336 
704.000000	 99.323078 
703.000000	 99.322306 
702.000000	 99.321932 
701.000000	 99.321698 
700.000000	 99.321375 
699.000000	 99.320910 
698.000000	 99.320371 
697.000000	 99.319810 
696.000000	 99.319241 
695.000000	 99.318693 
694.000000	 99.318187 
693.000000	 99.317735 
692.000000	 99.317341 
691.000000	 99.317001 
690.000000	 99.316703 
689.000000	 99.316436 
688.000000	 99.316203 
687.000000	 99.316014 
686.000000	 99.315869 
685.000000	 99.315756 
684.000000	 99.315672 
683.000000	 99.315624 
682.000000	 99.315622 
681.000000	 99.315668 
680.000000	 99.315764 
679.000000	 99.315916 
678.000000	 99.316131 
677.000000	 99.316406 
676.000000	 99.316735 
675.000000	 99.317104 
674.000000	 99.317507 
673.000000	 99.317943 
672.000000	 99.318421 
671.000000	 99.318959 
670.000000	 99.319566 
669.000000	 99.320228 
668.000000	 99.320907 
667.000000	 99.321553 
666.000000	 99.322158 
665.000000	 99.322757 
664.000000	 99.323400 
663.000000	 99.324115 
662.000000	 99.324888 
661.000000	 99.325669 
660.000000	 99.326410 
659.000000	 99.327091 
658.000000	 99.327731 
657.000000	 99.328360 
656.000000	 99.329011 
655.000000	 99.329713 
654.000000	 99.330475 
653.000000	 99.331288 
652.000000	 99.332131 
651.000000	 99.332984 
650.000000	 99.333839 

