4000.000000	99.165126 
3999.000000	99.160888 
3998.000000	99.159241 
3997.000000	99.162269 
3996.000000	99.168180 
3995.000000	99.172933 
3994.000000	99.174130 
3993.000000	99.172813 
3992.000000	99.171538 
3991.000000	99.171290 
3990.000000	99.170690 
3989.000000	99.167847 
3988.000000	99.162572 
3987.000000	99.156868 
3986.000000	99.153506 
3985.000000	99.154073 
3984.000000	99.158140 
3983.000000	99.164191 
3982.000000	99.171057 
3981.000000	99.178206 
3980.000000	99.184883 
3979.000000	99.189711 
3978.000000	99.191602 
3977.000000	99.190837 
3976.000000	99.188733 
3975.000000	99.186211 
3974.000000	99.183025 
3973.000000	99.178603 
3972.000000	99.173404 
3971.000000	99.169219 
3970.000000	99.168234 
3969.000000	99.171407 
3968.000000	99.177557 
3967.000000	99.183885 
3966.000000	99.187643 
3965.000000	99.187657 
3964.000000	99.184794 
3963.000000	99.181426 
3962.000000	99.180027 
3961.000000	99.181354 
3960.000000	99.183491 
3959.000000	99.183255 
3958.000000	99.179575 
3957.000000	99.174952 
3956.000000	99.173152 
3955.000000	99.175289 
3954.000000	99.178878 
3953.000000	99.180535 
3952.000000	99.178908 
3951.000000	99.175302 
3950.000000	99.171690 
3949.000000	99.168819 
3948.000000	99.166568 
3947.000000	99.165639 
3946.000000	99.167363 
3945.000000	99.171541 
3944.000000	99.175503 
3943.000000	99.176186 
3942.000000	99.173220 
3941.000000	99.169203 
3940.000000	99.166370 
3939.000000	99.164647 
3938.000000	99.163713 
3937.000000	99.164345 
3936.000000	99.167314 
3935.000000	99.171618 
3934.000000	99.175252 
3933.000000	99.177359 
3932.000000	99.178463 
3931.000000	99.179415 
3930.000000	99.180513 
3929.000000	99.181764 
3928.000000	99.183254 
3927.000000	99.184267 
3926.000000	99.183355 
3925.000000	99.180305 
3924.000000	99.177442 
3923.000000	99.176767 
3922.000000	99.176656 
3921.000000	99.174510 
3920.000000	99.171215 
3919.000000	99.169615 
3918.000000	99.169852 
3917.000000	99.169496 
3916.000000	99.168026 
3915.000000	99.167504 
3914.000000	99.168560 
3913.000000	99.169157 
3912.000000	99.167950 
3911.000000	99.165530 
3910.000000	99.163793 
3909.000000	99.163937 
3908.000000	99.166604 
3907.000000	99.171600 
3906.000000	99.177572 
3905.000000	99.182066 
3904.000000	99.183388 
3903.000000	99.182868 
3902.000000	99.182321 
3901.000000	99.180080 
3900.000000	99.173636 
3899.000000	99.164773 
3898.000000	99.158075 
3897.000000	99.155006 
3896.000000	99.153127 
3895.000000	99.151547 
3894.000000	99.153391 
3893.000000	99.159769 
3892.000000	99.165911 
3891.000000	99.167069 
3890.000000	99.168124 
3889.000000	99.174341 
3888.000000	99.181405 
3887.000000	99.182630 
3886.000000	99.177826 
3885.000000	99.173471 
3884.000000	99.176704 
3883.000000	99.184002 
3882.000000	99.184907 
3881.000000	99.176264 
3880.000000	99.164673 
3879.000000	99.159879 
3878.000000	99.165643 
3877.000000	99.175322 
3876.000000	99.180739 
3875.000000	99.179482 
3874.000000	99.175234 
3873.000000	99.174223 
3872.000000	99.176015 
3871.000000	99.172209 
3870.000000	99.159604 
3869.000000	99.149933 
3868.000000	99.156312 
3867.000000	99.171308 
3866.000000	99.178386 
3865.000000	99.175368 
3864.000000	99.171496 
3863.000000	99.171418 
3862.000000	99.172065 
3861.000000	99.169729 
3860.000000	99.165173 
3859.000000	99.158191 
3858.000000	99.147217 
3857.000000	99.133961 
3856.000000	99.127248 
3855.000000	99.135674 
3854.000000	99.149713 
3853.000000	99.150373 
3852.000000	99.149769 
3851.000000	99.164851 
3850.000000	99.181462 
3849.000000	99.187049 
3848.000000	99.186087 
3847.000000	99.185626 
3846.000000	99.186979 
3845.000000	99.188373 
3844.000000	99.188947 
3843.000000	99.189095 
3842.000000	99.189937 
3841.000000	99.191092 
3840.000000	99.191475 
3839.000000	99.190535 
3838.000000	99.188731 
3837.000000	99.186413 
3836.000000	99.184051 
3835.000000	99.180767 
3834.000000	99.175152 
3833.000000	99.167887 
3832.000000	99.162139 
3831.000000	99.161572 
3830.000000	99.167544 
3829.000000	99.176788 
3828.000000	99.183447 
3827.000000	99.183887 
3826.000000	99.181111 
3825.000000	99.182172 
3824.000000	99.190093 
3823.000000	99.200220 
3822.000000	99.203836 
3821.000000	99.194662 
3820.000000	99.182731 
3819.000000	99.181497 
3818.000000	99.183764 
3817.000000	99.177948 
3816.000000	99.165630 
3815.000000	99.158383 
3814.000000	99.163410 
3813.000000	99.171592 
3812.000000	99.171182 
3811.000000	99.165095 
3810.000000	99.163312 
3809.000000	99.169029 
3808.000000	99.175774 
3807.000000	99.176532 
3806.000000	99.175133 
3805.000000	99.179522 
3804.000000	99.185641 
3803.000000	99.183972 
3802.000000	99.172615 
3801.000000	99.157745 
3800.000000	99.152581 
3799.000000	99.158727 
3798.000000	99.161398 
3797.000000	99.154127 
3796.000000	99.144567 
3795.000000	99.142160 
3794.000000	99.147829 
3793.000000	99.155654 
3792.000000	99.161359 
3791.000000	99.165145 
3790.000000	99.167633 
3789.000000	99.169158 
3788.000000	99.171588 
3787.000000	99.177085 
3786.000000	99.184519 
3785.000000	99.190428 
3784.000000	99.193970 
3783.000000	99.197414 
3782.000000	99.201039 
3781.000000	99.201528 
3780.000000	99.196310 
3779.000000	99.187123 
3778.000000	99.179507 
3777.000000	99.176147 
3776.000000	99.174390 
3775.000000	99.172163 
3774.000000	99.172204 
3773.000000	99.176895 
3772.000000	99.182803 
3771.000000	99.183239 
3770.000000	99.176857 
3769.000000	99.170804 
3768.000000	99.172031 
3767.000000	99.177557 
3766.000000	99.179933 
3765.000000	99.178223 
3764.000000	99.178626 
3763.000000	99.184997 
3762.000000	99.193487 
3761.000000	99.199219 
3760.000000	99.202035 
3759.000000	99.202508 
3758.000000	99.200187 
3757.000000	99.196081 
3756.000000	99.193576 
3755.000000	99.194279 
3754.000000	99.196790 
3753.000000	99.200216 
3752.000000	99.203675 
3751.000000	99.201384 
3750.000000	99.189063 
3749.000000	99.175744 
3748.000000	99.172601 
3747.000000	99.177073 
3746.000000	99.179679 
3745.000000	99.174000 
3744.000000	99.161689 
3743.000000	99.160904 
3742.000000	99.176922 
3741.000000	99.187608 
3740.000000	99.184002 
3739.000000	99.178621 
3738.000000	99.181836 
3737.000000	99.190113 
3736.000000	99.195191 
3735.000000	99.195373 
3734.000000	99.192536 
3733.000000	99.185577 
3732.000000	99.175706 
3731.000000	99.171206 
3730.000000	99.176852 
3729.000000	99.186501 
3728.000000	99.191973 
3727.000000	99.193394 
3726.000000	99.196499 
3725.000000	99.203514 
3724.000000	99.208914 
3723.000000	99.206753 
3722.000000	99.198183 
3721.000000	99.189283 
3720.000000	99.184506 
3719.000000	99.183041 
3718.000000	99.181643 
3717.000000	99.178321 
3716.000000	99.173342 
3715.000000	99.167144 
3714.000000	99.160499 
3713.000000	99.155324 
3712.000000	99.151202 
3711.000000	99.145261 
3710.000000	99.138126 
3709.000000	99.132199 
3708.000000	99.126929 
3707.000000	99.120367 
3706.000000	99.112255 
3705.000000	99.103899 
3704.000000	99.096509 
3703.000000	99.090262 
3702.000000	99.084170 
3701.000000	99.078132 
3700.000000	99.074195 
3699.000000	99.071645 
3698.000000	99.065541 
3697.000000	99.053800 
3696.000000	99.041267 
3695.000000	99.034430 
3694.000000	99.034132 
3693.000000	99.036688 
3692.000000	99.039137 
3691.000000	99.039009 
3690.000000	99.031536 
3689.000000	99.013573 
3688.000000	98.993180 
3687.000000	98.983768 
3686.000000	98.986541 
3685.000000	98.991404 
3684.000000	98.992734 
3683.000000	98.993428 
3682.000000	98.996162 
3681.000000	98.997210 
3680.000000	98.991278 
3679.000000	98.980020 
3678.000000	98.968913 
3677.000000	98.960078 
3676.000000	98.950020 
3675.000000	98.940177 
3674.000000	98.944788 
3673.000000	98.964213 
3672.000000	98.978520 
3671.000000	98.978392 
3670.000000	98.968291 
3669.000000	98.955411 
3668.000000	98.946921 
3667.000000	98.942083 
3666.000000	98.937019 
3665.000000	98.933016 
3664.000000	98.932551 
3663.000000	98.934776 
3662.000000	98.937022 
3661.000000	98.938314 
3660.000000	98.940500 
3659.000000	98.945927 
3658.000000	98.953595 
3657.000000	98.959255 
3656.000000	98.960313 
3655.000000	98.962422 
3654.000000	98.970845 
3653.000000	98.982185 
3652.000000	98.993274 
3651.000000	99.005530 
3650.000000	99.014203 
3649.000000	99.008098 
3648.000000	98.988576 
3647.000000	98.971231 
3646.000000	98.967299 
3645.000000	98.975188 
3644.000000	98.986863 
3643.000000	98.996225 
3642.000000	99.002449 
3641.000000	99.007422 
3640.000000	99.012509 
3639.000000	99.017884 
3638.000000	99.024489 
3637.000000	99.033825 
3636.000000	99.043915 
3635.000000	99.049248 
3634.000000	99.046856 
3633.000000	99.040663 
3632.000000	99.036682 
3631.000000	99.037426 
3630.000000	99.040684 
3629.000000	99.038514 
3628.000000	99.029986 
3627.000000	99.028173 
3626.000000	99.035083 
3625.000000	99.041807 
3624.000000	99.046700 
3623.000000	99.052090 
3622.000000	99.056977 
3621.000000	99.058473 
3620.000000	99.056338 
3619.000000	99.053733 
3618.000000	99.055924 
3617.000000	99.065702 
3616.000000	99.078577 
3615.000000	99.086684 
3614.000000	99.085735 
3613.000000	99.077735 
3612.000000	99.068740 
3611.000000	99.063344 
3610.000000	99.061912 
3609.000000	99.063186 
3608.000000	99.066239 
3607.000000	99.070540 
3606.000000	99.075426 
3605.000000	99.079901 
3604.000000	99.083898 
3603.000000	99.087916 
3602.000000	99.091326 
3601.000000	99.093516 
3600.000000	99.096019 
3599.000000	99.100812 
3598.000000	99.106614 
3597.000000	99.110454 
3596.000000	99.110620 
3595.000000	99.107828 
3594.000000	99.104341 
3593.000000	99.103743 
3592.000000	99.108630 
3591.000000	99.118955 
3590.000000	99.131967 
3589.000000	99.142704 
3588.000000	99.144786 
3587.000000	99.135999 
3586.000000	99.122690 
3585.000000	99.112330 
3584.000000	99.106239 
3583.000000	99.102592 
3582.000000	99.099677 
3581.000000	99.096137 
3580.000000	99.091150 
3579.000000	99.085316 
3578.000000	99.080015 
3577.000000	99.076821 
3576.000000	99.076930 
3575.000000	99.080599 
3574.000000	99.086846 
3573.000000	99.094003 
3572.000000	99.100754 
3571.000000	99.106249 
3570.000000	99.109657 
3569.000000	99.109882 
3568.000000	99.106215 
3567.000000	99.099783 
3566.000000	99.094580 
3565.000000	99.093898 
3564.000000	99.095958 
3563.000000	99.097144 
3562.000000	99.096476 
3561.000000	99.095133 
3560.000000	99.094182 
3559.000000	99.093827 
3558.000000	99.093763 
3557.000000	99.093660 
3556.000000	99.093737 
3555.000000	99.094338 
3554.000000	99.095034 
3553.000000	99.094560 
3552.000000	99.092327 
3551.000000	99.089250 
3550.000000	99.086394 
3549.000000	99.083952 
3548.000000	99.082372 
3547.000000	99.082652 
3546.000000	99.084546 
3545.000000	99.086045 
3544.000000	99.085374 
3543.000000	99.082601 
3542.000000	99.079354 
3541.000000	99.077342 
3540.000000	99.077393 
3539.000000	99.079033 
3538.000000	99.080817 
3537.000000	99.081217 
3536.000000	99.079647 
3535.000000	99.076847 
3534.000000	99.074112 
3533.000000	99.072786 
3532.000000	99.073884 
3531.000000	99.077616 
3530.000000	99.082545 
3529.000000	99.086459 
3528.000000	99.088479 
3527.000000	99.089765 
3526.000000	99.091377 
3525.000000	99.092457 
3524.000000	99.091550 
3523.000000	99.088945 
3522.000000	99.086527 
3521.000000	99.085292 
3520.000000	99.084124 
3519.000000	99.081345 
3518.000000	99.076767 
3517.000000	99.071936 
3516.000000	99.068794 
3515.000000	99.068802 
3514.000000	99.072598 
3513.000000	99.079395 
3512.000000	99.086430 
3511.000000	99.090433 
3510.000000	99.090468 
3509.000000	99.089080 
3508.000000	99.089809 
3507.000000	99.093425 
3506.000000	99.096734 
3505.000000	99.095181 
3504.000000	99.086815 
3503.000000	99.074858 
3502.000000	99.066494 
3501.000000	99.067583 
3500.000000	99.077319 
3499.000000	99.088202 
3498.000000	99.091894 
3497.000000	99.086092 
3496.000000	99.076136 
3495.000000	99.069627 
3494.000000	99.069749 
3493.000000	99.073781 
3492.000000	99.076959 
3491.000000	99.076779 
3490.000000	99.074113 
3489.000000	99.071438 
3488.000000	99.070518 
3487.000000	99.071361 
3486.000000	99.072729 
3485.000000	99.073511 
3484.000000	99.073671 
3483.000000	99.073883 
3482.000000	99.074158 
3481.000000	99.073372 
3480.000000	99.070622 
3479.000000	99.066947 
3478.000000	99.064861 
3477.000000	99.065624 
3476.000000	99.067346 
3475.000000	99.066692 
3474.000000	99.062957 
3473.000000	99.059420 
3472.000000	99.059965 
3471.000000	99.065004 
3470.000000	99.071469 
3469.000000	99.076094 
3468.000000	99.077628 
3467.000000	99.076306 
3466.000000	99.072668 
3465.000000	99.067486 
3464.000000	99.062052 
3463.000000	99.057695 
3462.000000	99.054924 
3461.000000	99.053327 
3460.000000	99.052215 
3459.000000	99.051334 
3458.000000	99.051075 
3457.000000	99.051945 
3456.000000	99.053702 
3455.000000	99.055290 
3454.000000	99.055862 
3453.000000	99.055883 
3452.000000	99.056725 
3451.000000	99.059162 
3450.000000	99.062387 
3449.000000	99.064783 
3448.000000	99.065308 
3447.000000	99.064007 
3446.000000	99.061676 
3445.000000	99.059510 
3444.000000	99.058790 
3443.000000	99.060154 
3442.000000	99.062703 
3441.000000	99.064401 
3440.000000	99.064073 
3439.000000	99.062578 
3438.000000	99.061537 
3437.000000	99.061129 
3436.000000	99.059946 
3435.000000	99.057260 
3434.000000	99.054559 
3433.000000	99.054331 
3432.000000	99.057343 
3431.000000	99.061532 
3430.000000	99.063400 
3429.000000	99.060591 
3428.000000	99.053446 
3427.000000	99.044615 
3426.000000	99.037470 
3425.000000	99.034520 
3424.000000	99.036396 
3423.000000	99.041549 
3422.000000	99.046925 
3421.000000	99.049576 
3420.000000	99.048302 
3419.000000	99.044257 
3418.000000	99.040107 
3417.000000	99.038322 
3416.000000	99.039506 
3415.000000	99.041951 
3414.000000	99.043051 
3413.000000	99.041635 
3412.000000	99.038954 
3411.000000	99.037349 
3410.000000	99.038226 
3409.000000	99.041195 
3408.000000	99.044536 
3407.000000	99.046182 
3406.000000	99.044976 
3405.000000	99.041746 
3404.000000	99.039055 
3403.000000	99.039378 
3402.000000	99.043292 
3401.000000	99.049264 
3400.000000	99.054768 
3399.000000	99.057765 
3398.000000	99.057957 
3397.000000	99.057013 
3396.000000	99.057040 
3395.000000	99.058572 
3394.000000	99.060470 
3393.000000	99.061646 
3392.000000	99.061944 
3391.000000	99.061176 
3390.000000	99.058511 
3389.000000	99.053761 
3388.000000	99.048473 
3387.000000	99.044725 
3386.000000	99.043203 
3385.000000	99.043291 
3384.000000	99.044537 
3383.000000	99.046920 
3382.000000	99.049685 
3381.000000	99.051076 
3380.000000	99.049644 
3379.000000	99.045591 
3378.000000	99.040767 
3377.000000	99.037667 
3376.000000	99.038204 
3375.000000	99.042763 
3374.000000	99.050041 
3373.000000	99.057749 
3372.000000	99.063646 
3371.000000	99.066264 
3370.000000	99.065357 
3369.000000	99.062060 
3368.000000	99.058263 
3367.000000	99.055285 
3366.000000	99.053075 
3365.000000	99.050890 
3364.000000	99.048622 
3363.000000	99.047212 
3362.000000	99.047769 
3361.000000	99.050359 
3360.000000	99.053566 
3359.000000	99.055340 
3358.000000	99.054731 
3357.000000	99.052968 
3356.000000	99.052401 
3355.000000	99.054048 
3354.000000	99.056564 
3353.000000	99.057954 
3352.000000	99.057838 
3351.000000	99.057613 
3350.000000	99.058782 
3349.000000	99.061656 
3348.000000	99.065407 
3347.000000	99.068713 
3346.000000	99.070460 
3345.000000	99.070506 
3344.000000	99.069839 
3343.000000	99.069495 
3342.000000	99.069323 
3341.000000	99.068398 
3340.000000	99.066630 
3339.000000	99.065158 
3338.000000	99.064688 
3337.000000	99.064043 
3336.000000	99.061296 
3335.000000	99.056457 
3334.000000	99.052321 
3333.000000	99.052104 
3332.000000	99.056290 
3331.000000	99.062104 
3330.000000	99.066232 
3329.000000	99.067874 
3328.000000	99.068926 
3327.000000	99.071240 
3326.000000	99.074270 
3325.000000	99.075920 
3324.000000	99.075459 
3323.000000	99.074790 
3322.000000	99.076201 
3321.000000	99.079171 
3320.000000	99.080270 
3319.000000	99.076859 
3318.000000	99.070565 
3317.000000	99.066239 
3316.000000	99.067269 
3315.000000	99.072465 
3314.000000	99.077780 
3313.000000	99.080445 
3312.000000	99.080832 
3311.000000	99.080886 
3310.000000	99.081813 
3309.000000	99.083442 
3308.000000	99.085013 
3307.000000	99.085989 
3306.000000	99.086200 
3305.000000	99.085462 
3304.000000	99.083219 
3303.000000	99.079020 
3302.000000	99.073717 
3301.000000	99.069778 
3300.000000	99.069475 
3299.000000	99.072636 
3298.000000	99.076685 
3297.000000	99.079116 
3296.000000	99.079593 
3295.000000	99.079743 
3294.000000	99.081446 
3293.000000	99.085311 
3292.000000	99.090031 
3291.000000	99.093015 
3290.000000	99.092419 
3289.000000	99.089017 
3288.000000	99.085775 
3287.000000	99.085239 
3286.000000	99.087389 
3285.000000	99.089969 
3284.000000	99.090503 
3283.000000	99.088166 
3282.000000	99.084461 
3281.000000	99.082104 
3280.000000	99.082562 
3279.000000	99.084541 
3278.000000	99.085559 
3277.000000	99.084994 
3276.000000	99.084722 
3275.000000	99.086541 
3274.000000	99.089896 
3273.000000	99.092555 
3272.000000	99.092609 
3271.000000	99.089322 
3270.000000	99.083113 
3269.000000	99.075777 
3268.000000	99.070254 
3267.000000	99.069113 
3266.000000	99.073018 
3265.000000	99.080723 
3264.000000	99.090040 
3263.000000	99.098562 
3262.000000	99.104381 
3261.000000	99.106980 
3260.000000	99.107301 
3259.000000	99.106519 
3258.000000	99.104987 
3257.000000	99.102361 
3256.000000	99.098265 
3255.000000	99.092721 
3254.000000	99.086715 
3253.000000	99.082624 
3252.000000	99.082982 
3251.000000	99.087930 
3250.000000	99.094438 
3249.000000	99.098902 
3248.000000	99.100211 
3247.000000	99.099767 
3246.000000	99.099114 
3245.000000	99.098475 
3244.000000	99.097523 
3243.000000	99.096822 
3242.000000	99.098154 
3241.000000	99.103135 
3240.000000	99.110945 
3239.000000	99.117581 
3238.000000	99.118718 
3237.000000	99.114018 
3236.000000	99.107761 
3235.000000	99.104396 
3234.000000	99.104345 
3233.000000	99.105107 
3232.000000	99.105367 
3231.000000	99.106240 
3230.000000	99.108694 
3229.000000	99.111493 
3228.000000	99.112196 
3227.000000	99.109300 
3226.000000	99.103180 
3225.000000	99.095913 
3224.000000	99.090454 
3223.000000	99.089051 
3222.000000	99.091769 
3221.000000	99.096763 
3220.000000	99.101996 
3219.000000	99.106264 
3218.000000	99.108836 
3217.000000	99.109210 
3216.000000	99.107816 
3215.000000	99.106255 
3214.000000	99.106029 
3213.000000	99.107135 
3212.000000	99.108489 
3211.000000	99.109657 
3210.000000	99.111607 
3209.000000	99.115441 
3208.000000	99.120633 
3207.000000	99.124924 
3206.000000	99.126268 
3205.000000	99.124798 
3204.000000	99.122599 
3203.000000	99.121636 
3202.000000	99.122416 
3201.000000	99.124641 
3200.000000	99.128140 
3199.000000	99.132335 
3198.000000	99.135575 
3197.000000	99.136397 
3196.000000	99.135507 
3195.000000	99.135212 
3194.000000	99.136385 
3193.000000	99.137041 
3192.000000	99.134832 
3191.000000	99.130393 
3190.000000	99.127202 
3189.000000	99.128121 
3188.000000	99.132751 
3187.000000	99.138165 
3186.000000	99.141513 
3185.000000	99.141645 
3184.000000	99.139021 
3183.000000	99.134934 
3182.000000	99.130825 
3181.000000	99.127645 
3180.000000	99.125512 
3179.000000	99.124001 
3178.000000	99.122679 
3177.000000	99.121190 
3176.000000	99.119158 
3175.000000	99.116774 
3174.000000	99.115646 
3173.000000	99.118108 
3172.000000	99.124705 
3171.000000	99.132667 
3170.000000	99.137988 
3169.000000	99.139239 
3168.000000	99.138571 
3167.000000	99.138810 
3166.000000	99.140625 
3165.000000	99.143059 
3164.000000	99.145722 
3163.000000	99.149054 
3162.000000	99.152739 
3161.000000	99.155282 
3160.000000	99.155715 
3159.000000	99.154821 
3158.000000	99.153986 
3157.000000	99.153402 
3156.000000	99.152166 
3155.000000	99.149959 
3154.000000	99.147963 
3153.000000	99.147941 
3152.000000	99.150579 
3151.000000	99.154687 
3150.000000	99.157847 
3149.000000	99.158129 
3148.000000	99.155662 
3147.000000	99.152585 
3146.000000	99.151131 
3145.000000	99.151620 
3144.000000	99.152680 
3143.000000	99.153510 
3142.000000	99.155326 
3141.000000	99.159850 
3140.000000	99.166459 
3139.000000	99.171735 
3138.000000	99.172519 
3137.000000	99.169113 
3136.000000	99.164809 
3135.000000	99.162399 
3134.000000	99.161877 
3133.000000	99.161673 
3132.000000	99.161212 
3131.000000	99.161296 
3130.000000	99.162126 
3129.000000	99.162081 
3128.000000	99.159359 
3127.000000	99.154656 
3126.000000	99.151317 
3125.000000	99.152361 
3124.000000	99.157558 
3123.000000	99.163693 
3122.000000	99.167590 
3121.000000	99.168780 
3120.000000	99.169395 
3119.000000	99.171724 
3118.000000	99.175796 
3117.000000	99.179129 
3116.000000	99.178875 
3115.000000	99.174513 
3114.000000	99.168430 
3113.000000	99.163736 
3112.000000	99.161707 
3111.000000	99.161564 
3110.000000	99.162128 
3109.000000	99.162763 
3108.000000	99.162828 
3107.000000	99.161500 
3106.000000	99.158850 
3105.000000	99.156482 
3104.000000	99.156323 
3103.000000	99.158914 
3102.000000	99.163342 
3101.000000	99.168387 
3100.000000	99.173002 
3099.000000	99.176045 
3098.000000	99.176900 
3097.000000	99.176677 
3096.000000	99.177665 
3095.000000	99.180912 
3094.000000	99.185047 
3093.000000	99.188039 
3092.000000	99.189339 
3091.000000	99.189590 
3090.000000	99.189042 
3089.000000	99.187582 
3088.000000	99.186123 
3087.000000	99.186564 
3086.000000	99.189722 
3085.000000	99.194033 
3084.000000	99.196942 
3083.000000	99.197228 
3082.000000	99.195604 
3081.000000	99.193462 
3080.000000	99.191646 
3079.000000	99.190277 
3078.000000	99.189047 
3077.000000	99.187413 
3076.000000	99.184967 
3075.000000	99.182074 
3074.000000	99.179907 
3073.000000	99.179545 
3072.000000	99.181184 
3071.000000	99.184398 
3070.000000	99.188626 
3069.000000	99.192625 
3068.000000	99.193766 
3067.000000	99.189415 
3066.000000	99.180029 
3065.000000	99.170176 
3064.000000	99.165105 
3063.000000	99.166108 
3062.000000	99.170009 
3061.000000	99.173102 
3060.000000	99.174692 
3059.000000	99.176535 
3058.000000	99.179814 
3057.000000	99.183573 
3056.000000	99.185920 
3055.000000	99.186170 
3054.000000	99.185506 
3053.000000	99.185552 
3052.000000	99.186407 
3051.000000	99.186446 
3050.000000	99.184328 
3049.000000	99.180741 
3048.000000	99.177378 
3047.000000	99.174442 
3046.000000	99.170373 
3045.000000	99.164345 
3044.000000	99.157893 
3043.000000	99.153327 
3042.000000	99.151231 
3041.000000	99.150237 
3040.000000	99.148740 
3039.000000	99.146054 
3038.000000	99.142216 
3037.000000	99.137570 
3036.000000	99.132599 
3035.000000	99.127542 
3034.000000	99.122037 
3033.000000	99.115423 
3032.000000	99.107365 
3031.000000	99.097947 
3030.000000	99.087267 
3029.000000	99.075308 
3028.000000	99.062328 
3027.000000	99.049259 
3026.000000	99.037527 
3025.000000	99.028131 
3024.000000	99.020488 
3023.000000	99.012167 
3022.000000	99.000419 
3021.000000	98.984464 
3020.000000	98.966295 
3019.000000	98.949060 
3018.000000	98.934801 
3017.000000	98.923569 
3016.000000	98.913884 
3015.000000	98.903454 
3014.000000	98.889998 
3013.000000	98.872254 
3012.000000	98.850375 
3011.000000	98.825236 
3010.000000	98.797841 
3009.000000	98.769816 
3008.000000	98.743833 
3007.000000	98.722397 
3006.000000	98.705851 
3005.000000	98.691942 
3004.000000	98.677419 
3003.000000	98.659950 
3002.000000	98.639090 
3001.000000	98.616501 
3000.000000	98.595279 
2999.000000	98.577985 
2998.000000	98.564866 
2997.000000	98.554565 
2996.000000	98.546318 
2995.000000	98.539602 
2994.000000	98.530626 
2993.000000	98.511483 
2992.000000	98.476509 
2991.000000	98.430413 
2990.000000	98.387744 
2989.000000	98.362048 
2988.000000	98.355720 
2987.000000	98.361185 
2986.000000	98.370363 
2985.000000	98.380772 
2984.000000	98.393021 
2983.000000	98.405807 
2982.000000	98.415461 
2981.000000	98.419202 
2980.000000	98.417285 
2979.000000	98.412270 
2978.000000	98.407296 
2977.000000	98.404626 
2976.000000	98.404478 
2975.000000	98.404958 
2974.000000	98.403906 
2973.000000	98.401101 
2972.000000	98.398336 
2971.000000	98.397582 
2970.000000	98.399881 
2969.000000	98.405978 
2968.000000	98.416855 
2967.000000	98.432738 
2966.000000	98.451859 
2965.000000	98.470917 
2964.000000	98.487146 
2963.000000	98.500037 
2962.000000	98.511123 
2961.000000	98.522159 
2960.000000	98.533655 
2959.000000	98.545316 
2958.000000	98.557493 
2957.000000	98.571128 
2956.000000	98.585676 
2955.000000	98.598037 
2954.000000	98.605150 
2953.000000	98.608061 
2952.000000	98.612309 
2951.000000	98.623195 
2950.000000	98.640554 
2949.000000	98.658539 
2948.000000	98.670594 
2947.000000	98.674564 
2946.000000	98.673400 
2945.000000	98.671742 
2944.000000	98.672484 
2943.000000	98.676155 
2942.000000	98.682088 
2941.000000	98.688899 
2940.000000	98.694267 
2939.000000	98.695932 
2938.000000	98.693770 
2937.000000	98.690284 
2936.000000	98.688500 
2935.000000	98.689807 
2934.000000	98.693974 
2933.000000	98.700076 
2932.000000	98.706372 
2931.000000	98.710115 
2930.000000	98.709026 
2929.000000	98.703255 
2928.000000	98.695263 
2927.000000	98.687826 
2926.000000	98.682582 
2925.000000	98.679885 
2924.000000	98.679008 
2923.000000	98.678489 
2922.000000	98.677178 
2921.000000	98.675126 
2920.000000	98.672986 
2919.000000	98.670785 
2918.000000	98.667837 
2917.000000	98.663556 
2916.000000	98.657730 
2915.000000	98.650432 
2914.000000	98.642561 
2913.000000	98.636052 
2912.000000	98.632334 
2911.000000	98.630492 
2910.000000	98.627968 
2909.000000	98.623292 
2908.000000	98.617212 
2907.000000	98.610832 
2906.000000	98.603430 
2905.000000	98.592654 
2904.000000	98.576841 
2903.000000	98.557642 
2902.000000	98.541135 
2901.000000	98.535508 
2900.000000	98.545660 
2899.000000	98.568773 
2898.000000	98.595448 
2897.000000	98.616293 
2896.000000	98.627761 
2895.000000	98.632678 
2894.000000	98.636343 
2893.000000	98.642260 
2892.000000	98.650347 
2891.000000	98.658010 
2890.000000	98.662860 
2889.000000	98.664694 
2888.000000	98.665043 
2887.000000	98.665468 
2886.000000	98.667035 
2885.000000	98.670952 
2884.000000	98.678307 
2883.000000	98.688865 
2882.000000	98.701163 
2881.000000	98.714250 
2880.000000	98.728479 
2879.000000	98.744229 
2878.000000	98.760763 
2877.000000	98.776747 
2876.000000	98.790949 
2875.000000	98.801942 
2874.000000	98.808384 
2873.000000	98.810863 
2872.000000	98.812803 
2871.000000	98.818184 
2870.000000	98.828251 
2869.000000	98.841043 
2868.000000	98.853971 
2867.000000	98.866222 
2866.000000	98.878945 
2865.000000	98.893854 
2864.000000	98.911538 
2863.000000	98.930400 
2862.000000	98.947265 
2861.000000	98.959847 
2860.000000	98.969021 
2859.000000	98.978218 
2858.000000	98.990165 
2857.000000	99.004351 
2856.000000	99.017796 
2855.000000	99.028200 
2854.000000	99.036033 
2853.000000	99.043483 
2852.000000	99.051774 
2851.000000	99.060135 
2850.000000	99.067553 
2849.000000	99.074654 
2848.000000	99.082953 
2847.000000	99.092487 
2846.000000	99.101098 
2845.000000	99.106312 
2844.000000	99.107594 
2843.000000	99.106930 
2842.000000	99.107727 
2841.000000	99.112724 
2840.000000	99.121769 
2839.000000	99.131291 
2838.000000	99.136861 
2837.000000	99.136912 
2836.000000	99.133708 
2835.000000	99.130841 
2834.000000	99.130559 
2833.000000	99.133440 
2832.000000	99.139114 
2831.000000	99.146295 
2830.000000	99.152881 
2829.000000	99.157277 
2828.000000	99.159759 
2827.000000	99.161994 
2826.000000	99.165189 
2825.000000	99.168910 
2824.000000	99.171699 
2823.000000	99.172802 
2822.000000	99.173363 
2821.000000	99.175656 
2820.000000	99.180675 
2819.000000	99.186738 
2818.000000	99.191184 
2817.000000	99.193271 
2816.000000	99.194485 
2815.000000	99.196097 
2814.000000	99.197679 
2813.000000	99.198304 
2812.000000	99.197976 
2811.000000	99.197212 
2810.000000	99.196260 
2809.000000	99.195534 
2808.000000	99.195915 
2807.000000	99.197682 
2806.000000	99.199804 
2805.000000	99.201221 
2804.000000	99.202378 
2803.000000	99.204606 
2802.000000	99.208319 
2801.000000	99.212470 
2800.000000	99.215479 
2799.000000	99.216166 
2798.000000	99.214382 
2797.000000	99.211498 
2796.000000	99.209843 
2795.000000	99.210717 
2794.000000	99.213069 
2793.000000	99.214667 
2792.000000	99.214305 
2791.000000	99.212449 
2790.000000	99.210387 
2789.000000	99.209573 
2788.000000	99.211269 
2787.000000	99.215613 
2786.000000	99.221012 
2785.000000	99.225314 
2784.000000	99.227678 
2783.000000	99.228688 
2782.000000	99.228891 
2781.000000	99.228190 
2780.000000	99.226735 
2779.000000	99.225459 
2778.000000	99.225245 
2777.000000	99.226081 
2776.000000	99.227263 
2775.000000	99.228060 
2774.000000	99.228003 
2773.000000	99.227009 
2772.000000	99.225538 
2771.000000	99.224441 
2770.000000	99.224523 
2769.000000	99.226278 
2768.000000	99.229792 
2767.000000	99.234461 
2766.000000	99.238903 
2765.000000	99.241750 
2764.000000	99.242746 
2763.000000	99.242803 
2762.000000	99.242929 
2761.000000	99.243504 
2760.000000	99.244594 
2759.000000	99.246325 
2758.000000	99.248491 
2757.000000	99.250166 
2756.000000	99.250367 
2755.000000	99.249194 
2754.000000	99.247875 
2753.000000	99.247468 
2752.000000	99.247777 
2751.000000	99.247765 
2750.000000	99.246727 
2749.000000	99.244607 
2748.000000	99.241388 
2747.000000	99.237031 
2746.000000	99.232421 
2745.000000	99.229612 
2744.000000	99.230171 
2743.000000	99.233389 
2742.000000	99.236870 
2741.000000	99.239041 
2740.000000	99.240534 
2739.000000	99.242982 
2738.000000	99.247051 
2737.000000	99.251908 
2736.000000	99.256102 
2735.000000	99.258548 
2734.000000	99.258971 
2733.000000	99.257821 
2732.000000	99.255827 
2731.000000	99.253651 
2730.000000	99.252093 
2729.000000	99.252332 
2728.000000	99.255254 
2727.000000	99.260287 
2726.000000	99.265328 
2725.000000	99.268216 
2724.000000	99.268299 
2723.000000	99.266648 
2722.000000	99.265124 
2721.000000	99.265163 
2720.000000	99.266884 
2719.000000	99.268951 
2718.000000	99.269470 
2717.000000	99.267396 
2716.000000	99.263410 
2715.000000	99.259801 
2714.000000	99.259387 
2713.000000	99.263581 
2712.000000	99.270689 
2711.000000	99.276609 
2710.000000	99.278331 
2709.000000	99.276691 
2708.000000	99.274892 
2707.000000	99.274542 
2706.000000	99.274324 
2705.000000	99.272610 
2704.000000	99.269940 
2703.000000	99.268226 
2702.000000	99.268466 
2701.000000	99.270036 
2700.000000	99.271666 
2699.000000	99.272386 
2698.000000	99.271877 
2697.000000	99.270536 
2696.000000	99.269169 
2695.000000	99.268497 
2694.000000	99.269002 
2693.000000	99.270783 
2692.000000	99.272818 
2691.000000	99.272851 
2690.000000	99.269507 
2689.000000	99.264807 
2688.000000	99.263084 
2687.000000	99.266503 
2686.000000	99.272637 
2685.000000	99.277261 
2684.000000	99.278691 
2683.000000	99.278503 
2682.000000	99.278898 
2681.000000	99.280610 
2680.000000	99.282941 
2679.000000	99.284571 
2678.000000	99.284370 
2677.000000	99.282325 
2676.000000	99.279808 
2675.000000	99.278364 
2674.000000	99.278237 
2673.000000	99.278475 
2672.000000	99.278227 
2671.000000	99.277378 
2670.000000	99.275994 
2669.000000	99.273760 
2668.000000	99.270308 
2667.000000	99.266088 
2666.000000	99.262824 
2665.000000	99.262716 
2664.000000	99.266632 
2663.000000	99.273053 
2662.000000	99.279277 
2661.000000	99.283587 
2660.000000	99.285715 
2659.000000	99.285560 
2658.000000	99.282821 
2657.000000	99.278204 
2656.000000	99.273767 
2655.000000	99.271212 
2654.000000	99.270486 
2653.000000	99.270480 
2652.000000	99.270272 
2651.000000	99.269289 
2650.000000	99.267382 
2649.000000	99.265461 
2648.000000	99.264959 
2647.000000	99.265881 
2646.000000	99.266437 
2645.000000	99.265562 
2644.000000	99.264655 
2643.000000	99.265641 
2642.000000	99.268369 
2641.000000	99.271275 
2640.000000	99.273712 
2639.000000	99.276109 
2638.000000	99.278494 
2637.000000	99.280256 
2636.000000	99.280785 
2635.000000	99.279210 
2634.000000	99.274686 
2633.000000	99.268692 
2632.000000	99.265825 
2631.000000	99.269626 
2630.000000	99.277880 
2629.000000	99.284478 
2628.000000	99.286128 
2627.000000	99.284980 
2626.000000	99.284388 
2625.000000	99.284743 
2624.000000	99.284543 
2623.000000	99.283310 
2622.000000	99.281696 
2621.000000	99.279953 
2620.000000	99.277875 
2619.000000	99.275624 
2618.000000	99.273582 
2617.000000	99.271935 
2616.000000	99.271140 
2615.000000	99.272125 
2614.000000	99.275209 
2613.000000	99.279225 
2612.000000	99.282349 
2611.000000	99.283613 
2610.000000	99.283465 
2609.000000	99.283245 
2608.000000	99.284199 
2607.000000	99.286447 
2606.000000	99.288858 
2605.000000	99.290356 
2604.000000	99.290897 
2603.000000	99.290401 
2602.000000	99.287539 
2601.000000	99.281374 
2600.000000	99.274087 
2599.000000	99.270060 
2598.000000	99.271480 
2597.000000	99.276189 
2596.000000	99.280302 
2595.000000	99.281369 
2594.000000	99.278637 
2593.000000	99.272628 
2592.000000	99.266206 
2591.000000	99.264263 
2590.000000	99.269837 
2589.000000	99.280779 
2588.000000	99.291731 
2587.000000	99.298782 
2586.000000	99.300775 
2585.000000	99.297341 
2584.000000	99.288752 
2583.000000	99.278209 
2582.000000	99.271396 
2581.000000	99.271555 
2580.000000	99.275851 
2579.000000	99.278283 
2578.000000	99.275942 
2577.000000	99.271362 
2576.000000	99.269047 
2575.000000	99.271011 
2574.000000	99.275792 
2573.000000	99.280422 
2572.000000	99.282498 
2571.000000	99.281123 
2570.000000	99.277133 
2569.000000	99.272664 
2568.000000	99.269840 
2567.000000	99.269328 
2566.000000	99.270070 
2565.000000	99.270444 
2564.000000	99.269759 
2563.000000	99.268803 
2562.000000	99.269070 
2561.000000	99.271368 
2560.000000	99.275177 
2559.000000	99.279316 
2558.000000	99.282793 
2557.000000	99.284556 
2556.000000	99.283215 
2555.000000	99.278636 
2554.000000	99.273969 
2553.000000	99.274039 
2552.000000	99.280223 
2551.000000	99.288180 
2550.000000	99.292281 
2549.000000	99.291315 
2548.000000	99.288021 
2547.000000	99.284199 
2546.000000	99.279330 
2545.000000	99.274052 
2544.000000	99.271595 
2543.000000	99.274052 
2542.000000	99.279281 
2541.000000	99.283347 
2540.000000	99.284818 
2539.000000	99.285046 
2538.000000	99.285121 
2537.000000	99.284116 
2536.000000	99.280166 
2535.000000	99.272577 
2534.000000	99.263339 
2533.000000	99.256826 
2532.000000	99.256853 
2531.000000	99.263263 
2530.000000	99.272190 
2529.000000	99.279955 
2528.000000	99.285491 
2527.000000	99.288937 
2526.000000	99.290296 
2525.000000	99.290846 
2524.000000	99.293576 
2523.000000	99.299830 
2522.000000	99.306590 
2521.000000	99.309250 
2520.000000	99.306507 
2519.000000	99.300788 
2518.000000	99.294678 
2517.000000	99.288892 
2516.000000	99.283394 
2515.000000	99.278600 
2514.000000	99.275289 
2513.000000	99.274193 
2512.000000	99.275167 
2511.000000	99.276053 
2510.000000	99.273877 
2509.000000	99.268929 
2508.000000	99.266217 
2507.000000	99.270239 
2506.000000	99.278825 
2505.000000	99.284725 
2504.000000	99.283356 
2503.000000	99.276713 
2502.000000	99.269687 
2501.000000	99.265335 
2500.000000	99.264576 
2499.000000	99.267901 
2498.000000	99.275332 
2497.000000	99.285517 
2496.000000	99.296022 
2495.000000	99.303998 
2494.000000	99.306392 
2493.000000	99.301000 
2492.000000	99.288614 
2491.000000	99.273756 
2490.000000	99.262521 
2489.000000	99.259229 
2488.000000	99.264127 
2487.000000	99.273136 
2486.000000	99.280384 
2485.000000	99.282829 
2484.000000	99.282777 
2483.000000	99.284542 
2482.000000	99.288630 
2481.000000	99.290999 
2480.000000	99.288505 
2479.000000	99.282992 
2478.000000	99.278740 
2477.000000	99.277479 
2476.000000	99.277617 
2475.000000	99.277400 
2474.000000	99.276957 
2473.000000	99.277431 
2472.000000	99.279596 
2471.000000	99.283461 
2470.000000	99.287967 
2469.000000	99.290543 
2468.000000	99.287990 
2467.000000	99.279111 
2466.000000	99.266921 
2465.000000	99.257684 
2464.000000	99.256536 
2463.000000	99.263129 
2462.000000	99.271612 
2461.000000	99.275667 
2460.000000	99.273967 
2459.000000	99.270694 
2458.000000	99.270946 
2457.000000	99.276019 
2456.000000	99.282730 
2455.000000	99.286337 
2454.000000	99.284011 
2453.000000	99.276473 
2452.000000	99.267095 
2451.000000	99.259254 
2450.000000	99.254182 
2449.000000	99.251138 
2448.000000	99.249235 
2447.000000	99.248630 
2446.000000	99.250224 
2445.000000	99.254914 
2444.000000	99.262973 
2443.000000	99.273254 
2442.000000	99.282741 
2441.000000	99.287788 
2440.000000	99.286540 
2439.000000	99.280247 
2438.000000	99.272359 
2437.000000	99.266612 
2436.000000	99.265164 
2435.000000	99.267055 
2434.000000	99.268234 
2433.000000	99.264657 
2432.000000	99.256507 
2431.000000	99.248648 
2430.000000	99.246022 
2429.000000	99.249200 
2428.000000	99.255330 
2427.000000	99.262338 
2426.000000	99.270003 
2425.000000	99.276861 
2424.000000	99.278811 
2423.000000	99.273018 
2422.000000	99.262300 
2421.000000	99.253426 
2420.000000	99.250728 
2419.000000	99.252942 
2418.000000	99.256531 
2417.000000	99.259997 
2416.000000	99.263553 
2415.000000	99.266290 
2414.000000	99.266321 
2413.000000	99.263583 
2412.000000	99.260267 
2411.000000	99.257930 
2410.000000	99.255996 
2409.000000	99.253976 
2408.000000	99.253520 
2407.000000	99.256740 
2406.000000	99.263325 
2405.000000	99.270631 
2404.000000	99.276125 
2403.000000	99.278632 
2402.000000	99.277757 
2401.000000	99.273619 
2400.000000	99.267327 
2399.000000	99.260766 
2398.000000	99.255658 
2397.000000	99.253240 
2396.000000	99.254413 
2395.000000	99.259104 
2394.000000	99.265377 
2393.000000	99.270308 
2392.000000	99.272502 
2391.000000	99.273399 
2390.000000	99.275644 
2389.000000	99.280249 
2388.000000	99.285518 
2387.000000	99.288618 
2386.000000	99.288055 
2385.000000	99.284761 
2384.000000	99.281046 
2383.000000	99.278716 
2382.000000	99.278207 
2381.000000	99.279016 
2380.000000	99.280147 
2379.000000	99.280135 
2378.000000	99.277680 
2377.000000	99.273260 
2376.000000	99.269755 
2375.000000	99.270238 
2374.000000	99.274881 
2373.000000	99.280728 
2372.000000	99.284924 
2371.000000	99.287627 
2370.000000	99.290938 
2369.000000	99.295154 
2368.000000	99.297014 
2367.000000	99.292512 
2366.000000	99.281761 
2365.000000	99.270835 
2364.000000	99.267737 
2363.000000	99.274790 
2362.000000	99.285444 
2361.000000	99.290796 
2360.000000	99.287912 
2359.000000	99.281505 
2358.000000	99.278688 
2357.000000	99.281978 
2356.000000	99.288737 
2355.000000	99.294101 
2354.000000	99.294045 
2353.000000	99.288017 
2352.000000	99.279491 
2351.000000	99.274494 
2350.000000	99.275690 
2349.000000	99.280720 
2348.000000	99.285802 
2347.000000	99.287816 
2346.000000	99.285625 
2345.000000	99.279487 
2344.000000	99.272785 
2343.000000	99.269947 
2342.000000	99.272370 
2341.000000	99.278597 
2340.000000	99.284788 
2339.000000	99.287951 
2338.000000	99.286909 
2337.000000	99.283183 
2336.000000	99.279853 
2335.000000	99.279469 
2334.000000	99.281963 
2333.000000	99.285246 
2332.000000	99.286604 
2331.000000	99.284841 
2330.000000	99.280497 
2329.000000	99.276089 
2328.000000	99.274989 
2327.000000	99.277013 
2326.000000	99.278959 
2325.000000	99.276312 
2324.000000	99.268988 
2323.000000	99.261710 
2322.000000	99.260665 
2321.000000	99.268936 
2320.000000	99.283288 
2319.000000	99.296781 
2318.000000	99.302710 
2317.000000	99.299518 
2316.000000	99.290904 
2315.000000	99.282810 
2314.000000	99.279178 
2313.000000	99.280062 
2312.000000	99.283230 
2311.000000	99.286970 
2310.000000	99.292074 
2309.000000	99.299426 
2308.000000	99.306912 
2307.000000	99.309076 
2306.000000	99.302564 
2305.000000	99.289976 
2304.000000	99.277515 
2303.000000	99.268721 
2302.000000	99.263066 
2301.000000	99.259544 
2300.000000	99.258487 
2299.000000	99.258919 
2298.000000	99.258015 
2297.000000	99.255077 
2296.000000	99.253872 
2295.000000	99.257415 
2294.000000	99.262713 
2293.000000	99.263398 
2292.000000	99.257916 
2291.000000	99.251289 
2290.000000	99.248781 
2289.000000	99.249931 
2288.000000	99.250410 
2287.000000	99.247732 
2286.000000	99.243677 
2285.000000	99.241625 
2284.000000	99.242694 
2283.000000	99.244362 
2282.000000	99.242248 
2281.000000	99.233633 
2280.000000	99.220180 
2279.000000	99.207968 
2278.000000	99.204129 
2277.000000	99.211793 
2276.000000	99.226799 
2275.000000	99.240160 
2274.000000	99.244925 
2273.000000	99.240565 
2272.000000	99.230382 
2271.000000	99.216716 
2270.000000	99.201603 
2269.000000	99.190606 
2268.000000	99.191025 
2267.000000	99.204492 
2266.000000	99.224027 
2265.000000	99.239958 
2264.000000	99.246924 
2263.000000	99.245037 
2262.000000	99.238258 
2261.000000	99.233137 
2260.000000	99.234843 
2259.000000	99.241083 
2258.000000	99.242984 
2257.000000	99.235293 
2256.000000	99.222856 
2255.000000	99.213659 
2254.000000	99.208502 
2253.000000	99.202499 
2252.000000	99.194749 
2251.000000	99.190827 
2250.000000	99.195541 
2249.000000	99.207343 
2248.000000	99.220647 
2247.000000	99.230347 
2246.000000	99.233552 
2245.000000	99.229963 
2244.000000	99.221905 
2243.000000	99.212679 
2242.000000	99.204449 
2241.000000	99.198209 
2240.000000	99.194441 
2239.000000	99.192150 
2238.000000	99.188522 
2237.000000	99.181564 
2236.000000	99.172258 
2235.000000	99.162677 
2234.000000	99.153788 
2233.000000	99.147204 
2232.000000	99.147014 
2231.000000	99.156663 
2230.000000	99.174623 
2229.000000	99.195267 
2228.000000	99.213111 
2227.000000	99.224488 
2226.000000	99.227168 
2225.000000	99.221722 
2224.000000	99.212334 
2223.000000	99.203709 
2222.000000	99.198159 
2221.000000	99.197078 
2220.000000	99.202171 
2219.000000	99.212208 
2218.000000	99.221452 
2217.000000	99.225527 
2216.000000	99.227033 
2215.000000	99.231085 
2214.000000	99.236866 
2213.000000	99.238012 
2212.000000	99.230705 
2211.000000	99.217908 
2210.000000	99.206616 
2209.000000	99.203809 
2208.000000	99.212455 
2207.000000	99.227071 
2206.000000	99.234899 
2205.000000	99.226239 
2204.000000	99.203372 
2203.000000	99.176526 
2202.000000	99.153953 
2201.000000	99.139673 
2200.000000	99.136265 
2199.000000	99.142627 
2198.000000	99.150790 
2197.000000	99.152524 
2196.000000	99.149686 
2195.000000	99.152049 
2194.000000	99.164512 
2193.000000	99.181727 
2192.000000	99.195126 
2191.000000	99.199696 
2190.000000	99.194056 
2189.000000	99.180621 
2188.000000	99.166929 
2187.000000	99.161167 
2186.000000	99.164981 
2185.000000	99.174288 
2184.000000	99.185891 
2183.000000	99.197693 
2182.000000	99.204029 
2181.000000	99.199503 
2180.000000	99.188416 
2179.000000	99.181980 
2178.000000	99.184194 
2177.000000	99.187290 
2176.000000	99.182879 
2175.000000	99.171214 
2174.000000	99.157484 
2173.000000	99.145621 
2172.000000	99.138526 
2171.000000	99.138444 
2170.000000	99.144059 
2169.000000	99.151513 
2168.000000	99.159852 
2167.000000	99.170558 
2166.000000	99.180904 
2165.000000	99.184742 
2164.000000	99.182371 
2163.000000	99.182366 
2162.000000	99.190050 
2161.000000	99.200426 
2160.000000	99.205630 
2159.000000	99.203088 
2158.000000	99.193685 
2157.000000	99.180283 
2156.000000	99.171001 
2155.000000	99.174195 
2154.000000	99.186186 
2153.000000	99.192029 
2152.000000	99.183255 
2151.000000	99.168710 
2150.000000	99.163642 
2149.000000	99.173651 
2148.000000	99.192774 
2147.000000	99.211149 
2146.000000	99.219961 
2145.000000	99.215487 
2144.000000	99.204668 
2143.000000	99.201584 
2142.000000	99.212220 
2141.000000	99.226244 
2140.000000	99.229346 
2139.000000	99.220164 
2138.000000	99.208918 
2137.000000	99.202609 
2136.000000	99.199040 
2135.000000	99.194835 
2134.000000	99.192230 
2133.000000	99.195438 
2132.000000	99.204177 
2131.000000	99.213109 
2130.000000	99.216159 
2129.000000	99.211265 
2128.000000	99.202398 
2127.000000	99.196273 
2126.000000	99.195788 
2125.000000	99.197810 
2124.000000	99.198831 
2123.000000	99.200586 
2122.000000	99.206780 
2121.000000	99.215609 
2120.000000	99.219989 
2119.000000	99.216208 
2118.000000	99.208944 
2117.000000	99.205756 
2116.000000	99.208645 
2115.000000	99.213248 
2114.000000	99.215242 
2113.000000	99.214844 
2112.000000	99.214401 
2111.000000	99.213676 
2110.000000	99.209931 
2109.000000	99.202753 
2108.000000	99.196376 
2107.000000	99.195107 
2106.000000	99.197183 
2105.000000	99.195454 
2104.000000	99.184881 
2103.000000	99.168305 
2102.000000	99.154381 
2101.000000	99.150597 
2100.000000	99.157902 
2099.000000	99.170752 
2098.000000	99.182156 
2097.000000	99.189585 
2096.000000	99.195584 
2095.000000	99.201283 
2094.000000	99.201075 
2093.000000	99.187979 
2092.000000	99.164589 
2091.000000	99.144213 
2090.000000	99.138568 
2089.000000	99.146361 
2088.000000	99.156459 
2087.000000	99.160826 
2086.000000	99.161071 
2085.000000	99.163058 
2084.000000	99.168938 
2083.000000	99.176091 
2082.000000	99.181956 
2081.000000	99.187216 
2080.000000	99.193486 
2079.000000	99.199242 
2078.000000	99.200558 
2077.000000	99.197093 
2076.000000	99.195224 
2075.000000	99.201861 
2074.000000	99.215384 
2073.000000	99.226117 
2072.000000	99.226556 
2071.000000	99.218118 
2070.000000	99.206768 
2069.000000	99.195935 
2068.000000	99.186369 
2067.000000	99.179729 
2066.000000	99.177983 
2065.000000	99.179773 
2064.000000	99.181084 
2063.000000	99.180211 
2062.000000	99.179653 
2061.000000	99.182613 
2060.000000	99.189289 
2059.000000	99.196977 
2058.000000	99.202443 
2057.000000	99.203583 
2056.000000	99.199699 
2055.000000	99.191143 
2054.000000	99.179378 
2053.000000	99.167774 
2052.000000	99.161196 
2051.000000	99.163000 
2050.000000	99.171706 
2049.000000	99.181303 
2048.000000	99.185991 
2047.000000	99.184243 
2046.000000	99.177741 
2045.000000	99.168361 
2044.000000	99.157684 
2043.000000	99.147695 
2042.000000	99.140329 
2041.000000	99.136973 
2040.000000	99.138869 
2039.000000	99.146200 
2038.000000	99.155493 
2037.000000	99.159807 
2036.000000	99.154323 
2035.000000	99.141587 
2034.000000	99.129526 
2033.000000	99.124240 
2032.000000	99.125511 
2031.000000	99.128813 
2030.000000	99.130115 
2029.000000	99.128326 
2028.000000	99.124218 
2027.000000	99.118808 
2026.000000	99.114442 
2025.000000	99.116709 
2024.000000	99.130537 
2023.000000	99.151394 
2022.000000	99.163920 
2021.000000	99.155536 
2020.000000	99.132015 
2019.000000	99.113709 
2018.000000	99.114410 
2017.000000	99.127452 
2016.000000	99.135167 
2015.000000	99.128689 
2014.000000	99.113913 
2013.000000	99.101724 
2012.000000	99.097799 
2011.000000	99.101285 
2010.000000	99.109972 
2009.000000	99.124627 
2008.000000	99.147474 
2007.000000	99.175541 
2006.000000	99.197218 
2005.000000	99.200533 
2004.000000	99.186405 
2003.000000	99.169174 
2002.000000	99.161725 
2001.000000	99.162697 
2000.000000	99.160530 
1999.000000	99.147870 
1998.000000	99.129552 
1997.000000	99.117708 
1996.000000	99.121278 
1995.000000	99.140175 
1994.000000	99.166710 
1993.000000	99.190012 
1992.000000	99.200866 
1991.000000	99.196268 
1990.000000	99.181203 
1989.000000	99.166130 
1988.000000	99.160249 
1987.000000	99.163985 
1986.000000	99.168527 
1985.000000	99.165483 
1984.000000	99.156403 
1983.000000	99.149961 
1982.000000	99.150464 
1981.000000	99.152947 
1980.000000	99.150458 
1979.000000	99.142212 
1978.000000	99.132914 
1977.000000	99.126730 
1976.000000	99.123813 
1975.000000	99.121759 
1974.000000	99.119440 
1973.000000	99.120376 
1972.000000	99.131280 
1971.000000	99.153772 
1970.000000	99.177416 
1969.000000	99.185515 
1968.000000	99.171192 
1967.000000	99.145812 
1966.000000	99.128036 
1965.000000	99.126343 
1964.000000	99.135348 
1963.000000	99.145353 
1962.000000	99.150307 
1961.000000	99.149126 
1960.000000	99.144966 
1959.000000	99.143739 
1958.000000	99.149814 
1957.000000	99.161145 
1956.000000	99.170096 
1955.000000	99.170389 
1954.000000	99.162766 
1953.000000	99.153463 
1952.000000	99.147629 
1951.000000	99.145514 
1950.000000	99.144575 
1949.000000	99.143611 
1948.000000	99.143788 
1947.000000	99.145031 
1946.000000	99.142887 
1945.000000	99.131715 
1944.000000	99.112145 
1943.000000	99.094013 
1942.000000	99.088742 
1941.000000	99.097418 
1940.000000	99.109636 
1939.000000	99.115300 
1938.000000	99.115007 
1937.000000	99.118201 
1936.000000	99.131423 
1935.000000	99.149791 
1934.000000	99.162262 
1933.000000	99.164480 
1932.000000	99.163215 
1931.000000	99.167419 
1930.000000	99.177235 
1929.000000	99.184885 
1928.000000	99.185319 
1927.000000	99.181432 
1926.000000	99.179165 
1925.000000	99.180540 
1924.000000	99.183324 
1923.000000	99.185402 
1922.000000	99.186611 
1921.000000	99.187030 
1920.000000	99.185401 
1919.000000	99.179747 
1918.000000	99.169327 
1917.000000	99.156728 
1916.000000	99.146597 
1915.000000	99.141146 
1914.000000	99.139228 
1913.000000	99.139566 
1912.000000	99.142455 
1911.000000	99.147892 
1910.000000	99.152939 
1909.000000	99.154440 
1908.000000	99.154315 
1907.000000	99.157576 
1906.000000	99.165613 
1905.000000	99.174054 
1904.000000	99.178142 
1903.000000	99.177536 
1902.000000	99.174009 
1901.000000	99.168754 
1900.000000	99.163464 
1899.000000	99.160432 
1898.000000	99.160447 
1897.000000	99.162085 
1896.000000	99.163983 
1895.000000	99.165980 
1894.000000	99.166870 
1893.000000	99.164653 
1892.000000	99.160185 
1891.000000	99.157202 
1890.000000	99.157057 
1889.000000	99.156772 
1888.000000	99.154729 
1887.000000	99.153756 
1886.000000	99.156396 
1885.000000	99.161336 
1884.000000	99.166264 
1883.000000	99.171440 
1882.000000	99.177114 
1881.000000	99.180653 
1880.000000	99.180381 
1879.000000	99.179617 
1878.000000	99.183758 
1877.000000	99.193720 
1876.000000	99.204445 
1875.000000	99.210104 
1874.000000	99.208376 
1873.000000	99.200460 
1872.000000	99.190033 
1871.000000	99.181675 
1870.000000	99.177455 
1869.000000	99.174259 
1868.000000	99.168809 
1867.000000	99.163793 
1866.000000	99.163600 
1865.000000	99.168054 
1864.000000	99.172470 
1863.000000	99.171620 
1862.000000	99.164050 
1861.000000	99.153891 
1860.000000	99.148833 
1859.000000	99.154122 
1858.000000	99.166800 
1857.000000	99.177593 
1856.000000	99.180548 
1855.000000	99.179151 
1854.000000	99.180589 
1853.000000	99.186264 
1852.000000	99.191655 
1851.000000	99.193235 
1850.000000	99.193308 
1849.000000	99.197316 
1848.000000	99.207018 
1847.000000	99.217966 
1846.000000	99.223327 
1845.000000	99.219839 
1844.000000	99.211416 
1843.000000	99.206055 
1842.000000	99.206061 
1841.000000	99.207083 
1840.000000	99.206021 
1839.000000	99.203381 
1838.000000	99.200932 
1837.000000	99.199520 
1836.000000	99.199484 
1835.000000	99.201314 
1834.000000	99.204432 
1833.000000	99.207230 
1832.000000	99.208360 
1831.000000	99.206816 
1830.000000	99.202830 
1829.000000	99.199777 
1828.000000	99.200764 
1827.000000	99.204161 
1826.000000	99.205903 
1825.000000	99.203513 
1824.000000	99.198153 
1823.000000	99.192702 
1822.000000	99.187623 
1821.000000	99.182292 
1820.000000	99.178718 
1819.000000	99.180729 
1818.000000	99.188910 
1817.000000	99.197392 
1816.000000	99.200349 
1815.000000	99.199810 
1814.000000	99.201974 
1813.000000	99.208847 
1812.000000	99.216362 
1811.000000	99.221370 
1810.000000	99.225540 
1809.000000	99.229368 
1808.000000	99.229676 
1807.000000	99.224604 
1806.000000	99.216309 
1805.000000	99.208342 
1804.000000	99.202964 
1803.000000	99.200554 
1802.000000	99.199050 
1801.000000	99.195621 
1800.000000	99.190576 
1799.000000	99.188855 
1798.000000	99.194252 
1797.000000	99.204044 
1796.000000	99.212818 
1795.000000	99.218265 
1794.000000	99.221150 
1793.000000	99.221251 
1792.000000	99.216871 
1791.000000	99.210721 
1790.000000	99.207421 
1789.000000	99.206686 
1788.000000	99.206595 
1787.000000	99.207798 
1786.000000	99.211916 
1785.000000	99.217500 
1784.000000	99.221107 
1783.000000	99.221401 
1782.000000	99.218714 
1781.000000	99.214198 
1780.000000	99.208864 
1779.000000	99.204013 
1778.000000	99.201410 
1777.000000	99.201901 
1776.000000	99.205178 
1775.000000	99.209037 
1774.000000	99.211254 
1773.000000	99.211716 
1772.000000	99.211413 
1771.000000	99.211731 
1770.000000	99.212747 
1769.000000	99.212841 
1768.000000	99.211724 
1767.000000	99.210826 
1766.000000	99.211050 
1765.000000	99.211515 
1764.000000	99.210634 
1763.000000	99.208248 
1762.000000	99.206057 
1761.000000	99.206562 
1760.000000	99.208970 
1759.000000	99.210186 
1758.000000	99.210140 
1757.000000	99.212627 
1756.000000	99.219813 
1755.000000	99.227421 
1754.000000	99.230374 
1753.000000	99.229829 
1752.000000	99.230493 
1751.000000	99.231717 
1750.000000	99.228915 
1749.000000	99.222308 
1748.000000	99.217250 
1747.000000	99.216635 
1746.000000	99.217889 
1745.000000	99.218485 
1744.000000	99.218422 
1743.000000	99.218650 
1742.000000	99.219707 
1741.000000	99.221493 
1740.000000	99.223633 
1739.000000	99.226291 
1738.000000	99.229005 
1737.000000	99.229643 
1736.000000	99.228041 
1735.000000	99.227949 
1734.000000	99.227786 
1733.000000	99.225558 
1732.000000	99.224017 
1731.000000	99.222591 
1730.000000	99.220492 
1729.000000	99.218693 
1728.000000	99.217759 
1727.000000	99.217408 
1726.000000	99.217490 
1725.000000	99.218880 
1724.000000	99.220972 
1723.000000	99.222697 
1722.000000	99.223906 
1721.000000	99.224644 
1720.000000	99.225894 
1719.000000	99.230600 
1718.000000	99.238355 
1717.000000	99.241072 
1716.000000	99.235176 
1715.000000	99.227771 
1714.000000	99.224695 
1713.000000	99.224385 
1712.000000	99.223376 
1711.000000	99.222336 
1710.000000	99.224141 
1709.000000	99.228710 
1708.000000	99.233088 
1707.000000	99.235382 
1706.000000	99.235847 
1705.000000	99.232952 
1704.000000	99.225782 
1703.000000	99.216642 
1702.000000	99.211912 
1701.000000	99.216461 
1700.000000	99.220678 
1699.000000	99.220272 
1698.000000	99.221145 
1697.000000	99.221664 
1696.000000	99.218859 
1695.000000	99.214804 
1694.000000	99.213084 
1693.000000	99.212462 
1692.000000	99.210968 
1691.000000	99.210874 
1690.000000	99.213176 
1689.000000	99.215093 
1688.000000	99.214497 
1687.000000	99.211890 
1686.000000	99.212104 
1685.000000	99.217390 
1684.000000	99.217987 
1683.000000	99.212951 
1682.000000	99.208195 
1681.000000	99.203002 
1680.000000	99.199693 
1679.000000	99.199570 
1678.000000	99.199130 
1677.000000	99.196341 
1676.000000	99.193830 
1675.000000	99.194050 
1674.000000	99.196374 
1673.000000	99.200057 
1672.000000	99.204177 
1671.000000	99.208333 
1670.000000	99.209171 
1669.000000	99.204083 
1668.000000	99.198099 
1667.000000	99.194643 
1666.000000	99.191994 
1665.000000	99.189412 
1664.000000	99.188715 
1663.000000	99.190741 
1662.000000	99.192029 
1661.000000	99.190493 
1660.000000	99.188696 
1659.000000	99.189666 
1658.000000	99.192817 
1657.000000	99.194799 
1656.000000	99.193540 
1655.000000	99.191215 
1654.000000	99.191839 
1653.000000	99.187686 
1652.000000	99.184646 
1651.000000	99.191395 
1650.000000	99.197546 
1649.000000	99.199546 
1648.000000	99.200991 
1647.000000	99.200926 
1646.000000	99.198383 
1645.000000	99.197205 
1644.000000	99.199294 
1643.000000	99.203162 
1642.000000	99.206571 
1641.000000	99.208098 
1640.000000	99.207776 
1639.000000	99.206034 
1638.000000	99.203598 
1637.000000	99.202524 
1636.000000	99.203343 
1635.000000	99.204346 
1634.000000	99.205300 
1633.000000	99.204480 
1632.000000	99.200424 
1631.000000	99.195391 
1630.000000	99.191658 
1629.000000	99.189841 
1628.000000	99.189951 
1627.000000	99.191282 
1626.000000	99.191316 
1625.000000	99.188727 
1624.000000	99.185791 
1623.000000	99.185194 
1622.000000	99.186460 
1621.000000	99.187381 
1620.000000	99.187130 
1619.000000	99.186879 
1618.000000	99.188963 
1617.000000	99.193028 
1616.000000	99.198492 
1615.000000	99.205523 
1614.000000	99.211045 
1613.000000	99.213296 
1612.000000	99.215316 
1611.000000	99.219222 
1610.000000	99.221896 
1609.000000	99.220638 
1608.000000	99.218306 
1607.000000	99.218197 
1606.000000	99.218660 
1605.000000	99.217955 
1604.000000	99.217982 
1603.000000	99.219897 
1602.000000	99.221854 
1601.000000	99.222733 
1600.000000	99.224492 
1599.000000	99.228427 
1598.000000	99.232580 
1597.000000	99.234669 
1596.000000	99.234835 
1595.000000	99.234404 
1594.000000	99.233955 
1593.000000	99.234456 
1592.000000	99.237664 
1591.000000	99.243096 
1590.000000	99.247001 
1589.000000	99.247143 
1588.000000	99.246080 
1587.000000	99.247117 
1586.000000	99.249630 
1585.000000	99.251321 
1584.000000	99.253104 
1583.000000	99.256143 
1582.000000	99.258218 
1581.000000	99.256983 
1580.000000	99.253078 
1579.000000	99.247417 
1578.000000	99.240252 
1577.000000	99.233652 
1576.000000	99.230968 
1575.000000	99.234178 
1574.000000	99.239590 
1573.000000	99.242704 
1572.000000	99.244550 
1571.000000	99.248875 
1570.000000	99.254061 
1569.000000	99.256663 
1568.000000	99.259344 
1567.000000	99.262757 
1566.000000	99.263579 
1565.000000	99.260265 
1564.000000	99.254687 
1563.000000	99.246522 
1562.000000	99.236112 
1561.000000	99.227765 
1560.000000	99.236044 
1559.000000	99.247795 
1558.000000	99.247288 
1557.000000	99.247357 
1556.000000	99.249796 
1555.000000	99.251886 
1554.000000	99.253678 
1553.000000	99.254459 
1552.000000	99.253780 
1551.000000	99.250742 
1550.000000	99.247285 
1549.000000	99.246307 
1548.000000	99.248788 
1547.000000	99.252100 
1546.000000	99.252317 
1545.000000	99.247657 
1544.000000	99.241074 
1543.000000	99.238798 
1542.000000	99.244377 
1541.000000	99.253396 
1540.000000	99.255218 
1539.000000	99.251441 
1538.000000	99.250270 
1537.000000	99.250436 
1536.000000	99.249894 
1535.000000	99.251172 
1534.000000	99.252838 
1533.000000	99.249559 
1532.000000	99.243168 
1531.000000	99.240105 
1530.000000	99.241536 
1529.000000	99.243586 
1528.000000	99.242772 
1527.000000	99.240486 
1526.000000	99.239944 
1525.000000	99.240945 
1524.000000	99.241324 
1523.000000	99.242439 
1522.000000	99.246426 
1521.000000	99.249531 
1520.000000	99.248234 
1519.000000	99.242706 
1518.000000	99.234018 
1517.000000	99.224354 
1516.000000	99.216415 
1515.000000	99.211856 
1514.000000	99.210103 
1513.000000	99.210782 
1512.000000	99.213212 
1511.000000	99.214765 
1510.000000	99.213914 
1509.000000	99.211236 
1508.000000	99.210262 
1507.000000	99.210317 
1506.000000	99.210671 
1505.000000	99.211428 
1504.000000	99.210412 
1503.000000	99.208027 
1502.000000	99.206772 
1501.000000	99.206871 
1500.000000	99.204997 
1499.000000	99.198008 
1498.000000	99.188221 
1497.000000	99.180607 
1496.000000	99.177363 
1495.000000	99.180167 
1494.000000	99.188969 
1493.000000	99.200422 
1492.000000	99.210877 
1491.000000	99.217366 
1490.000000	99.216888 
1489.000000	99.208941 
1488.000000	99.197079 
1487.000000	99.187334 
1486.000000	99.182115 
1485.000000	99.178114 
1484.000000	99.173491 
1483.000000	99.169940 
1482.000000	99.169885 
1481.000000	99.172322 
1480.000000	99.173719 
1479.000000	99.172833 
1478.000000	99.171031 
1477.000000	99.168700 
1476.000000	99.165118 
1475.000000	99.162709 
1474.000000	99.164719 
1473.000000	99.169112 
1472.000000	99.170810 
1471.000000	99.170180 
1470.000000	99.169611 
1469.000000	99.168157 
1468.000000	99.165139 
1467.000000	99.162864 
1466.000000	99.163896 
1465.000000	99.166764 
1464.000000	99.168308 
1463.000000	99.168346 
1462.000000	99.168515 
1461.000000	99.168516 
1460.000000	99.166742 
1459.000000	99.161688 
1458.000000	99.152162 
1457.000000	99.135965 
1456.000000	99.117644 
1455.000000	99.104843 
1454.000000	99.098592 
1453.000000	99.098768 
1452.000000	99.104853 
1451.000000	99.113092 
1450.000000	99.119292 
1449.000000	99.121797 
1448.000000	99.121220 
1447.000000	99.120225 
1446.000000	99.120871 
1445.000000	99.123450 
1444.000000	99.126861 
1443.000000	99.129736 
1442.000000	99.132112 
1441.000000	99.134214 
1440.000000	99.135043 
1439.000000	99.133342 
1438.000000	99.131456 
1437.000000	99.131814 
1436.000000	99.132707 
1435.000000	99.132072 
1434.000000	99.130042 
1433.000000	99.126995 
1432.000000	99.123291 
1431.000000	99.118757 
1430.000000	99.114040 
1429.000000	99.110746 
1428.000000	99.108287 
1427.000000	99.104744 
1426.000000	99.099228 
1425.000000	99.093913 
1424.000000	99.090315 
1423.000000	99.085562 
1422.000000	99.076476 
1421.000000	99.063537 
1420.000000	99.049448 
1419.000000	99.034647 
1418.000000	99.020779 
1417.000000	99.009001 
1416.000000	98.995142 
1415.000000	98.976082 
1414.000000	98.953898 
1413.000000	98.933609 
1412.000000	98.918681 
1411.000000	98.907808 
1410.000000	98.897400 
1409.000000	98.885625 
1408.000000	98.873884 
1407.000000	98.866334 
1406.000000	98.866017 
1405.000000	98.872812 
1404.000000	98.884444 
1403.000000	98.898664 
1402.000000	98.915267 
1401.000000	98.934881 
1400.000000	98.955700 
1399.000000	98.970638 
1398.000000	98.970316 
1397.000000	98.947988 
1396.000000	98.904554 
1395.000000	98.857348 
1394.000000	98.836146 
1393.000000	98.856288 
1392.000000	98.902946 
1391.000000	98.949336 
1390.000000	98.978810 
1389.000000	98.989628 
1388.000000	98.987639 
1387.000000	98.978692 
1386.000000	98.967429 
1385.000000	98.957743 
1384.000000	98.951481 
1383.000000	98.948033 
1382.000000	98.946523 
1381.000000	98.947458 
1380.000000	98.952215 
1379.000000	98.960905 
1378.000000	98.971825 
1377.000000	98.983419 
1376.000000	98.995382 
1375.000000	99.007445 
1374.000000	99.019105 
1373.000000	99.031569 
1372.000000	99.046175 
1371.000000	99.061542 
1370.000000	99.074286 
1369.000000	99.083116 
1368.000000	99.090276 
1367.000000	99.098279 
1366.000000	99.107610 
1365.000000	99.117838 
1364.000000	99.128736 
1363.000000	99.139337 
1362.000000	99.147946 
1361.000000	99.153978 
1360.000000	99.158468 
1359.000000	99.162951 
1358.000000	99.168645 
1357.000000	99.176261 
1356.000000	99.185269 
1355.000000	99.193619 
1354.000000	99.199694 
1353.000000	99.203981 
1352.000000	99.207586 
1351.000000	99.210509 
1350.000000	99.211753 
1349.000000	99.212137 
1348.000000	99.213894 
1347.000000	99.217014 
1346.000000	99.219201 
1345.000000	99.219596 
1344.000000	99.219919 
1343.000000	99.221324 
1342.000000	99.222881 
1341.000000	99.223993 
1340.000000	99.225823 
1339.000000	99.228791 
1338.000000	99.231146 
1337.000000	99.231739 
1336.000000	99.231758 
1335.000000	99.232335 
1334.000000	99.232693 
1333.000000	99.232052 
1332.000000	99.231513 
1331.000000	99.232343 
1330.000000	99.233782 
1329.000000	99.234461 
1328.000000	99.234567 
1327.000000	99.234910 
1326.000000	99.234991 
1325.000000	99.234315 
1324.000000	99.233981 
1323.000000	99.235090 
1322.000000	99.236920 
1321.000000	99.238137 
1320.000000	99.238887 
1319.000000	99.240112 
1318.000000	99.241514 
1317.000000	99.241626 
1316.000000	99.239713 
1315.000000	99.236440 
1314.000000	99.232985 
1313.000000	99.230244 
1312.000000	99.228571 
1311.000000	99.227628 
1310.000000	99.226753 
1309.000000	99.225905 
1308.000000	99.225702 
1307.000000	99.226299 
1306.000000	99.226694 
1305.000000	99.226156 
1304.000000	99.225288 
1303.000000	99.224878 
1302.000000	99.224494 
1301.000000	99.223163 
1300.000000	99.221076 
1299.000000	99.219705 
1298.000000	99.220310 
1297.000000	99.222780 
1296.000000	99.225842 
1295.000000	99.227794 
1294.000000	99.227174 
1293.000000	99.223299 
1292.000000	99.216514 
1291.000000	99.208292 
1290.000000	99.201095 
1289.000000	99.197289 
1288.000000	99.197105 
1287.000000	99.197692 
1286.000000	99.195311 
1285.000000	99.188920 
1284.000000	99.180822 
1283.000000	99.173730 
1282.000000	99.168138 
1281.000000	99.162835 
1280.000000	99.156967 
1279.000000	99.150610 
1278.000000	99.144208 
1277.000000	99.138476 
1276.000000	99.134275 
1275.000000	99.131359 
1274.000000	99.127486 
1273.000000	99.120037 
1272.000000	99.108759 
1271.000000	99.096288 
1270.000000	99.085696 
1269.000000	99.077850 
1268.000000	99.071072 
1267.000000	99.062704 
1266.000000	99.051153 
1265.000000	99.037066 
1264.000000	99.022721 
1263.000000	99.009992 
1262.000000	98.998876 
1261.000000	98.988153 
1260.000000	98.977301 
1259.000000	98.966995 
1258.000000	98.957861 
1257.000000	98.949602 
1256.000000	98.941739 
1255.000000	98.934570 
1254.000000	98.928718 
1253.000000	98.924022 
1252.000000	98.919760 
1251.000000	98.916171 
1250.000000	98.915100 
1249.000000	98.918504 
1248.000000	98.926334 
1247.000000	98.935722 
1246.000000	98.941576 
1245.000000	98.937972 
1244.000000	98.921411 
1243.000000	98.895952 
1242.000000	98.874515 
1241.000000	98.870442 
1240.000000	98.884958 
1239.000000	98.904645 
1238.000000	98.913717 
1237.000000	98.907909 
1236.000000	98.894554 
1235.000000	98.881549 
1234.000000	98.870244 
1233.000000	98.858268 
1232.000000	98.844471 
1231.000000	98.829401 
1230.000000	98.814184 
1229.000000	98.801155 
1228.000000	98.793444 
1227.000000	98.791700 
1226.000000	98.792324 
1225.000000	98.790652 
1224.000000	98.785000 
1223.000000	98.776501 
1222.000000	98.766545 
1221.000000	98.756150 
1220.000000	98.746729 
1219.000000	98.739302 
1218.000000	98.732990 
1217.000000	98.725495 
1216.000000	98.714938 
1215.000000	98.700626 
1214.000000	98.682818 
1213.000000	98.662659 
1212.000000	98.641767 
1211.000000	98.621101 
1210.000000	98.600657 
1209.000000	98.580535 
1208.000000	98.561198 
1207.000000	98.542189 
1206.000000	98.522085 
1205.000000	98.500656 
1204.000000	98.479509 
1203.000000	98.459333 
1202.000000	98.438255 
1201.000000	98.414717 
1200.000000	98.390492 
1199.000000	98.368564 
1198.000000	98.349049 
1197.000000	98.329407 
1196.000000	98.307773 
1195.000000	98.283802 
1194.000000	98.257168 
1193.000000	98.228008 
1192.000000	98.198483 
1191.000000	98.171047 
1190.000000	98.144989 
1189.000000	98.117217 
1188.000000	98.086795 
1187.000000	98.056269 
1186.000000	98.027960 
1185.000000	98.001202 
1184.000000	97.973981 
1183.000000	97.945286 
1182.000000	97.915141 
1181.000000	97.884074 
1180.000000	97.853134 
1179.000000	97.822746 
1178.000000	97.791289 
1177.000000	97.756681 
1176.000000	97.719424 
1175.000000	97.681759 
1174.000000	97.643516 
1173.000000	97.601729 
1172.000000	97.555539 
1171.000000	97.508916 
1170.000000	97.466748 
1169.000000	97.429942 
1168.000000	97.395971 
1167.000000	97.363016 
1166.000000	97.332539 
1165.000000	97.309065 
1164.000000	97.298121 
1163.000000	97.302725 
1162.000000	97.320622 
1161.000000	97.345575 
1160.000000	97.371222 
1159.000000	97.392343 
1158.000000	97.403386 
1157.000000	97.398921 
1156.000000	97.377066 
1155.000000	97.341592 
1154.000000	97.300095 
1153.000000	97.260171 
1152.000000	97.226062 
1151.000000	97.196687 
1150.000000	97.166892 
1149.000000	97.132674 
1148.000000	97.095403 
1147.000000	97.059435 
1146.000000	97.026320 
1145.000000	96.993734 
1144.000000	96.959542 
1143.000000	96.923813 
1142.000000	96.886952 
1141.000000	96.849283 
1140.000000	96.813066 
1139.000000	96.781379 
1138.000000	96.753552 
1137.000000	96.724501 
1136.000000	96.690102 
1135.000000	96.650963 
1134.000000	96.609843 
1133.000000	96.567942 
1132.000000	96.525472 
1131.000000	96.483829 
1130.000000	96.445080 
1129.000000	96.409845 
1128.000000	96.376220 
1127.000000	96.340144 
1126.000000	96.297794 
1125.000000	96.249805 
1124.000000	96.202424 
1123.000000	96.161567 
1122.000000	96.125886 
1121.000000	96.088674 
1120.000000	96.046378 
1119.000000	96.001656 
1118.000000	95.958067 
1117.000000	95.915923 
1116.000000	95.874398 
1115.000000	95.833863 
1114.000000	95.794496 
1113.000000	95.755554 
1112.000000	95.717067 
1111.000000	95.679251 
1110.000000	95.639697 
1109.000000	95.595039 
1108.000000	95.546459 
1107.000000	95.499915 
1106.000000	95.459263 
1105.000000	95.422373 
1104.000000	95.385551 
1103.000000	95.348481 
1102.000000	95.313089 
1101.000000	95.280775 
1100.000000	95.251941 
1099.000000	95.226265 
1098.000000	95.201855 
1097.000000	95.176838 
1096.000000	95.152097 
1095.000000	95.128909 
1094.000000	95.103569 
1093.000000	95.068235 
1092.000000	95.018579 
1091.000000	94.957938 
1090.000000	94.893551 
1089.000000	94.831814 
1088.000000	94.777115 
1087.000000	94.730652 
1086.000000	94.688788 
1085.000000	94.646250 
1084.000000	94.602111 
1083.000000	94.559330 
1082.000000	94.518418 
1081.000000	94.476192 
1080.000000	94.431534 
1079.000000	94.387643 
1078.000000	94.347517 
1077.000000	94.311841 
1076.000000	94.282430 
1075.000000	94.262661 
1074.000000	94.252494 
1073.000000	94.246660 
1072.000000	94.237558 
1071.000000	94.214960 
1070.000000	94.164618 
1069.000000	94.077302 
1068.000000	93.964002 
1067.000000	93.855662 
1066.000000	93.780586 
1065.000000	93.743093 
1064.000000	93.726094 
1063.000000	93.708297 
1062.000000	93.674270 
1061.000000	93.614996 
1060.000000	93.529859 
1059.000000	93.430723 
1058.000000	93.338199 
1057.000000	93.268581 
1056.000000	93.223077 
1055.000000	93.189086 
1054.000000	93.151559 
1053.000000	93.104382 
1052.000000	93.051941 
1051.000000	93.000430 
1050.000000	92.949927 
1049.000000	92.896591 
1048.000000	92.839498 
1047.000000	92.781761 
1046.000000	92.727160 
1045.000000	92.678758 
1044.000000	92.638093 
1043.000000	92.602216 
1042.000000	92.564182 
1041.000000	92.520538 
1040.000000	92.476433 
1039.000000	92.440229 
1038.000000	92.415862 
1037.000000	92.403491 
1036.000000	92.402966 
1035.000000	92.411473 
1034.000000	92.421889 
1033.000000	92.428837 
1032.000000	92.431965 
1031.000000	92.428555 
1030.000000	92.410691 
1029.000000	92.379233 
1028.000000	92.354446 
1027.000000	92.359640 
1026.000000	92.394665 
1025.000000	92.436000 
1024.000000	92.462408 
1023.000000	92.470659 
1022.000000	92.467872 
1021.000000	92.460850 
1020.000000	92.455411 
1019.000000	92.455775 
1018.000000	92.459974 
1017.000000	92.462338 
1016.000000	92.462755 
1015.000000	92.467045 
1014.000000	92.477027 
1013.000000	92.487449 
1012.000000	92.494425 
1011.000000	92.499977 
1010.000000	92.506512 
1009.000000	92.513573 
1008.000000	92.522023 
1007.000000	92.535048 
1006.000000	92.552743 
1005.000000	92.571169 
1004.000000	92.588385 
1003.000000	92.606248 
1002.000000	92.625299 
1001.000000	92.643482 
1000.000000	92.660916 
999.000000	 92.680462 
998.000000	 92.702645 
997.000000	 92.725408 
996.000000	 92.749461 
995.000000	 92.778061 
994.000000	 92.810598 
993.000000	 92.842168 
992.000000	 92.870544 
991.000000	 92.898002 
990.000000	 92.925378 
989.000000	 92.950247 
988.000000	 92.972786 
987.000000	 92.998376 
986.000000	 93.032321 
985.000000	 93.075623 
984.000000	 93.126379 
983.000000	 93.181099 
982.000000	 93.234631 
981.000000	 93.283765 
980.000000	 93.331571 
979.000000	 93.384300 
978.000000	 93.444320 
977.000000	 93.509953 
976.000000	 93.580510 
975.000000	 93.655709 
974.000000	 93.731234 
973.000000	 93.801567 
972.000000	 93.867744 
971.000000	 93.936628 
970.000000	 94.011741 
969.000000	 94.089713 
968.000000	 94.166050 
967.000000	 94.239391 
966.000000	 94.309620 
965.000000	 94.376561 
964.000000	 94.441316 
963.000000	 94.505106 
962.000000	 94.566962 
961.000000	 94.626201 
960.000000	 94.685933 
959.000000	 94.749232 
958.000000	 94.812787 
957.000000	 94.869717 
956.000000	 94.918374 
955.000000	 94.963211 
954.000000	 95.007384 
953.000000	 95.050017 
952.000000	 95.090763 
951.000000	 95.131171 
950.000000	 95.170544 
949.000000	 95.205619 
948.000000	 95.235485 
947.000000	 95.262210 
946.000000	 95.285848 
945.000000	 95.303812 
944.000000	 95.316739 
943.000000	 95.330644 
942.000000	 95.351177 
941.000000	 95.378373 
940.000000	 95.407608 
939.000000	 95.432900 
938.000000	 95.449899 
937.000000	 95.459761 
936.000000	 95.470149 
935.000000	 95.488563 
934.000000	 95.514437 
933.000000	 95.541194 
932.000000	 95.565197 
931.000000	 95.588238 
930.000000	 95.611921 
929.000000	 95.634776 
928.000000	 95.655198 
927.000000	 95.672684 
926.000000	 95.686026 
925.000000	 95.694922 
924.000000	 95.703514 
923.000000	 95.717477 
922.000000	 95.736754 
921.000000	 95.755294 
920.000000	 95.768367 
919.000000	 95.776165 
918.000000	 95.780565 
917.000000	 95.783198 
916.000000	 95.786886 
915.000000	 95.793986 
914.000000	 95.802647 
913.000000	 95.809333 
912.000000	 95.815564 
911.000000	 95.827573 
910.000000	 95.848840 
909.000000	 95.877594 
908.000000	 95.911580 
907.000000	 95.949758 
906.000000	 95.988934 
905.000000	 96.024818 
904.000000	 96.058023 
903.000000	 96.094140 
902.000000	 96.136549 
901.000000	 96.183431 
900.000000	 96.232314 
899.000000	 96.282561 
898.000000	 96.332247 
897.000000	 96.377593 
896.000000	 96.416925 
895.000000	 96.451550 
894.000000	 96.482533 
893.000000	 96.510929 
892.000000	 96.541263 
891.000000	 96.579414 
890.000000	 96.625557 
889.000000	 96.673328 
888.000000	 96.716933 
887.000000	 96.755224 
886.000000	 96.788798 
885.000000	 96.818063 
884.000000	 96.844991 
883.000000	 96.871968 
882.000000	 96.897598 
881.000000	 96.918252 
880.000000	 96.935134 
879.000000	 96.955181 
878.000000	 96.983103 
877.000000	 97.016467 
876.000000	 97.049854 
875.000000	 97.079578 
874.000000	 97.103672 
873.000000	 97.122447 
872.000000	 97.140657 
871.000000	 97.164602 
870.000000	 97.195511 
869.000000	 97.229699 
868.000000	 97.265556 
867.000000	 97.304799 
866.000000	 97.345419 
865.000000	 97.379440 
864.000000	 97.401658 
863.000000	 97.417161 
862.000000	 97.436473 
861.000000	 97.464975 
860.000000	 97.499600 
859.000000	 97.533886 
858.000000	 97.563538 
857.000000	 97.588188 
856.000000	 97.610214 
855.000000	 97.632277 
854.000000	 97.655088 
853.000000	 97.677208 
852.000000	 97.696660 
851.000000	 97.712494 
850.000000	 97.725755 
849.000000	 97.739693 
848.000000	 97.757494 
847.000000	 97.778173 
846.000000	 97.795991 
845.000000	 97.805937 
844.000000	 97.808736 
843.000000	 97.808853 
842.000000	 97.809172 
841.000000	 97.809397 
840.000000	 97.807535 
839.000000	 97.800481 
838.000000	 97.785496 
837.000000	 97.764296 
836.000000	 97.743717 
835.000000	 97.728861 
834.000000	 97.717643 
833.000000	 97.706240 
832.000000	 97.697520 
831.000000	 97.697821 
830.000000	 97.705780 
829.000000	 97.711101 
828.000000	 97.706602 
827.000000	 97.696513 
826.000000	 97.690273 
825.000000	 97.691921 
824.000000	 97.698384 
823.000000	 97.705383 
822.000000	 97.712389 
821.000000	 97.722478 
820.000000	 97.737577 
819.000000	 97.753716 
818.000000	 97.763371 
817.000000	 97.763792 
816.000000	 97.759104 
815.000000	 97.751089 
814.000000	 97.732358 
813.000000	 97.694181 
812.000000	 97.637522 
811.000000	 97.568825 
810.000000	 97.486513 
809.000000	 97.380223 
808.000000	 97.244652 
807.000000	 97.086939 
806.000000	 96.918120 
805.000000	 96.744262 
804.000000	 96.569989 
803.000000	 96.404675 
802.000000	 96.259443 
801.000000	 96.140873 
800.000000	 96.051057 
799.000000	 95.990700 
798.000000	 95.959778 
797.000000	 95.957679 
796.000000	 95.982742 
795.000000	 96.028155 
794.000000	 96.080158 
793.000000	 96.126316 
792.000000	 96.164928 
791.000000	 96.201016 
790.000000	 96.234529 
789.000000	 96.258274 
788.000000	 96.265631 
787.000000	 96.253492 
786.000000	 96.219155 
785.000000	 96.162550 
784.000000	 96.092338 
783.000000	 96.022733 
782.000000	 95.962545 
781.000000	 95.912328 
780.000000	 95.871732 
779.000000	 95.842857 
778.000000	 95.826909 
777.000000	 95.825476 
776.000000	 95.844993 
775.000000	 95.890880 
774.000000	 95.955938 
773.000000	 96.023370 
772.000000	 96.083506 
771.000000	 96.139914 
770.000000	 96.197341 
769.000000	 96.251428 
768.000000	 96.293550 
767.000000	 96.319984 
766.000000	 96.333866 
765.000000	 96.342903 
764.000000	 96.356221 
763.000000	 96.377827 
762.000000	 96.401415 
761.000000	 96.416403 
760.000000	 96.420271 
759.000000	 96.420916 
758.000000	 96.427483 
757.000000	 96.443454 
756.000000	 96.466624 
755.000000	 96.489195 
754.000000	 96.500127 
753.000000	 96.496310 
752.000000	 96.491156 
751.000000	 96.503551 
750.000000	 96.536908 
749.000000	 96.576086 
748.000000	 96.605287 
747.000000	 96.621597 
746.000000	 96.631275 
745.000000	 96.641777 
744.000000	 96.659288 
743.000000	 96.686262 
742.000000	 96.718929 
741.000000	 96.752877 
740.000000	 96.790623 
739.000000	 96.836422 
738.000000	 96.884717 
737.000000	 96.922825 
736.000000	 96.945341 
735.000000	 96.957679 
734.000000	 96.966067 
733.000000	 96.973911 
732.000000	 96.987795 
731.000000	 97.014598 
730.000000	 97.049137 
729.000000	 97.075705 
728.000000	 97.086521 
727.000000	 97.089508 
726.000000	 97.094135 
725.000000	 97.099087 
724.000000	 97.098867 
723.000000	 97.094355 
722.000000	 97.091671 
721.000000	 97.097094 
720.000000	 97.116268 
719.000000	 97.150650 
718.000000	 97.191248 
717.000000	 97.223276 
716.000000	 97.239851 
715.000000	 97.245316 
714.000000	 97.245512 
713.000000	 97.244151 
712.000000	 97.249537 
711.000000	 97.271664 
710.000000	 97.306556 
709.000000	 97.334042 
708.000000	 97.337954 
707.000000	 97.320447 
706.000000	 97.291456 
705.000000	 97.254510 
704.000000	 97.211243 
703.000000	 97.170202 
702.000000	 97.139066 
701.000000	 97.111626 
700.000000	 97.071011 
699.000000	 97.004383 
698.000000	 96.912259 
697.000000	 96.809172 
696.000000	 96.718708 
695.000000	 96.661275 
694.000000	 96.640890 
693.000000	 96.647335 
692.000000	 96.671591 
691.000000	 96.711408 
690.000000	 96.762251 
689.000000	 96.814674 
688.000000	 96.863991 
687.000000	 96.911290 
686.000000	 96.950821 
685.000000	 96.970134 
684.000000	 96.968759 
683.000000	 96.963476 
682.000000	 96.969074 
681.000000	 96.985053 
680.000000	 97.005253 
679.000000	 97.026853 
678.000000	 97.044173 
677.000000	 97.048944 
676.000000	 97.046977 
675.000000	 97.056132 
674.000000	 97.079972 
673.000000	 97.098341 
672.000000	 97.093118 
671.000000	 97.071071 
670.000000	 97.054646 
669.000000	 97.063220 
668.000000	 97.094637 
667.000000	 97.127658 
666.000000	 97.150819 
665.000000	 97.159809 
664.000000	 97.161365 
663.000000	 97.175642 
662.000000	 97.209706 
661.000000	 97.240830 
660.000000	 97.241554 
659.000000	 97.210211 
658.000000	 97.164362 
657.000000	 97.116847 
656.000000	 97.075280 
655.000000	 97.050281 
654.000000	 97.044184 
653.000000	 97.040692 
652.000000	 97.024105 
651.000000	 97.000879 
650.000000	 96.986730 

