4000.000000	99.272063 
3999.000000	99.271555 
3998.000000	99.271328 
3997.000000	99.271632 
3996.000000	99.272201 
3995.000000	99.272503 
3994.000000	99.272292 
3993.000000	99.271756 
3992.000000	99.271236 
3991.000000	99.270857 
3990.000000	99.270474 
3989.000000	99.269886 
3988.000000	99.269052 
3987.000000	99.268179 
3986.000000	99.267625 
3985.000000	99.267646 
3984.000000	99.268196 
3983.000000	99.269040 
3982.000000	99.270038 
3981.000000	99.271212 
3980.000000	99.272481 
3979.000000	99.273491 
3978.000000	99.273859 
3977.000000	99.273518 
3976.000000	99.272688 
3975.000000	99.271583 
3974.000000	99.270287 
3973.000000	99.268940 
3972.000000	99.267878 
3971.000000	99.267463 
3970.000000	99.267831 
3969.000000	99.268760 
3968.000000	99.269760 
3967.000000	99.270354 
3966.000000	99.270344 
3965.000000	99.269868 
3964.000000	99.269239 
3963.000000	99.268757 
3962.000000	99.268583 
3961.000000	99.268678 
3960.000000	99.268799 
3959.000000	99.268652 
3958.000000	99.268177 
3957.000000	99.267609 
3956.000000	99.267237 
3955.000000	99.267114 
3954.000000	99.267068 
3953.000000	99.266918 
3952.000000	99.266607 
3951.000000	99.266189 
3950.000000	99.265729 
3949.000000	99.265277 
3948.000000	99.264891 
3947.000000	99.264648 
3946.000000	99.264558 
3945.000000	99.264530 
3944.000000	99.264443 
3943.000000	99.264246 
3942.000000	99.263976 
3941.000000	99.263697 
3940.000000	99.263430 
3939.000000	99.263157 
3938.000000	99.262870 
3937.000000	99.262573 
3936.000000	99.262271 
3935.000000	99.261964 
3934.000000	99.261659 
3933.000000	99.261374 
3932.000000	99.261125 
3931.000000	99.260913 
3930.000000	99.260717 
3929.000000	99.260507 
3928.000000	99.260265 
3927.000000	99.259977 
3926.000000	99.259641 
3925.000000	99.259287 
3924.000000	99.258970 
3923.000000	99.258710 
3922.000000	99.258459 
3921.000000	99.258166 
3920.000000	99.257845 
3919.000000	99.257540 
3918.000000	99.257267 
3917.000000	99.257015 
3916.000000	99.256778 
3915.000000	99.256551 
3914.000000	99.256324 
3913.000000	99.256091 
3912.000000	99.255850 
3911.000000	99.255599 
3910.000000	99.255343 
3909.000000	99.255093 
3908.000000	99.254854 
3907.000000	99.254620 
3906.000000	99.254386 
3905.000000	99.254145 
3904.000000	99.253895 
3903.000000	99.253636 
3902.000000	99.253368 
3901.000000	99.253087 
3900.000000	99.252788 
3899.000000	99.252470 
3898.000000	99.252134 
3897.000000	99.251790 
3896.000000	99.251445 
3895.000000	99.251104 
3894.000000	99.250767 
3893.000000	99.250435 
3892.000000	99.250109 
3891.000000	99.249788 
3890.000000	99.249470 
3889.000000	99.249154 
3888.000000	99.248836 
3887.000000	99.248512 
3886.000000	99.248183 
3885.000000	99.247858 
3884.000000	99.247544 
3883.000000	99.247237 
3882.000000	99.246929 
3881.000000	99.246619 
3880.000000	99.246316 
3879.000000	99.246030 
3878.000000	99.245761 
3877.000000	99.245498 
3876.000000	99.245230 
3875.000000	99.244953 
3874.000000	99.244673 
3873.000000	99.244397 
3872.000000	99.244129 
3871.000000	99.243868 
3870.000000	99.243620 
3869.000000	99.243396 
3868.000000	99.243199 
3867.000000	99.243020 
3866.000000	99.242844 
3865.000000	99.242671 
3864.000000	99.242506 
3863.000000	99.242360 
3862.000000	99.242219 
3861.000000	99.242059 
3860.000000	99.241876 
3859.000000	99.241671 
3858.000000	99.241425 
3857.000000	99.241165 
3856.000000	99.241027 
3855.000000	99.241132 
3854.000000	99.241344 
3853.000000	99.241398 
3852.000000	99.241483 
3851.000000	99.241745 
3850.000000	99.242027 
3849.000000	99.242218 
3848.000000	99.242360 
3847.000000	99.242499 
3846.000000	99.242631 
3845.000000	99.242745 
3844.000000	99.242845 
3843.000000	99.242934 
3842.000000	99.243015 
3841.000000	99.243086 
3840.000000	99.243150 
3839.000000	99.243206 
3838.000000	99.243251 
3837.000000	99.243279 
3836.000000	99.243292 
3835.000000	99.243299 
3834.000000	99.243310 
3833.000000	99.243329 
3832.000000	99.243358 
3831.000000	99.243394 
3830.000000	99.243432 
3829.000000	99.243469 
3828.000000	99.243504 
3827.000000	99.243534 
3826.000000	99.243561 
3825.000000	99.243592 
3824.000000	99.243636 
3823.000000	99.243690 
3822.000000	99.243744 
3821.000000	99.243789 
3820.000000	99.243831 
3819.000000	99.243879 
3818.000000	99.243929 
3817.000000	99.243971 
3816.000000	99.244005 
3815.000000	99.244039 
3814.000000	99.244074 
3813.000000	99.244096 
3812.000000	99.244091 
3811.000000	99.244064 
3810.000000	99.244025 
3809.000000	99.243979 
3808.000000	99.243923 
3807.000000	99.243857 
3806.000000	99.243793 
3805.000000	99.243736 
3804.000000	99.243687 
3803.000000	99.243644 
3802.000000	99.243610 
3801.000000	99.243599 
3800.000000	99.243625 
3799.000000	99.243689 
3798.000000	99.243781 
3797.000000	99.243895 
3796.000000	99.244028 
3795.000000	99.244179 
3794.000000	99.244367 
3793.000000	99.244596 
3792.000000	99.244837 
3791.000000	99.245078 
3790.000000	99.245308 
3789.000000	99.245505 
3788.000000	99.245682 
3787.000000	99.245911 
3786.000000	99.246224 
3785.000000	99.246537 
3784.000000	99.246819 
3783.000000	99.247157 
3782.000000	99.247510 
3781.000000	99.247563 
3780.000000	99.247092 
3779.000000	99.246239 
3778.000000	99.245490 
3777.000000	99.245069 
3776.000000	99.244749 
3775.000000	99.244377 
3774.000000	99.244224 
3773.000000	99.244503 
3772.000000	99.244937 
3771.000000	99.245000 
3770.000000	99.244584 
3769.000000	99.244145 
3768.000000	99.244104 
3767.000000	99.244236 
3766.000000	99.244110 
3765.000000	99.243783 
3764.000000	99.243757 
3763.000000	99.244249 
3762.000000	99.244783 
3761.000000	99.244893 
3760.000000	99.244717 
3759.000000	99.244471 
3758.000000	99.244092 
3757.000000	99.243513 
3756.000000	99.242931 
3755.000000	99.242407 
3754.000000	99.241841 
3753.000000	99.241528 
3752.000000	99.241852 
3751.000000	99.241914 
3750.000000	99.240272 
3749.000000	99.237566 
3748.000000	99.235592 
3747.000000	99.234435 
3746.000000	99.233211 
3745.000000	99.231564 
3744.000000	99.229935 
3743.000000	99.230650 
3742.000000	99.233725 
3741.000000	99.235086 
3740.000000	99.233587 
3739.000000	99.231836 
3738.000000	99.231850 
3737.000000	99.232812 
3736.000000	99.233053 
3735.000000	99.232566 
3734.000000	99.231997 
3733.000000	99.230745 
3732.000000	99.228579 
3731.000000	99.227387 
3730.000000	99.228538 
3729.000000	99.230606 
3728.000000	99.231557 
3727.000000	99.231664 
3726.000000	99.232522 
3725.000000	99.234207 
3724.000000	99.234499 
3723.000000	99.231965 
3722.000000	99.227952 
3721.000000	99.224872 
3720.000000	99.223662 
3719.000000	99.223083 
3718.000000	99.221571 
3717.000000	99.218717 
3716.000000	99.215167 
3715.000000	99.211325 
3714.000000	99.207348 
3713.000000	99.203749 
3712.000000	99.200467 
3711.000000	99.197138 
3710.000000	99.194879 
3709.000000	99.194427 
3708.000000	99.194277 
3707.000000	99.192483 
3706.000000	99.188667 
3705.000000	99.183836 
3704.000000	99.179255 
3703.000000	99.175671 
3702.000000	99.172925 
3701.000000	99.170737 
3700.000000	99.169557 
3699.000000	99.168824 
3698.000000	99.166431 
3697.000000	99.161528 
3696.000000	99.155826 
3695.000000	99.151348 
3694.000000	99.148095 
3693.000000	99.145050 
3692.000000	99.142091 
3691.000000	99.139252 
3690.000000	99.135254 
3689.000000	99.128946 
3688.000000	99.122959 
3687.000000	99.121302 
3686.000000	99.123316 
3685.000000	99.124885 
3684.000000	99.124435 
3683.000000	99.123780 
3682.000000	99.124163 
3681.000000	99.123995 
3680.000000	99.121180 
3679.000000	99.116454 
3678.000000	99.111728 
3677.000000	99.107429 
3676.000000	99.102065 
3675.000000	99.096566 
3674.000000	99.096706 
3673.000000	99.102429 
3672.000000	99.106376 
3671.000000	99.106358 
3670.000000	99.105177 
3669.000000	99.104793 
3668.000000	99.105961 
3667.000000	99.106995 
3666.000000	99.106403 
3665.000000	99.105417 
3664.000000	99.105632 
3663.000000	99.106883 
3662.000000	99.107957 
3661.000000	99.108328 
3660.000000	99.108801 
3659.000000	99.110507 
3658.000000	99.113232 
3657.000000	99.115459 
3656.000000	99.116258 
3655.000000	99.117737 
3654.000000	99.121487 
3653.000000	99.125794 
3652.000000	99.129321 
3651.000000	99.132828 
3650.000000	99.135557 
3649.000000	99.134986 
3648.000000	99.132002 
3647.000000	99.130629 
3646.000000	99.132845 
3645.000000	99.137426 
3644.000000	99.142320 
3643.000000	99.146490 
3642.000000	99.150152 
3641.000000	99.153713 
3640.000000	99.157261 
3639.000000	99.160779 
3638.000000	99.164574 
3637.000000	99.168798 
3636.000000	99.172375 
3635.000000	99.173736 
3634.000000	99.172826 
3633.000000	99.171572 
3632.000000	99.171738 
3631.000000	99.173551 
3630.000000	99.176122 
3629.000000	99.177475 
3628.000000	99.177383 
3627.000000	99.178501 
3626.000000	99.180859 
3625.000000	99.182809 
3624.000000	99.184596 
3623.000000	99.186953 
3622.000000	99.189464 
3621.000000	99.191128 
3620.000000	99.191599 
3619.000000	99.191483 
3618.000000	99.191995 
3617.000000	99.193795 
3616.000000	99.196158 
3615.000000	99.197858 
3614.000000	99.198363 
3613.000000	99.198067 
3612.000000	99.197812 
3611.000000	99.198106 
3610.000000	99.198865 
3609.000000	99.199937 
3608.000000	99.201288 
3607.000000	99.202896 
3606.000000	99.204639 
3605.000000	99.206267 
3604.000000	99.207678 
3603.000000	99.208881 
3602.000000	99.209742 
3601.000000	99.210228 
3600.000000	99.210727 
3599.000000	99.211595 
3598.000000	99.212492 
3597.000000	99.212848 
3596.000000	99.212455 
3595.000000	99.211618 
3594.000000	99.210885 
3593.000000	99.210899 
3592.000000	99.212031 
3591.000000	99.214227 
3590.000000	99.216999 
3589.000000	99.219401 
3588.000000	99.220185 
3587.000000	99.218884 
3586.000000	99.216634 
3585.000000	99.214865 
3584.000000	99.213849 
3583.000000	99.213415 
3582.000000	99.213441 
3581.000000	99.213647 
3580.000000	99.213559 
3579.000000	99.212914 
3578.000000	99.211819 
3577.000000	99.210755 
3576.000000	99.210278 
3575.000000	99.210643 
3574.000000	99.211611 
3573.000000	99.212615 
3572.000000	99.213220 
3571.000000	99.213293 
3570.000000	99.212884 
3569.000000	99.211988 
3568.000000	99.210541 
3567.000000	99.208815 
3566.000000	99.207868 
3565.000000	99.208581 
3564.000000	99.210429 
3563.000000	99.212180 
3562.000000	99.213226 
3561.000000	99.213753 
3560.000000	99.214164 
3559.000000	99.214573 
3558.000000	99.214732 
3557.000000	99.214389 
3556.000000	99.213725 
3555.000000	99.213183 
3554.000000	99.212948 
3553.000000	99.212767 
3552.000000	99.212435 
3551.000000	99.212165 
3550.000000	99.212235 
3549.000000	99.212609 
3548.000000	99.213239 
3547.000000	99.214249 
3546.000000	99.215593 
3545.000000	99.216872 
3544.000000	99.217613 
3543.000000	99.217622 
3542.000000	99.217038 
3541.000000	99.216266 
3540.000000	99.215799 
3539.000000	99.215837 
3538.000000	99.216174 
3537.000000	99.216396 
3536.000000	99.216217 
3535.000000	99.215645 
3534.000000	99.214888 
3533.000000	99.214262 
3532.000000	99.214033 
3531.000000	99.214266 
3530.000000	99.214730 
3529.000000	99.215123 
3528.000000	99.215363 
3527.000000	99.215577 
3526.000000	99.215821 
3525.000000	99.215989 
3524.000000	99.215997 
3523.000000	99.215886 
3522.000000	99.215741 
3521.000000	99.215606 
3520.000000	99.215480 
3519.000000	99.215356 
3518.000000	99.215234 
3517.000000	99.215112 
3516.000000	99.214986 
3515.000000	99.214855 
3514.000000	99.214720 
3513.000000	99.214576 
3512.000000	99.214421 
3511.000000	99.214255 
3510.000000	99.214081 
3509.000000	99.213904 
3508.000000	99.213728 
3507.000000	99.213553 
3506.000000	99.213372 
3505.000000	99.213178 
3504.000000	99.212972 
3503.000000	99.212762 
3502.000000	99.212559 
3501.000000	99.212370 
3500.000000	99.212191 
3499.000000	99.212015 
3498.000000	99.211835 
3497.000000	99.211651 
3496.000000	99.211472 
3495.000000	99.211301 
3494.000000	99.211141 
3493.000000	99.210986 
3492.000000	99.210832 
3491.000000	99.210674 
3490.000000	99.210515 
3489.000000	99.210354 
3488.000000	99.210195 
3487.000000	99.210036 
3486.000000	99.209878 
3485.000000	99.209719 
3484.000000	99.209558 
3483.000000	99.209395 
3482.000000	99.209231 
3481.000000	99.209069 
3480.000000	99.208911 
3479.000000	99.208760 
3478.000000	99.208618 
3477.000000	99.208484 
3476.000000	99.208358 
3475.000000	99.208237 
3474.000000	99.208110 
3473.000000	99.207979 
3472.000000	99.207881 
3471.000000	99.207870 
3470.000000	99.207967 
3469.000000	99.208131 
3468.000000	99.208267 
3467.000000	99.208219 
3466.000000	99.207834 
3465.000000	99.207111 
3464.000000	99.206288 
3463.000000	99.205649 
3462.000000	99.205274 
3461.000000	99.204993 
3460.000000	99.204643 
3459.000000	99.204310 
3458.000000	99.204223 
3457.000000	99.204440 
3456.000000	99.204755 
3455.000000	99.204890 
3454.000000	99.204826 
3453.000000	99.204856 
3452.000000	99.205215 
3451.000000	99.205791 
3450.000000	99.206243 
3449.000000	99.206337 
3448.000000	99.206058 
3447.000000	99.205470 
3446.000000	99.204704 
3445.000000	99.204099 
3444.000000	99.204049 
3443.000000	99.204602 
3442.000000	99.205313 
3441.000000	99.205695 
3440.000000	99.205811 
3439.000000	99.206121 
3438.000000	99.206742 
3437.000000	99.207133 
3436.000000	99.206717 
3435.000000	99.205629 
3434.000000	99.204617 
3433.000000	99.204288 
3432.000000	99.204588 
3431.000000	99.205020 
3430.000000	99.205116 
3429.000000	99.204704 
3428.000000	99.203868 
3427.000000	99.202771 
3426.000000	99.201560 
3425.000000	99.200428 
3424.000000	99.199672 
3423.000000	99.199553 
3422.000000	99.200007 
3421.000000	99.200534 
3420.000000	99.200484 
3419.000000	99.199604 
3418.000000	99.198336 
3417.000000	99.197506 
3416.000000	99.197589 
3415.000000	99.198291 
3414.000000	99.198853 
3413.000000	99.198871 
3412.000000	99.198675 
3411.000000	99.198869 
3410.000000	99.199690 
3409.000000	99.200855 
3408.000000	99.201827 
3407.000000	99.202139 
3406.000000	99.201636 
3405.000000	99.200621 
3404.000000	99.199741 
3403.000000	99.199555 
3402.000000	99.200166 
3401.000000	99.201242 
3400.000000	99.202262 
3399.000000	99.202852 
3398.000000	99.203045 
3397.000000	99.203270 
3396.000000	99.203881 
3395.000000	99.204678 
3394.000000	99.205095 
3393.000000	99.204900 
3392.000000	99.204439 
3391.000000	99.204120 
3390.000000	99.203909 
3389.000000	99.203552 
3388.000000	99.203017 
3387.000000	99.202472 
3386.000000	99.201975 
3385.000000	99.201463 
3384.000000	99.201009 
3383.000000	99.200853 
3382.000000	99.201114 
3381.000000	99.201583 
3380.000000	99.201845 
3379.000000	99.201645 
3378.000000	99.201192 
3377.000000	99.201108 
3376.000000	99.201920 
3375.000000	99.203567 
3374.000000	99.205397 
3373.000000	99.206663 
3372.000000	99.207028 
3371.000000	99.206615 
3370.000000	99.205814 
3369.000000	99.205099 
3368.000000	99.204804 
3367.000000	99.204906 
3366.000000	99.205032 
3365.000000	99.204828 
3364.000000	99.204345 
3363.000000	99.203994 
3362.000000	99.204115 
3361.000000	99.204641 
3360.000000	99.205145 
3359.000000	99.205182 
3358.000000	99.204686 
3357.000000	99.204109 
3356.000000	99.204069 
3355.000000	99.204771 
3354.000000	99.205819 
3353.000000	99.206655 
3352.000000	99.207123 
3351.000000	99.207502 
3350.000000	99.208107 
3349.000000	99.208992 
3348.000000	99.210003 
3347.000000	99.210904 
3346.000000	99.211439 
3345.000000	99.211438 
3344.000000	99.210948 
3343.000000	99.210223 
3342.000000	99.209560 
3341.000000	99.209157 
3340.000000	99.209101 
3339.000000	99.209350 
3338.000000	99.209662 
3337.000000	99.209663 
3336.000000	99.209152 
3335.000000	99.208366 
3334.000000	99.207882 
3333.000000	99.208137 
3332.000000	99.209042 
3331.000000	99.210060 
3330.000000	99.210716 
3329.000000	99.211031 
3328.000000	99.211393 
3327.000000	99.212048 
3326.000000	99.212787 
3325.000000	99.213182 
3324.000000	99.213097 
3323.000000	99.212845 
3322.000000	99.212855 
3321.000000	99.213216 
3320.000000	99.213619 
3319.000000	99.213723 
3318.000000	99.213535 
3317.000000	99.213377 
3316.000000	99.213520 
3315.000000	99.213909 
3314.000000	99.214275 
3313.000000	99.214462 
3312.000000	99.214556 
3311.000000	99.214723 
3310.000000	99.215021 
3309.000000	99.215394 
3308.000000	99.215785 
3307.000000	99.216200 
3306.000000	99.216637 
3305.000000	99.216982 
3304.000000	99.217021 
3303.000000	99.216600 
3302.000000	99.215820 
3301.000000	99.215101 
3300.000000	99.214910 
3299.000000	99.215386 
3298.000000	99.216238 
3297.000000	99.217042 
3296.000000	99.217655 
3295.000000	99.218235 
3294.000000	99.218945 
3293.000000	99.219737 
3292.000000	99.220386 
3291.000000	99.220681 
3290.000000	99.220585 
3289.000000	99.220221 
3288.000000	99.219698 
3287.000000	99.219058 
3286.000000	99.218420 
3285.000000	99.218008 
3284.000000	99.217910 
3283.000000	99.217929 
3282.000000	99.217849 
3281.000000	99.217722 
3280.000000	99.217633 
3279.000000	99.217339 
3278.000000	99.216548 
3277.000000	99.215532 
3276.000000	99.215052 
3275.000000	99.215496 
3274.000000	99.216450 
3273.000000	99.217159 
3272.000000	99.217187 
3271.000000	99.216552 
3270.000000	99.215504 
3269.000000	99.214443 
3268.000000	99.213831 
3267.000000	99.213963 
3266.000000	99.214821 
3265.000000	99.216191 
3264.000000	99.217806 
3263.000000	99.219344 
3262.000000	99.220493 
3261.000000	99.221111 
3260.000000	99.221219 
3259.000000	99.220836 
3258.000000	99.219979 
3257.000000	99.218826 
3256.000000	99.217668 
3255.000000	99.216653 
3254.000000	99.215811 
3253.000000	99.215298 
3252.000000	99.215349 
3251.000000	99.215899 
3250.000000	99.216503 
3249.000000	99.216767 
3248.000000	99.216709 
3247.000000	99.216583 
3246.000000	99.216518 
3245.000000	99.216475 
3244.000000	99.216435 
3243.000000	99.216492 
3242.000000	99.216790 
3241.000000	99.217441 
3240.000000	99.218381 
3239.000000	99.219220 
3238.000000	99.219442 
3237.000000	99.218874 
3236.000000	99.217912 
3235.000000	99.217229 
3234.000000	99.217141 
3233.000000	99.217470 
3232.000000	99.217875 
3231.000000	99.218170 
3230.000000	99.218321 
3229.000000	99.218289 
3228.000000	99.218026 
3227.000000	99.217571 
3226.000000	99.217057 
3225.000000	99.216653 
3224.000000	99.216502 
3223.000000	99.216629 
3222.000000	99.216885 
3221.000000	99.217060 
3220.000000	99.217107 
3219.000000	99.217183 
3218.000000	99.217412 
3217.000000	99.217679 
3216.000000	99.217717 
3215.000000	99.217405 
3214.000000	99.216903 
3213.000000	99.216457 
3212.000000	99.216141 
3211.000000	99.215931 
3210.000000	99.215981 
3209.000000	99.216560 
3208.000000	99.217587 
3207.000000	99.218459 
3206.000000	99.218612 
3205.000000	99.218215 
3204.000000	99.218102 
3203.000000	99.218908 
3202.000000	99.220444 
3201.000000	99.221971 
3200.000000	99.222915 
3199.000000	99.223105 
3198.000000	99.222564 
3197.000000	99.221456 
3196.000000	99.220256 
3195.000000	99.219551 
3194.000000	99.219416 
3193.000000	99.219178 
3192.000000	99.218153 
3191.000000	99.216609 
3190.000000	99.215723 
3189.000000	99.216422 
3188.000000	99.218445 
3187.000000	99.220540 
3186.000000	99.221566 
3185.000000	99.221276 
3184.000000	99.220149 
3183.000000	99.218818 
3182.000000	99.217710 
3181.000000	99.216962 
3180.000000	99.216442 
3179.000000	99.215907 
3178.000000	99.215287 
3177.000000	99.214685 
3176.000000	99.214032 
3175.000000	99.213072 
3174.000000	99.211972 
3173.000000	99.211682 
3172.000000	99.213080 
3171.000000	99.215790 
3170.000000	99.218271 
3169.000000	99.219370 
3168.000000	99.219516 
3167.000000	99.220115 
3166.000000	99.222040 
3165.000000	99.224937 
3164.000000	99.227716 
3163.000000	99.229442 
3162.000000	99.229856 
3161.000000	99.229355 
3160.000000	99.228699 
3159.000000	99.228530 
3158.000000	99.228958 
3157.000000	99.229593 
3156.000000	99.229944 
3155.000000	99.229851 
3154.000000	99.229618 
3153.000000	99.229783 
3152.000000	99.230661 
3151.000000	99.231971 
3150.000000	99.232960 
3149.000000	99.233048 
3148.000000	99.232387 
3147.000000	99.231713 
3146.000000	99.231586 
3145.000000	99.231871 
3144.000000	99.232061 
3143.000000	99.231995 
3142.000000	99.232097 
3141.000000	99.232833 
3140.000000	99.234065 
3139.000000	99.235086 
3138.000000	99.235328 
3137.000000	99.234919 
3136.000000	99.234483 
3135.000000	99.234474 
3134.000000	99.234792 
3133.000000	99.235058 
3132.000000	99.235113 
3131.000000	99.235158 
3130.000000	99.235411 
3129.000000	99.235746 
3128.000000	99.235764 
3127.000000	99.235251 
3126.000000	99.234491 
3125.000000	99.234049 
3124.000000	99.234229 
3123.000000	99.234852 
3122.000000	99.235502 
3121.000000	99.235960 
3120.000000	99.236348 
3119.000000	99.236872 
3118.000000	99.237482 
3117.000000	99.237794 
3116.000000	99.237397 
3115.000000	99.236281 
3114.000000	99.234907 
3113.000000	99.233749 
3112.000000	99.232858 
3111.000000	99.232088 
3110.000000	99.231614 
3109.000000	99.231846 
3108.000000	99.232751 
3107.000000	99.233624 
3106.000000	99.233748 
3105.000000	99.233140 
3104.000000	99.232462 
3103.000000	99.232367 
3102.000000	99.233102 
3101.000000	99.234543 
3100.000000	99.236218 
3099.000000	99.237413 
3098.000000	99.237656 
3097.000000	99.237193 
3096.000000	99.236830 
3095.000000	99.237165 
3094.000000	99.238092 
3093.000000	99.239076 
3092.000000	99.239680 
3091.000000	99.239714 
3090.000000	99.239135 
3089.000000	99.238144 
3088.000000	99.237342 
3087.000000	99.237442 
3086.000000	99.238623 
3085.000000	99.240286 
3084.000000	99.241605 
3083.000000	99.242240 
3082.000000	99.242387 
3081.000000	99.242314 
3080.000000	99.242067 
3079.000000	99.241616 
3078.000000	99.241022 
3077.000000	99.240220 
3076.000000	99.238844 
3075.000000	99.236711 
3074.000000	99.234501 
3073.000000	99.233533 
3072.000000	99.234634 
3071.000000	99.237425 
3070.000000	99.240742 
3069.000000	99.243250 
3068.000000	99.243513 
3067.000000	99.240397 
3066.000000	99.234343 
3065.000000	99.227928 
3064.000000	99.224010 
3063.000000	99.223220 
3062.000000	99.223985 
3061.000000	99.224806 
3060.000000	99.225679 
3059.000000	99.227245 
3058.000000	99.229512 
3057.000000	99.231784 
3056.000000	99.233272 
3055.000000	99.233618 
3054.000000	99.233251 
3053.000000	99.233120 
3052.000000	99.233527 
3051.000000	99.233438 
3050.000000	99.231808 
3049.000000	99.229297 
3048.000000	99.227398 
3047.000000	99.225895 
3046.000000	99.222820 
3045.000000	99.217441 
3044.000000	99.211837 
3043.000000	99.208560 
3042.000000	99.207723 
3041.000000	99.207318 
3040.000000	99.205649 
3039.000000	99.202465 
3038.000000	99.198383 
3037.000000	99.194285 
3036.000000	99.190982 
3035.000000	99.188537 
3034.000000	99.185962 
3033.000000	99.182032 
3032.000000	99.176198 
3031.000000	99.168645 
3030.000000	99.159771 
3029.000000	99.149885 
3028.000000	99.139372 
3027.000000	99.128848 
3026.000000	99.119083 
3025.000000	99.110682 
3024.000000	99.103406 
3023.000000	99.095745 
3022.000000	99.085859 
3021.000000	99.073385 
3020.000000	99.060050 
3019.000000	99.048197 
3018.000000	99.039013 
3017.000000	99.032265 
3016.000000	99.026938 
3015.000000	99.021559 
3014.000000	99.014414 
3013.000000	99.004170 
3012.000000	98.990254 
3011.000000	98.972641 
3010.000000	98.951964 
3009.000000	98.930232 
3008.000000	98.910638 
3007.000000	98.895716 
3006.000000	98.885592 
3005.000000	98.878116 
3004.000000	98.870222 
3003.000000	98.859203 
3002.000000	98.843947 
3001.000000	98.826170 
3000.000000	98.809797 
2999.000000	98.797695 
2998.000000	98.789056 
2997.000000	98.781044 
2996.000000	98.772719 
2995.000000	98.765509 
2994.000000	98.759061 
2993.000000	98.748523 
2992.000000	98.728403 
2991.000000	98.699459 
2990.000000	98.670267 
2989.000000	98.650624 
2988.000000	98.643884 
2987.000000	98.646119 
2986.000000	98.651450 
2985.000000	98.657097 
2984.000000	98.663143 
2983.000000	98.669303 
2982.000000	98.673885 
2981.000000	98.675665 
2980.000000	98.675335 
2979.000000	98.674515 
2978.000000	98.674062 
2977.000000	98.673706 
2976.000000	98.672719 
2975.000000	98.670554 
2974.000000	98.667281 
2973.000000	98.663820 
2972.000000	98.661493 
2971.000000	98.661175 
2970.000000	98.663138 
2969.000000	98.667667 
2968.000000	98.675129 
2967.000000	98.685143 
2966.000000	98.696280 
2965.000000	98.707101 
2964.000000	98.717176 
2963.000000	98.726791 
2962.000000	98.736028 
2961.000000	98.744449 
2960.000000	98.751419 
2959.000000	98.756610 
2958.000000	98.760633 
2957.000000	98.765191 
2956.000000	98.771711 
2955.000000	98.779434 
2954.000000	98.785850 
2953.000000	98.789990 
2952.000000	98.794553 
2951.000000	98.803352 
2950.000000	98.816584 
2949.000000	98.829782 
2948.000000	98.838084 
2947.000000	98.840590 
2946.000000	98.840179 
2945.000000	98.840057 
2944.000000	98.841181 
2943.000000	98.842773 
2942.000000	98.844256 
2941.000000	98.845790 
2940.000000	98.847278 
2939.000000	98.847773 
2938.000000	98.846322 
2937.000000	98.843258 
2936.000000	98.840486 
2935.000000	98.840380 
2934.000000	98.844055 
2933.000000	98.850254 
2932.000000	98.855793 
2931.000000	98.857580 
2930.000000	98.854752 
2929.000000	98.849084 
2928.000000	98.843414 
2927.000000	98.839626 
2926.000000	98.837963 
2925.000000	98.837542 
2924.000000	98.837172 
2923.000000	98.836194 
2922.000000	98.835114 
2921.000000	98.835112 
2920.000000	98.836405 
2919.000000	98.837440 
2918.000000	98.836312 
2917.000000	98.832694 
2916.000000	98.827847 
2915.000000	98.823146 
2914.000000	98.819404 
2913.000000	98.817278 
2912.000000	98.817048 
2911.000000	98.817738 
2910.000000	98.817442 
2909.000000	98.815061 
2908.000000	98.811163 
2907.000000	98.806849 
2906.000000	98.802331 
2905.000000	98.796889 
2904.000000	98.789773 
2903.000000	98.781196 
2902.000000	98.773264 
2901.000000	98.769810 
2900.000000	98.774095 
2899.000000	98.785776 
2898.000000	98.800144 
2897.000000	98.811478 
2896.000000	98.817421 
2895.000000	98.819938 
2894.000000	98.822547 
2893.000000	98.827130 
2892.000000	98.833002 
2891.000000	98.838185 
2890.000000	98.841394 
2889.000000	98.843017 
2888.000000	98.844381 
2887.000000	98.846321 
2886.000000	98.848901 
2885.000000	98.852333 
2884.000000	98.857361 
2883.000000	98.864320 
2882.000000	98.872417 
2881.000000	98.880563 
2880.000000	98.888693 
2879.000000	98.897825 
2878.000000	98.908899 
2877.000000	98.921662 
2876.000000	98.934342 
2875.000000	98.944267 
2874.000000	98.949426 
2873.000000	98.950183 
2872.000000	98.949500 
2871.000000	98.950966 
2870.000000	98.956328 
2869.000000	98.964783 
2868.000000	98.974288 
2867.000000	98.983443 
2866.000000	98.992500 
2865.000000	99.002817 
2864.000000	99.015102 
2863.000000	99.027981 
2862.000000	99.038711 
2861.000000	99.045696 
2860.000000	99.050133 
2859.000000	99.054894 
2858.000000	99.061866 
2857.000000	99.070606 
2856.000000	99.079313 
2855.000000	99.086723 
2854.000000	99.093036 
2853.000000	99.099303 
2852.000000	99.106084 
2851.000000	99.112911 
2850.000000	99.119243 
2849.000000	99.125543 
2848.000000	99.132719 
2847.000000	99.140588 
2846.000000	99.147572 
2845.000000	99.152159 
2844.000000	99.154218 
2843.000000	99.154859 
2842.000000	99.155671 
2841.000000	99.158143 
2840.000000	99.162912 
2839.000000	99.168897 
2838.000000	99.173698 
2837.000000	99.175583 
2836.000000	99.174965 
2835.000000	99.173853 
2834.000000	99.174209 
2833.000000	99.176980 
2832.000000	99.181951 
2831.000000	99.187815 
2830.000000	99.192805 
2829.000000	99.195995 
2828.000000	99.197950 
2827.000000	99.199776 
2826.000000	99.201788 
2825.000000	99.203467 
2824.000000	99.204450 
2823.000000	99.205091 
2822.000000	99.206199 
2821.000000	99.208489 
2820.000000	99.211974 
2819.000000	99.215607 
2818.000000	99.217992 
2817.000000	99.218850 
2816.000000	99.219420 
2815.000000	99.221032 
2814.000000	99.223639 
2813.000000	99.226132 
2812.000000	99.227662 
2811.000000	99.228071 
2810.000000	99.227521 
2809.000000	99.226450 
2808.000000	99.225720 
2807.000000	99.226036 
2806.000000	99.227143 
2805.000000	99.228091 
2804.000000	99.228390 
2803.000000	99.228562 
2802.000000	99.229479 
2801.000000	99.231378 
2800.000000	99.233549 
2799.000000	99.234865 
2798.000000	99.234696 
2797.000000	99.233461 
2796.000000	99.232219 
2795.000000	99.231702 
2794.000000	99.231888 
2793.000000	99.232452 
2792.000000	99.233212 
2791.000000	99.234031 
2790.000000	99.234704 
2789.000000	99.235285 
2788.000000	99.236231 
2787.000000	99.237848 
2786.000000	99.239814 
2785.000000	99.241499 
2784.000000	99.242603 
2783.000000	99.243185 
2782.000000	99.243305 
2781.000000	99.243009 
2780.000000	99.242594 
2779.000000	99.242515 
2778.000000	99.242943 
2777.000000	99.243675 
2776.000000	99.244446 
2775.000000	99.245142 
2774.000000	99.245679 
2773.000000	99.245939 
2772.000000	99.245952 
2771.000000	99.245983 
2770.000000	99.246297 
2769.000000	99.246942 
2768.000000	99.247815 
2767.000000	99.248809 
2766.000000	99.249782 
2765.000000	99.250475 
2764.000000	99.250686 
2763.000000	99.250518 
2762.000000	99.250368 
2761.000000	99.250597 
2760.000000	99.251328 
2759.000000	99.252476 
2758.000000	99.253817 
2757.000000	99.254968 
2756.000000	99.255531 
2755.000000	99.255410 
2754.000000	99.254900 
2753.000000	99.254378 
2752.000000	99.253988 
2751.000000	99.253726 
2750.000000	99.253692 
2749.000000	99.254038 
2748.000000	99.254633 
2747.000000	99.255016 
2746.000000	99.254850 
2745.000000	99.254346 
2744.000000	99.254109 
2743.000000	99.254551 
2742.000000	99.255613 
2741.000000	99.256937 
2740.000000	99.258175 
2739.000000	99.259142 
2738.000000	99.259793 
2737.000000	99.260194 
2736.000000	99.260466 
2735.000000	99.260705 
2734.000000	99.260910 
2733.000000	99.261013 
2732.000000	99.260980 
2731.000000	99.260899 
2730.000000	99.260967 
2729.000000	99.261350 
2728.000000	99.262030 
2727.000000	99.262809 
2726.000000	99.263471 
2725.000000	99.263909 
2724.000000	99.264124 
2723.000000	99.264201 
2722.000000	99.264321 
2721.000000	99.264670 
2720.000000	99.265248 
2719.000000	99.265795 
2718.000000	99.266003 
2717.000000	99.265797 
2716.000000	99.265390 
2715.000000	99.265121 
2714.000000	99.265270 
2713.000000	99.265914 
2712.000000	99.266828 
2711.000000	99.267577 
2710.000000	99.267889 
2709.000000	99.267875 
2708.000000	99.267831 
2707.000000	99.267839 
2706.000000	99.267728 
2705.000000	99.267397 
2704.000000	99.266986 
2703.000000	99.266726 
2702.000000	99.266711 
2701.000000	99.266868 
2700.000000	99.267054 
2699.000000	99.267132 
2698.000000	99.267060 
2697.000000	99.266927 
2696.000000	99.266888 
2695.000000	99.267039 
2694.000000	99.267372 
2693.000000	99.267800 
2692.000000	99.268172 
2691.000000	99.268331 
2690.000000	99.268238 
2689.000000	99.268053 
2688.000000	99.268016 
2687.000000	99.268199 
2686.000000	99.268470 
2685.000000	99.268659 
2684.000000	99.268726 
2683.000000	99.268736 
2682.000000	99.268759 
2681.000000	99.268823 
2680.000000	99.268913 
2679.000000	99.268976 
2678.000000	99.268959 
2677.000000	99.268864 
2676.000000	99.268773 
2675.000000	99.268778 
2674.000000	99.268911 
2673.000000	99.269119 
2672.000000	99.269300 
2671.000000	99.269350 
2670.000000	99.269233 
2669.000000	99.269001 
2668.000000	99.268750 
2667.000000	99.268559 
2666.000000	99.268481 
2665.000000	99.268555 
2664.000000	99.268779 
2663.000000	99.269071 
2662.000000	99.269319 
2661.000000	99.269482 
2660.000000	99.269593 
2659.000000	99.269673 
2658.000000	99.269692 
2657.000000	99.269635 
2656.000000	99.269561 
2655.000000	99.269550 
2654.000000	99.269620 
2653.000000	99.269714 
2652.000000	99.269759 
2651.000000	99.269730 
2650.000000	99.269671 
2649.000000	99.269669 
2648.000000	99.269759 
2647.000000	99.269853 
2646.000000	99.269823 
2645.000000	99.269651 
2644.000000	99.269473 
2643.000000	99.269432 
2642.000000	99.269541 
2641.000000	99.269728 
2640.000000	99.269974 
2639.000000	99.270314 
2638.000000	99.270729 
2637.000000	99.271095 
2636.000000	99.271257 
2635.000000	99.271126 
2634.000000	99.270726 
2633.000000	99.270263 
2632.000000	99.270020 
2631.000000	99.270078 
2630.000000	99.270280 
2629.000000	99.270402 
2628.000000	99.270405 
2627.000000	99.270415 
2626.000000	99.270517 
2625.000000	99.270664 
2624.000000	99.270794 
2623.000000	99.270910 
2622.000000	99.271023 
2621.000000	99.271110 
2620.000000	99.271179 
2619.000000	99.271268 
2618.000000	99.271365 
2617.000000	99.271389 
2616.000000	99.271303 
2615.000000	99.271170 
2614.000000	99.271075 
2613.000000	99.271044 
2612.000000	99.271068 
2611.000000	99.271158 
2610.000000	99.271315 
2609.000000	99.271488 
2608.000000	99.271595 
2607.000000	99.271597 
2606.000000	99.271523 
2605.000000	99.271444 
2604.000000	99.271408 
2603.000000	99.271386 
2602.000000	99.271293 
2601.000000	99.271086 
2600.000000	99.270831 
2599.000000	99.270633 
2598.000000	99.270523 
2597.000000	99.270423 
2596.000000	99.270241 
2595.000000	99.269957 
2594.000000	99.269609 
2593.000000	99.269243 
2592.000000	99.268916 
2591.000000	99.268689 
2590.000000	99.268588 
2589.000000	99.268583 
2588.000000	99.268571 
2587.000000	99.268451 
2586.000000	99.268177 
2585.000000	99.267769 
2584.000000	99.267293 
2583.000000	99.266833 
2582.000000	99.266470 
2581.000000	99.266232 
2580.000000	99.266076 
2579.000000	99.265904 
2578.000000	99.265647 
2577.000000	99.265316 
2576.000000	99.264981 
2575.000000	99.264718 
2574.000000	99.264569 
2573.000000	99.264520 
2572.000000	99.264467 
2571.000000	99.264277 
2570.000000	99.263879 
2569.000000	99.263318 
2568.000000	99.262720 
2567.000000	99.262196 
2566.000000	99.261822 
2565.000000	99.261653 
2564.000000	99.261692 
2563.000000	99.261808 
2562.000000	99.261760 
2561.000000	99.261404 
2560.000000	99.260897 
2559.000000	99.260637 
2558.000000	99.260869 
2557.000000	99.261331 
2556.000000	99.261400 
2555.000000	99.260836 
2554.000000	99.260343 
2553.000000	99.261005 
2552.000000	99.263008 
2551.000000	99.265194 
2550.000000	99.266267 
2549.000000	99.266139 
2548.000000	99.265577 
2547.000000	99.264926 
2546.000000	99.263986 
2545.000000	99.263087 
2544.000000	99.263247 
2543.000000	99.264866 
2542.000000	99.266979 
2541.000000	99.268319 
2540.000000	99.268590 
2539.000000	99.268180 
2538.000000	99.267080 
2537.000000	99.264726 
2536.000000	99.260842 
2535.000000	99.256149 
2534.000000	99.252289 
2533.000000	99.250904 
2532.000000	99.252378 
2531.000000	99.255288 
2530.000000	99.257657 
2529.000000	99.258997 
2528.000000	99.260361 
2527.000000	99.262472 
2526.000000	99.264809 
2525.000000	99.266808 
2524.000000	99.268969 
2523.000000	99.271871 
2522.000000	99.274702 
2521.000000	99.275824 
2520.000000	99.274677 
2519.000000	99.272404 
2518.000000	99.270692 
2517.000000	99.270292 
2516.000000	99.270755 
2515.000000	99.271161 
2514.000000	99.270993 
2513.000000	99.270442 
2512.000000	99.269923 
2511.000000	99.269409 
2510.000000	99.268602 
2509.000000	99.267767 
2508.000000	99.267769 
2507.000000	99.268930 
2506.000000	99.270304 
2505.000000	99.270615 
2504.000000	99.269712 
2503.000000	99.268594 
2502.000000	99.268162 
2501.000000	99.268392 
2500.000000	99.268830 
2499.000000	99.269367 
2498.000000	99.270215 
2497.000000	99.271346 
2496.000000	99.272262 
2495.000000	99.272376 
2494.000000	99.271510 
2493.000000	99.269975 
2492.000000	99.268332 
2491.000000	99.267080 
2490.000000	99.266477 
2489.000000	99.266515 
2488.000000	99.266923 
2487.000000	99.267238 
2486.000000	99.267120 
2485.000000	99.266655 
2484.000000	99.266249 
2483.000000	99.266194 
2482.000000	99.266376 
2481.000000	99.266447 
2480.000000	99.266212 
2479.000000	99.265764 
2478.000000	99.265307 
2477.000000	99.264947 
2476.000000	99.264663 
2475.000000	99.264385 
2474.000000	99.264090 
2473.000000	99.263841 
2472.000000	99.263732 
2471.000000	99.263778 
2470.000000	99.263861 
2469.000000	99.263818 
2468.000000	99.263551 
2467.000000	99.263037 
2466.000000	99.262316 
2465.000000	99.261555 
2464.000000	99.261009 
2463.000000	99.260786 
2462.000000	99.260683 
2461.000000	99.260369 
2460.000000	99.259736 
2459.000000	99.258974 
2458.000000	99.258378 
2457.000000	99.258094 
2456.000000	99.258038 
2455.000000	99.257952 
2454.000000	99.257575 
2453.000000	99.256849 
2452.000000	99.255966 
2451.000000	99.255220 
2450.000000	99.254746 
2449.000000	99.254472 
2448.000000	99.254294 
2447.000000	99.254206 
2446.000000	99.254238 
2445.000000	99.254399 
2444.000000	99.254679 
2443.000000	99.254972 
2442.000000	99.255058 
2441.000000	99.254783 
2440.000000	99.254223 
2439.000000	99.253643 
2438.000000	99.253258 
2437.000000	99.253107 
2436.000000	99.253109 
2435.000000	99.253121 
2434.000000	99.252949 
2433.000000	99.252474 
2432.000000	99.251804 
2431.000000	99.251252 
2430.000000	99.251050 
2429.000000	99.251172 
2428.000000	99.251444 
2427.000000	99.251775 
2426.000000	99.252178 
2425.000000	99.252573 
2424.000000	99.252694 
2423.000000	99.252293 
2422.000000	99.251422 
2421.000000	99.250546 
2420.000000	99.250189 
2419.000000	99.250472 
2418.000000	99.251111 
2417.000000	99.251763 
2416.000000	99.252307 
2415.000000	99.252670 
2414.000000	99.252624 
2413.000000	99.252032 
2412.000000	99.251199 
2411.000000	99.250687 
2410.000000	99.250797 
2409.000000	99.251416 
2408.000000	99.252290 
2407.000000	99.253276 
2406.000000	99.254234 
2405.000000	99.254998 
2404.000000	99.255602 
2403.000000	99.256210 
2402.000000	99.256834 
2401.000000	99.257314 
2400.000000	99.257578 
2399.000000	99.257754 
2398.000000	99.258020 
2397.000000	99.258466 
2396.000000	99.259123 
2395.000000	99.259960 
2394.000000	99.260879 
2393.000000	99.261814 
2392.000000	99.262803 
2391.000000	99.263898 
2390.000000	99.265033 
2389.000000	99.266093 
2388.000000	99.267065 
2387.000000	99.268000 
2386.000000	99.268879 
2385.000000	99.269623 
2384.000000	99.270250 
2383.000000	99.270893 
2382.000000	99.271660 
2381.000000	99.272527 
2380.000000	99.273375 
2379.000000	99.274091 
2378.000000	99.274631 
2377.000000	99.275059 
2376.000000	99.275531 
2375.000000	99.276189 
2374.000000	99.277036 
2373.000000	99.277957 
2372.000000	99.278847 
2371.000000	99.279708 
2370.000000	99.280582 
2369.000000	99.281429 
2368.000000	99.282117 
2367.000000	99.282571 
2366.000000	99.282866 
2365.000000	99.283135 
2364.000000	99.283474 
2363.000000	99.283865 
2362.000000	99.284263 
2361.000000	99.284633 
2360.000000	99.284968 
2359.000000	99.285275 
2358.000000	99.285564 
2357.000000	99.285839 
2356.000000	99.286097 
2355.000000	99.286328 
2354.000000	99.286521 
2353.000000	99.286670 
2352.000000	99.286782 
2351.000000	99.286873 
2350.000000	99.286956 
2349.000000	99.287034 
2348.000000	99.287104 
2347.000000	99.287152 
2346.000000	99.287155 
2345.000000	99.287068 
2344.000000	99.286902 
2343.000000	99.286781 
2342.000000	99.286864 
2341.000000	99.287182 
2340.000000	99.287511 
2339.000000	99.287545 
2338.000000	99.287144 
2337.000000	99.286489 
2336.000000	99.285949 
2335.000000	99.285755 
2334.000000	99.285794 
2333.000000	99.285745 
2332.000000	99.285375 
2331.000000	99.284650 
2330.000000	99.283563 
2329.000000	99.282286 
2328.000000	99.281209 
2327.000000	99.280615 
2326.000000	99.280287 
2325.000000	99.279567 
2324.000000	99.278277 
2323.000000	99.277065 
2322.000000	99.276975 
2321.000000	99.278350 
2320.000000	99.280314 
2319.000000	99.281517 
2318.000000	99.281234 
2317.000000	99.279738 
2316.000000	99.277685 
2315.000000	99.275527 
2314.000000	99.273404 
2313.000000	99.271554 
2312.000000	99.270400 
2311.000000	99.270363 
2310.000000	99.271640 
2309.000000	99.273889 
2308.000000	99.275913 
2307.000000	99.275952 
2306.000000	99.273070 
2305.000000	99.268098 
2304.000000	99.262942 
2303.000000	99.258792 
2302.000000	99.255618 
2301.000000	99.253153 
2300.000000	99.251435 
2299.000000	99.250126 
2298.000000	99.248376 
2297.000000	99.246080 
2296.000000	99.244508 
2295.000000	99.244721 
2294.000000	99.245796 
2293.000000	99.245488 
2292.000000	99.242749 
2291.000000	99.238687 
2290.000000	99.235111 
2289.000000	99.232754 
2288.000000	99.231200 
2287.000000	99.229797 
2286.000000	99.228191 
2285.000000	99.226275 
2284.000000	99.224103 
2283.000000	99.221787 
2282.000000	99.219313 
2281.000000	99.216561 
2280.000000	99.213685 
2279.000000	99.211354 
2278.000000	99.210400 
2277.000000	99.211140 
2276.000000	99.212980 
2275.000000	99.214640 
2274.000000	99.214940 
2273.000000	99.213507 
2272.000000	99.210734 
2271.000000	99.207147 
2270.000000	99.203178 
2269.000000	99.199665 
2268.000000	99.197961 
2267.000000	99.198917 
2266.000000	99.201864 
2265.000000	99.204890 
2264.000000	99.206295 
2263.000000	99.205755 
2262.000000	99.204454 
2261.000000	99.204251 
2260.000000	99.206040 
2259.000000	99.208337 
2258.000000	99.208193 
2257.000000	99.204298 
2256.000000	99.198649 
2255.000000	99.194528 
2254.000000	99.192722 
2253.000000	99.191258 
2252.000000	99.188748 
2251.000000	99.186501 
2250.000000	99.186613 
2249.000000	99.189123 
2248.000000	99.191986 
2247.000000	99.193280 
2246.000000	99.192627 
2245.000000	99.190663 
2244.000000	99.188057 
2243.000000	99.185166 
2242.000000	99.182270 
2241.000000	99.179812 
2240.000000	99.178211 
2239.000000	99.177340 
2238.000000	99.176448 
2237.000000	99.174811 
2236.000000	99.172263 
2235.000000	99.168909 
2234.000000	99.164837 
2233.000000	99.160832 
2232.000000	99.158879 
2231.000000	99.160800 
2230.000000	99.166353 
2229.000000	99.173117 
2228.000000	99.178534 
2227.000000	99.181645 
2226.000000	99.182640 
2225.000000	99.181768 
2224.000000	99.179283 
2223.000000	99.176004 
2222.000000	99.173322 
2221.000000	99.172428 
2220.000000	99.173407 
2219.000000	99.175095 
2218.000000	99.176056 
2217.000000	99.175920 
2216.000000	99.175557 
2215.000000	99.175799 
2214.000000	99.176307 
2213.000000	99.175983 
2212.000000	99.174190 
2211.000000	99.171403 
2210.000000	99.168954 
2209.000000	99.168242 
2208.000000	99.169631 
2207.000000	99.171676 
2206.000000	99.171977 
2205.000000	99.169378 
2204.000000	99.164928 
2203.000000	99.160708 
2202.000000	99.157979 
2201.000000	99.156834 
2200.000000	99.156754 
2199.000000	99.156650 
2198.000000	99.155058 
2197.000000	99.151532 
2196.000000	99.147813 
2195.000000	99.146510 
2194.000000	99.148542 
2193.000000	99.152596 
2192.000000	99.156543 
2191.000000	99.158852 
2190.000000	99.158881 
2189.000000	99.156956 
2188.000000	99.154563 
2187.000000	99.153446 
2186.000000	99.154089 
2185.000000	99.155680 
2184.000000	99.157345 
2183.000000	99.158554 
2182.000000	99.158494 
2181.000000	99.156485 
2180.000000	99.153307 
2179.000000	99.150864 
2178.000000	99.150050 
2177.000000	99.149881 
2176.000000	99.148964 
2175.000000	99.146969 
2174.000000	99.144381 
2173.000000	99.141702 
2172.000000	99.139281 
2171.000000	99.137306 
2170.000000	99.135863 
2169.000000	99.135469 
2168.000000	99.137192 
2167.000000	99.141329 
2166.000000	99.146157 
2165.000000	99.149118 
2164.000000	99.149523 
2163.000000	99.148750 
2162.000000	99.148105 
2161.000000	99.147624 
2160.000000	99.147134 
2159.000000	99.147134 
2158.000000	99.147948 
2157.000000	99.149200 
2156.000000	99.150700 
2155.000000	99.152716 
2154.000000	99.155029 
2153.000000	99.156767 
2152.000000	99.157460 
2151.000000	99.157605 
2150.000000	99.158062 
2149.000000	99.159236 
2148.000000	99.160980 
2147.000000	99.162819 
2146.000000	99.164155 
2145.000000	99.164653 
2144.000000	99.164560 
2143.000000	99.164587 
2142.000000	99.165198 
2141.000000	99.166253 
2140.000000	99.167379 
2139.000000	99.168421 
2138.000000	99.169436 
2137.000000	99.170353 
2136.000000	99.170964 
2135.000000	99.171280 
2134.000000	99.171624 
2133.000000	99.172238 
2132.000000	99.172999 
2131.000000	99.173573 
2130.000000	99.173782 
2129.000000	99.173723 
2128.000000	99.173644 
2127.000000	99.173693 
2126.000000	99.173832 
2125.000000	99.173906 
2124.000000	99.173838 
2123.000000	99.173788 
2122.000000	99.173994 
2121.000000	99.174405 
2120.000000	99.174626 
2119.000000	99.174337 
2118.000000	99.173598 
2117.000000	99.172739 
2116.000000	99.172010 
2115.000000	99.171461 
2114.000000	99.171065 
2113.000000	99.170785 
2112.000000	99.170544 
2111.000000	99.170228 
2110.000000	99.169764 
2109.000000	99.169161 
2108.000000	99.168465 
2107.000000	99.167650 
2106.000000	99.166540 
2105.000000	99.164835 
2104.000000	99.162337 
2103.000000	99.159343 
2102.000000	99.156782 
2101.000000	99.155518 
2100.000000	99.155502 
2099.000000	99.155737 
2098.000000	99.155298 
2097.000000	99.154440 
2096.000000	99.154159 
2095.000000	99.154722 
2094.000000	99.154970 
2093.000000	99.153461 
2092.000000	99.150132 
2091.000000	99.146645 
2090.000000	99.144888 
2089.000000	99.145153 
2088.000000	99.146091 
2087.000000	99.146218 
2086.000000	99.145447 
2085.000000	99.144893 
2084.000000	99.145385 
2083.000000	99.146422 
2082.000000	99.146708 
2081.000000	99.145531 
2080.000000	99.143415 
2079.000000	99.141477 
2078.000000	99.140435 
2077.000000	99.140432 
2076.000000	99.141460 
2075.000000	99.143366 
2074.000000	99.145460 
2073.000000	99.146642 
2072.000000	99.146292 
2071.000000	99.144729 
2070.000000	99.142694 
2069.000000	99.140616 
2068.000000	99.138480 
2067.000000	99.136178 
2066.000000	99.133751 
2065.000000	99.131402 
2064.000000	99.129425 
2063.000000	99.128112 
2062.000000	99.127687 
2061.000000	99.128213 
2060.000000	99.129371 
2059.000000	99.130425 
2058.000000	99.130594 
2057.000000	99.129651 
2056.000000	99.127818 
2055.000000	99.125048 
2054.000000	99.121074 
2053.000000	99.116445 
2052.000000	99.112841 
2051.000000	99.111657 
2050.000000	99.112519 
2049.000000	99.113508 
2048.000000	99.112862 
2047.000000	99.110013 
2046.000000	99.105429 
2045.000000	99.100436 
2044.000000	99.096939 
2043.000000	99.096072 
2042.000000	99.096961 
2041.000000	99.097608 
2040.000000	99.097181 
2039.000000	99.096384 
2038.000000	99.095512 
2037.000000	99.093698 
2036.000000	99.090648 
2035.000000	99.087775 
2034.000000	99.086568 
2033.000000	99.086495 
2032.000000	99.085425 
2031.000000	99.081744 
2030.000000	99.075631 
2029.000000	99.068798 
2028.000000	99.063220 
2027.000000	99.059863 
2026.000000	99.058711 
2025.000000	99.059950 
2024.000000	99.063858 
2023.000000	99.068763 
2022.000000	99.070522 
2021.000000	99.066339 
2020.000000	99.058953 
2019.000000	99.054748 
2018.000000	99.057049 
2017.000000	99.062945 
2016.000000	99.066853 
2015.000000	99.066264 
2014.000000	99.062765 
2013.000000	99.059452 
2012.000000	99.059043 
2011.000000	99.062994 
2010.000000	99.070779 
2009.000000	99.080203 
2008.000000	99.088934 
2007.000000	99.095722 
2006.000000	99.099854 
2005.000000	99.100791 
2004.000000	99.099146 
2003.000000	99.096900 
2002.000000	99.095773 
2001.000000	99.095787 
2000.000000	99.095811 
1999.000000	99.094777 
1998.000000	99.092443 
1997.000000	99.089882 
1996.000000	99.089140 
1995.000000	99.091499 
1994.000000	99.095897 
1993.000000	99.099446 
1992.000000	99.099908 
1991.000000	99.097442 
1990.000000	99.093988 
1989.000000	99.091649 
1988.000000	99.091482 
1987.000000	99.092783 
1986.000000	99.093429 
1985.000000	99.091912 
1984.000000	99.089097 
1983.000000	99.087278 
1982.000000	99.087409 
1981.000000	99.088058 
1980.000000	99.087235 
1979.000000	99.084594 
1978.000000	99.081591 
1977.000000	99.079842 
1976.000000	99.079655 
1975.000000	99.080129 
1974.000000	99.080476 
1973.000000	99.081221 
1972.000000	99.083550 
1971.000000	99.087388 
1970.000000	99.090677 
1969.000000	99.091208 
1968.000000	99.088893 
1967.000000	99.085946 
1966.000000	99.084726 
1965.000000	99.085504 
1964.000000	99.087029 
1963.000000	99.088268 
1962.000000	99.089079 
1961.000000	99.089595 
1960.000000	99.089874 
1959.000000	99.090193 
1958.000000	99.091071 
1957.000000	99.092728 
1956.000000	99.094833 
1955.000000	99.096929 
1954.000000	99.098798 
1953.000000	99.100232 
1952.000000	99.100702 
1951.000000	99.099763 
1950.000000	99.097816 
1949.000000	99.096227 
1948.000000	99.096343 
1947.000000	99.098069 
1946.000000	99.099477 
1945.000000	99.098320 
1944.000000	99.094280 
1943.000000	99.089773 
1942.000000	99.087953 
1941.000000	99.089770 
1940.000000	99.093606 
1939.000000	99.097430 
1938.000000	99.100803 
1937.000000	99.104654 
1936.000000	99.109509 
1935.000000	99.114286 
1934.000000	99.117247 
1933.000000	99.118238 
1932.000000	99.119272 
1931.000000	99.122407 
1930.000000	99.126991 
1929.000000	99.130143 
1928.000000	99.130429 
1927.000000	99.129514 
1926.000000	99.129967 
1925.000000	99.132183 
1924.000000	99.134530 
1923.000000	99.135870 
1922.000000	99.136487 
1921.000000	99.136804 
1920.000000	99.136351 
1919.000000	99.134311 
1918.000000	99.130447 
1917.000000	99.125641 
1916.000000	99.121670 
1915.000000	99.120004 
1914.000000	99.121049 
1913.000000	99.124262 
1912.000000	99.128401 
1911.000000	99.132041 
1910.000000	99.134011 
1909.000000	99.134284 
1908.000000	99.134552 
1907.000000	99.136654 
1906.000000	99.140622 
1905.000000	99.144464 
1904.000000	99.146279 
1903.000000	99.146008 
1902.000000	99.144615 
1901.000000	99.143054 
1900.000000	99.142199 
1899.000000	99.142684 
1898.000000	99.144357 
1897.000000	99.146280 
1896.000000	99.147714 
1895.000000	99.148745 
1894.000000	99.149603 
1893.000000	99.150209 
1892.000000	99.150666 
1891.000000	99.151250 
1890.000000	99.151506 
1889.000000	99.150471 
1888.000000	99.148485 
1887.000000	99.147348 
1886.000000	99.148251 
1885.000000	99.150741 
1884.000000	99.153676 
1883.000000	99.156536 
1882.000000	99.159070 
1881.000000	99.160739 
1880.000000	99.161553 
1879.000000	99.162532 
1878.000000	99.164713 
1877.000000	99.168010 
1876.000000	99.171365 
1875.000000	99.173787 
1874.000000	99.174578 
1873.000000	99.173196 
1872.000000	99.170002 
1871.000000	99.166596 
1870.000000	99.164415 
1869.000000	99.163115 
1868.000000	99.161786 
1867.000000	99.161100 
1866.000000	99.162024 
1865.000000	99.163868 
1864.000000	99.164989 
1863.000000	99.164610 
1862.000000	99.163478 
1861.000000	99.163071 
1860.000000	99.164698 
1859.000000	99.168860 
1858.000000	99.174401 
1857.000000	99.178794 
1856.000000	99.180509 
1855.000000	99.180539 
1854.000000	99.180732 
1853.000000	99.181337 
1852.000000	99.181500 
1851.000000	99.180976 
1850.000000	99.180699 
1849.000000	99.181789 
1848.000000	99.184333 
1847.000000	99.187371 
1846.000000	99.189606 
1845.000000	99.190265 
1844.000000	99.189690 
1843.000000	99.189342 
1842.000000	99.190028 
1841.000000	99.191022 
1840.000000	99.191446 
1839.000000	99.191019 
1838.000000	99.190023 
1837.000000	99.188932 
1836.000000	99.188262 
1835.000000	99.188410 
1834.000000	99.189140 
1833.000000	99.189850 
1832.000000	99.190210 
1831.000000	99.190108 
1830.000000	99.189607 
1829.000000	99.189195 
1828.000000	99.189314 
1827.000000	99.189774 
1826.000000	99.190207 
1825.000000	99.190492 
1824.000000	99.190560 
1823.000000	99.190270 
1822.000000	99.189386 
1821.000000	99.188124 
1820.000000	99.187478 
1819.000000	99.188432 
1818.000000	99.190934 
1817.000000	99.193399 
1816.000000	99.194378 
1815.000000	99.194423 
1814.000000	99.194995 
1813.000000	99.196507 
1812.000000	99.197976 
1811.000000	99.198808 
1810.000000	99.199548 
1809.000000	99.200228 
1808.000000	99.200133 
1807.000000	99.199226 
1806.000000	99.198258 
1805.000000	99.197547 
1804.000000	99.196758 
1803.000000	99.195775 
1802.000000	99.194845 
1801.000000	99.194165 
1800.000000	99.193693 
1799.000000	99.193651 
1798.000000	99.194393 
1797.000000	99.195769 
1796.000000	99.197366 
1795.000000	99.198909 
1794.000000	99.200122 
1793.000000	99.200554 
1792.000000	99.200014 
1791.000000	99.199298 
1790.000000	99.199275 
1789.000000	99.199739 
1788.000000	99.200178 
1787.000000	99.200586 
1786.000000	99.201266 
1785.000000	99.202136 
1784.000000	99.202760 
1783.000000	99.202927 
1782.000000	99.202705 
1781.000000	99.202391 
1780.000000	99.202260 
1779.000000	99.202393 
1778.000000	99.202731 
1777.000000	99.203148 
1776.000000	99.203564 
1775.000000	99.203890 
1774.000000	99.204083 
1773.000000	99.204233 
1772.000000	99.204452 
1771.000000	99.204748 
1770.000000	99.205056 
1769.000000	99.205322 
1768.000000	99.205553 
1767.000000	99.205789 
1766.000000	99.206060 
1765.000000	99.206371 
1764.000000	99.206707 
1763.000000	99.207052 
1762.000000	99.207399 
1761.000000	99.207752 
1760.000000	99.208112 
1759.000000	99.208483 
1758.000000	99.208862 
1757.000000	99.209246 
1756.000000	99.209625 
1755.000000	99.209991 
1754.000000	99.210337 
1753.000000	99.210665 
1752.000000	99.210982 
1751.000000	99.211296 
1750.000000	99.211612 
1749.000000	99.211931 
1748.000000	99.212250 
1747.000000	99.212569 
1746.000000	99.212882 
1745.000000	99.213189 
1744.000000	99.213490 
1743.000000	99.213787 
1742.000000	99.214083 
1741.000000	99.214380 
1740.000000	99.214680 
1739.000000	99.214986 
1738.000000	99.215295 
1737.000000	99.215598 
1736.000000	99.215885 
1735.000000	99.216155 
1734.000000	99.216408 
1733.000000	99.216646 
1732.000000	99.216871 
1731.000000	99.217085 
1730.000000	99.217293 
1729.000000	99.217503 
1728.000000	99.217719 
1727.000000	99.217942 
1726.000000	99.218167 
1725.000000	99.218391 
1724.000000	99.218609 
1723.000000	99.218821 
1722.000000	99.219025 
1721.000000	99.219221 
1720.000000	99.219411 
1719.000000	99.219593 
1718.000000	99.219766 
1717.000000	99.219920 
1716.000000	99.220049 
1715.000000	99.220158 
1714.000000	99.220259 
1713.000000	99.220361 
1712.000000	99.220470 
1711.000000	99.220586 
1710.000000	99.220709 
1709.000000	99.220834 
1708.000000	99.220955 
1707.000000	99.221068 
1706.000000	99.221171 
1705.000000	99.221265 
1704.000000	99.221354 
1703.000000	99.221443 
1702.000000	99.221538 
1701.000000	99.221639 
1700.000000	99.221747 
1699.000000	99.221863 
1698.000000	99.221989 
1697.000000	99.222119 
1696.000000	99.222249 
1695.000000	99.222379 
1694.000000	99.222517 
1693.000000	99.222669 
1692.000000	99.222836 
1691.000000	99.223019 
1690.000000	99.223218 
1689.000000	99.223430 
1688.000000	99.223651 
1687.000000	99.223875 
1686.000000	99.224094 
1685.000000	99.224305 
1684.000000	99.224512 
1683.000000	99.224720 
1682.000000	99.224937 
1681.000000	99.225162 
1680.000000	99.225395 
1679.000000	99.225638 
1678.000000	99.225892 
1677.000000	99.226156 
1676.000000	99.226433 
1675.000000	99.226726 
1674.000000	99.227037 
1673.000000	99.227361 
1672.000000	99.227689 
1671.000000	99.228014 
1670.000000	99.228311 
1669.000000	99.228553 
1668.000000	99.228773 
1667.000000	99.229029 
1666.000000	99.229303 
1665.000000	99.229547 
1664.000000	99.229776 
1663.000000	99.230065 
1662.000000	99.230385 
1661.000000	99.230663 
1660.000000	99.230982 
1659.000000	99.231472 
1658.000000	99.232090 
1657.000000	99.232615 
1656.000000	99.232890 
1655.000000	99.232880 
1654.000000	99.232842 
1653.000000	99.232571 
1652.000000	99.232348 
1651.000000	99.232781 
1650.000000	99.233295 
1649.000000	99.233459 
1648.000000	99.233439 
1647.000000	99.233271 
1646.000000	99.233024 
1645.000000	99.232988 
1644.000000	99.233318 
1643.000000	99.233930 
1642.000000	99.234532 
1641.000000	99.234844 
1640.000000	99.234867 
1639.000000	99.234771 
1638.000000	99.234722 
1637.000000	99.234935 
1636.000000	99.235505 
1635.000000	99.235984 
1634.000000	99.236078 
1633.000000	99.235652 
1632.000000	99.234607 
1631.000000	99.233349 
1630.000000	99.232322 
1629.000000	99.231731 
1628.000000	99.231757 
1627.000000	99.232394 
1626.000000	99.233010 
1625.000000	99.232987 
1624.000000	99.232569 
1623.000000	99.232466 
1622.000000	99.232776 
1621.000000	99.233081 
1620.000000	99.233178 
1619.000000	99.233102 
1618.000000	99.233095 
1617.000000	99.233233 
1616.000000	99.233877 
1615.000000	99.235204 
1614.000000	99.236371 
1613.000000	99.236827 
1612.000000	99.237219 
1611.000000	99.238113 
1610.000000	99.238785 
1609.000000	99.238515 
1608.000000	99.238069 
1607.000000	99.238487 
1606.000000	99.239349 
1605.000000	99.239858 
1604.000000	99.240151 
1603.000000	99.240599 
1602.000000	99.241110 
1601.000000	99.241555 
1600.000000	99.242180 
1599.000000	99.243069 
1598.000000	99.243848 
1597.000000	99.244252 
1596.000000	99.244442 
1595.000000	99.244637 
1594.000000	99.244781 
1593.000000	99.244887 
1592.000000	99.245281 
1591.000000	99.246148 
1590.000000	99.247156 
1589.000000	99.247876 
1588.000000	99.248342 
1587.000000	99.248860 
1586.000000	99.249461 
1585.000000	99.249946 
1584.000000	99.250365 
1583.000000	99.250775 
1582.000000	99.251063 
1581.000000	99.251243 
1580.000000	99.251429 
1579.000000	99.251634 
1578.000000	99.251836 
1577.000000	99.252073 
1576.000000	99.252376 
1575.000000	99.252711 
1574.000000	99.253037 
1573.000000	99.253341 
1572.000000	99.253632 
1571.000000	99.253913 
1570.000000	99.254187 
1569.000000	99.254451 
1568.000000	99.254707 
1567.000000	99.254953 
1566.000000	99.255189 
1565.000000	99.255413 
1564.000000	99.255633 
1563.000000	99.255854 
1562.000000	99.256081 
1561.000000	99.256314 
1560.000000	99.256556 
1559.000000	99.256796 
1558.000000	99.257023 
1557.000000	99.257236 
1556.000000	99.257432 
1555.000000	99.257613 
1554.000000	99.257779 
1553.000000	99.257928 
1552.000000	99.258061 
1551.000000	99.258177 
1550.000000	99.258275 
1549.000000	99.258359 
1548.000000	99.258438 
1547.000000	99.258513 
1546.000000	99.258570 
1545.000000	99.258589 
1544.000000	99.258571 
1543.000000	99.258568 
1542.000000	99.258660 
1541.000000	99.258867 
1540.000000	99.259004 
1539.000000	99.258948 
1538.000000	99.258846 
1537.000000	99.258798 
1536.000000	99.258746 
1535.000000	99.258711 
1534.000000	99.258613 
1533.000000	99.258224 
1532.000000	99.257582 
1531.000000	99.257035 
1530.000000	99.256751 
1529.000000	99.256519 
1528.000000	99.256091 
1527.000000	99.255706 
1526.000000	99.255850 
1525.000000	99.256522 
1524.000000	99.257224 
1523.000000	99.257812 
1522.000000	99.258585 
1521.000000	99.259157 
1520.000000	99.258846 
1519.000000	99.257515 
1518.000000	99.255397 
1517.000000	99.253100 
1516.000000	99.251214 
1515.000000	99.249896 
1514.000000	99.248981 
1513.000000	99.248450 
1512.000000	99.248143 
1511.000000	99.247558 
1510.000000	99.246531 
1509.000000	99.245265 
1508.000000	99.244485 
1507.000000	99.244502 
1506.000000	99.245011 
1505.000000	99.245305 
1504.000000	99.245085 
1503.000000	99.244558 
1502.000000	99.244055 
1501.000000	99.243518 
1500.000000	99.242300 
1499.000000	99.239983 
1498.000000	99.237412 
1497.000000	99.235769 
1496.000000	99.234960 
1495.000000	99.234946 
1494.000000	99.236063 
1493.000000	99.237936 
1492.000000	99.239666 
1491.000000	99.240561 
1490.000000	99.240318 
1489.000000	99.238787 
1488.000000	99.235928 
1487.000000	99.232821 
1486.000000	99.230591 
1485.000000	99.228888 
1484.000000	99.227372 
1483.000000	99.226191 
1482.000000	99.225660 
1481.000000	99.225409 
1480.000000	99.224547 
1479.000000	99.222937 
1478.000000	99.221347 
1477.000000	99.220327 
1476.000000	99.219662 
1475.000000	99.219652 
1474.000000	99.220756 
1473.000000	99.222117 
1472.000000	99.222086 
1471.000000	99.221090 
1470.000000	99.220676 
1469.000000	99.220703 
1468.000000	99.220298 
1467.000000	99.219668 
1466.000000	99.219619 
1465.000000	99.220043 
1464.000000	99.220204 
1463.000000	99.219930 
1462.000000	99.219945 
1461.000000	99.220358 
1460.000000	99.220397 
1459.000000	99.218345 
1458.000000	99.212534 
1457.000000	99.202502 
1456.000000	99.191894 
1455.000000	99.184864 
1454.000000	99.181345 
1453.000000	99.180948 
1452.000000	99.183667 
1451.000000	99.187948 
1450.000000	99.191883 
1449.000000	99.194471 
1448.000000	99.195225 
1447.000000	99.194909 
1446.000000	99.194540 
1445.000000	99.195171 
1444.000000	99.196966 
1443.000000	99.198832 
1442.000000	99.200402 
1441.000000	99.202031 
1440.000000	99.203360 
1439.000000	99.203043 
1438.000000	99.202159 
1437.000000	99.202393 
1436.000000	99.202083 
1435.000000	99.199148 
1434.000000	99.194799 
1433.000000	99.190889 
1432.000000	99.187905 
1431.000000	99.184466 
1430.000000	99.179737 
1429.000000	99.175155 
1428.000000	99.171751 
1427.000000	99.169132 
1426.000000	99.166172 
1425.000000	99.163569 
1424.000000	99.162210 
1423.000000	99.160152 
1422.000000	99.155101 
1421.000000	99.146945 
1420.000000	99.137153 
1419.000000	99.126597 
1418.000000	99.117243 
1417.000000	99.110546 
1416.000000	99.104286 
1415.000000	99.096012 
1414.000000	99.085919 
1413.000000	99.076229 
1412.000000	99.068595 
1411.000000	99.062251 
1410.000000	99.055976 
1409.000000	99.049954 
1408.000000	99.045070 
1407.000000	99.042352 
1406.000000	99.042095 
1405.000000	99.044231 
1404.000000	99.048469 
1403.000000	99.053943 
1402.000000	99.060212 
1401.000000	99.067390 
1400.000000	99.074898 
1399.000000	99.080022 
1398.000000	99.079387 
1397.000000	99.071269 
1396.000000	99.056782 
1395.000000	99.041882 
1394.000000	99.035461 
1393.000000	99.041817 
1392.000000	99.056867 
1391.000000	99.072546 
1390.000000	99.083187 
1389.000000	99.087472 
1388.000000	99.086720 
1387.000000	99.083171 
1386.000000	99.079296 
1385.000000	99.076979 
1384.000000	99.076723 
1383.000000	99.077779 
1382.000000	99.079350 
1381.000000	99.081322 
1380.000000	99.084190 
1379.000000	99.088341 
1378.000000	99.093585 
1377.000000	99.099461 
1376.000000	99.105534 
1375.000000	99.111309 
1374.000000	99.116608 
1373.000000	99.122442 
1372.000000	99.129894 
1371.000000	99.138455 
1370.000000	99.146171 
1369.000000	99.151806 
1368.000000	99.156047 
1367.000000	99.160209 
1366.000000	99.164904 
1365.000000	99.170100 
1364.000000	99.175626 
1363.000000	99.181028 
1362.000000	99.185609 
1361.000000	99.189148 
1360.000000	99.192239 
1359.000000	99.195849 
1358.000000	99.200754 
1357.000000	99.207251 
1356.000000	99.214734 
1355.000000	99.221709 
1354.000000	99.227308 
1353.000000	99.232384 
1352.000000	99.237862 
1351.000000	99.242874 
1350.000000	99.245204 
1349.000000	99.244951 
1348.000000	99.244618 
1347.000000	99.245653 
1346.000000	99.247260 
1345.000000	99.248516 
1344.000000	99.249709 
1343.000000	99.250965 
1342.000000	99.251728 
1341.000000	99.252391 
1340.000000	99.254534 
1339.000000	99.258299 
1338.000000	99.261701 
1337.000000	99.263705 
1336.000000	99.265475 
1335.000000	99.267689 
1334.000000	99.268952 
1333.000000	99.268037 
1332.000000	99.266073 
1331.000000	99.265099 
1330.000000	99.265475 
1329.000000	99.266288 
1328.000000	99.267119 
1327.000000	99.267895 
1326.000000	99.267806 
1325.000000	99.266443 
1324.000000	99.264924 
1323.000000	99.264583 
1322.000000	99.265507 
1321.000000	99.267216 
1320.000000	99.269800 
1319.000000	99.273170 
1318.000000	99.275995 
1317.000000	99.276682 
1316.000000	99.275108 
1315.000000	99.272509 
1314.000000	99.270039 
1313.000000	99.267999 
1312.000000	99.266208 
1311.000000	99.264591 
1310.000000	99.263491 
1309.000000	99.263611 
1308.000000	99.265263 
1307.000000	99.267699 
1306.000000	99.269574 
1305.000000	99.270593 
1304.000000	99.271692 
1303.000000	99.273229 
1302.000000	99.274093 
1301.000000	99.273204 
1300.000000	99.271204 
1299.000000	99.269902 
1298.000000	99.270459 
1297.000000	99.272520 
1296.000000	99.274828 
1295.000000	99.276086 
1294.000000	99.275577 
1293.000000	99.273394 
1292.000000	99.269989 
1291.000000	99.265768 
1290.000000	99.261477 
1289.000000	99.258522 
1288.000000	99.257866 
1287.000000	99.258482 
1286.000000	99.258124 
1285.000000	99.255881 
1284.000000	99.252805 
1283.000000	99.250025 
1282.000000	99.247293 
1281.000000	99.243857 
1280.000000	99.239950 
1279.000000	99.236364 
1278.000000	99.233326 
1277.000000	99.230690 
1276.000000	99.228593 
1275.000000	99.226959 
1274.000000	99.224847 
1273.000000	99.221240 
1272.000000	99.216305 
1271.000000	99.211189 
1270.000000	99.206623 
1269.000000	99.202279 
1268.000000	99.197420 
1267.000000	99.191678 
1266.000000	99.185322 
1265.000000	99.179118 
1264.000000	99.173827 
1263.000000	99.169534 
1262.000000	99.165516 
1261.000000	99.161004 
1260.000000	99.155998 
1259.000000	99.150995 
1258.000000	99.146241 
1257.000000	99.141765 
1256.000000	99.138012 
1255.000000	99.135773 
1254.000000	99.135124 
1253.000000	99.134892 
1252.000000	99.133743 
1251.000000	99.131831 
1250.000000	99.130904 
1249.000000	99.132568 
1248.000000	99.136696 
1247.000000	99.141456 
1246.000000	99.144496 
1245.000000	99.144022 
1244.000000	99.139446 
1243.000000	99.132250 
1242.000000	99.126159 
1241.000000	99.124742 
1240.000000	99.128289 
1239.000000	99.133323 
1238.000000	99.135762 
1237.000000	99.134642 
1236.000000	99.131904 
1235.000000	99.129476 
1234.000000	99.127662 
1233.000000	99.126069 
1232.000000	99.124532 
1231.000000	99.122636 
1230.000000	99.119685 
1229.000000	99.116011 
1228.000000	99.113466 
1227.000000	99.113681 
1226.000000	99.116230 
1225.000000	99.119094 
1224.000000	99.120650 
1223.000000	99.120700 
1222.000000	99.119919 
1221.000000	99.119083 
1220.000000	99.118825 
1219.000000	99.119654 
1218.000000	99.121941 
1217.000000	99.125677 
1216.000000	99.130030 
1215.000000	99.133360 
1214.000000	99.134295 
1213.000000	99.132811 
1212.000000	99.129907 
1211.000000	99.126503 
1210.000000	99.123228 
1209.000000	99.120890 
1208.000000	99.120029 
1207.000000	99.119950 
1206.000000	99.119313 
1205.000000	99.117779 
1204.000000	99.116011 
1203.000000	99.114139 
1202.000000	99.111699 
1201.000000	99.109194 
1200.000000	99.107973 
1199.000000	99.108004 
1198.000000	99.107404 
1197.000000	99.104810 
1196.000000	99.100390 
1195.000000	99.094302 
1194.000000	99.086345 
1193.000000	99.077538 
1192.000000	99.070167 
1191.000000	99.065135 
1190.000000	99.060683 
1189.000000	99.055043 
1188.000000	99.048963 
1187.000000	99.044266 
1186.000000	99.041105 
1185.000000	99.038092 
1184.000000	99.034264 
1183.000000	99.029529 
1182.000000	99.023921 
1181.000000	99.017822 
1180.000000	99.012402 
1179.000000	99.008514 
1178.000000	99.005515 
1177.000000	99.002234 
1176.000000	98.998507 
1175.000000	98.994518 
1174.000000	98.989175 
1173.000000	98.980806 
1172.000000	98.969647 
1171.000000	98.958461 
1170.000000	98.950089 
1169.000000	98.944993 
1168.000000	98.941316 
1167.000000	98.936746 
1166.000000	98.930524 
1165.000000	98.924117 
1164.000000	98.919920 
1163.000000	98.919036 
1162.000000	98.920462 
1161.000000	98.922602 
1160.000000	98.924929 
1159.000000	98.927358 
1158.000000	98.928558 
1157.000000	98.926090 
1156.000000	98.918462 
1155.000000	98.906733 
1154.000000	98.894359 
1153.000000	98.885311 
1152.000000	98.881380 
1151.000000	98.880556 
1150.000000	98.878488 
1149.000000	98.872501 
1148.000000	98.863856 
1147.000000	98.855585 
1146.000000	98.848751 
1145.000000	98.841821 
1144.000000	98.833135 
1143.000000	98.822686 
1142.000000	98.811783 
1141.000000	98.802243 
1140.000000	98.795767 
1139.000000	98.792592 
1138.000000	98.790344 
1137.000000	98.785458 
1136.000000	98.776405 
1135.000000	98.764961 
1134.000000	98.753915 
1133.000000	98.743859 
1132.000000	98.732874 
1131.000000	98.719368 
1130.000000	98.704822 
1129.000000	98.693136 
1128.000000	98.686479 
1127.000000	98.681995 
1126.000000	98.673947 
1125.000000	98.659917 
1124.000000	98.643702 
1123.000000	98.631050 
1122.000000	98.623249 
1121.000000	98.616504 
1120.000000	98.606993 
1119.000000	98.594481 
1118.000000	98.580957 
1117.000000	98.567810 
1116.000000	98.555223 
1115.000000	98.543031 
1114.000000	98.531021 
1113.000000	98.518843 
1112.000000	98.506143 
1111.000000	98.492457 
1110.000000	98.476870 
1109.000000	98.458857 
1108.000000	98.439731 
1107.000000	98.422072 
1106.000000	98.407174 
1105.000000	98.393806 
1104.000000	98.379847 
1103.000000	98.364844 
1102.000000	98.350553 
1101.000000	98.339023 
1100.000000	98.330117 
1099.000000	98.321565 
1098.000000	98.311413 
1097.000000	98.300106 
1096.000000	98.289375 
1095.000000	98.279136 
1094.000000	98.266735 
1093.000000	98.249556 
1092.000000	98.227239 
1091.000000	98.201034 
1090.000000	98.172505 
1089.000000	98.143672 
1088.000000	98.116957 
1087.000000	98.093400 
1086.000000	98.071540 
1085.000000	98.049422 
1084.000000	98.027100 
1083.000000	98.005877 
1082.000000	97.985801 
1081.000000	97.965579 
1080.000000	97.944659 
1079.000000	97.923825 
1078.000000	97.904011 
1077.000000	97.886044 
1076.000000	97.871396 
1075.000000	97.861643 
1074.000000	97.857087 
1073.000000	97.856653 
1072.000000	97.857984 
1071.000000	97.856006 
1070.000000	97.843150 
1069.000000	97.814969 
1068.000000	97.776895 
1067.000000	97.743197 
1066.000000	97.726534 
1065.000000	97.728781 
1064.000000	97.741474 
1063.000000	97.752771 
1062.000000	97.753909 
1061.000000	97.741447 
1060.000000	97.717186 
1059.000000	97.687648 
1058.000000	97.661728 
1057.000000	97.645872 
1056.000000	97.640148 
1055.000000	97.638940 
1054.000000	97.636200 
1053.000000	97.630521 
1052.000000	97.624850 
1051.000000	97.621782 
1050.000000	97.620552 
1049.000000	97.618663 
1048.000000	97.614739 
1047.000000	97.609356 
1046.000000	97.604715 
1045.000000	97.603594 
1044.000000	97.606670 
1043.000000	97.610677 
1042.000000	97.611492 
1041.000000	97.609643 
1040.000000	97.610371 
1039.000000	97.617622 
1038.000000	97.630661 
1037.000000	97.647204 
1036.000000	97.666545 
1035.000000	97.687953 
1034.000000	97.709106 
1033.000000	97.727937 
1032.000000	97.743073 
1031.000000	97.751166 
1030.000000	97.748488 
1029.000000	97.738580 
1028.000000	97.734205 
1027.000000	97.746119 
1026.000000	97.771617 
1025.000000	97.798134 
1024.000000	97.816818 
1023.000000	97.828065 
1022.000000	97.835601 
1021.000000	97.841352 
1020.000000	97.846821 
1019.000000	97.854335 
1018.000000	97.864393 
1017.000000	97.874687 
1016.000000	97.883500 
1015.000000	97.891957 
1014.000000	97.901902 
1013.000000	97.913347 
1012.000000	97.924809 
1011.000000	97.934815 
1010.000000	97.942859 
1009.000000	97.950171 
1008.000000	97.959377 
1007.000000	97.972045 
1006.000000	97.986823 
1005.000000	98.001207 
1004.000000	98.014553 
1003.000000	98.027959 
1002.000000	98.041886 
1001.000000	98.055574 
1000.000000	98.068378 
999.000000	 98.080158 
998.000000	 98.090607 
997.000000	 98.099521 
996.000000	 98.107945 
995.000000	 98.118018 
994.000000	 98.131006 
993.000000	 98.145875 
992.000000	 98.160313 
991.000000	 98.172823 
990.000000	 98.183173 
989.000000	 98.191625 
988.000000	 98.198843 
987.000000	 98.206129 
986.000000	 98.214855 
985.000000	 98.225837 
984.000000	 98.238957 
983.000000	 98.252766 
982.000000	 98.265363 
981.000000	 98.276291 
980.000000	 98.287083 
979.000000	 98.299327 
978.000000	 98.313071 
977.000000	 98.328202 
976.000000	 98.345861 
975.000000	 98.366325 
974.000000	 98.386599 
973.000000	 98.402952 
972.000000	 98.415476 
971.000000	 98.427707 
970.000000	 98.442110 
969.000000	 98.458391 
968.000000	 98.475949 
967.000000	 98.494886 
966.000000	 98.514004 
965.000000	 98.530506 
964.000000	 98.542880 
963.000000	 98.552551 
962.000000	 98.562249 
961.000000	 98.574039 
960.000000	 98.588755 
959.000000	 98.605381 
958.000000	 98.620867 
957.000000	 98.632600 
956.000000	 98.641422 
955.000000	 98.650572 
954.000000	 98.661542 
953.000000	 98.672745 
952.000000	 98.682355 
951.000000	 98.690301 
950.000000	 98.697091 
949.000000	 98.702649 
948.000000	 98.706964 
947.000000	 98.710303 
946.000000	 98.712383 
945.000000	 98.712839 
944.000000	 98.712896 
943.000000	 98.715194 
942.000000	 98.721517 
941.000000	 98.731432 
940.000000	 98.742672 
939.000000	 98.751755 
938.000000	 98.755476 
937.000000	 98.754044 
936.000000	 98.752362 
935.000000	 98.755777 
934.000000	 98.764353 
933.000000	 98.773520 
932.000000	 98.780205 
931.000000	 98.785690 
930.000000	 98.792094 
929.000000	 98.798733 
928.000000	 98.803195 
927.000000	 98.804255 
926.000000	 98.802741 
925.000000	 98.800953 
924.000000	 98.801817 
923.000000	 98.807042 
922.000000	 98.815202 
921.000000	 98.822700 
920.000000	 98.827167 
919.000000	 98.828790 
918.000000	 98.828384 
917.000000	 98.826061 
916.000000	 98.822436 
915.000000	 98.819430 
914.000000	 98.818629 
913.000000	 98.819879 
912.000000	 98.822384 
911.000000	 98.826235 
910.000000	 98.831902 
909.000000	 98.838967 
908.000000	 98.846288 
907.000000	 98.853061 
906.000000	 98.859099 
905.000000	 98.864379 
904.000000	 98.868846 
903.000000	 98.872770 
902.000000	 98.877179 
901.000000	 98.883588 
900.000000	 98.892749 
899.000000	 98.903344 
898.000000	 98.912453 
897.000000	 98.917969 
896.000000	 98.920112 
895.000000	 98.920531 
894.000000	 98.920872 
893.000000	 98.922713 
892.000000	 98.927830 
891.000000	 98.936991 
890.000000	 98.948822 
889.000000	 98.960906 
888.000000	 98.971848 
887.000000	 98.981387 
886.000000	 98.989196 
885.000000	 98.995100 
884.000000	 99.000179 
883.000000	 99.005906 
882.000000	 99.011969 
881.000000	 99.016603 
880.000000	 99.019639 
879.000000	 99.023655 
878.000000	 99.031167 
877.000000	 99.041874 
876.000000	 99.053424 
875.000000	 99.063726 
874.000000	 99.071652 
873.000000	 99.076661 
872.000000	 99.079179 
871.000000	 99.080860 
870.000000	 99.083503 
869.000000	 99.088175 
868.000000	 99.095676 
867.000000	 99.106482 
866.000000	 99.119092 
865.000000	 99.129766 
864.000000	 99.135934 
863.000000	 99.139361 
862.000000	 99.144289 
861.000000	 99.152286 
860.000000	 99.160783 
859.000000	 99.167241 
858.000000	 99.172907 
857.000000	 99.181047 
856.000000	 99.192569 
855.000000	 99.205100 
854.000000	 99.215903 
853.000000	 99.223831 
852.000000	 99.228550 
851.000000	 99.230314 
850.000000	 99.231504 
849.000000	 99.235980 
848.000000	 99.244741 
847.000000	 99.253562 
846.000000	 99.257263 
845.000000	 99.255663 
844.000000	 99.253278 
843.000000	 99.253922 
842.000000	 99.258044 
841.000000	 99.264659 
840.000000	 99.272207 
839.000000	 99.277113 
838.000000	 99.275573 
837.000000	 99.268579 
836.000000	 99.262072 
835.000000	 99.259986 
834.000000	 99.259937 
833.000000	 99.258162 
832.000000	 99.255380 
831.000000	 99.254016 
830.000000	 99.252254 
829.000000	 99.246145 
828.000000	 99.237383 
827.000000	 99.234065 
826.000000	 99.241861 
825.000000	 99.257218 
824.000000	 99.270723 
823.000000	 99.275570 
822.000000	 99.272397 
821.000000	 99.267665 
820.000000	 99.267464 
819.000000	 99.271956 
818.000000	 99.276455 
817.000000	 99.278061 
816.000000	 99.278696 
815.000000	 99.280101 
814.000000	 99.278951 
813.000000	 99.270670 
812.000000	 99.256023 
811.000000	 99.239399 
810.000000	 99.221141 
809.000000	 99.196418 
808.000000	 99.162790 
807.000000	 99.125039 
806.000000	 99.090414 
805.000000	 99.061349 
804.000000	 99.035084 
803.000000	 99.008989 
802.000000	 98.984312 
801.000000	 98.964853 
800.000000	 98.952760 
799.000000	 98.946190 
798.000000	 98.941932 
797.000000	 98.939945 
796.000000	 98.942894 
795.000000	 98.950629 
794.000000	 98.958442 
793.000000	 98.962899 
792.000000	 98.966392 
791.000000	 98.972881 
790.000000	 98.981643 
789.000000	 98.988396 
788.000000	 98.990257 
787.000000	 98.986175 
786.000000	 98.974849 
785.000000	 98.956453 
784.000000	 98.935124 
783.000000	 98.915925 
782.000000	 98.900244 
781.000000	 98.887442 
780.000000	 98.879233 
779.000000	 98.878220 
778.000000	 98.883325 
777.000000	 98.890917 
776.000000	 98.899745 
775.000000	 98.910781 
774.000000	 98.922960 
773.000000	 98.933447 
772.000000	 98.942226 
771.000000	 98.952742 
770.000000	 98.967771 
769.000000	 98.987005 
768.000000	 99.007760 
767.000000	 99.025707 
766.000000	 99.036911 
765.000000	 99.042456 
764.000000	 99.049081 
763.000000	 99.061291 
762.000000	 99.074372 
761.000000	 99.079695 
760.000000	 99.075825 
759.000000	 99.070065 
758.000000	 99.069620 
757.000000	 99.075058 
756.000000	 99.082267 
755.000000	 99.086731 
754.000000	 99.085961 
753.000000	 99.081615 
752.000000	 99.079827 
751.000000	 99.086419 
750.000000	 99.101200 
749.000000	 99.118648 
748.000000	 99.133569 
747.000000	 99.143949 
746.000000	 99.149451 
745.000000	 99.150893 
744.000000	 99.151315 
743.000000	 99.154247 
742.000000	 99.160432 
741.000000	 99.168451 
740.000000	 99.177997 
739.000000	 99.189722 
738.000000	 99.202209 
737.000000	 99.211995 
736.000000	 99.216889 
735.000000	 99.217399 
734.000000	 99.215468 
733.000000	 99.213612 
732.000000	 99.214734 
731.000000	 99.220364 
730.000000	 99.228509 
729.000000	 99.235253 
728.000000	 99.239111 
727.000000	 99.241840 
726.000000	 99.244765 
725.000000	 99.246525 
724.000000	 99.245535 
723.000000	 99.242591 
722.000000	 99.240011 
721.000000	 99.239816 
720.000000	 99.243308 
719.000000	 99.250416 
718.000000	 99.258666 
717.000000	 99.264678 
716.000000	 99.267244 
715.000000	 99.267415 
714.000000	 99.266312 
713.000000	 99.264635 
712.000000	 99.264077 
711.000000	 99.266411 
710.000000	 99.270571 
709.000000	 99.273333 
708.000000	 99.273164 
707.000000	 99.271122 
706.000000	 99.267927 
705.000000	 99.263201 
704.000000	 99.258155 
703.000000	 99.255961 
702.000000	 99.258200 
701.000000	 99.262506 
700.000000	 99.264790 
699.000000	 99.262828 
698.000000	 99.257474 
697.000000	 99.251659 
696.000000	 99.248337 
695.000000	 99.248390 
694.000000	 99.250220 
693.000000	 99.251914 
692.000000	 99.253550 
691.000000	 99.256211 
690.000000	 99.259684 
689.000000	 99.262810 
688.000000	 99.265567 
687.000000	 99.268826 
686.000000	 99.272194 
685.000000	 99.274065 
684.000000	 99.273914 
683.000000	 99.272904 
682.000000	 99.272265 
681.000000	 99.272140 
680.000000	 99.272204 
679.000000	 99.272219 
678.000000	 99.271847 
677.000000	 99.271022 
676.000000	 99.270456 
675.000000	 99.270783 
674.000000	 99.271572 
673.000000	 99.271790 
672.000000	 99.271049 
671.000000	 99.269783 
670.000000	 99.268741 
669.000000	 99.268490 
668.000000	 99.269205 
667.000000	 99.270498 
666.000000	 99.271574 
665.000000	 99.271999 
664.000000	 99.271940 
663.000000	 99.272193 
662.000000	 99.273384 
661.000000	 99.274791 
660.000000	 99.275022 
659.000000	 99.273749 
658.000000	 99.271849 
657.000000	 99.270358 
656.000000	 99.269553 
655.000000	 99.269342 
654.000000	 99.269457 
653.000000	 99.269499 
652.000000	 99.269336 
651.000000	 99.269307 
650.000000	 99.269667 

