4000.000000	100.001977 
3999.000000	100.001399 
3998.000000	100.000744 
3997.000000	100.000617 
3996.000000	100.001100 
3995.000000	100.001790 
3994.000000	100.002236 
3993.000000	100.002294 
3992.000000	100.002086 
3991.000000	100.001762 
3990.000000	100.001329 
3989.000000	100.000681 
3988.000000	99.999781  
3987.000000	99.998834  
3986.000000	99.998199  
3985.000000	99.998116  
3984.000000	99.998553  
3983.000000	99.999341  
3982.000000	100.000387 
3981.000000	100.001634 
3980.000000	100.002897 
3979.000000	100.003858 
3978.000000	100.004238 
3977.000000	100.003959 
3976.000000	100.003142 
3975.000000	100.002012 
3974.000000	100.000759 
3973.000000	99.999503  
3972.000000	99.998413  
3971.000000	99.997786  
3970.000000	99.997896  
3969.000000	99.998739  
3968.000000	99.999954  
3967.000000	100.001036 
3966.000000	100.001642 
3965.000000	100.001680 
3964.000000	100.001275 
3963.000000	100.000765 
3962.000000	100.000530 
3961.000000	100.000669 
3960.000000	100.000885 
3959.000000	100.000756 
3958.000000	100.000150 
3957.000000	99.999332  
3956.000000	99.998712  
3955.000000	99.998487  
3954.000000	99.998554  
3953.000000	99.998657  
3952.000000	99.998608  
3951.000000	99.998405  
3950.000000	99.998173  
3949.000000	99.998024  
3948.000000	99.997973  
3947.000000	99.997975  
3946.000000	99.997994  
3945.000000	99.997997  
3944.000000	99.997909  
3943.000000	99.997638  
3942.000000	99.997148  
3941.000000	99.996509  
3940.000000	99.995918  
3939.000000	99.995582  
3938.000000	99.995553  
3937.000000	99.995678  
3936.000000	99.995736  
3935.000000	99.995672  
3934.000000	99.995659  
3933.000000	99.995896  
3932.000000	99.996358  
3931.000000	99.996791  
3930.000000	99.996945  
3929.000000	99.996667  
3928.000000	99.995859  
3927.000000	99.994637  
3926.000000	99.993567  
3925.000000	99.993410  
3924.000000	99.994365  
3923.000000	99.995647  
3922.000000	99.996186  
3921.000000	99.995604  
3920.000000	99.994365  
3919.000000	99.993247  
3918.000000	99.992681  
3917.000000	99.992543  
3916.000000	99.992401  
3915.000000	99.991959  
3914.000000	99.991303  
3913.000000	99.990751  
3912.000000	99.990515  
3911.000000	99.990557  
3910.000000	99.990791  
3909.000000	99.991343  
3908.000000	99.992343  
3907.000000	99.993768  
3906.000000	99.995545  
3905.000000	99.997818  
3904.000000	100.000656 
3903.000000	100.003236 
3902.000000	100.004136 
3901.000000	100.002806 
3900.000000	100.000108 
3899.000000	99.997387  
3898.000000	99.995123  
3897.000000	99.992970  
3896.000000	99.990833  
3895.000000	99.989179  
3894.000000	99.988532  
3893.000000	99.989154  
3892.000000	99.991107  
3891.000000	99.994186  
3890.000000	99.997504  
3889.000000	100.000009 
3888.000000	100.001105 
3887.000000	100.000724 
3886.000000	99.999451  
3885.000000	99.998206  
3884.000000	99.997352  
3883.000000	99.996663  
3882.000000	99.995901  
3881.000000	99.995177  
3880.000000	99.994795  
3879.000000	99.994789  
3878.000000	99.994847  
3877.000000	99.994715  
3876.000000	99.994316  
3875.000000	99.993966  
3874.000000	99.994165  
3873.000000	99.994789  
3872.000000	99.995010  
3871.000000	99.994438  
3870.000000	99.993862  
3869.000000	99.994179  
3868.000000	99.995186  
3867.000000	99.996112  
3866.000000	99.996379  
3865.000000	99.995788  
3864.000000	99.994639  
3863.000000	99.993553  
3862.000000	99.992996  
3861.000000	99.992841  
3860.000000	99.992456  
3859.000000	99.991438  
3858.000000	99.990132  
3857.000000	99.989405  
3856.000000	99.989859  
3855.000000	99.991255  
3854.000000	99.993145  
3853.000000	99.995221  
3852.000000	99.996555  
3851.000000	99.996524  
3850.000000	99.995713  
3849.000000	99.994829  
3848.000000	99.994110  
3847.000000	99.993446  
3846.000000	99.992795  
3845.000000	99.992357  
3844.000000	99.992367  
3843.000000	99.992768  
3842.000000	99.993262  
3841.000000	99.993677  
3840.000000	99.994255  
3839.000000	99.995494  
3838.000000	99.997413  
3837.000000	99.999197  
3836.000000	99.999836  
3835.000000	99.998950  
3834.000000	99.996978  
3833.000000	99.994802  
3832.000000	99.993179  
3831.000000	99.992261  
3830.000000	99.991553  
3829.000000	99.990463  
3828.000000	99.988967  
3827.000000	99.987804  
3826.000000	99.987909  
3825.000000	99.989519  
3824.000000	99.991867  
3823.000000	99.993501  
3822.000000	99.993627  
3821.000000	99.993289  
3820.000000	99.993694  
3819.000000	99.994372  
3818.000000	99.994388  
3817.000000	99.993407  
3816.000000	99.991845  
3815.000000	99.990226  
3814.000000	99.988518  
3813.000000	99.986611  
3812.000000	99.984744  
3811.000000	99.983195  
3810.000000	99.982108  
3809.000000	99.981577  
3808.000000	99.981894  
3807.000000	99.983369  
3806.000000	99.985617  
3805.000000	99.987428  
3804.000000	99.987806  
3803.000000	99.986479  
3802.000000	99.984286  
3801.000000	99.982764  
3800.000000	99.981968  
3799.000000	99.980741  
3798.000000	99.978645  
3797.000000	99.976224  
3796.000000	99.974394  
3795.000000	99.973675  
3794.000000	99.974073  
3793.000000	99.975300  
3792.000000	99.976800  
3791.000000	99.977811  
3790.000000	99.977859  
3789.000000	99.977149  
3788.000000	99.976374  
3787.000000	99.976244  
3786.000000	99.977226  
3785.000000	99.979435  
3784.000000	99.982493  
3783.000000	99.985454  
3782.000000	99.987177  
3781.000000	99.986934  
3780.000000	99.984924  
3779.000000	99.982255  
3778.000000	99.979951  
3777.000000	99.978292  
3776.000000	99.977238  
3775.000000	99.976805  
3774.000000	99.976980  
3773.000000	99.977513  
3772.000000	99.978002  
3771.000000	99.978372  
3770.000000	99.979169  
3769.000000	99.980867  
3768.000000	99.982948  
3767.000000	99.984450  
3766.000000	99.984825  
3765.000000	99.984227  
3764.000000	99.983318  
3763.000000	99.982921  
3762.000000	99.983722  
3761.000000	99.985836  
3760.000000	99.988547  
3759.000000	99.990674  
3758.000000	99.991423  
3757.000000	99.991072  
3756.000000	99.990715  
3755.000000	99.991593  
3754.000000	99.994569  
3753.000000	99.999400  
3752.000000	100.004131 
3751.000000	100.006490 
3750.000000	100.006170 
3749.000000	100.004772 
3748.000000	100.003572 
3747.000000	100.002254 
3746.000000	99.999592  
3745.000000	99.996014  
3744.000000	99.993599  
3743.000000	99.992105  
3742.000000	99.990332  
3741.000000	99.989282  
3740.000000	99.990080  
3739.000000	99.992242  
3738.000000	99.993920  
3737.000000	99.994002  
3736.000000	99.993243  
3735.000000	99.992528  
3734.000000	99.991274  
3733.000000	99.988963  
3732.000000	99.986647  
3731.000000	99.985316  
3730.000000	99.984469  
3729.000000	99.983116  
3728.000000	99.981064  
3727.000000	99.979245  
3726.000000	99.978725  
3725.000000	99.979127  
3724.000000	99.978793  
3723.000000	99.976490  
3722.000000	99.972723  
3721.000000	99.969090  
3720.000000	99.966864  
3719.000000	99.966182  
3718.000000	99.965971  
3717.000000	99.964848  
3716.000000	99.961815  
3715.000000	99.956561  
3714.000000	99.949599  
3713.000000	99.942278  
3712.000000	99.936874  
3711.000000	99.935047  
3710.000000	99.935741  
3709.000000	99.936038  
3708.000000	99.933762  
3707.000000	99.928735  
3706.000000	99.922104  
3705.000000	99.915167  
3704.000000	99.908690  
3703.000000	99.903067  
3702.000000	99.898880  
3701.000000	99.896427  
3700.000000	99.894741  
3699.000000	99.892036  
3698.000000	99.887178  
3697.000000	99.880643  
3696.000000	99.874214  
3695.000000	99.869535  
3694.000000	99.866871  
3693.000000	99.865088  
3692.000000	99.862800  
3691.000000	99.859742  
3690.000000	99.857216  
3689.000000	99.856298  
3688.000000	99.855710  
3687.000000	99.853368  
3686.000000	99.849242  
3685.000000	99.844914  
3684.000000	99.841594  
3683.000000	99.839160  
3682.000000	99.836691  
3681.000000	99.833745  
3680.000000	99.830451  
3679.000000	99.826313  
3678.000000	99.820064  
3677.000000	99.811959  
3676.000000	99.807012  
3675.000000	99.810420  
3674.000000	99.819202  
3673.000000	99.826176  
3672.000000	99.828389  
3671.000000	99.826962  
3670.000000	99.825072  
3669.000000	99.824357  
3668.000000	99.822720  
3667.000000	99.818147  
3666.000000	99.811429  
3665.000000	99.804999  
3664.000000	99.801071  
3663.000000	99.800357  
3662.000000	99.801968  
3661.000000	99.804658  
3660.000000	99.807942  
3659.000000	99.812024  
3658.000000	99.817001  
3657.000000	99.822748  
3656.000000	99.829374  
3655.000000	99.836853  
3654.000000	99.845114  
3653.000000	99.853908  
3652.000000	99.861852  
3651.000000	99.866128  
3650.000000	99.864929  
3649.000000	99.860021  
3648.000000	99.855354  
3647.000000	99.853528  
3646.000000	99.854454  
3645.000000	99.856759  
3644.000000	99.859260  
3643.000000	99.861455  
3642.000000	99.863111  
3641.000000	99.864350  
3640.000000	99.865982  
3639.000000	99.869542  
3638.000000	99.876072  
3637.000000	99.884557  
3636.000000	99.892293  
3635.000000	99.897207  
3634.000000	99.899811  
3633.000000	99.902317  
3632.000000	99.906129  
3631.000000	99.910324  
3630.000000	99.912356  
3629.000000	99.911272  
3628.000000	99.908337  
3627.000000	99.904578  
3626.000000	99.901255  
3625.000000	99.899575  
3624.000000	99.899447  
3623.000000	99.899931  
3622.000000	99.900416  
3621.000000	99.900998  
3620.000000	99.902321  
3619.000000	99.905130  
3618.000000	99.909497  
3617.000000	99.914660  
3616.000000	99.919640  
3615.000000	99.923383  
3614.000000	99.925213  
3613.000000	99.925259  
3612.000000	99.923946  
3611.000000	99.921524  
3610.000000	99.918552  
3609.000000	99.916266  
3608.000000	99.915870  
3607.000000	99.917109  
3606.000000	99.918340  
3605.000000	99.918399  
3604.000000	99.917458  
3603.000000	99.916440  
3602.000000	99.916329  
3601.000000	99.917743  
3600.000000	99.920773  
3599.000000	99.924800  
3598.000000	99.928687  
3597.000000	99.931303  
3596.000000	99.932085  
3595.000000	99.931358  
3594.000000	99.930448  
3593.000000	99.930947  
3592.000000	99.933748  
3591.000000	99.938458  
3590.000000	99.943223  
3589.000000	99.945694  
3588.000000	99.944961  
3587.000000	99.942212  
3586.000000	99.939002  
3585.000000	99.936078  
3584.000000	99.933753  
3583.000000	99.932119  
3582.000000	99.930774  
3581.000000	99.929085  
3580.000000	99.926794  
3579.000000	99.924170  
3578.000000	99.921730  
3577.000000	99.920000  
3576.000000	99.919588  
3575.000000	99.920916  
3574.000000	99.923732  
3573.000000	99.927106  
3572.000000	99.930061  
3571.000000	99.932105  
3570.000000	99.932961  
3569.000000	99.932214  
3568.000000	99.929884  
3567.000000	99.927243  
3566.000000	99.925874  
3565.000000	99.926055  
3564.000000	99.926998  
3563.000000	99.927838  
3562.000000	99.928179  
3561.000000	99.928073  
3560.000000	99.927658  
3559.000000	99.926931  
3558.000000	99.925876  
3557.000000	99.924731  
3556.000000	99.923923  
3555.000000	99.923699  
3554.000000	99.923874  
3553.000000	99.924054  
3552.000000	99.923983  
3551.000000	99.923698  
3550.000000	99.923364  
3549.000000	99.923030  
3548.000000	99.922577  
3547.000000	99.921968  
3546.000000	99.921398  
3545.000000	99.921084  
3544.000000	99.921012  
3543.000000	99.920998  
3542.000000	99.920870  
3541.000000	99.920606  
3540.000000	99.920315  
3539.000000	99.920100  
3538.000000	99.919948  
3537.000000	99.919787  
3536.000000	99.919578  
3535.000000	99.919338  
3534.000000	99.919089  
3533.000000	99.918838  
3532.000000	99.918585  
3531.000000	99.918334  
3530.000000	99.918089  
3529.000000	99.917857  
3528.000000	99.917640  
3527.000000	99.917437  
3526.000000	99.917244  
3525.000000	99.917057  
3524.000000	99.916869  
3523.000000	99.916678  
3522.000000	99.916483  
3521.000000	99.916289  
3520.000000	99.916098  
3519.000000	99.915912  
3518.000000	99.915732  
3517.000000	99.915561  
3516.000000	99.915399  
3515.000000	99.915246  
3514.000000	99.915097  
3513.000000	99.914951  
3512.000000	99.914804  
3511.000000	99.914654  
3510.000000	99.914498  
3509.000000	99.914339  
3508.000000	99.914178  
3507.000000	99.914014  
3506.000000	99.913846  
3505.000000	99.913675  
3504.000000	99.913502  
3503.000000	99.913332  
3502.000000	99.913171  
3501.000000	99.913021  
3500.000000	99.912878  
3499.000000	99.912731  
3498.000000	99.912569  
3497.000000	99.912386  
3496.000000	99.912184  
3495.000000	99.911971  
3494.000000	99.911753  
3493.000000	99.911534  
3492.000000	99.911310  
3491.000000	99.911081  
3490.000000	99.910846  
3489.000000	99.910607  
3488.000000	99.910365  
3487.000000	99.910118  
3486.000000	99.909866  
3485.000000	99.909603  
3484.000000	99.909325  
3483.000000	99.909033  
3482.000000	99.908744  
3481.000000	99.908465  
3480.000000	99.908182  
3479.000000	99.907881  
3478.000000	99.907585  
3477.000000	99.907344  
3476.000000	99.907150  
3475.000000	99.906886  
3474.000000	99.906442  
3473.000000	99.905882  
3472.000000	99.905441  
3471.000000	99.905306  
3470.000000	99.905417  
3469.000000	99.905508  
3468.000000	99.905366  
3467.000000	99.904969  
3466.000000	99.904398  
3465.000000	99.903696  
3464.000000	99.902878  
3463.000000	99.902012  
3462.000000	99.901161  
3461.000000	99.900274  
3460.000000	99.899240  
3459.000000	99.898124  
3458.000000	99.897248  
3457.000000	99.896872  
3456.000000	99.896884  
3455.000000	99.896899  
3454.000000	99.896697  
3453.000000	99.896477  
3452.000000	99.896556  
3451.000000	99.896925  
3450.000000	99.897313  
3449.000000	99.897577  
3448.000000	99.897756  
3447.000000	99.897772  
3446.000000	99.897390  
3445.000000	99.896607  
3444.000000	99.895837  
3443.000000	99.895474  
3442.000000	99.895460  
3441.000000	99.895456  
3440.000000	99.895338  
3439.000000	99.895274  
3438.000000	99.895339  
3437.000000	99.895298  
3436.000000	99.894893  
3435.000000	99.894191  
3434.000000	99.893577  
3433.000000	99.893380  
3432.000000	99.893593  
3431.000000	99.893890  
3430.000000	99.893879  
3429.000000	99.893345  
3428.000000	99.892330  
3427.000000	99.891107  
3426.000000	99.890076  
3425.000000	99.889589  
3424.000000	99.889755  
3423.000000	99.890386  
3422.000000	99.891080  
3421.000000	99.891479  
3420.000000	99.891462  
3419.000000	99.891133  
3418.000000	99.890727  
3417.000000	99.890433  
3416.000000	99.890232  
3415.000000	99.889913  
3414.000000	99.889310  
3413.000000	99.888542  
3412.000000	99.887940  
3411.000000	99.887745  
3410.000000	99.887947  
3409.000000	99.888418  
3408.000000	99.889021  
3407.000000	99.889539  
3406.000000	99.889669  
3405.000000	99.889272  
3404.000000	99.888623  
3403.000000	99.888274  
3402.000000	99.888565  
3401.000000	99.889309  
3400.000000	99.889963  
3399.000000	99.890140  
3398.000000	99.889957  
3397.000000	99.889874  
3396.000000	99.890199  
3395.000000	99.890794  
3394.000000	99.891302  
3393.000000	99.891554  
3392.000000	99.891619  
3391.000000	99.891520  
3390.000000	99.891121  
3389.000000	99.890350  
3388.000000	99.889359  
3387.000000	99.888375  
3386.000000	99.887498  
3385.000000	99.886745  
3384.000000	99.886206  
3383.000000	99.886019  
3382.000000	99.886175  
3381.000000	99.886381  
3380.000000	99.886213  
3379.000000	99.885474  
3378.000000	99.884500  
3377.000000	99.884050  
3376.000000	99.884700  
3375.000000	99.886323  
3374.000000	99.888144  
3373.000000	99.889343  
3372.000000	99.889670  
3371.000000	99.889446  
3370.000000	99.889180  
3369.000000	99.889220  
3368.000000	99.889605  
3367.000000	99.890081  
3366.000000	99.890244  
3365.000000	99.889838  
3364.000000	99.889002  
3363.000000	99.888218  
3362.000000	99.887917  
3361.000000	99.888112  
3360.000000	99.888419  
3359.000000	99.888437  
3358.000000	99.888110  
3357.000000	99.887741  
3356.000000	99.887666  
3355.000000	99.887943  
3354.000000	99.888353  
3353.000000	99.888641  
3352.000000	99.888729  
3351.000000	99.888708  
3350.000000	99.888740  
3349.000000	99.888976  
3348.000000	99.889482  
3347.000000	99.890159  
3346.000000	99.890751  
3345.000000	99.891037  
3344.000000	99.891012  
3343.000000	99.890852  
3342.000000	99.890717  
3341.000000	99.890637  
3340.000000	99.890580  
3339.000000	99.890544  
3338.000000	99.890521  
3337.000000	99.890460  
3336.000000	99.890336  
3335.000000	99.890221  
3334.000000	99.890241  
3333.000000	99.890435  
3332.000000	99.890715  
3331.000000	99.890937  
3330.000000	99.891041  
3329.000000	99.891083  
3328.000000	99.891158  
3327.000000	99.891300  
3326.000000	99.891461  
3325.000000	99.891578  
3324.000000	99.891641  
3323.000000	99.891700  
3322.000000	99.891808  
3321.000000	99.891955  
3320.000000	99.892069  
3319.000000	99.892089  
3318.000000	99.892023  
3317.000000	99.891949  
3316.000000	99.891951  
3315.000000	99.892056  
3314.000000	99.892220  
3313.000000	99.892373  
3312.000000	99.892486  
3311.000000	99.892569  
3310.000000	99.892645  
3309.000000	99.892725  
3308.000000	99.892811  
3307.000000	99.892897  
3306.000000	99.892974  
3305.000000	99.893029  
3304.000000	99.893048  
3303.000000	99.893026  
3302.000000	99.892977  
3301.000000	99.892950  
3300.000000	99.893012  
3299.000000	99.893205  
3298.000000	99.893493  
3297.000000	99.893768  
3296.000000	99.893940  
3295.000000	99.894005  
3294.000000	99.894063  
3293.000000	99.894234  
3292.000000	99.894523  
3291.000000	99.894784  
3290.000000	99.894869  
3289.000000	99.894814  
3288.000000	99.894792  
3287.000000	99.894883  
3286.000000	99.894972  
3285.000000	99.894910  
3284.000000	99.894709  
3283.000000	99.894518  
3282.000000	99.894455  
3281.000000	99.894483  
3280.000000	99.894438  
3279.000000	99.894189  
3278.000000	99.893814  
3277.000000	99.893619  
3276.000000	99.893881  
3275.000000	99.894549  
3274.000000	99.895259  
3273.000000	99.895614  
3272.000000	99.895419  
3271.000000	99.894701  
3270.000000	99.893673  
3269.000000	99.892727  
3268.000000	99.892270  
3267.000000	99.892470  
3266.000000	99.893194  
3265.000000	99.894161  
3264.000000	99.895136  
3263.000000	99.896004  
3262.000000	99.896736  
3261.000000	99.897334  
3260.000000	99.897728  
3259.000000	99.897733  
3258.000000	99.897226  
3257.000000	99.896370  
3256.000000	99.895554  
3255.000000	99.895058  
3254.000000	99.894876  
3253.000000	99.894877  
3252.000000	99.894989  
3251.000000	99.895173  
3250.000000	99.895340  
3249.000000	99.895415  
3248.000000	99.895426  
3247.000000	99.895424  
3246.000000	99.895372  
3245.000000	99.895170  
3244.000000	99.894826  
3243.000000	99.894531  
3242.000000	99.894552  
3241.000000	99.895042  
3240.000000	99.895901  
3239.000000	99.896731  
3238.000000	99.897068  
3237.000000	99.896774  
3236.000000	99.896143  
3235.000000	99.895678  
3234.000000	99.895607  
3233.000000	99.895779  
3232.000000	99.895966  
3231.000000	99.896122  
3230.000000	99.896318  
3229.000000	99.896534  
3228.000000	99.896623  
3227.000000	99.896459  
3226.000000	99.896028  
3225.000000	99.895445  
3224.000000	99.894929  
3223.000000	99.894709  
3222.000000	99.894871  
3221.000000	99.895306  
3220.000000	99.895840  
3219.000000	99.896374  
3218.000000	99.896841  
3217.000000	99.897129  
3216.000000	99.897152  
3215.000000	99.897004  
3214.000000	99.896944  
3213.000000	99.897167  
3212.000000	99.897624  
3211.000000	99.898127  
3210.000000	99.898612  
3209.000000	99.899171  
3208.000000	99.899824  
3207.000000	99.900375  
3206.000000	99.900560  
3205.000000	99.900366  
3204.000000	99.900126  
3203.000000	99.900255  
3202.000000	99.900874  
3201.000000	99.901743  
3200.000000	99.902527  
3199.000000	99.903054  
3198.000000	99.903313  
3197.000000	99.903380  
3196.000000	99.903444  
3195.000000	99.903769  
3194.000000	99.904411  
3193.000000	99.904995  
3192.000000	99.905014  
3191.000000	99.904417  
3190.000000	99.903755  
3189.000000	99.903664  
3188.000000	99.904290  
3187.000000	99.905267  
3186.000000	99.906095  
3185.000000	99.906510  
3184.000000	99.906540  
3183.000000	99.906386  
3182.000000	99.906270  
3181.000000	99.906302  
3180.000000	99.906453  
3179.000000	99.906626  
3178.000000	99.906728  
3177.000000	99.906661  
3176.000000	99.906344  
3175.000000	99.905928  
3174.000000	99.905910  
3173.000000	99.906775  
3172.000000	99.908458  
3171.000000	99.910231  
3170.000000	99.911303  
3169.000000	99.911539  
3168.000000	99.911489  
3167.000000	99.911822  
3166.000000	99.912744  
3165.000000	99.913968  
3164.000000	99.915075  
3163.000000	99.915823  
3162.000000	99.916183  
3161.000000	99.916264  
3160.000000	99.916273  
3159.000000	99.916425  
3158.000000	99.916759  
3157.000000	99.917079  
3156.000000	99.917144  
3155.000000	99.916927  
3154.000000	99.916659  
3153.000000	99.916632  
3152.000000	99.916972  
3151.000000	99.917570  
3150.000000	99.918206  
3149.000000	99.918733  
3148.000000	99.919191  
3147.000000	99.919728  
3146.000000	99.920351  
3145.000000	99.920793  
3144.000000	99.920745  
3143.000000	99.920256  
3142.000000	99.919855  
3141.000000	99.920100  
3140.000000	99.921005  
3139.000000	99.921984  
3138.000000	99.922400  
3137.000000	99.922141  
3136.000000	99.921599  
3135.000000	99.921202  
3134.000000	99.921025  
3133.000000	99.920906  
3132.000000	99.920752  
3131.000000	99.920632  
3130.000000	99.920618  
3129.000000	99.920649  
3128.000000	99.920638  
3127.000000	99.920651  
3126.000000	99.920863  
3125.000000	99.921364  
3124.000000	99.922059  
3123.000000	99.922738  
3122.000000	99.923249  
3121.000000	99.923596  
3120.000000	99.923898  
3119.000000	99.924257  
3118.000000	99.924619  
3117.000000	99.924780  
3116.000000	99.924588  
3115.000000	99.924166  
3114.000000	99.923811  
3113.000000	99.923645  
3112.000000	99.923454  
3111.000000	99.923018  
3110.000000	99.922530  
3109.000000	99.922434  
3108.000000	99.922833  
3107.000000	99.923285  
3106.000000	99.923297  
3105.000000	99.922906  
3104.000000	99.922621  
3103.000000	99.922914  
3102.000000	99.923928  
3101.000000	99.925480  
3100.000000	99.927098  
3099.000000	99.928192  
3098.000000	99.928424  
3097.000000	99.928012  
3096.000000	99.927598  
3095.000000	99.927734  
3094.000000	99.928482  
3093.000000	99.929462  
3092.000000	99.930142  
3091.000000	99.930106  
3090.000000	99.929264  
3089.000000	99.928053  
3088.000000	99.927347  
3087.000000	99.927895  
3086.000000	99.929700  
3085.000000	99.931938  
3084.000000	99.933574  
3083.000000	99.934104  
3082.000000	99.933798  
3081.000000	99.933326  
3080.000000	99.933059  
3079.000000	99.932668  
3078.000000	99.931467  
3077.000000	99.929171  
3076.000000	99.926321  
3075.000000	99.923963  
3074.000000	99.922965  
3073.000000	99.923553  
3072.000000	99.925352  
3071.000000	99.927822  
3070.000000	99.930537  
3069.000000	99.932818  
3068.000000	99.933205  
3067.000000	99.930167  
3066.000000	99.923994  
3065.000000	99.917523  
3064.000000	99.913923  
3063.000000	99.913744  
3062.000000	99.914913  
3061.000000	99.915580  
3060.000000	99.916115  
3059.000000	99.918090  
3058.000000	99.922072  
3057.000000	99.926914  
3056.000000	99.930781  
3055.000000	99.932518  
3054.000000	99.932330  
3053.000000	99.931337  
3052.000000	99.930256  
3051.000000	99.928521  
3050.000000	99.925183  
3049.000000	99.920515  
3048.000000	99.915927  
3047.000000	99.912140  
3046.000000	99.908471  
3045.000000	99.904427  
3044.000000	99.901021  
3043.000000	99.899560  
3042.000000	99.899596  
3041.000000	99.899089  
3040.000000	99.896527  
3039.000000	99.892193  
3038.000000	99.887391  
3037.000000	99.883083  
3036.000000	99.879264  
3035.000000	99.875084  
3034.000000	99.869477  
3033.000000	99.862000  
3032.000000	99.853138  
3031.000000	99.843852  
3030.000000	99.834611  
3029.000000	99.824917  
3028.000000	99.814130  
3027.000000	99.802552  
3026.000000	99.791448  
3025.000000	99.781973  
3024.000000	99.774030  
3023.000000	99.766159  
3022.000000	99.756598  
3021.000000	99.744631  
3020.000000	99.731030  
3019.000000	99.717366  
3018.000000	99.704992  
3017.000000	99.694486  
3016.000000	99.685458  
3015.000000	99.676605  
3014.000000	99.666157  
3013.000000	99.652709  
3012.000000	99.635843  
3011.000000	99.616164  
3010.000000	99.595034  
3009.000000	99.574267  
3008.000000	99.555602  
3007.000000	99.539941  
3006.000000	99.526991  
3005.000000	99.515650  
3004.000000	99.504476  
3003.000000	99.491767  
3002.000000	99.475976  
3001.000000	99.457021  
3000.000000	99.437168  
2999.000000	99.419701  
2998.000000	99.406274  
2997.000000	99.396120  
2996.000000	99.387946  
2995.000000	99.381236  
2994.000000	99.374318  
2993.000000	99.362180  
2992.000000	99.339302  
2991.000000	99.306410  
2990.000000	99.273039  
2989.000000	99.250824  
2988.000000	99.244068  
2987.000000	99.247884  
2986.000000	99.254559  
2985.000000	99.260445  
2984.000000	99.266163  
2983.000000	99.272361  
2982.000000	99.277717  
2981.000000	99.280667  
2980.000000	99.281192  
2979.000000	99.280354  
2978.000000	99.279015  
2977.000000	99.277428  
2976.000000	99.275452  
2975.000000	99.272828  
2974.000000	99.269684  
2973.000000	99.266924  
2972.000000	99.265723  
2971.000000	99.266577  
2970.000000	99.269301  
2969.000000	99.273965  
2968.000000	99.281202  
2967.000000	99.291324  
2966.000000	99.303567  
2965.000000	99.316594  
2964.000000	99.329464  
2963.000000	99.341901  
2962.000000	99.353857  
2961.000000	99.365085  
2960.000000	99.375059  
2959.000000	99.383337  
2958.000000	99.390292  
2957.000000	99.397321  
2956.000000	99.405567  
2955.000000	99.414167  
2954.000000	99.420666  
2953.000000	99.424148  
2952.000000	99.427531  
2951.000000	99.435389  
2950.000000	99.448874  
2949.000000	99.463563  
2948.000000	99.473349  
2947.000000	99.476055  
2946.000000	99.474645  
2945.000000	99.473554  
2944.000000	99.474781  
2943.000000	99.477791  
2942.000000	99.481816  
2941.000000	99.486479  
2940.000000	99.490626  
2939.000000	99.492460  
2938.000000	99.491557  
2937.000000	99.489747  
2936.000000	99.489365  
2935.000000	99.491201  
2934.000000	99.494540  
2933.000000	99.498323  
2932.000000	99.501460  
2931.000000	99.502614  
2930.000000	99.500835  
2929.000000	99.496505  
2928.000000	99.491152  
2927.000000	99.486302  
2926.000000	99.482782  
2925.000000	99.480633  
2924.000000	99.479116  
2923.000000	99.477128  
2922.000000	99.474310  
2921.000000	99.471505  
2920.000000	99.469573  
2919.000000	99.468161  
2918.000000	99.466320  
2917.000000	99.463823  
2916.000000	99.460883  
2915.000000	99.457010  
2914.000000	99.451539  
2913.000000	99.445356  
2912.000000	99.440666  
2911.000000	99.438439  
2910.000000	99.437163  
2909.000000	99.434817  
2908.000000	99.431219  
2907.000000	99.427363  
2906.000000	99.423054  
2905.000000	99.416390  
2904.000000	99.405931  
2903.000000	99.393019  
2902.000000	99.382018  
2901.000000	99.378054  
2900.000000	99.384187  
2899.000000	99.399013  
2898.000000	99.416798  
2897.000000	99.430801  
2896.000000	99.437886  
2895.000000	99.440165  
2894.000000	99.442266  
2893.000000	99.446934  
2892.000000	99.453236  
2891.000000	99.458477  
2890.000000	99.461311  
2889.000000	99.462661  
2888.000000	99.464112  
2887.000000	99.466281  
2886.000000	99.469131  
2885.000000	99.473114  
2884.000000	99.479136  
2883.000000	99.487423  
2882.000000	99.497179  
2881.000000	99.507593  
2880.000000	99.518652  
2879.000000	99.530702  
2878.000000	99.543567  
2877.000000	99.556382  
2876.000000	99.567928  
2875.000000	99.576899  
2874.000000	99.582350  
2873.000000	99.584675  
2872.000000	99.586213  
2871.000000	99.590166  
2870.000000	99.598279  
2869.000000	99.609469  
2868.000000	99.620968  
2867.000000	99.631016  
2866.000000	99.640429  
2865.000000	99.651374  
2864.000000	99.664714  
2863.000000	99.678798  
2862.000000	99.690947  
2861.000000	99.699911  
2860.000000	99.706854  
2859.000000	99.714245  
2858.000000	99.723789  
2857.000000	99.735047  
2856.000000	99.745804  
2855.000000	99.754116  
2854.000000	99.760249  
2853.000000	99.766430  
2852.000000	99.774394  
2851.000000	99.783507  
2850.000000	99.791828  
2849.000000	99.798492  
2848.000000	99.804328  
2847.000000	99.810365  
2846.000000	99.816409  
2845.000000	99.821236  
2844.000000	99.823910  
2843.000000	99.824946  
2842.000000	99.826342  
2841.000000	99.830011  
2840.000000	99.835758  
2839.000000	99.841178  
2838.000000	99.844018  
2837.000000	99.844258  
2836.000000	99.843530  
2835.000000	99.843269  
2834.000000	99.844317  
2833.000000	99.847576  
2832.000000	99.853386  
2831.000000	99.860275  
2830.000000	99.865858  
2829.000000	99.869434  
2828.000000	99.872531  
2827.000000	99.876383  
2826.000000	99.879960  
2825.000000	99.881315  
2824.000000	99.880104  
2823.000000	99.878108  
2822.000000	99.877723  
2821.000000	99.880328  
2820.000000	99.885525  
2819.000000	99.891369  
2818.000000	99.895810  
2817.000000	99.898359  
2816.000000	99.899962  
2815.000000	99.901232  
2814.000000	99.901656  
2813.000000	99.900918  
2812.000000	99.899941  
2811.000000	99.899823  
2810.000000	99.900462  
2809.000000	99.901188  
2808.000000	99.902143  
2807.000000	99.904034  
2806.000000	99.906749  
2805.000000	99.909122  
2804.000000	99.910164  
2803.000000	99.909993  
2802.000000	99.909574  
2801.000000	99.909905  
2800.000000	99.911336  
2799.000000	99.913315  
2798.000000	99.914795  
2797.000000	99.915166  
2796.000000	99.914742  
2795.000000	99.914291  
2794.000000	99.914295  
2793.000000	99.914781  
2792.000000	99.915638  
2791.000000	99.916700  
2790.000000	99.917710  
2789.000000	99.918543  
2788.000000	99.919411  
2787.000000	99.920551  
2786.000000	99.921824  
2785.000000	99.922881  
2784.000000	99.923621  
2783.000000	99.924198  
2782.000000	99.924648  
2781.000000	99.924826  
2780.000000	99.924769  
2779.000000	99.924861  
2778.000000	99.925458  
2777.000000	99.926474  
2776.000000	99.927488  
2775.000000	99.928130  
2774.000000	99.928301  
2773.000000	99.928160  
2772.000000	99.928060  
2771.000000	99.928373  
2770.000000	99.929239  
2769.000000	99.930473  
2768.000000	99.931779  
2767.000000	99.933021  
2766.000000	99.934165  
2765.000000	99.935065  
2764.000000	99.935519  
2763.000000	99.935538  
2762.000000	99.935426  
2761.000000	99.935543  
2760.000000	99.936065  
2759.000000	99.936953  
2758.000000	99.938007  
2757.000000	99.938962  
2756.000000	99.939685  
2755.000000	99.940258  
2754.000000	99.940742  
2753.000000	99.940933  
2752.000000	99.940586  
2751.000000	99.939890  
2750.000000	99.939478  
2749.000000	99.939781  
2748.000000	99.940610  
2747.000000	99.941430  
2746.000000	99.941904  
2745.000000	99.942006  
2744.000000	99.941798  
2743.000000	99.941376  
2742.000000	99.941017  
2741.000000	99.941095  
2740.000000	99.941766  
2739.000000	99.942871  
2738.000000	99.944156  
2737.000000	99.945448  
2736.000000	99.946604  
2735.000000	99.947468  
2734.000000	99.947976  
2733.000000	99.948200  
2732.000000	99.948223  
2731.000000	99.948085  
2730.000000	99.947899  
2729.000000	99.947924  
2728.000000	99.948424  
2727.000000	99.949461  
2726.000000	99.950815  
2725.000000	99.952075  
2724.000000	99.952894  
2723.000000	99.953211  
2722.000000	99.953260  
2721.000000	99.953322  
2720.000000	99.953478  
2719.000000	99.953646  
2718.000000	99.953798  
2717.000000	99.953998  
2716.000000	99.954285  
2715.000000	99.954641  
2714.000000	99.955074  
2713.000000	99.955598  
2712.000000	99.956127  
2711.000000	99.956510  
2710.000000	99.956716  
2709.000000	99.956927  
2708.000000	99.957343  
2707.000000	99.957940  
2706.000000	99.958488  
2705.000000	99.958818  
2704.000000	99.958981  
2703.000000	99.959125  
2702.000000	99.959316  
2701.000000	99.959510  
2700.000000	99.959665  
2699.000000	99.959795  
2698.000000	99.959953  
2697.000000	99.960159  
2696.000000	99.960395  
2695.000000	99.960631  
2694.000000	99.960853  
2693.000000	99.961059  
2692.000000	99.961227  
2691.000000	99.961327  
2690.000000	99.961370  
2689.000000	99.961441  
2688.000000	99.961624  
2687.000000	99.961924  
2686.000000	99.962268  
2685.000000	99.962556  
2684.000000	99.962734  
2683.000000	99.962811  
2682.000000	99.962841  
2681.000000	99.962891  
2680.000000	99.962994  
2679.000000	99.963146  
2678.000000	99.963330  
2677.000000	99.963549  
2676.000000	99.963813  
2675.000000	99.964099  
2674.000000	99.964352  
2673.000000	99.964528  
2672.000000	99.964614  
2671.000000	99.964618  
2670.000000	99.964547  
2669.000000	99.964426  
2668.000000	99.964307  
2667.000000	99.964261  
2666.000000	99.964341  
2665.000000	99.964559  
2664.000000	99.964864  
2663.000000	99.965171  
2662.000000	99.965411  
2661.000000	99.965560  
2660.000000	99.965619  
2659.000000	99.965595  
2658.000000	99.965524  
2657.000000	99.965501  
2656.000000	99.965616  
2655.000000	99.965875  
2654.000000	99.966186  
2653.000000	99.966433  
2652.000000	99.966588  
2651.000000	99.966691  
2650.000000	99.966789  
2649.000000	99.966889  
2648.000000	99.966973  
2647.000000	99.967017  
2646.000000	99.967020  
2645.000000	99.967037  
2644.000000	99.967172  
2643.000000	99.967484  
2642.000000	99.967932  
2641.000000	99.968398  
2640.000000	99.968792  
2639.000000	99.969104  
2638.000000	99.969350  
2637.000000	99.969533  
2636.000000	99.969645  
2635.000000	99.969658  
2634.000000	99.969555  
2633.000000	99.969443  
2632.000000	99.969555  
2631.000000	99.970011  
2630.000000	99.970608  
2629.000000	99.971041  
2628.000000	99.971322  
2627.000000	99.971747  
2626.000000	99.972439  
2625.000000	99.973193  
2624.000000	99.973808  
2623.000000	99.974280  
2622.000000	99.974526  
2621.000000	99.974270  
2620.000000	99.973470  
2619.000000	99.972629  
2618.000000	99.972338  
2617.000000	99.972669  
2616.000000	99.973241  
2615.000000	99.973742  
2614.000000	99.974182  
2613.000000	99.974618  
2612.000000	99.974910  
2611.000000	99.974846  
2610.000000	99.974418  
2609.000000	99.973914  
2608.000000	99.973709  
2607.000000	99.974000  
2606.000000	99.974743  
2605.000000	99.975841  
2604.000000	99.977240  
2603.000000	99.978707  
2602.000000	99.979692  
2601.000000	99.979714  
2600.000000	99.978883  
2599.000000	99.977811  
2598.000000	99.976945  
2597.000000	99.976201  
2596.000000	99.975331  
2595.000000	99.974359  
2594.000000	99.973549  
2593.000000	99.973164  
2592.000000	99.973376  
2591.000000	99.974229  
2590.000000	99.975483  
2589.000000	99.976540  
2588.000000	99.976837  
2587.000000	99.976273  
2586.000000	99.975159  
2585.000000	99.973860  
2584.000000	99.972591  
2583.000000	99.971571  
2582.000000	99.971108  
2581.000000	99.971335  
2580.000000	99.972008  
2579.000000	99.972643  
2578.000000	99.972903  
2577.000000	99.972783  
2576.000000	99.972499  
2575.000000	99.972297  
2574.000000	99.972309  
2573.000000	99.972485  
2572.000000	99.972640  
2571.000000	99.972606  
2570.000000	99.972380  
2569.000000	99.972117  
2568.000000	99.972000  
2567.000000	99.972091  
2566.000000	99.972297  
2565.000000	99.972431  
2564.000000	99.972368  
2563.000000	99.972144  
2562.000000	99.971894  
2561.000000	99.971728  
2560.000000	99.971656  
2559.000000	99.971647  
2558.000000	99.971694  
2557.000000	99.971804  
2556.000000	99.971951  
2555.000000	99.972091  
2554.000000	99.972246  
2553.000000	99.972496  
2552.000000	99.972841  
2551.000000	99.973125  
2550.000000	99.973198  
2549.000000	99.973095  
2548.000000	99.972964  
2547.000000	99.972856  
2546.000000	99.972728  
2545.000000	99.972620  
2544.000000	99.972688  
2543.000000	99.973018  
2542.000000	99.973517  
2541.000000	99.974000  
2540.000000	99.974346  
2539.000000	99.974505  
2538.000000	99.974437  
2537.000000	99.974128  
2536.000000	99.973616  
2535.000000	99.973011  
2534.000000	99.972529  
2533.000000	99.972453  
2532.000000	99.972948  
2531.000000	99.973852  
2530.000000	99.974686  
2529.000000	99.975056  
2528.000000	99.974921  
2527.000000	99.974492  
2526.000000	99.973970  
2525.000000	99.973481  
2524.000000	99.973216  
2523.000000	99.973398  
2522.000000	99.974060  
2521.000000	99.974978  
2520.000000	99.975867  
2519.000000	99.976584  
2518.000000	99.977053  
2517.000000	99.977122  
2516.000000	99.976647  
2515.000000	99.975700  
2514.000000	99.974636  
2513.000000	99.973841  
2512.000000	99.973419  
2511.000000	99.973175  
2510.000000	99.972937  
2509.000000	99.972872  
2508.000000	99.973322  
2507.000000	99.974334  
2506.000000	99.975432  
2505.000000	99.975978  
2504.000000	99.975698  
2503.000000	99.974737  
2502.000000	99.973408  
2501.000000	99.972028  
2500.000000	99.970980  
2499.000000	99.970641  
2498.000000	99.971096  
2497.000000	99.972004  
2496.000000	99.972858  
2495.000000	99.973404  
2494.000000	99.973653  
2493.000000	99.973604  
2492.000000	99.973173  
2491.000000	99.972390  
2490.000000	99.971499  
2489.000000	99.970762  
2488.000000	99.970242  
2487.000000	99.969893  
2486.000000	99.969776  
2485.000000	99.970023  
2484.000000	99.970599  
2483.000000	99.971216  
2482.000000	99.971507  
2481.000000	99.971308  
2480.000000	99.970738  
2479.000000	99.970075  
2478.000000	99.969512  
2477.000000	99.969030  
2476.000000	99.968530  
2475.000000	99.968057  
2474.000000	99.967820  
2473.000000	99.967975  
2472.000000	99.968451  
2471.000000	99.969031  
2470.000000	99.969527  
2469.000000	99.969773  
2468.000000	99.969580  
2467.000000	99.968861  
2466.000000	99.967840  
2465.000000	99.966990  
2464.000000	99.966582  
2463.000000	99.966503  
2462.000000	99.966513  
2461.000000	99.966518  
2460.000000	99.966519  
2459.000000	99.966472  
2458.000000	99.966365  
2457.000000	99.966312  
2456.000000	99.966358  
2455.000000	99.966278  
2454.000000	99.965782  
2453.000000	99.964894  
2452.000000	99.964017  
2451.000000	99.963541  
2450.000000	99.963525  
2449.000000	99.963789  
2448.000000	99.964122  
2447.000000	99.964382  
2446.000000	99.964491  
2445.000000	99.964476  
2444.000000	99.964448  
2443.000000	99.964470  
2442.000000	99.964477  
2441.000000	99.964360  
2440.000000	99.964052  
2439.000000	99.963529  
2438.000000	99.962876  
2437.000000	99.962327  
2436.000000	99.962084  
2435.000000	99.962031  
2434.000000	99.961783  
2433.000000	99.961099  
2432.000000	99.960184  
2431.000000	99.959516  
2430.000000	99.959335  
2429.000000	99.959469  
2428.000000	99.959609  
2427.000000	99.959707  
2426.000000	99.959924  
2425.000000	99.960283  
2424.000000	99.960513  
2423.000000	99.960296  
2422.000000	99.959603  
2421.000000	99.958797  
2420.000000	99.958314  
2419.000000	99.958281  
2418.000000	99.958534  
2417.000000	99.958858  
2416.000000	99.959143  
2415.000000	99.959301  
2414.000000	99.959277  
2413.000000	99.959210  
2412.000000	99.959374  
2411.000000	99.959857  
2410.000000	99.960403  
2409.000000	99.960703  
2408.000000	99.960737  
2407.000000	99.960743  
2406.000000	99.960941  
2405.000000	99.961357  
2404.000000	99.961856  
2403.000000	99.962254  
2402.000000	99.962449  
2401.000000	99.962496  
2400.000000	99.962538  
2399.000000	99.962675  
2398.000000	99.962918  
2397.000000	99.963247  
2396.000000	99.963636  
2395.000000	99.964039  
2394.000000	99.964395  
2393.000000	99.964692  
2392.000000	99.964996  
2391.000000	99.965402  
2390.000000	99.965965  
2389.000000	99.966659  
2388.000000	99.967399  
2387.000000	99.968086  
2386.000000	99.968663  
2385.000000	99.969140  
2384.000000	99.969552  
2383.000000	99.969918  
2382.000000	99.970232  
2381.000000	99.970501  
2380.000000	99.970765  
2379.000000	99.971059  
2378.000000	99.971390  
2377.000000	99.971744  
2376.000000	99.972108  
2375.000000	99.972473  
2374.000000	99.972832  
2373.000000	99.973183  
2372.000000	99.973519  
2371.000000	99.973838  
2370.000000	99.974143  
2369.000000	99.974435  
2368.000000	99.974713  
2367.000000	99.974979  
2366.000000	99.975236  
2365.000000	99.975491  
2364.000000	99.975759  
2363.000000	99.976047  
2362.000000	99.976357  
2361.000000	99.976682  
2360.000000	99.977009  
2359.000000	99.977329  
2358.000000	99.977645  
2357.000000	99.977960  
2356.000000	99.978281  
2355.000000	99.978611  
2354.000000	99.978946  
2353.000000	99.979286  
2352.000000	99.979636  
2351.000000	99.980000  
2350.000000	99.980381  
2349.000000	99.980776  
2348.000000	99.981173  
2347.000000	99.981565  
2346.000000	99.981929  
2345.000000	99.982231  
2344.000000	99.982474  
2343.000000	99.982715  
2342.000000	99.983047  
2341.000000	99.983555  
2340.000000	99.984249  
2339.000000	99.985005  
2338.000000	99.985612  
2337.000000	99.985961  
2336.000000	99.986186  
2335.000000	99.986510  
2334.000000	99.986963  
2333.000000	99.987380  
2332.000000	99.987594  
2331.000000	99.987460  
2330.000000	99.986950  
2329.000000	99.986346  
2328.000000	99.986351  
2327.000000	99.987419  
2326.000000	99.989221  
2325.000000	99.990629  
2324.000000	99.990676  
2323.000000	99.989489  
2322.000000	99.988415  
2321.000000	99.988863  
2320.000000	99.990898  
2319.000000	99.993175  
2318.000000	99.994479  
2317.000000	99.994873  
2316.000000	99.995279  
2315.000000	99.996103  
2314.000000	99.996949  
2313.000000	99.997198  
2312.000000	99.996749  
2311.000000	99.996006  
2310.000000	99.995887  
2309.000000	99.996889  
2308.000000	99.998105  
2307.000000	99.997576  
2306.000000	99.994567  
2305.000000	99.990536  
2304.000000	99.987529  
2303.000000	99.985795  
2302.000000	99.984218  
2301.000000	99.982311  
2300.000000	99.980706  
2299.000000	99.979663  
2298.000000	99.978631  
2297.000000	99.977411  
2296.000000	99.976823  
2295.000000	99.977478  
2294.000000	99.978746  
2293.000000	99.979353  
2292.000000	99.978741  
2291.000000	99.977297  
2290.000000	99.975665  
2289.000000	99.974209  
2288.000000	99.972940  
2287.000000	99.971644  
2286.000000	99.970191  
2285.000000	99.968873  
2284.000000	99.968213  
2283.000000	99.968312  
2282.000000	99.968617  
2281.000000	99.968454  
2280.000000	99.967711  
2279.000000	99.966860  
2278.000000	99.966414  
2277.000000	99.966475  
2276.000000	99.966748  
2275.000000	99.966852  
2274.000000	99.966579  
2273.000000	99.965900  
2272.000000	99.964777  
2271.000000	99.963143  
2270.000000	99.961304  
2269.000000	99.960160  
2268.000000	99.960516  
2267.000000	99.962214  
2266.000000	99.964127  
2265.000000	99.965214  
2264.000000	99.965225  
2263.000000	99.964366  
2262.000000	99.963043  
2261.000000	99.962083  
2260.000000	99.962452  
2259.000000	99.964107  
2258.000000	99.965597  
2257.000000	99.965633  
2256.000000	99.964589  
2255.000000	99.963716  
2254.000000	99.963197  
2253.000000	99.962131  
2252.000000	99.960401  
2251.000000	99.959421  
2250.000000	99.960657  
2249.000000	99.964082  
2248.000000	99.968247  
2247.000000	99.971389  
2246.000000	99.972423  
2245.000000	99.971272  
2244.000000	99.968725  
2243.000000	99.965897  
2242.000000	99.963679  
2241.000000	99.962528  
2240.000000	99.962279  
2239.000000	99.962036  
2238.000000	99.960727  
2237.000000	99.958037  
2236.000000	99.954329  
2235.000000	99.949793  
2234.000000	99.944713  
2233.000000	99.940733  
2232.000000	99.940358  
2231.000000	99.944549  
2230.000000	99.951808  
2229.000000	99.959974  
2228.000000	99.967789  
2227.000000	99.974037  
2226.000000	99.976835  
2225.000000	99.975292  
2224.000000	99.971021  
2223.000000	99.966805  
2222.000000	99.964491  
2221.000000	99.964894  
2220.000000	99.968288  
2219.000000	99.973610  
2218.000000	99.978320  
2217.000000	99.980715  
2216.000000	99.981681  
2215.000000	99.982931  
2214.000000	99.984515  
2213.000000	99.985395  
2212.000000	99.985431  
2211.000000	99.985397  
2210.000000	99.985881  
2209.000000	99.987367  
2208.000000	99.990247  
2207.000000	99.993390  
2206.000000	99.993938  
2205.000000	99.990061  
2204.000000	99.982972  
2203.000000	99.975199  
2202.000000	99.968249  
2201.000000	99.963274  
2200.000000	99.962032  
2199.000000	99.964903  
2198.000000	99.969051  
2197.000000	99.971056  
2196.000000	99.971084  
2195.000000	99.972000  
2194.000000	99.975041  
2193.000000	99.978789  
2192.000000	99.981800  
2191.000000	99.984031  
2190.000000	99.985810  
2189.000000	99.987267  
2188.000000	99.988869  
2187.000000	99.991232  
2186.000000	99.994327  
2185.000000	99.997591  
2184.000000	100.000400 
2183.000000	100.001825 
2182.000000	100.000906 
2181.000000	99.998211  
2180.000000	99.996160  
2179.000000	99.996457  
2178.000000	99.998022  
2177.000000	99.998517  
2176.000000	99.997186  
2175.000000	99.995115  
2174.000000	99.993450  
2173.000000	99.992509  
2172.000000	99.992282  
2171.000000	99.992703  
2170.000000	99.993498  
2169.000000	99.994454  
2168.000000	99.995710  
2167.000000	99.997256  
2166.000000	99.998512  
2165.000000	99.999017  
2164.000000	99.999226  
2163.000000	99.999995  
2162.000000	100.001455 
2161.000000	100.002882 
2160.000000	100.003569 
2159.000000	100.003399 
2158.000000	100.002663 
2157.000000	100.001837 
2156.000000	100.001418 
2155.000000	100.001546 
2154.000000	100.001803 
2153.000000	100.001578 
2152.000000	100.000718 
2151.000000	99.999576  
2150.000000	99.998631  
2149.000000	99.998074  
2148.000000	99.997811  
2147.000000	99.997564  
2146.000000	99.996987  
2145.000000	99.995950  
2144.000000	99.994607  
2143.000000	99.993285  
2142.000000	99.992166  
2141.000000	99.991204  
2140.000000	99.990292  
2139.000000	99.989409  
2138.000000	99.988584  
2137.000000	99.987763  
2136.000000	99.986827  
2135.000000	99.985747  
2134.000000	99.984625  
2133.000000	99.983542  
2132.000000	99.982431  
2131.000000	99.981134  
2130.000000	99.979571  
2129.000000	99.977852  
2128.000000	99.976237  
2127.000000	99.974892  
2126.000000	99.973765  
2125.000000	99.972657  
2124.000000	99.971480  
2123.000000	99.970363  
2122.000000	99.969436  
2121.000000	99.968591  
2120.000000	99.967540  
2119.000000	99.966150  
2118.000000	99.964624  
2117.000000	99.963295  
2116.000000	99.962283  
2115.000000	99.961459  
2114.000000	99.960719  
2113.000000	99.960152  
2112.000000	99.959794  
2111.000000	99.959323  
2110.000000	99.958278  
2109.000000	99.956673  
2108.000000	99.955181  
2107.000000	99.954493  
2106.000000	99.954551  
2105.000000	99.954477  
2104.000000	99.953355  
2103.000000	99.951096  
2102.000000	99.948753  
2101.000000	99.947724  
2100.000000	99.948451  
2099.000000	99.949990  
2098.000000	99.951067  
2097.000000	99.951526  
2096.000000	99.952060  
2095.000000	99.952616  
2094.000000	99.951935  
2093.000000	99.949131  
2092.000000	99.945289  
2091.000000	99.942945  
2090.000000	99.943885  
2089.000000	99.947742  
2088.000000	99.952220  
2087.000000	99.954768  
2086.000000	99.954579  
2085.000000	99.953056  
2084.000000	99.952353  
2083.000000	99.953313  
2082.000000	99.955264  
2081.000000	99.957527  
2080.000000	99.960316  
2079.000000	99.963873  
2078.000000	99.967600  
2077.000000	99.970766  
2076.000000	99.973485  
2075.000000	99.976291  
2074.000000	99.979129  
2073.000000	99.981445  
2072.000000	99.982904  
2071.000000	99.983408  
2070.000000	99.982871  
2069.000000	99.981645  
2068.000000	99.980795  
2067.000000	99.981163  
2066.000000	99.982305  
2065.000000	99.982994  
2064.000000	99.982784  
2063.000000	99.982619  
2062.000000	99.983791  
2061.000000	99.986657  
2060.000000	99.990257  
2059.000000	99.993124  
2058.000000	99.994463  
2057.000000	99.994681  
2056.000000	99.994708  
2055.000000	99.994886  
2054.000000	99.995050  
2053.000000	99.995310  
2052.000000	99.996086  
2051.000000	99.997408  
2050.000000	99.998664  
2049.000000	99.999216  
2048.000000	99.999017  
2047.000000	99.998464  
2046.000000	99.997976  
2045.000000	99.997825  
2044.000000	99.998099  
2043.000000	99.998652  
2042.000000	99.999216  
2041.000000	99.999630  
2040.000000	99.999901  
2039.000000	100.000079 
2038.000000	100.000177 
2037.000000	100.000207 
2036.000000	100.000199 
2035.000000	100.000177 
2034.000000	100.000154 
2033.000000	100.000140 
2032.000000	100.000140 
2031.000000	100.000148 
2030.000000	100.000161 
2029.000000	100.000178 
2028.000000	100.000204 
2027.000000	100.000237 
2026.000000	100.000272 
2025.000000	100.000303 
2024.000000	100.000333 
2023.000000	100.000362 
2022.000000	100.000383 
2021.000000	100.000385 
2020.000000	100.000367 
2019.000000	100.000345 
2018.000000	100.000337 
2017.000000	100.000342 
2016.000000	100.000346 
2015.000000	100.000335 
2014.000000	100.000314 
2013.000000	100.000313 
2012.000000	100.000363 
2011.000000	100.000482 
2010.000000	100.000658 
2009.000000	100.000867 
2008.000000	100.001086 
2007.000000	100.001297 
2006.000000	100.001490 
2005.000000	100.001660 
2004.000000	100.001804 
2003.000000	100.001925 
2002.000000	100.002017 
2001.000000	100.002076 
2000.000000	100.002100 
1999.000000	100.002096 
1998.000000	100.002083 
1997.000000	100.002080 
1996.000000	100.002106 
1995.000000	100.002168 
1994.000000	100.002261 
1993.000000	100.002362 
1992.000000	100.002432 
1991.000000	100.002422 
1990.000000	100.002301 
1989.000000	100.002086 
1988.000000	100.001842 
1987.000000	100.001606 
1986.000000	100.001348 
1985.000000	100.001020 
1984.000000	100.000628 
1983.000000	100.000237 
1982.000000	99.999874  
1981.000000	99.999467  
1980.000000	99.998896  
1979.000000	99.998118  
1978.000000	99.997259  
1977.000000	99.996527  
1976.000000	99.996011  
1975.000000	99.995576  
1974.000000	99.995018  
1973.000000	99.994382  
1972.000000	99.993945  
1971.000000	99.993826  
1970.000000	99.993671  
1969.000000	99.992944  
1968.000000	99.991507  
1967.000000	99.989737  
1966.000000	99.988187  
1965.000000	99.987060  
1964.000000	99.986220  
1963.000000	99.985407  
1962.000000	99.984427  
1961.000000	99.983230  
1960.000000	99.981912  
1959.000000	99.980673  
1958.000000	99.979711  
1957.000000	99.979061  
1956.000000	99.978479  
1955.000000	99.977558  
1954.000000	99.976095  
1953.000000	99.974330  
1952.000000	99.972704  
1951.000000	99.971296  
1950.000000	99.969791  
1949.000000	99.968090  
1948.000000	99.966652  
1947.000000	99.965905  
1946.000000	99.965490  
1945.000000	99.964483  
1944.000000	99.962466  
1943.000000	99.960075  
1942.000000	99.958309  
1941.000000	99.957396  
1940.000000	99.956716  
1939.000000	99.955783  
1938.000000	99.954972  
1937.000000	99.955077  
1936.000000	99.956185  
1935.000000	99.957272  
1934.000000	99.957160  
1933.000000	99.955830  
1932.000000	99.954553  
1931.000000	99.954522  
1930.000000	99.955550  
1929.000000	99.956390  
1928.000000	99.956206  
1927.000000	99.955290  
1926.000000	99.954381  
1925.000000	99.953859  
1924.000000	99.953729  
1923.000000	99.954032  
1922.000000	99.954784  
1921.000000	99.955523  
1920.000000	99.955281  
1919.000000	99.953231  
1918.000000	99.949539  
1917.000000	99.945730  
1916.000000	99.943400  
1915.000000	99.942739  
1914.000000	99.942973  
1913.000000	99.943550  
1912.000000	99.944473  
1911.000000	99.945472  
1910.000000	99.945677  
1909.000000	99.944760  
1908.000000	99.943818  
1907.000000	99.944240  
1906.000000	99.946056  
1905.000000	99.947981  
1904.000000	99.948871  
1903.000000	99.948604  
1902.000000	99.947631  
1901.000000	99.946495  
1900.000000	99.945677  
1899.000000	99.945450  
1898.000000	99.945766  
1897.000000	99.946439  
1896.000000	99.947387  
1895.000000	99.948414  
1894.000000	99.948939  
1893.000000	99.948543  
1892.000000	99.947600  
1891.000000	99.946865  
1890.000000	99.946573  
1889.000000	99.946381  
1888.000000	99.946042  
1887.000000	99.945451  
1886.000000	99.944559  
1885.000000	99.943887  
1884.000000	99.944522  
1883.000000	99.946810  
1882.000000	99.949432  
1881.000000	99.950778  
1880.000000	99.951077  
1879.000000	99.952205  
1878.000000	99.955396  
1877.000000	99.959743  
1876.000000	99.963157  
1875.000000	99.964313  
1874.000000	99.963107  
1873.000000	99.960118  
1872.000000	99.956314  
1871.000000	99.952654  
1870.000000	99.949619  
1869.000000	99.947269  
1868.000000	99.945969  
1867.000000	99.946148  
1866.000000	99.947289  
1865.000000	99.948232  
1864.000000	99.948115  
1863.000000	99.946875  
1862.000000	99.945232  
1861.000000	99.944301  
1860.000000	99.944859  
1859.000000	99.946781  
1858.000000	99.949125  
1857.000000	99.950884  
1856.000000	99.951706  
1855.000000	99.951752  
1854.000000	99.951262  
1853.000000	99.950479  
1852.000000	99.949711  
1851.000000	99.949289  
1850.000000	99.949564  
1849.000000	99.950768  
1848.000000	99.952620  
1847.000000	99.954223  
1846.000000	99.954666  
1845.000000	99.953793  
1844.000000	99.952489  
1843.000000	99.951907  
1842.000000	99.952155  
1841.000000	99.952635  
1840.000000	99.952886  
1839.000000	99.952795  
1838.000000	99.952477  
1837.000000	99.952139  
1836.000000	99.951904  
1835.000000	99.951716  
1834.000000	99.951469  
1833.000000	99.951161  
1832.000000	99.950842  
1831.000000	99.950560  
1830.000000	99.950450  
1829.000000	99.950725  
1828.000000	99.951416  
1827.000000	99.952242  
1826.000000	99.952836  
1825.000000	99.953048  
1824.000000	99.953039  
1823.000000	99.953003  
1822.000000	99.952848  
1821.000000	99.952420  
1820.000000	99.951914  
1819.000000	99.951807  
1818.000000	99.952301  
1817.000000	99.953080  
1816.000000	99.953679  
1815.000000	99.954068  
1814.000000	99.954518  
1813.000000	99.955114  
1812.000000	99.955652  
1811.000000	99.956009  
1810.000000	99.956264  
1809.000000	99.956412  
1808.000000	99.956359  
1807.000000	99.956096  
1806.000000	99.955718  
1805.000000	99.955394  
1804.000000	99.955326  
1803.000000	99.955567  
1802.000000	99.955835  
1801.000000	99.955686  
1800.000000	99.955097  
1799.000000	99.954657  
1798.000000	99.954838  
1797.000000	99.955600  
1796.000000	99.956631  
1795.000000	99.957625  
1794.000000	99.958375  
1793.000000	99.958746  
1792.000000	99.958807  
1791.000000	99.958936  
1790.000000	99.959292  
1789.000000	99.959729  
1788.000000	99.960221  
1787.000000	99.960851  
1786.000000	99.961509  
1785.000000	99.961933  
1784.000000	99.962065  
1783.000000	99.962006  
1782.000000	99.961810  
1781.000000	99.961554  
1780.000000	99.961409  
1779.000000	99.961518  
1778.000000	99.961830  
1777.000000	99.962286  
1776.000000	99.962883  
1775.000000	99.963451  
1774.000000	99.963745  
1773.000000	99.963786  
1772.000000	99.963968  
1771.000000	99.964657  
1770.000000	99.965542  
1769.000000	99.965980  
1768.000000	99.965763  
1767.000000	99.965302  
1766.000000	99.965101  
1765.000000	99.965187  
1764.000000	99.965330  
1763.000000	99.965438  
1762.000000	99.965643  
1761.000000	99.966060  
1760.000000	99.966590  
1759.000000	99.967171  
1758.000000	99.967966  
1757.000000	99.969149  
1756.000000	99.970453  
1755.000000	99.971299  
1754.000000	99.971496  
1753.000000	99.971411  
1752.000000	99.971507  
1751.000000	99.971742  
1750.000000	99.971739  
1749.000000	99.971443  
1748.000000	99.971176  
1747.000000	99.971193  
1746.000000	99.971457  
1745.000000	99.971761  
1744.000000	99.971927  
1743.000000	99.971971  
1742.000000	99.972032  
1741.000000	99.972178  
1740.000000	99.972417  
1739.000000	99.972802  
1738.000000	99.973300  
1737.000000	99.973700  
1736.000000	99.973900  
1735.000000	99.973983  
1734.000000	99.974008  
1733.000000	99.974044  
1732.000000	99.974017  
1731.000000	99.973839  
1730.000000	99.973622  
1729.000000	99.973523  
1728.000000	99.973550  
1727.000000	99.973611  
1726.000000	99.973651  
1725.000000	99.973659  
1724.000000	99.973633  
1723.000000	99.973580  
1722.000000	99.973518  
1721.000000	99.973463  
1720.000000	99.973421  
1719.000000	99.973378  
1718.000000	99.973325  
1717.000000	99.973254  
1716.000000	99.973163  
1715.000000	99.973056  
1714.000000	99.972938  
1713.000000	99.972816  
1712.000000	99.972691  
1711.000000	99.972565  
1710.000000	99.972435  
1709.000000	99.972300  
1708.000000	99.972160  
1707.000000	99.972013  
1706.000000	99.971857  
1705.000000	99.971690  
1704.000000	99.971511  
1703.000000	99.971322  
1702.000000	99.971124  
1701.000000	99.970920  
1700.000000	99.970711  
1699.000000	99.970499  
1698.000000	99.970275  
1697.000000	99.970029  
1696.000000	99.969760  
1695.000000	99.969478  
1694.000000	99.969191  
1693.000000	99.968908  
1692.000000	99.968632  
1691.000000	99.968366  
1690.000000	99.968114  
1689.000000	99.967876  
1688.000000	99.967649  
1687.000000	99.967430  
1686.000000	99.967213  
1685.000000	99.966994  
1684.000000	99.966770  
1683.000000	99.966542  
1682.000000	99.966312  
1681.000000	99.966080  
1680.000000	99.965846  
1679.000000	99.965609  
1678.000000	99.965366  
1677.000000	99.965113  
1676.000000	99.964859  
1675.000000	99.964628  
1674.000000	99.964437  
1673.000000	99.964271  
1672.000000	99.964105  
1671.000000	99.963926  
1670.000000	99.963727  
1669.000000	99.963506  
1668.000000	99.963279  
1667.000000	99.963054  
1666.000000	99.962830  
1665.000000	99.962606  
1664.000000	99.962395  
1663.000000	99.962210  
1662.000000	99.962049  
1661.000000	99.961899  
1660.000000	99.961762  
1659.000000	99.961640  
1658.000000	99.961516  
1657.000000	99.961349  
1656.000000	99.961112  
1655.000000	99.960825  
1654.000000	99.960569  
1653.000000	99.960395  
1652.000000	99.960463  
1651.000000	99.960679  
1650.000000	99.960819  
1649.000000	99.960858  
1648.000000	99.960861  
1647.000000	99.960793  
1646.000000	99.960615  
1645.000000	99.960424  
1644.000000	99.960310  
1643.000000	99.960289  
1642.000000	99.960313  
1641.000000	99.960293  
1640.000000	99.960193  
1639.000000	99.960051  
1638.000000	99.959930  
1637.000000	99.959889  
1636.000000	99.959966  
1635.000000	99.960182  
1634.000000	99.960478  
1633.000000	99.960543  
1632.000000	99.960220  
1631.000000	99.959620  
1630.000000	99.959025  
1629.000000	99.958775  
1628.000000	99.959089  
1627.000000	99.959765  
1626.000000	99.960293  
1625.000000	99.960400  
1624.000000	99.960261  
1623.000000	99.960206  
1622.000000	99.960451  
1621.000000	99.961024  
1620.000000	99.961735  
1619.000000	99.962363  
1618.000000	99.962761  
1617.000000	99.963010  
1616.000000	99.963685  
1615.000000	99.964913  
1614.000000	99.966038  
1613.000000	99.966865  
1612.000000	99.967701  
1611.000000	99.968511  
1610.000000	99.968761  
1609.000000	99.968429  
1608.000000	99.968223  
1607.000000	99.968482  
1606.000000	99.968956  
1605.000000	99.969559  
1604.000000	99.970460  
1603.000000	99.971580  
1602.000000	99.972597  
1601.000000	99.973426  
1600.000000	99.974205  
1599.000000	99.975000  
1598.000000	99.975868  
1597.000000	99.976910  
1596.000000	99.978033  
1595.000000	99.978858  
1594.000000	99.979160  
1593.000000	99.979310  
1592.000000	99.979901  
1591.000000	99.981001  
1590.000000	99.982161  
1589.000000	99.983094  
1588.000000	99.983970  
1587.000000	99.984955  
1586.000000	99.985919  
1585.000000	99.986704  
1584.000000	99.987338  
1583.000000	99.987839  
1582.000000	99.988216  
1581.000000	99.988565  
1580.000000	99.988958  
1579.000000	99.989387  
1578.000000	99.989841  
1577.000000	99.990358  
1576.000000	99.990968  
1575.000000	99.991619  
1574.000000	99.992228  
1573.000000	99.992780  
1572.000000	99.993301  
1571.000000	99.993815  
1570.000000	99.994326  
1569.000000	99.994832  
1568.000000	99.995323  
1567.000000	99.995789  
1566.000000	99.996232  
1565.000000	99.996656  
1564.000000	99.997065  
1563.000000	99.997462  
1562.000000	99.997847  
1561.000000	99.998220  
1560.000000	99.998577  
1559.000000	99.998906  
1558.000000	99.999195  
1557.000000	99.999451  
1556.000000	99.999674  
1555.000000	99.999862  
1554.000000	100.000009 
1553.000000	100.000118 
1552.000000	100.000189 
1551.000000	100.000224 
1550.000000	100.000225 
1549.000000	100.000200 
1548.000000	100.000148 
1547.000000	100.000067 
1546.000000	99.999956  
1545.000000	99.999818  
1544.000000	99.999664  
1543.000000	99.999505  
1542.000000	99.999354  
1541.000000	99.999209  
1540.000000	99.999027  
1539.000000	99.998769  
1538.000000	99.998471  
1537.000000	99.998150  
1536.000000	99.997791  
1535.000000	99.997386  
1534.000000	99.996895  
1533.000000	99.996280  
1532.000000	99.995650  
1531.000000	99.995125  
1530.000000	99.994641  
1529.000000	99.994049  
1528.000000	99.993341  
1527.000000	99.992696  
1526.000000	99.992286  
1525.000000	99.992072  
1524.000000	99.991932  
1523.000000	99.991829  
1522.000000	99.991541  
1521.000000	99.990638  
1520.000000	99.989286  
1519.000000	99.987823  
1518.000000	99.986237  
1517.000000	99.984537  
1516.000000	99.983082  
1515.000000	99.982143  
1514.000000	99.981418  
1513.000000	99.980533  
1512.000000	99.979444  
1511.000000	99.978365  
1510.000000	99.977374  
1509.000000	99.976440  
1508.000000	99.975686  
1507.000000	99.975171  
1506.000000	99.974772  
1505.000000	99.974344  
1504.000000	99.973648  
1503.000000	99.972921  
1502.000000	99.972284  
1501.000000	99.971291  
1500.000000	99.969322  
1499.000000	99.966630  
1498.000000	99.964213  
1497.000000	99.962283  
1496.000000	99.960356  
1495.000000	99.958789  
1494.000000	99.958143  
1493.000000	99.958300  
1492.000000	99.958796  
1491.000000	99.959026  
1490.000000	99.958244  
1489.000000	99.956030  
1488.000000	99.953021  
1487.000000	99.950388  
1486.000000	99.948216  
1485.000000	99.945991  
1484.000000	99.943706  
1483.000000	99.941778  
1482.000000	99.940561  
1481.000000	99.939839  
1480.000000	99.939102  
1479.000000	99.938066  
1478.000000	99.936654  
1477.000000	99.934861  
1476.000000	99.933217  
1475.000000	99.932935  
1474.000000	99.934350  
1473.000000	99.935660  
1472.000000	99.934892  
1471.000000	99.933224  
1470.000000	99.932032  
1469.000000	99.930651  
1468.000000	99.928271  
1467.000000	99.925551  
1466.000000	99.923995  
1465.000000	99.924085  
1464.000000	99.925109  
1463.000000	99.926345  
1462.000000	99.927078  
1461.000000	99.926432  
1460.000000	99.924303  
1459.000000	99.921181  
1458.000000	99.916649  
1457.000000	99.908432  
1456.000000	99.898104  
1455.000000	99.890227  
1454.000000	99.885837  
1453.000000	99.884248  
1452.000000	99.884892  
1451.000000	99.886951  
1450.000000	99.888889  
1449.000000	99.888761  
1448.000000	99.886055  
1447.000000	99.883301  
1446.000000	99.883316  
1445.000000	99.885738  
1444.000000	99.888330  
1443.000000	99.889931  
1442.000000	99.890751  
1441.000000	99.891069  
1440.000000	99.890707  
1439.000000	99.890135  
1438.000000	99.890888  
1437.000000	99.892554  
1436.000000	99.892595  
1435.000000	99.891149  
1434.000000	99.889264  
1433.000000	99.886066  
1432.000000	99.881100  
1431.000000	99.875508  
1430.000000	99.871142  
1429.000000	99.868412  
1428.000000	99.866139  
1427.000000	99.863482  
1426.000000	99.860605  
1425.000000	99.857981  
1424.000000	99.854940  
1423.000000	99.850309  
1422.000000	99.843706  
1421.000000	99.834786  
1420.000000	99.823040  
1419.000000	99.809861  
1418.000000	99.799788  
1417.000000	99.793394  
1416.000000	99.786257  
1415.000000	99.775924  
1414.000000	99.763615  
1413.000000	99.751643  
1412.000000	99.741232  
1411.000000	99.732699  
1410.000000	99.726195  
1409.000000	99.721266  
1408.000000	99.717318  
1407.000000	99.714781  
1406.000000	99.714526  
1405.000000	99.716831  
1404.000000	99.721227  
1403.000000	99.727454  
1402.000000	99.735481  
1401.000000	99.744608  
1400.000000	99.753300  
1399.000000	99.759193  
1398.000000	99.759605  
1397.000000	99.751792  
1396.000000	99.735238  
1395.000000	99.716637  
1394.000000	99.708618  
1393.000000	99.717276  
1392.000000	99.736335  
1391.000000	99.755149  
1390.000000	99.767552  
1389.000000	99.773155  
1388.000000	99.773987  
1387.000000	99.772022  
1386.000000	99.769203  
1385.000000	99.767371  
1384.000000	99.767204  
1383.000000	99.768120  
1382.000000	99.769343  
1381.000000	99.770949  
1380.000000	99.773940  
1379.000000	99.779041  
1378.000000	99.785780  
1377.000000	99.792999  
1376.000000	99.799849  
1375.000000	99.806125  
1374.000000	99.812449  
1373.000000	99.820128  
1372.000000	99.829622  
1371.000000	99.839704  
1370.000000	99.848606  
1369.000000	99.855855  
1368.000000	99.862203  
1367.000000	99.868301  
1366.000000	99.874196  
1365.000000	99.880039  
1364.000000	99.886452  
1363.000000	99.893639  
1362.000000	99.900613  
1361.000000	99.906368  
1360.000000	99.911287  
1359.000000	99.916659  
1358.000000	99.923285  
1357.000000	99.930801  
1356.000000	99.937981  
1355.000000	99.943886  
1354.000000	99.948913  
1353.000000	99.954339  
1352.000000	99.960693  
1351.000000	99.966664  
1350.000000	99.970361  
1349.000000	99.972404  
1348.000000	99.974139  
1347.000000	99.975273  
1346.000000	99.974992  
1345.000000	99.974353  
1344.000000	99.975407  
1343.000000	99.978213  
1342.000000	99.980741  
1341.000000	99.982041  
1340.000000	99.983506  
1339.000000	99.986248  
1338.000000	99.989264  
1337.000000	99.991336  
1336.000000	99.992719  
1335.000000	99.993989  
1334.000000	99.994735  
1333.000000	99.994491  
1332.000000	99.993905  
1331.000000	99.993818  
1330.000000	99.994019  
1329.000000	99.994039  
1328.000000	99.994178  
1327.000000	99.994727  
1326.000000	99.995048  
1325.000000	99.994818  
1324.000000	99.994771  
1323.000000	99.995629  
1322.000000	99.997096  
1321.000000	99.998636  
1320.000000	100.000533 
1319.000000	100.003235 
1318.000000	100.005996 
1317.000000	100.007122 
1316.000000	100.005687 
1315.000000	100.002401 
1314.000000	99.998882  
1313.000000	99.996373  
1312.000000	99.995270  
1311.000000	99.995490  
1310.000000	99.996842  
1309.000000	99.998903  
1308.000000	100.000750 
1307.000000	100.001240 
1306.000000	99.999821  
1305.000000	99.997342  
1304.000000	99.995443  
1303.000000	99.995260  
1302.000000	99.996717  
1301.000000	99.998956  
1300.000000	100.001107 
1299.000000	100.002741 
1298.000000	100.003926 
1297.000000	100.004954 
1296.000000	100.005888 
1295.000000	100.006254 
1294.000000	100.005441 
1293.000000	100.003290 
1292.000000	100.000180 
1291.000000	99.996840  
1290.000000	99.994319  
1289.000000	99.993722  
1288.000000	99.995290  
1287.000000	99.997608  
1286.000000	99.998450  
1285.000000	99.996636  
1284.000000	99.992626  
1283.000000	99.987672  
1282.000000	99.982671  
1281.000000	99.977984  
1280.000000	99.974115  
1279.000000	99.971512  
1278.000000	99.969843  
1277.000000	99.968207  
1276.000000	99.966168  
1275.000000	99.964002  
1274.000000	99.961848  
1273.000000	99.959082  
1272.000000	99.954909  
1271.000000	99.949393  
1270.000000	99.943549  
1269.000000	99.938290  
1268.000000	99.933470  
1267.000000	99.928127  
1266.000000	99.921642  
1265.000000	99.914447  
1264.000000	99.907613  
1263.000000	99.901854  
1262.000000	99.896995  
1261.000000	99.892427  
1260.000000	99.887971  
1259.000000	99.884004  
1258.000000	99.880812  
1257.000000	99.878162  
1256.000000	99.875800  
1255.000000	99.874018  
1254.000000	99.873157  
1253.000000	99.872658  
1252.000000	99.871370  
1251.000000	99.869100  
1250.000000	99.867302  
1249.000000	99.867663  
1248.000000	99.870328  
1247.000000	99.873758  
1246.000000	99.875853  
1245.000000	99.874800  
1244.000000	99.869654  
1243.000000	99.861642  
1242.000000	99.854863  
1241.000000	99.853695  
1240.000000	99.858778  
1239.000000	99.865931  
1238.000000	99.869861  
1237.000000	99.868986  
1236.000000	99.865492  
1235.000000	99.861871  
1234.000000	99.858729  
1233.000000	99.855620  
1232.000000	99.852126  
1231.000000	99.847646  
1230.000000	99.841778  
1229.000000	99.835816  
1228.000000	99.832635  
1227.000000	99.833949  
1226.000000	99.838247  
1225.000000	99.842245  
1224.000000	99.844015  
1223.000000	99.843906  
1222.000000	99.843096  
1221.000000	99.842460  
1220.000000	99.842714  
1219.000000	99.844474  
1218.000000	99.847534  
1217.000000	99.850456  
1216.000000	99.851353  
1215.000000	99.849268  
1214.000000	99.844819  
1213.000000	99.839379  
1212.000000	99.833680  
1211.000000	99.827694  
1210.000000	99.821916  
1209.000000	99.817790  
1208.000000	99.815989  
1207.000000	99.814898  
1206.000000	99.812071  
1205.000000	99.807015  
1204.000000	99.801253  
1203.000000	99.795823  
1202.000000	99.790215  
1201.000000	99.783917  
1200.000000	99.777372  
1199.000000	99.770924  
1198.000000	99.764376  
1197.000000	99.757992  
1196.000000	99.752069  
1195.000000	99.745187  
1194.000000	99.735057  
1193.000000	99.721920  
1192.000000	99.709287  
1191.000000	99.699874  
1190.000000	99.692155  
1189.000000	99.682773  
1188.000000	99.671102  
1187.000000	99.659408  
1186.000000	99.649323  
1185.000000	99.640258  
1184.000000	99.631113  
1183.000000	99.621583  
1182.000000	99.611624  
1181.000000	99.601224  
1180.000000	99.590859  
1179.000000	99.580859  
1178.000000	99.570261  
1177.000000	99.557615  
1176.000000	99.542936  
1175.000000	99.527523  
1174.000000	99.511728  
1173.000000	99.494491  
1172.000000	99.475552  
1171.000000	99.456736  
1170.000000	99.440170  
1169.000000	99.426132  
1168.000000	99.413378  
1167.000000	99.400986  
1166.000000	99.389614  
1165.000000	99.381456  
1164.000000	99.379002  
1163.000000	99.382995  
1162.000000	99.391187  
1161.000000	99.399831  
1160.000000	99.406699  
1159.000000	99.411642  
1158.000000	99.414036  
1157.000000	99.411068  
1156.000000	99.399847  
1155.000000	99.381177  
1154.000000	99.360601  
1153.000000	99.344772  
1152.000000	99.336117  
1151.000000	99.331033  
1150.000000	99.323559  
1149.000000	99.311087  
1148.000000	99.296205  
1147.000000	99.283077  
1146.000000	99.272951  
1145.000000	99.263877  
1144.000000	99.253748  
1143.000000	99.242057  
1142.000000	99.229195  
1141.000000	99.215723  
1140.000000	99.202678  
1139.000000	99.191262  
1138.000000	99.181531  
1137.000000	99.172055  
1136.000000	99.161296  
1135.000000	99.148871  
1134.000000	99.135214  
1133.000000	99.120452  
1132.000000	99.104053  
1131.000000	99.085811  
1130.000000	99.067290  
1129.000000	99.051685  
1128.000000	99.040814  
1127.000000	99.031856  
1126.000000	99.018733  
1125.000000	98.998221  
1124.000000	98.973741  
1123.000000	98.951886  
1122.000000	98.935657  
1121.000000	98.922638  
1120.000000	98.908977  
1119.000000	98.892816  
1118.000000	98.874031  
1117.000000	98.853156  
1116.000000	98.831487  
1115.000000	98.810689  
1114.000000	98.791395  
1113.000000	98.772858  
1112.000000	98.754019  
1111.000000	98.733921  
1110.000000	98.711310  
1109.000000	98.685603  
1108.000000	98.658563  
1107.000000	98.633240  
1106.000000	98.610843  
1105.000000	98.590064  
1104.000000	98.569330  
1103.000000	98.548475  
1102.000000	98.528211  
1101.000000	98.509213  
1100.000000	98.491735  
1099.000000	98.475693  
1098.000000	98.460319  
1097.000000	98.444817  
1096.000000	98.428974  
1095.000000	98.412419  
1094.000000	98.393576  
1093.000000	98.370380  
1092.000000	98.342022  
1091.000000	98.309494  
1090.000000	98.274854  
1089.000000	98.240545  
1088.000000	98.208737  
1087.000000	98.180055  
1086.000000	98.153118  
1085.000000	98.126367  
1084.000000	98.099966  
1083.000000	98.074621  
1082.000000	98.049179  
1081.000000	98.021410  
1080.000000	97.991186  
1079.000000	97.960994  
1078.000000	97.933204  
1077.000000	97.908804  
1076.000000	97.888837  
1075.000000	97.874596  
1074.000000	97.865704  
1073.000000	97.859786  
1072.000000	97.853844  
1071.000000	97.843494  
1070.000000	97.821676  
1069.000000	97.783071  
1068.000000	97.732267  
1067.000000	97.684695  
1066.000000	97.655326  
1065.000000	97.647026  
1064.000000	97.650832  
1063.000000	97.654358  
1062.000000	97.648238  
1061.000000	97.627440  
1060.000000	97.592068  
1059.000000	97.548932  
1058.000000	97.509107  
1057.000000	97.480617  
1056.000000	97.463295  
1055.000000	97.450868  
1054.000000	97.437432  
1053.000000	97.421731  
1052.000000	97.405808  
1051.000000	97.390884  
1050.000000	97.375781  
1049.000000	97.359122  
1048.000000	97.341374  
1047.000000	97.324211  
1046.000000	97.309283  
1045.000000	97.298020  
1044.000000	97.290871  
1043.000000	97.285887  
1042.000000	97.279804  
1041.000000	97.271808  
1040.000000	97.264786  
1039.000000	97.261981  
1038.000000	97.264341  
1037.000000	97.272082  
1036.000000	97.286063  
1035.000000	97.305577  
1034.000000	97.327051  
1033.000000	97.346801  
1032.000000	97.362338  
1031.000000	97.369584  
1030.000000	97.363951  
1029.000000	97.348931  
1028.000000	97.339721  
1027.000000	97.350997  
1026.000000	97.381175  
1025.000000	97.413551  
1024.000000	97.433486  
1023.000000	97.440017  
1022.000000	97.440765  
1021.000000	97.441597  
1020.000000	97.443884  
1019.000000	97.447731  
1018.000000	97.453706  
1017.000000	97.462119  
1016.000000	97.472442  
1015.000000	97.483312  
1014.000000	97.493288  
1013.000000	97.502652  
1012.000000	97.513703  
1011.000000	97.527540  
1010.000000	97.541398  
1009.000000	97.551474  
1008.000000	97.557847  
1007.000000	97.564335  
1006.000000	97.573961  
1005.000000	97.586863  
1004.000000	97.602076  
1003.000000	97.618718  
1002.000000	97.635473  
1001.000000	97.651305  
1000.000000	97.666660  
999.000000	 97.682032  
998.000000	 97.695973  
997.000000	 97.707013  
996.000000	 97.717119  
995.000000	 97.730340  
994.000000	 97.747760  
993.000000	 97.766321  
992.000000	 97.782899  
991.000000	 97.797117  
990.000000	 97.809831  
989.000000	 97.821563  
988.000000	 97.833237  
987.000000	 97.846216  
986.000000	 97.860989  
985.000000	 97.877710  
984.000000	 97.897510  
983.000000	 97.920689  
982.000000	 97.944517  
981.000000	 97.965343  
980.000000	 97.982982  
979.000000	 98.001150  
978.000000	 98.023489  
977.000000	 98.051092  
976.000000	 98.083132  
975.000000	 98.116987  
974.000000	 98.148325  
973.000000	 98.174444  
972.000000	 98.197785  
971.000000	 98.223459  
970.000000	 98.253169  
969.000000	 98.284045  
968.000000	 98.313404  
967.000000	 98.341803  
966.000000	 98.370837  
965.000000	 98.400319  
964.000000	 98.428463  
963.000000	 98.453621  
962.000000	 98.475968  
961.000000	 98.498466  
960.000000	 98.524818  
959.000000	 98.554533  
958.000000	 98.581598  
957.000000	 98.600904  
956.000000	 98.614803  
955.000000	 98.630497  
954.000000	 98.651645  
953.000000	 98.675633  
952.000000	 98.698549  
951.000000	 98.718920  
950.000000	 98.736397  
949.000000	 98.750541  
948.000000	 98.762070  
947.000000	 98.772594  
946.000000	 98.782042  
945.000000	 98.788572  
944.000000	 98.791957  
943.000000	 98.795221  
942.000000	 98.802047  
941.000000	 98.813603  
940.000000	 98.827967  
939.000000	 98.841365  
938.000000	 98.850414  
937.000000	 98.854992  
936.000000	 98.858851  
935.000000	 98.866096  
934.000000	 98.877393  
933.000000	 98.890792  
932.000000	 98.904923  
931.000000	 98.919214  
930.000000	 98.932045  
929.000000	 98.941183  
928.000000	 98.945732  
927.000000	 98.946185  
926.000000	 98.943782  
925.000000	 98.941633  
924.000000	 98.944710  
923.000000	 98.955649  
922.000000	 98.971251  
921.000000	 98.985532  
920.000000	 98.995373  
919.000000	 99.000866  
918.000000	 99.002159  
917.000000	 98.999703  
916.000000	 98.996562  
915.000000	 98.996383  
914.000000	 98.998939  
913.000000	 99.000956  
912.000000	 99.001442  
911.000000	 99.003095  
910.000000	 99.008416  
909.000000	 99.017638  
908.000000	 99.030495  
907.000000	 99.046718  
906.000000	 99.064284  
905.000000	 99.080107  
904.000000	 99.093044  
903.000000	 99.104085  
902.000000	 99.114161  
901.000000	 99.124389  
900.000000	 99.137683  
899.000000	 99.156506  
898.000000	 99.178619  
897.000000	 99.198240  
896.000000	 99.211845  
895.000000	 99.220412  
894.000000	 99.226615  
893.000000	 99.233115  
892.000000	 99.243365  
891.000000	 99.260193  
890.000000	 99.282463  
889.000000	 99.305854  
888.000000	 99.327658  
887.000000	 99.348110  
886.000000	 99.366911  
885.000000	 99.382127  
884.000000	 99.393444  
883.000000	 99.403073  
882.000000	 99.412186  
881.000000	 99.419987  
880.000000	 99.427949  
879.000000	 99.440981  
878.000000	 99.461499  
877.000000	 99.485167  
876.000000	 99.505291  
875.000000	 99.519226  
874.000000	 99.528473  
873.000000	 99.535550  
872.000000	 99.543308  
871.000000	 99.554647  
870.000000	 99.570003  
869.000000	 99.587192  
868.000000	 99.605661  
867.000000	 99.628091  
866.000000	 99.655299  
865.000000	 99.682532  
864.000000	 99.704538  
863.000000	 99.722291  
862.000000	 99.740629  
861.000000	 99.760103  
860.000000	 99.775630  
859.000000	 99.783912  
858.000000	 99.788476  
857.000000	 99.795719  
856.000000	 99.808442  
855.000000	 99.825226  
854.000000	 99.843908  
853.000000	 99.862824  
852.000000	 99.879464  
851.000000	 99.891158  
850.000000	 99.898311  
849.000000	 99.905020  
848.000000	 99.914733  
847.000000	 99.926372  
846.000000	 99.936333  
845.000000	 99.943275  
844.000000	 99.948794  
843.000000	 99.954191  
842.000000	 99.959441  
841.000000	 99.964929  
840.000000	 99.970526  
839.000000	 99.972641  
838.000000	 99.966858  
837.000000	 99.955351  
836.000000	 99.947097  
835.000000	 99.947399  
834.000000	 99.951515  
833.000000	 99.953453  
832.000000	 99.956676  
831.000000	 99.968379  
830.000000	 99.984858  
829.000000	 99.992031  
828.000000	 99.983189  
827.000000	 99.968644  
826.000000	 99.962986  
825.000000	 99.967691  
824.000000	 99.972760  
823.000000	 99.971817  
822.000000	 99.968396  
821.000000	 99.968520  
820.000000	 99.973160  
819.000000	 99.979048  
818.000000	 99.983761  
817.000000	 99.988497  
816.000000	 99.995778  
815.000000	 100.004212 
814.000000	 100.006764 
813.000000	 99.996299  
812.000000	 99.972304  
811.000000	 99.940087  
810.000000	 99.903619  
809.000000	 99.861662  
808.000000	 99.811432  
807.000000	 99.753309  
806.000000	 99.690626  
805.000000	 99.627092  
804.000000	 99.566230  
803.000000	 99.511795  
802.000000	 99.466672  
801.000000	 99.431473  
800.000000	 99.404679  
799.000000	 99.383969  
798.000000	 99.368488  
797.000000	 99.360756  
796.000000	 99.364420  
795.000000	 99.378246  
794.000000	 99.394348  
793.000000	 99.405137  
792.000000	 99.410337  
791.000000	 99.414321  
790.000000	 99.418928  
789.000000	 99.422524  
788.000000	 99.423764  
787.000000	 99.421575  
786.000000	 99.412772  
785.000000	 99.394611  
784.000000	 99.369553  
783.000000	 99.343705  
782.000000	 99.320950  
781.000000	 99.302044  
780.000000	 99.288091  
779.000000	 99.280183  
778.000000	 99.276313  
777.000000	 99.273589  
776.000000	 99.273477  
775.000000	 99.280463  
774.000000	 99.295653  
773.000000	 99.315873  
772.000000	 99.338605  
771.000000	 99.363203  
770.000000	 99.387471  
769.000000	 99.407709  
768.000000	 99.422423  
767.000000	 99.432545  
766.000000	 99.438838  
765.000000	 99.443058  
764.000000	 99.450249  
763.000000	 99.464479  
762.000000	 99.482179  
761.000000	 99.494735  
760.000000	 99.498628  
759.000000	 99.499160  
758.000000	 99.503851  
757.000000	 99.515423  
756.000000	 99.530896  
755.000000	 99.543821  
754.000000	 99.548115  
753.000000	 99.544020  
752.000000	 99.540348  
751.000000	 99.547070  
750.000000	 99.565232  
749.000000	 99.586623  
748.000000	 99.602862  
747.000000	 99.612163  
746.000000	 99.617967  
745.000000	 99.624780  
744.000000	 99.635347  
743.000000	 99.648877  
742.000000	 99.662025  
741.000000	 99.673781  
740.000000	 99.687897  
739.000000	 99.707463  
738.000000	 99.728925  
737.000000	 99.745255  
736.000000	 99.753590  
735.000000	 99.756032  
734.000000	 99.755329  
733.000000	 99.753959  
732.000000	 99.756106  
731.000000	 99.764981  
730.000000	 99.777581  
729.000000	 99.787368  
728.000000	 99.793203  
727.000000	 99.800298  
726.000000	 99.810884  
725.000000	 99.819615  
724.000000	 99.821204  
723.000000	 99.817593  
722.000000	 99.814690  
721.000000	 99.816392  
720.000000	 99.824569  
719.000000	 99.840111  
718.000000	 99.860136  
717.000000	 99.877892  
716.000000	 99.888885  
715.000000	 99.894130  
714.000000	 99.896067  
713.000000	 99.895529  
712.000000	 99.895027  
711.000000	 99.899890  
710.000000	 99.911627  
709.000000	 99.923863  
708.000000	 99.929149  
707.000000	 99.926880  
706.000000	 99.920980  
705.000000	 99.913207  
704.000000	 99.903523  
703.000000	 99.894635  
702.000000	 99.891042  
701.000000	 99.893004  
700.000000	 99.894196  
699.000000	 99.886120  
698.000000	 99.865527  
697.000000	 99.838831  
696.000000	 99.818459  
695.000000	 99.812304  
694.000000	 99.817163  
693.000000	 99.824202  
692.000000	 99.829781  
691.000000	 99.836589  
690.000000	 99.845689  
689.000000	 99.853934  
688.000000	 99.860010  
687.000000	 99.866682  
686.000000	 99.874549  
685.000000	 99.879862  
684.000000	 99.881189  
683.000000	 99.882727  
682.000000	 99.888749  
681.000000	 99.898818  
680.000000	 99.909631  
679.000000	 99.917906  
678.000000	 99.920697  
677.000000	 99.917580  
676.000000	 99.913365  
675.000000	 99.913900  
674.000000	 99.919186  
673.000000	 99.923872  
672.000000	 99.924334  
671.000000	 99.922094  
670.000000	 99.920819  
669.000000	 99.924267  
668.000000	 99.934892  
667.000000	 99.948943  
666.000000	 99.959411  
665.000000	 99.963753  
664.000000	 99.964356  
663.000000	 99.966730  
662.000000	 99.974216  
661.000000	 99.983149  
660.000000	 99.987085  
659.000000	 99.984377  
658.000000	 99.978627  
657.000000	 99.974487  
656.000000	 99.973993  
655.000000	 99.977350  
654.000000	 99.983735  
653.000000	 99.990958  
652.000000	 99.996799  
651.000000	 100.001369 
650.000000	 100.006477 

