4000.000000	100.973440 
3999.000000	100.973097 
3998.000000	100.972795 
3997.000000	100.972784 
3996.000000	100.973013 
3995.000000	100.973163 
3994.000000	100.973039 
3993.000000	100.972850 
3992.000000	100.972994 
3991.000000	100.973547 
3990.000000	100.974022 
3989.000000	100.973816 
3988.000000	100.972866 
3987.000000	100.971781 
3986.000000	100.971207 
3985.000000	100.971203 
3984.000000	100.971412 
3983.000000	100.971677 
3982.000000	100.972234 
3981.000000	100.973253 
3980.000000	100.974486 
3979.000000	100.975453 
3978.000000	100.975826 
3977.000000	100.975525 
3976.000000	100.974694 
3975.000000	100.973663 
3974.000000	100.972720 
3973.000000	100.971938 
3972.000000	100.971336 
3971.000000	100.971053 
3970.000000	100.971213 
3969.000000	100.971670 
3968.000000	100.972073 
3967.000000	100.972169 
3966.000000	100.971925 
3965.000000	100.971450 
3964.000000	100.970917 
3963.000000	100.970508 
3962.000000	100.970290 
3961.000000	100.970144 
3960.000000	100.969908 
3959.000000	100.969548 
3958.000000	100.969152 
3957.000000	100.968800 
3956.000000	100.968512 
3955.000000	100.968262 
3954.000000	100.968007 
3953.000000	100.967724 
3952.000000	100.967417 
3951.000000	100.967100 
3950.000000	100.966775 
3949.000000	100.966441 
3948.000000	100.966105 
3947.000000	100.965777 
3946.000000	100.965464 
3945.000000	100.965169 
3944.000000	100.964883 
3943.000000	100.964592 
3942.000000	100.964285 
3941.000000	100.963962 
3940.000000	100.963627 
3939.000000	100.963282 
3938.000000	100.962928 
3937.000000	100.962564 
3936.000000	100.962194 
3935.000000	100.961830 
3934.000000	100.961485 
3933.000000	100.961166 
3932.000000	100.960875 
3931.000000	100.960608 
3930.000000	100.960356 
3929.000000	100.960111 
3928.000000	100.959872 
3927.000000	100.959636 
3926.000000	100.959404 
3925.000000	100.959176 
3924.000000	100.958955 
3923.000000	100.958747 
3922.000000	100.958558 
3921.000000	100.958388 
3920.000000	100.958225 
3919.000000	100.958061 
3918.000000	100.957900 
3917.000000	100.957751 
3916.000000	100.957622 
3915.000000	100.957506 
3914.000000	100.957393 
3913.000000	100.957275 
3912.000000	100.957153 
3911.000000	100.957031 
3910.000000	100.956912 
3909.000000	100.956798 
3908.000000	100.956696 
3907.000000	100.956613 
3906.000000	100.956548 
3905.000000	100.956486 
3904.000000	100.956404 
3903.000000	100.956290 
3902.000000	100.956145 
3901.000000	100.955984 
3900.000000	100.955817 
3899.000000	100.955646 
3898.000000	100.955464 
3897.000000	100.955272 
3896.000000	100.955088 
3895.000000	100.954925 
3894.000000	100.954783 
3893.000000	100.954653 
3892.000000	100.954528 
3891.000000	100.954400 
3890.000000	100.954261 
3889.000000	100.954106 
3888.000000	100.953934 
3887.000000	100.953750 
3886.000000	100.953557 
3885.000000	100.953351 
3884.000000	100.953135 
3883.000000	100.952920 
3882.000000	100.952718 
3881.000000	100.952527 
3880.000000	100.952331 
3879.000000	100.952123 
3878.000000	100.951911 
3877.000000	100.951711 
3876.000000	100.951528 
3875.000000	100.951354 
3874.000000	100.951173 
3873.000000	100.950977 
3872.000000	100.950775 
3871.000000	100.950584 
3870.000000	100.950406 
3869.000000	100.950227 
3868.000000	100.950043 
3867.000000	100.949863 
3866.000000	100.949691 
3865.000000	100.949514 
3864.000000	100.949320 
3863.000000	100.949117 
3862.000000	100.948928 
3861.000000	100.948766 
3860.000000	100.948622 
3859.000000	100.948490 
3858.000000	100.948374 
3857.000000	100.948282 
3856.000000	100.948222 
3855.000000	100.948200 
3854.000000	100.948209 
3853.000000	100.948219 
3852.000000	100.948214 
3851.000000	100.948201 
3850.000000	100.948187 
3849.000000	100.948174 
3848.000000	100.948155 
3847.000000	100.948124 
3846.000000	100.948080 
3845.000000	100.948029 
3844.000000	100.947981 
3843.000000	100.947943 
3842.000000	100.947909 
3841.000000	100.947866 
3840.000000	100.947809 
3839.000000	100.947735 
3838.000000	100.947647 
3837.000000	100.947540 
3836.000000	100.947407 
3835.000000	100.947243 
3834.000000	100.947049 
3833.000000	100.946830 
3832.000000	100.946593 
3831.000000	100.946341 
3830.000000	100.946077 
3829.000000	100.945802 
3828.000000	100.945522 
3827.000000	100.945248 
3826.000000	100.944988 
3825.000000	100.944738 
3824.000000	100.944489 
3823.000000	100.944244 
3822.000000	100.944008 
3821.000000	100.943769 
3820.000000	100.943500 
3819.000000	100.943195 
3818.000000	100.942867 
3817.000000	100.942534 
3816.000000	100.942191 
3815.000000	100.941821 
3814.000000	100.941420 
3813.000000	100.941006 
3812.000000	100.940591 
3811.000000	100.940172 
3810.000000	100.939748 
3809.000000	100.939325 
3808.000000	100.938914 
3807.000000	100.938518 
3806.000000	100.938127 
3805.000000	100.937735 
3804.000000	100.937355 
3803.000000	100.937004 
3802.000000	100.936682 
3801.000000	100.936371 
3800.000000	100.936060 
3799.000000	100.935770 
3798.000000	100.935522 
3797.000000	100.935316 
3796.000000	100.935141 
3795.000000	100.934995 
3794.000000	100.934894 
3793.000000	100.934852 
3792.000000	100.934864 
3791.000000	100.934919 
3790.000000	100.935007 
3789.000000	100.935128 
3788.000000	100.935280 
3787.000000	100.935466 
3786.000000	100.935680 
3785.000000	100.935899 
3784.000000	100.936101 
3783.000000	100.936275 
3782.000000	100.936432 
3781.000000	100.936580 
3780.000000	100.936721 
3779.000000	100.936853 
3778.000000	100.936988 
3777.000000	100.937146 
3776.000000	100.937331 
3775.000000	100.937538 
3774.000000	100.937759 
3773.000000	100.937997 
3772.000000	100.938258 
3771.000000	100.938535 
3770.000000	100.938810 
3769.000000	100.939075 
3768.000000	100.939339 
3767.000000	100.939613 
3766.000000	100.939896 
3765.000000	100.940175 
3764.000000	100.940444 
3763.000000	100.940709 
3762.000000	100.940976 
3761.000000	100.941240 
3760.000000	100.941486 
3759.000000	100.941708 
3758.000000	100.941914 
3757.000000	100.942099 
3756.000000	100.942242 
3755.000000	100.942324 
3754.000000	100.942344 
3753.000000	100.942308 
3752.000000	100.942213 
3751.000000	100.942047 
3750.000000	100.941807 
3749.000000	100.941505 
3748.000000	100.941142 
3747.000000	100.940718 
3746.000000	100.940239 
3745.000000	100.939708 
3744.000000	100.939111 
3743.000000	100.938445 
3742.000000	100.937731 
3741.000000	100.936992 
3740.000000	100.936222 
3739.000000	100.935399 
3738.000000	100.934513 
3737.000000	100.933568 
3736.000000	100.932571 
3735.000000	100.931514 
3734.000000	100.930388 
3733.000000	100.929196 
3732.000000	100.927941 
3731.000000	100.926619 
3730.000000	100.925225 
3729.000000	100.923763 
3728.000000	100.922247 
3727.000000	100.920729 
3726.000000	100.919149 
3725.000000	100.917415 
3724.000000	100.915658 
3723.000000	100.914039 
3722.000000	100.912374 
3721.000000	100.910364 
3720.000000	100.908111 
3719.000000	100.905958 
3718.000000	100.904044 
3717.000000	100.901975 
3716.000000	100.899226 
3715.000000	100.895821 
3714.000000	100.892337 
3713.000000	100.889234 
3712.000000	100.886343 
3711.000000	100.883371 
3710.000000	100.880497 
3709.000000	100.877932 
3708.000000	100.875547 
3707.000000	100.873011 
3706.000000	100.870031 
3705.000000	100.866572 
3704.000000	100.862885 
3703.000000	100.859297 
3702.000000	100.855911 
3701.000000	100.852595 
3700.000000	100.849212 
3699.000000	100.845777 
3698.000000	100.842462 
3697.000000	100.839266 
3696.000000	100.835883 
3695.000000	100.832321 
3694.000000	100.829085 
3693.000000	100.826426 
3692.000000	100.823918 
3691.000000	100.821070 
3690.000000	100.817957 
3689.000000	100.814827 
3688.000000	100.811747 
3687.000000	100.808712 
3686.000000	100.805774 
3685.000000	100.803020 
3684.000000	100.800380 
3683.000000	100.797618 
3682.000000	100.794663 
3681.000000	100.791752 
3680.000000	100.789022 
3679.000000	100.786268 
3678.000000	100.783344 
3677.000000	100.780648 
3676.000000	100.778508 
3675.000000	100.776601 
3674.000000	100.774552 
3673.000000	100.772485 
3672.000000	100.770686 
3671.000000	100.769204 
3670.000000	100.767601 
3669.000000	100.765575 
3668.000000	100.763409 
3667.000000	100.761537 
3666.000000	100.759972 
3665.000000	100.758467 
3664.000000	100.756884 
3663.000000	100.755356 
3662.000000	100.754111 
3661.000000	100.753196 
3660.000000	100.752435 
3659.000000	100.751670 
3658.000000	100.750920 
3657.000000	100.750284 
3656.000000	100.749728 
3655.000000	100.749200 
3654.000000	100.748753 
3653.000000	100.748449 
3652.000000	100.748270 
3651.000000	100.748073 
3650.000000	100.747700 
3649.000000	100.747191 
3648.000000	100.746745 
3647.000000	100.746467 
3646.000000	100.746305 
3645.000000	100.746212 
3644.000000	100.746197 
3643.000000	100.746270 
3642.000000	100.746411 
3641.000000	100.746610 
3640.000000	100.746894 
3639.000000	100.747284 
3638.000000	100.747755 
3637.000000	100.748266 
3636.000000	100.748795 
3635.000000	100.749348 
3634.000000	100.749923 
3633.000000	100.750519 
3632.000000	100.751145 
3631.000000	100.751825 
3630.000000	100.752584 
3629.000000	100.753394 
3628.000000	100.754163 
3627.000000	100.754886 
3626.000000	100.755729 
3625.000000	100.756777 
3624.000000	100.757950 
3623.000000	100.759028 
3622.000000	100.759909 
3621.000000	100.760736 
3620.000000	100.761718 
3619.000000	100.762856 
3618.000000	100.764080 
3617.000000	100.765460 
3616.000000	100.767052 
3615.000000	100.768823 
3614.000000	100.770586 
3613.000000	100.771895 
3612.000000	100.772353 
3611.000000	100.772180 
3610.000000	100.772186 
3609.000000	100.772895 
3608.000000	100.773928 
3607.000000	100.774726 
3606.000000	100.775615 
3605.000000	100.777227 
3604.000000	100.779479 
3603.000000	100.781610 
3602.000000	100.783181 
3601.000000	100.784572 
3600.000000	100.786252 
3599.000000	100.788520 
3598.000000	100.791391 
3597.000000	100.794247 
3596.000000	100.795983 
3595.000000	100.796345 
3594.000000	100.796170 
3593.000000	100.796841 
3592.000000	100.799096 
3591.000000	100.802383 
3590.000000	100.805576 
3589.000000	100.807623 
3588.000000	100.807244 
3587.000000	100.803905 
3586.000000	100.799749 
3585.000000	100.797609 
3584.000000	100.797634 
3583.000000	100.797766 
3582.000000	100.796396 
3581.000000	100.793859 
3580.000000	100.791412 
3579.000000	100.789793 
3578.000000	100.788783 
3577.000000	100.787941 
3576.000000	100.787213 
3575.000000	100.786892 
3574.000000	100.787303 
3573.000000	100.788455 
3572.000000	100.789966 
3571.000000	100.790870 
3570.000000	100.790258 
3569.000000	100.788181 
3568.000000	100.785392 
3567.000000	100.782734 
3566.000000	100.781481 
3565.000000	100.782553 
3564.000000	100.785099 
3563.000000	100.787038 
3562.000000	100.787018 
3561.000000	100.785346 
3560.000000	100.783275 
3559.000000	100.781589 
3558.000000	100.780161 
3557.000000	100.778544 
3556.000000	100.776634 
3555.000000	100.774816 
3554.000000	100.773709 
3553.000000	100.773563 
3552.000000	100.773910 
3551.000000	100.774016 
3550.000000	100.773611 
3549.000000	100.772980 
3548.000000	100.772457 
3547.000000	100.772092 
3546.000000	100.771802 
3545.000000	100.771570 
3544.000000	100.771409 
3543.000000	100.771287 
3542.000000	100.771173 
3541.000000	100.771032 
3540.000000	100.770795 
3539.000000	100.770406 
3538.000000	100.769916 
3537.000000	100.769415 
3536.000000	100.768884 
3535.000000	100.768260 
3534.000000	100.767571 
3533.000000	100.766942 
3532.000000	100.766444 
3531.000000	100.766069 
3530.000000	100.765822 
3529.000000	100.765741 
3528.000000	100.765785 
3527.000000	100.765823 
3526.000000	100.765761 
3525.000000	100.765582 
3524.000000	100.765295 
3523.000000	100.764932 
3522.000000	100.764583 
3521.000000	100.764317 
3520.000000	100.764113 
3519.000000	100.763907 
3518.000000	100.763673 
3517.000000	100.763431 
3516.000000	100.763201 
3515.000000	100.762979 
3514.000000	100.762751 
3513.000000	100.762505 
3512.000000	100.762244 
3511.000000	100.761966 
3510.000000	100.761672 
3509.000000	100.761365 
3508.000000	100.761049 
3507.000000	100.760726 
3506.000000	100.760393 
3505.000000	100.760042 
3504.000000	100.759671 
3503.000000	100.759281 
3502.000000	100.758878 
3501.000000	100.758468 
3500.000000	100.758052 
3499.000000	100.757621 
3498.000000	100.757171 
3497.000000	100.756699 
3496.000000	100.756208 
3495.000000	100.755701 
3494.000000	100.755180 
3493.000000	100.754640 
3492.000000	100.754067 
3491.000000	100.753449 
3490.000000	100.752795 
3489.000000	100.752142 
3488.000000	100.751522 
3487.000000	100.750933 
3486.000000	100.750339 
3485.000000	100.749725 
3484.000000	100.749121 
3483.000000	100.748571 
3482.000000	100.748052 
3481.000000	100.747454 
3480.000000	100.746658 
3479.000000	100.745656 
3478.000000	100.744600 
3477.000000	100.743659 
3476.000000	100.742830 
3475.000000	100.741949 
3474.000000	100.740943 
3473.000000	100.740000 
3472.000000	100.739369 
3471.000000	100.739058 
3470.000000	100.738800 
3469.000000	100.738332 
3468.000000	100.737613 
3467.000000	100.736724 
3466.000000	100.735675 
3465.000000	100.734428 
3464.000000	100.733065 
3463.000000	100.731780 
3462.000000	100.730661 
3461.000000	100.729582 
3460.000000	100.728370 
3459.000000	100.727075 
3458.000000	100.725986 
3457.000000	100.725336 
3456.000000	100.725014 
3455.000000	100.724621 
3454.000000	100.723852 
3453.000000	100.722818 
3452.000000	100.721840 
3451.000000	100.721068 
3450.000000	100.720440 
3449.000000	100.719917 
3448.000000	100.719478 
3447.000000	100.718964 
3446.000000	100.718218 
3445.000000	100.717359 
3444.000000	100.716683 
3443.000000	100.716293 
3442.000000	100.716011 
3441.000000	100.715665 
3440.000000	100.715275 
3439.000000	100.714889 
3438.000000	100.714376 
3437.000000	100.713556 
3436.000000	100.712463 
3435.000000	100.711393 
3434.000000	100.710691 
3433.000000	100.710484 
3432.000000	100.710583 
3431.000000	100.710578 
3430.000000	100.710153 
3429.000000	100.709251 
3428.000000	100.708026 
3427.000000	100.706684 
3426.000000	100.705433 
3425.000000	100.704472 
3424.000000	100.703937 
3423.000000	100.703824 
3422.000000	100.703962 
3421.000000	100.704053 
3420.000000	100.703804 
3419.000000	100.703139 
3418.000000	100.702322 
3417.000000	100.701764 
3416.000000	100.701589 
3415.000000	100.701507 
3414.000000	100.701178 
3413.000000	100.700617 
3412.000000	100.700132 
3411.000000	100.699965 
3410.000000	100.700129 
3409.000000	100.700475 
3408.000000	100.700745 
3407.000000	100.700626 
3406.000000	100.699971 
3405.000000	100.699020 
3404.000000	100.698318 
3403.000000	100.698324 
3402.000000	100.699071 
3401.000000	100.700146 
3400.000000	100.700961 
3399.000000	100.701186 
3398.000000	100.700976 
3397.000000	100.700792 
3396.000000	100.700916 
3395.000000	100.701159 
3394.000000	100.701104 
3393.000000	100.700556 
3392.000000	100.699666 
3391.000000	100.698667 
3390.000000	100.697625 
3389.000000	100.696493 
3388.000000	100.695355 
3387.000000	100.694509 
3386.000000	100.694218 
3385.000000	100.694441 
3384.000000	100.694872 
3383.000000	100.695280 
3382.000000	100.695697 
3381.000000	100.696236 
3380.000000	100.696799 
3379.000000	100.697066 
3378.000000	100.696827 
3377.000000	100.696326 
3376.000000	100.696272 
3375.000000	100.697353 
3374.000000	100.699645 
3373.000000	100.702372 
3372.000000	100.704315 
3371.000000	100.704737 
3370.000000	100.703883 
3369.000000	100.702737 
3368.000000	100.702212 
3367.000000	100.702441 
3366.000000	100.702843 
3365.000000	100.702762 
3364.000000	100.702048 
3363.000000	100.701094 
3362.000000	100.700395 
3361.000000	100.700071 
3360.000000	100.699815 
3359.000000	100.699295 
3358.000000	100.698596 
3357.000000	100.698224 
3356.000000	100.698629 
3355.000000	100.699753 
3354.000000	100.701033 
3353.000000	100.701855 
3352.000000	100.702017 
3351.000000	100.701790 
3350.000000	100.701646 
3349.000000	100.701939 
3348.000000	100.702742 
3347.000000	100.703853 
3346.000000	100.704891 
3345.000000	100.705490 
3344.000000	100.705473 
3343.000000	100.704903 
3342.000000	100.704004 
3341.000000	100.703060 
3340.000000	100.702398 
3339.000000	100.702264 
3338.000000	100.702554 
3337.000000	100.702731 
3336.000000	100.702247 
3335.000000	100.701147 
3334.000000	100.700172 
3333.000000	100.700096 
3332.000000	100.701027 
3331.000000	100.702361 
3330.000000	100.703392 
3329.000000	100.703948 
3328.000000	100.704343 
3327.000000	100.704883 
3326.000000	100.705511 
3325.000000	100.705943 
3324.000000	100.706090 
3323.000000	100.706244 
3322.000000	100.706734 
3321.000000	100.707483 
3320.000000	100.708022 
3319.000000	100.708005 
3318.000000	100.707572 
3317.000000	100.707220 
3316.000000	100.707321 
3315.000000	100.707862 
3314.000000	100.708570 
3313.000000	100.709203 
3312.000000	100.709731 
3311.000000	100.710285 
3310.000000	100.710953 
3309.000000	100.711636 
3308.000000	100.712135 
3307.000000	100.712376 
3306.000000	100.712464 
3305.000000	100.712479 
3304.000000	100.712348 
3303.000000	100.712013 
3302.000000	100.711661 
3301.000000	100.711648 
3300.000000	100.712167 
3299.000000	100.713061 
3298.000000	100.713905 
3297.000000	100.714362 
3296.000000	100.714430 
3295.000000	100.714383 
3294.000000	100.714528 
3293.000000	100.714958 
3292.000000	100.715514 
3291.000000	100.715936 
3290.000000	100.716062 
3289.000000	100.715908 
3288.000000	100.715605 
3287.000000	100.715321 
3286.000000	100.715217 
3285.000000	100.715332 
3284.000000	100.715510 
3283.000000	100.715536 
3282.000000	100.715372 
3281.000000	100.715169 
3280.000000	100.715022 
3279.000000	100.714839 
3278.000000	100.714537 
3277.000000	100.714248 
3276.000000	100.714236 
3275.000000	100.714641 
3274.000000	100.715381 
3273.000000	100.716203 
3272.000000	100.716775 
3271.000000	100.716813 
3270.000000	100.716254 
3269.000000	100.715383 
3268.000000	100.714721 
3267.000000	100.714694 
3266.000000	100.715410 
3265.000000	100.716672 
3264.000000	100.718118 
3263.000000	100.719406 
3262.000000	100.720331 
3261.000000	100.720812 
3260.000000	100.720845 
3259.000000	100.720474 
3258.000000	100.719817 
3257.000000	100.719098 
3256.000000	100.718556 
3255.000000	100.718313 
3254.000000	100.718354 
3253.000000	100.718604 
3252.000000	100.718969 
3251.000000	100.719334 
3250.000000	100.719583 
3249.000000	100.719684 
3248.000000	100.719727 
3247.000000	100.719816 
3246.000000	100.719924 
3245.000000	100.719903 
3244.000000	100.719716 
3243.000000	100.719615 
3242.000000	100.719986 
3241.000000	100.720990 
3240.000000	100.722353 
3239.000000	100.723464 
3238.000000	100.723861 
3237.000000	100.723566 
3236.000000	100.723067 
3235.000000	100.722896 
3234.000000	100.723185 
3233.000000	100.723691 
3232.000000	100.724149 
3231.000000	100.724534 
3230.000000	100.724949 
3229.000000	100.725358 
3228.000000	100.725516 
3227.000000	100.725178 
3226.000000	100.724324 
3225.000000	100.723240 
3224.000000	100.722416 
3223.000000	100.722269 
3222.000000	100.722868 
3221.000000	100.723893 
3220.000000	100.724909 
3219.000000	100.725670 
3218.000000	100.726118 
3217.000000	100.726209 
3216.000000	100.725926 
3215.000000	100.725460 
3214.000000	100.725193 
3213.000000	100.725392 
3212.000000	100.725954 
3211.000000	100.726596 
3210.000000	100.727298 
3209.000000	100.728350 
3208.000000	100.729872 
3207.000000	100.731412 
3206.000000	100.732254 
3205.000000	100.732157 
3204.000000	100.731699 
3203.000000	100.731782 
3202.000000	100.732832 
3201.000000	100.734578 
3200.000000	100.736462 
3199.000000	100.738006 
3198.000000	100.738870 
3197.000000	100.738930 
3196.000000	100.738439 
3195.000000	100.737900 
3194.000000	100.737496 
3193.000000	100.736854 
3192.000000	100.735708 
3191.000000	100.734581 
3190.000000	100.734380 
3189.000000	100.735352 
3188.000000	100.736764 
3187.000000	100.737629 
3186.000000	100.737587 
3185.000000	100.736981 
3184.000000	100.736390 
3183.000000	100.736194 
3182.000000	100.736475 
3181.000000	100.737089 
3180.000000	100.737762 
3179.000000	100.738250 
3178.000000	100.738451 
3177.000000	100.738352 
3176.000000	100.737950 
3175.000000	100.737370 
3174.000000	100.737014 
3173.000000	100.737356 
3172.000000	100.738468 
3171.000000	100.739840 
3170.000000	100.740761 
3169.000000	100.740993 
3168.000000	100.740948 
3167.000000	100.741230 
3166.000000	100.742053 
3165.000000	100.743140 
3164.000000	100.744073 
3163.000000	100.744666 
3162.000000	100.744997 
3161.000000	100.745223 
3160.000000	100.745422 
3159.000000	100.745590 
3158.000000	100.745716 
3157.000000	100.745838 
3156.000000	100.746032 
3155.000000	100.746356 
3154.000000	100.746794 
3153.000000	100.747266 
3152.000000	100.747679 
3151.000000	100.747971 
3150.000000	100.748120 
3149.000000	100.748155 
3148.000000	100.748176 
3147.000000	100.748332 
3146.000000	100.748703 
3145.000000	100.749215 
3144.000000	100.749680 
3143.000000	100.749987 
3142.000000	100.750214 
3141.000000	100.750505 
3140.000000	100.750865 
3139.000000	100.751148 
3138.000000	100.751258 
3137.000000	100.751277 
3136.000000	100.751380 
3135.000000	100.751635 
3134.000000	100.751942 
3133.000000	100.752154 
3132.000000	100.752228 
3131.000000	100.752228 
3130.000000	100.752219 
3129.000000	100.752210 
3128.000000	100.752190 
3127.000000	100.752198 
3126.000000	100.752307 
3125.000000	100.752548 
3124.000000	100.752876 
3123.000000	100.753176 
3122.000000	100.753360 
3121.000000	100.753440 
3120.000000	100.753518 
3119.000000	100.753700 
3118.000000	100.753966 
3117.000000	100.754131 
3116.000000	100.754001 
3115.000000	100.753608 
3114.000000	100.753255 
3113.000000	100.753225 
3112.000000	100.753506 
3111.000000	100.753851 
3110.000000	100.754075 
3109.000000	100.754172 
3108.000000	100.754168 
3107.000000	100.754029 
3106.000000	100.753799 
3105.000000	100.753668 
3104.000000	100.753800 
3103.000000	100.754219 
3102.000000	100.754909 
3101.000000	100.755851 
3100.000000	100.756831 
3099.000000	100.757413 
3098.000000	100.757280 
3097.000000	100.756561 
3096.000000	100.755785 
3095.000000	100.755480 
3094.000000	100.755828 
3093.000000	100.756651 
3092.000000	100.757555 
3091.000000	100.758152 
3090.000000	100.758277 
3089.000000	100.758133 
3088.000000	100.758234 
3087.000000	100.759074 
3086.000000	100.760696 
3085.000000	100.762505 
3084.000000	100.763642 
3083.000000	100.763698 
3082.000000	100.763103 
3081.000000	100.762685 
3080.000000	100.762823 
3079.000000	100.763162 
3078.000000	100.763001 
3077.000000	100.761758 
3076.000000	100.759220 
3075.000000	100.755805 
3074.000000	100.752646 
3073.000000	100.750969 
3072.000000	100.751189 
3071.000000	100.752873 
3070.000000	100.755422 
3069.000000	100.758077 
3068.000000	100.759285 
3067.000000	100.757295 
3066.000000	100.752220 
3065.000000	100.746843 
3064.000000	100.744295 
3063.000000	100.745140 
3062.000000	100.747356 
3061.000000	100.748738 
3060.000000	100.748773 
3059.000000	100.748477 
3058.000000	100.749110 
3057.000000	100.751020 
3056.000000	100.753261 
3055.000000	100.754410 
3054.000000	100.753987 
3053.000000	100.752793 
3052.000000	100.751685 
3051.000000	100.750561 
3050.000000	100.748901 
3049.000000	100.746669 
3048.000000	100.744071 
3047.000000	100.740900 
3046.000000	100.736981 
3045.000000	100.733082 
3044.000000	100.730585 
3043.000000	100.730039 
3042.000000	100.730383 
3041.000000	100.729712 
3040.000000	100.726777 
3039.000000	100.721948 
3038.000000	100.717034 
3037.000000	100.713879 
3036.000000	100.712675 
3035.000000	100.711713 
3034.000000	100.708999 
3033.000000	100.703974 
3032.000000	100.697491 
3031.000000	100.690596 
3030.000000	100.683542 
3029.000000	100.675727 
3028.000000	100.666495 
3027.000000	100.656168 
3026.000000	100.646351 
3025.000000	100.638748 
3024.000000	100.633308 
3023.000000	100.627943 
3022.000000	100.620523 
3021.000000	100.610798 
3020.000000	100.600107 
3019.000000	100.589800 
3018.000000	100.580516 
3017.000000	100.572398 
3016.000000	100.564992 
3015.000000	100.557122 
3014.000000	100.547664 
3013.000000	100.536404 
3012.000000	100.523499 
3011.000000	100.508331 
3010.000000	100.490071 
3009.000000	100.469779 
3008.000000	100.451019 
3007.000000	100.437409 
3006.000000	100.429482 
3005.000000	100.424186 
3004.000000	100.417307 
3003.000000	100.406410 
3002.000000	100.392005 
3001.000000	100.376666 
3000.000000	100.363112 
2999.000000	100.352520 
2998.000000	100.344140 
2997.000000	100.336653 
2996.000000	100.329938 
2995.000000	100.324777 
2994.000000	100.320136 
2993.000000	100.311548 
2992.000000	100.294263 
2991.000000	100.269048 
2990.000000	100.243727 
2989.000000	100.227196 
2988.000000	100.222162 
2987.000000	100.224544 
2986.000000	100.228960 
2985.000000	100.233450 
2984.000000	100.238565 
2983.000000	100.243895 
2982.000000	100.247400 
2981.000000	100.247590 
2980.000000	100.245070 
2979.000000	100.241778 
2978.000000	100.239420 
2977.000000	100.238563 
2976.000000	100.238574 
2975.000000	100.238275 
2974.000000	100.236988 
2973.000000	100.235017 
2972.000000	100.233118 
2971.000000	100.231895 
2970.000000	100.232022 
2969.000000	100.234526 
2968.000000	100.240153 
2967.000000	100.248431 
2966.000000	100.257769 
2965.000000	100.266619 
2964.000000	100.274474 
2963.000000	100.281855 
2962.000000	100.289500 
2961.000000	100.297417 
2960.000000	100.304677 
2959.000000	100.310452 
2958.000000	100.315301 
2957.000000	100.320804 
2956.000000	100.327479 
2955.000000	100.333579 
2954.000000	100.336805 
2953.000000	100.337350 
2952.000000	100.338621 
2951.000000	100.344454 
2950.000000	100.355463 
2949.000000	100.368194 
2948.000000	100.378044 
2947.000000	100.383086 
2946.000000	100.384941 
2945.000000	100.386262 
2944.000000	100.387894 
2943.000000	100.389094 
2942.000000	100.389900 
2941.000000	100.391568 
2940.000000	100.394302 
2939.000000	100.396022 
2938.000000	100.394435 
2937.000000	100.389699 
2936.000000	100.384366 
2935.000000	100.381145 
2934.000000	100.381151 
2933.000000	100.383712 
2932.000000	100.386823 
2931.000000	100.388038 
2930.000000	100.385880 
2929.000000	100.380778 
2928.000000	100.374565 
2927.000000	100.369165 
2926.000000	100.365743 
2925.000000	100.364353 
2924.000000	100.363940 
2923.000000	100.363238 
2922.000000	100.362210 
2921.000000	100.362034 
2920.000000	100.363150 
2919.000000	100.364012 
2918.000000	100.362647 
2917.000000	100.358946 
2916.000000	100.354660 
2915.000000	100.351583 
2914.000000	100.350566 
2913.000000	100.351716 
2912.000000	100.354158 
2911.000000	100.355675 
2910.000000	100.353984 
2909.000000	100.348928 
2908.000000	100.342758 
2907.000000	100.337818 
2906.000000	100.334348 
2905.000000	100.330658 
2904.000000	100.325052 
2903.000000	100.317548 
2902.000000	100.310677 
2901.000000	100.308616 
2900.000000	100.314186 
2899.000000	100.326187 
2898.000000	100.339500 
2897.000000	100.348832 
2896.000000	100.352800 
2895.000000	100.354385 
2894.000000	100.357752 
2893.000000	100.364627 
2892.000000	100.373193 
2891.000000	100.379948 
2890.000000	100.382802 
2889.000000	100.382669 
2888.000000	100.382289 
2887.000000	100.383743 
2886.000000	100.387262 
2885.000000	100.391965 
2884.000000	100.397031 
2883.000000	100.402118 
2882.000000	100.407290 
2881.000000	100.413024 
2880.000000	100.420053 
2879.000000	100.428884 
2878.000000	100.439426 
2877.000000	100.450905 
2876.000000	100.461877 
2875.000000	100.470523 
2874.000000	100.475620 
2873.000000	100.477636 
2872.000000	100.478708 
2871.000000	100.481205 
2870.000000	100.486190 
2869.000000	100.493142 
2868.000000	100.500867 
2867.000000	100.508612 
2866.000000	100.516584 
2865.000000	100.525491 
2864.000000	100.535421 
2863.000000	100.545083 
2862.000000	100.552463 
2861.000000	100.556535 
2860.000000	100.558447 
2859.000000	100.560953 
2858.000000	100.566387 
2857.000000	100.574878 
2856.000000	100.584345 
2855.000000	100.592393 
2854.000000	100.598275 
2853.000000	100.602996 
2852.000000	100.607658 
2851.000000	100.612309 
2850.000000	100.616709 
2849.000000	100.621429 
2848.000000	100.627316 
2847.000000	100.634131 
2846.000000	100.640493 
2845.000000	100.645198 
2844.000000	100.648149 
2843.000000	100.650171 
2842.000000	100.652524 
2841.000000	100.656438 
2840.000000	100.662209 
2839.000000	100.668407 
2838.000000	100.672598 
2837.000000	100.673357 
2836.000000	100.671422 
2835.000000	100.669049 
2834.000000	100.668501 
2833.000000	100.670987 
2832.000000	100.676194 
2831.000000	100.682294 
2830.000000	100.687015 
2829.000000	100.689403 
2828.000000	100.690474 
2827.000000	100.691915 
2826.000000	100.694357 
2825.000000	100.697128 
2824.000000	100.699377 
2823.000000	100.700973 
2822.000000	100.702399 
2821.000000	100.704134 
2820.000000	100.706195 
2819.000000	100.708173 
2818.000000	100.709733 
2817.000000	100.711038 
2816.000000	100.712492 
2815.000000	100.714137 
2814.000000	100.715623 
2813.000000	100.716757 
2812.000000	100.717662 
2811.000000	100.718277 
2810.000000	100.718185 
2809.000000	100.717233 
2808.000000	100.716043 
2807.000000	100.715541 
2806.000000	100.716112 
2805.000000	100.717444 
2804.000000	100.719044 
2803.000000	100.720667 
2802.000000	100.722339 
2801.000000	100.724071 
2800.000000	100.725492 
2799.000000	100.725863 
2798.000000	100.724744 
2797.000000	100.722734 
2796.000000	100.721179 
2795.000000	100.720921 
2794.000000	100.721613 
2793.000000	100.722371 
2792.000000	100.722839 
2791.000000	100.723290 
2790.000000	100.723939 
2789.000000	100.724666 
2788.000000	100.725354 
2787.000000	100.726061 
2786.000000	100.726804 
2785.000000	100.727521 
2784.000000	100.728233 
2783.000000	100.728960 
2782.000000	100.729480 
2781.000000	100.729473 
2780.000000	100.728993 
2779.000000	100.728559 
2778.000000	100.728646 
2777.000000	100.729257 
2776.000000	100.730030 
2775.000000	100.730602 
2774.000000	100.730773 
2773.000000	100.730512 
2772.000000	100.730016 
2771.000000	100.729693 
2770.000000	100.729880 
2769.000000	100.730600 
2768.000000	100.731670 
2767.000000	100.732926 
2766.000000	100.734178 
2765.000000	100.735033 
2764.000000	100.735100 
2763.000000	100.734488 
2762.000000	100.733881 
2761.000000	100.733936 
2760.000000	100.734722 
2759.000000	100.735855 
2758.000000	100.736980 
2757.000000	100.737977 
2756.000000	100.738837 
2755.000000	100.739567 
2754.000000	100.740130 
2753.000000	100.740310 
2752.000000	100.739800 
2751.000000	100.738610 
2750.000000	100.737297 
2749.000000	100.736468 
2748.000000	100.736071 
2747.000000	100.735474 
2746.000000	100.734276 
2745.000000	100.732865 
2744.000000	100.732085 
2743.000000	100.732478 
2742.000000	100.733959 
2741.000000	100.735925 
2740.000000	100.737594 
2739.000000	100.738464 
2738.000000	100.738556 
2737.000000	100.738276 
2736.000000	100.738053 
2735.000000	100.738081 
2734.000000	100.738309 
2733.000000	100.738529 
2732.000000	100.738508 
2731.000000	100.738222 
2730.000000	100.737949 
2729.000000	100.738029 
2728.000000	100.738535 
2727.000000	100.739278 
2726.000000	100.740026 
2725.000000	100.740603 
2724.000000	100.740863 
2723.000000	100.740798 
2722.000000	100.740650 
2721.000000	100.740701 
2720.000000	100.740955 
2719.000000	100.741190 
2718.000000	100.741304 
2717.000000	100.741399 
2716.000000	100.741550 
2715.000000	100.741715 
2714.000000	100.741885 
2713.000000	100.742114 
2712.000000	100.742351 
2711.000000	100.742427 
2710.000000	100.742305 
2709.000000	100.742153 
2708.000000	100.742154 
2707.000000	100.742284 
2706.000000	100.742361 
2705.000000	100.742267 
2704.000000	100.742059 
2703.000000	100.741881 
2702.000000	100.741811 
2701.000000	100.741816 
2700.000000	100.741821 
2699.000000	100.741774 
2698.000000	100.741668 
2697.000000	100.741543 
2696.000000	100.741442 
2695.000000	100.741397 
2694.000000	100.741422 
2693.000000	100.741496 
2692.000000	100.741557 
2691.000000	100.741539 
2690.000000	100.741435 
2689.000000	100.741308 
2688.000000	100.741238 
2687.000000	100.741246 
2686.000000	100.741287 
2685.000000	100.741296 
2684.000000	100.741250 
2683.000000	100.741168 
2682.000000	100.741090 
2681.000000	100.741048 
2680.000000	100.741044 
2679.000000	100.741052 
2678.000000	100.741045 
2677.000000	100.741024 
2676.000000	100.741013 
2675.000000	100.741026 
2674.000000	100.741058 
2673.000000	100.741107 
2672.000000	100.741171 
2671.000000	100.741228 
2670.000000	100.741234 
2669.000000	100.741154 
2668.000000	100.740983 
2667.000000	100.740772 
2666.000000	100.740666 
2665.000000	100.740829 
2664.000000	100.741293 
2663.000000	100.741907 
2662.000000	100.742474 
2661.000000	100.742916 
2660.000000	100.743243 
2659.000000	100.743447 
2658.000000	100.743519 
2657.000000	100.743532 
2656.000000	100.743632 
2655.000000	100.743914 
2654.000000	100.744352 
2653.000000	100.744816 
2652.000000	100.745150 
2651.000000	100.745271 
2650.000000	100.745228 
2649.000000	100.745209 
2648.000000	100.745387 
2647.000000	100.745757 
2646.000000	100.746163 
2645.000000	100.746504 
2644.000000	100.746836 
2643.000000	100.747232 
2642.000000	100.747670 
2641.000000	100.748147 
2640.000000	100.748779 
2639.000000	100.749631 
2638.000000	100.750541 
2637.000000	100.751269 
2636.000000	100.751723 
2635.000000	100.751911 
2634.000000	100.751857 
2633.000000	100.751763 
2632.000000	100.752006 
2631.000000	100.752682 
2630.000000	100.753335 
2629.000000	100.753422 
2628.000000	100.752942 
2627.000000	100.752393 
2626.000000	100.752194 
2625.000000	100.752417 
2624.000000	100.753009 
2623.000000	100.753872 
2622.000000	100.754729 
2621.000000	100.755243 
2620.000000	100.755365 
2619.000000	100.755377 
2618.000000	100.755488 
2617.000000	100.755584 
2616.000000	100.755476 
2615.000000	100.755207 
2614.000000	100.754996 
2613.000000	100.754979 
2612.000000	100.755154 
2611.000000	100.755519 
2610.000000	100.756143 
2609.000000	100.757083 
2608.000000	100.758248 
2607.000000	100.759410 
2606.000000	100.760365 
2605.000000	100.761076 
2604.000000	100.761558 
2603.000000	100.761630 
2602.000000	100.761035 
2601.000000	100.759880 
2600.000000	100.758782 
2599.000000	100.758340 
2598.000000	100.758561 
2597.000000	100.758956 
2596.000000	100.759066 
2595.000000	100.758783 
2594.000000	100.758195 
2593.000000	100.757411 
2592.000000	100.756641 
2591.000000	100.756215 
2590.000000	100.756346 
2589.000000	100.756930 
2588.000000	100.757626 
2587.000000	100.758124 
2586.000000	100.758249 
2585.000000	100.757930 
2584.000000	100.757222 
2583.000000	100.756380 
2582.000000	100.755771 
2581.000000	100.755572 
2580.000000	100.755651 
2579.000000	100.755736 
2578.000000	100.755682 
2577.000000	100.755543 
2576.000000	100.755427 
2575.000000	100.755387 
2574.000000	100.755403 
2573.000000	100.755414 
2572.000000	100.755344 
2571.000000	100.755151 
2570.000000	100.754867 
2569.000000	100.754581 
2568.000000	100.754374 
2567.000000	100.754282 
2566.000000	100.754287 
2565.000000	100.754339 
2564.000000	100.754384 
2563.000000	100.754406 
2562.000000	100.754421 
2561.000000	100.754450 
2560.000000	100.754499 
2559.000000	100.754564 
2558.000000	100.754647 
2557.000000	100.754750 
2556.000000	100.754849 
2555.000000	100.754913 
2554.000000	100.754970 
2553.000000	100.755100 
2552.000000	100.755336 
2551.000000	100.755600 
2550.000000	100.755781 
2549.000000	100.755879 
2548.000000	100.755955 
2547.000000	100.755984 
2546.000000	100.755902 
2545.000000	100.755755 
2544.000000	100.755702 
2543.000000	100.755839 
2542.000000	100.756135 
2541.000000	100.756475 
2540.000000	100.756750 
2539.000000	100.756905 
2538.000000	100.756924 
2537.000000	100.756844 
2536.000000	100.756733 
2535.000000	100.756637 
2534.000000	100.756584 
2533.000000	100.756614 
2532.000000	100.756765 
2531.000000	100.757003 
2530.000000	100.757217 
2529.000000	100.757328 
2528.000000	100.757355 
2527.000000	100.757374 
2526.000000	100.757435 
2525.000000	100.757541 
2524.000000	100.757677 
2523.000000	100.757793 
2522.000000	100.757797 
2521.000000	100.757635 
2520.000000	100.757376 
2519.000000	100.757166 
2518.000000	100.757077 
2517.000000	100.757042 
2516.000000	100.756939 
2515.000000	100.756706 
2514.000000	100.756400 
2513.000000	100.756128 
2512.000000	100.755900 
2511.000000	100.755566 
2510.000000	100.754990 
2509.000000	100.754279 
2508.000000	100.753756 
2507.000000	100.753634 
2506.000000	100.753800 
2505.000000	100.753873 
2504.000000	100.753563 
2503.000000	100.752891 
2502.000000	100.752160 
2501.000000	100.751683 
2500.000000	100.751542 
2499.000000	100.751580 
2498.000000	100.751596 
2497.000000	100.751526 
2496.000000	100.751415 
2495.000000	100.751283 
2494.000000	100.751058 
2493.000000	100.750629 
2492.000000	100.749910 
2491.000000	100.748899 
2490.000000	100.747749 
2489.000000	100.746773 
2488.000000	100.746213 
2487.000000	100.746029 
2486.000000	100.745982 
2485.000000	100.745975 
2484.000000	100.746139 
2483.000000	100.746535 
2482.000000	100.746959 
2481.000000	100.747112 
2480.000000	100.746879 
2479.000000	100.746389 
2478.000000	100.745845 
2477.000000	100.745353 
2476.000000	100.744897 
2475.000000	100.744420 
2474.000000	100.743916 
2473.000000	100.743472 
2472.000000	100.743247 
2471.000000	100.743346 
2470.000000	100.743694 
2469.000000	100.744011 
2468.000000	100.743951 
2467.000000	100.743339 
2466.000000	100.742331 
2465.000000	100.741379 
2464.000000	100.740891 
2463.000000	100.740900 
2462.000000	100.741063 
2461.000000	100.740953 
2460.000000	100.740438 
2459.000000	100.739790 
2458.000000	100.739447 
2457.000000	100.739593 
2456.000000	100.739931 
2455.000000	100.739915 
2454.000000	100.739267 
2453.000000	100.738186 
2452.000000	100.737098 
2451.000000	100.736281 
2450.000000	100.735792 
2449.000000	100.735593 
2448.000000	100.735572 
2447.000000	100.735549 
2446.000000	100.735485 
2445.000000	100.735598 
2444.000000	100.736102 
2443.000000	100.736824 
2442.000000	100.737272 
2441.000000	100.737126 
2440.000000	100.736486 
2439.000000	100.735618 
2438.000000	100.734678 
2437.000000	100.733768 
2436.000000	100.732998 
2435.000000	100.732321 
2434.000000	100.731465 
2433.000000	100.730200 
2432.000000	100.728660 
2431.000000	100.727308 
2430.000000	100.726552 
2429.000000	100.726422 
2428.000000	100.726637 
2427.000000	100.726920 
2426.000000	100.727182 
2425.000000	100.727308 
2424.000000	100.726943 
2423.000000	100.725756 
2422.000000	100.723919 
2421.000000	100.722247 
2420.000000	100.721438 
2419.000000	100.721438 
2418.000000	100.721649 
2417.000000	100.721626 
2416.000000	100.721396 
2415.000000	100.721064 
2414.000000	100.720549 
2413.000000	100.719876 
2412.000000	100.719376 
2411.000000	100.719301 
2410.000000	100.719410 
2409.000000	100.719236 
2408.000000	100.718668 
2407.000000	100.718009 
2406.000000	100.717540 
2405.000000	100.717258 
2404.000000	100.716969 
2403.000000	100.716486 
2402.000000	100.715727 
2401.000000	100.714758 
2400.000000	100.713725 
2399.000000	100.712738 
2398.000000	100.711854 
2397.000000	100.711138 
2396.000000	100.710677 
2395.000000	100.710514 
2394.000000	100.710589 
2393.000000	100.710762 
2392.000000	100.710858 
2391.000000	100.710753 
2390.000000	100.710493 
2389.000000	100.710304 
2388.000000	100.710368 
2387.000000	100.710599 
2386.000000	100.710729 
2385.000000	100.710615 
2384.000000	100.710357 
2383.000000	100.710107 
2382.000000	100.709869 
2381.000000	100.709535 
2380.000000	100.709029 
2379.000000	100.708335 
2378.000000	100.707496 
2377.000000	100.706690 
2376.000000	100.706216 
2375.000000	100.706245 
2374.000000	100.706635 
2373.000000	100.707045 
2372.000000	100.707291 
2371.000000	100.707479 
2370.000000	100.707759 
2369.000000	100.708109 
2368.000000	100.708350 
2367.000000	100.708330 
2366.000000	100.708059 
2365.000000	100.707713 
2364.000000	100.707549 
2363.000000	100.707691 
2362.000000	100.708085 
2361.000000	100.708548 
2360.000000	100.708921 
2359.000000	100.709186 
2358.000000	100.709395 
2357.000000	100.709614 
2356.000000	100.709890 
2355.000000	100.710223 
2354.000000	100.710553 
2353.000000	100.710837 
2352.000000	100.711115 
2351.000000	100.711471 
2350.000000	100.711961 
2349.000000	100.712530 
2348.000000	100.713037 
2347.000000	100.713422 
2346.000000	100.713753 
2345.000000	100.714118 
2344.000000	100.714558 
2343.000000	100.715187 
2342.000000	100.716155 
2341.000000	100.717401 
2340.000000	100.718607 
2339.000000	100.719383 
2338.000000	100.719589 
2337.000000	100.719529 
2336.000000	100.719663 
2335.000000	100.720046 
2334.000000	100.720336 
2333.000000	100.720386 
2332.000000	100.720412 
2331.000000	100.720421 
2330.000000	100.720159 
2329.000000	100.719790 
2328.000000	100.720029 
2327.000000	100.721396 
2326.000000	100.723521 
2325.000000	100.725554 
2324.000000	100.726844 
2323.000000	100.727496 
2322.000000	100.728385 
2321.000000	100.730300 
2320.000000	100.732847 
2319.000000	100.734499 
2318.000000	100.734325 
2317.000000	100.732899 
2316.000000	100.731624 
2315.000000	100.731135 
2314.000000	100.731242 
2313.000000	100.731874 
2312.000000	100.733256 
2311.000000	100.735335 
2310.000000	100.737645 
2309.000000	100.739705 
2308.000000	100.740985 
2307.000000	100.740931 
2306.000000	100.739580 
2305.000000	100.737838 
2304.000000	100.736687 
2303.000000	100.736278 
2302.000000	100.736212 
2301.000000	100.736325 
2300.000000	100.736692 
2299.000000	100.737138 
2298.000000	100.737362 
2297.000000	100.737493 
2296.000000	100.737979 
2295.000000	100.738918 
2294.000000	100.739889 
2293.000000	100.740514 
2292.000000	100.740858 
2291.000000	100.741215 
2290.000000	100.741762 
2289.000000	100.742533 
2288.000000	100.743484 
2287.000000	100.744478 
2286.000000	100.745350 
2285.000000	100.746060 
2284.000000	100.746698 
2283.000000	100.747294 
2282.000000	100.747742 
2281.000000	100.747960 
2280.000000	100.748077 
2279.000000	100.748442 
2278.000000	100.749435 
2277.000000	100.751165 
2276.000000	100.753324 
2275.000000	100.755291 
2274.000000	100.756574 
2273.000000	100.757118 
2272.000000	100.757176 
2271.000000	100.756984 
2270.000000	100.756802 
2269.000000	100.757222 
2268.000000	100.758881 
2267.000000	100.761728 
2266.000000	100.764834 
2265.000000	100.767218 
2264.000000	100.768614 
2263.000000	100.769346 
2262.000000	100.770026 
2261.000000	100.771448 
2260.000000	100.774186 
2259.000000	100.777752 
2258.000000	100.780594 
2257.000000	100.781658 
2256.000000	100.781511 
2255.000000	100.781549 
2254.000000	100.782277 
2253.000000	100.783125 
2252.000000	100.783710 
2251.000000	100.784509 
2250.000000	100.786240 
2249.000000	100.789101 
2248.000000	100.792536 
2247.000000	100.795569 
2246.000000	100.797501 
2245.000000	100.798417 
2244.000000	100.798872 
2243.000000	100.799069 
2242.000000	100.798822 
2241.000000	100.798353 
2240.000000	100.798409 
2239.000000	100.799289 
2238.000000	100.800431 
2237.000000	100.801159 
2236.000000	100.801227 
2235.000000	100.800580 
2234.000000	100.799475 
2233.000000	100.799162 
2232.000000	100.801361 
2231.000000	100.806471 
2230.000000	100.813006 
2229.000000	100.819155 
2228.000000	100.824235 
2227.000000	100.828123 
2226.000000	100.830289 
2225.000000	100.830260 
2224.000000	100.828556 
2223.000000	100.826552 
2222.000000	100.825637 
2221.000000	100.826619 
2220.000000	100.829387 
2219.000000	100.832854 
2218.000000	100.835748 
2217.000000	100.837941 
2216.000000	100.840466 
2215.000000	100.843978 
2214.000000	100.847713 
2213.000000	100.850293 
2212.000000	100.851114 
2211.000000	100.850824 
2210.000000	100.851011 
2209.000000	100.853265 
2208.000000	100.857788 
2207.000000	100.862639 
2206.000000	100.865190 
2205.000000	100.864625 
2204.000000	100.862446 
2203.000000	100.860644 
2202.000000	100.860101 
2201.000000	100.861167 
2200.000000	100.864157 
2199.000000	100.868011 
2198.000000	100.869780 
2197.000000	100.867776 
2196.000000	100.864582 
2195.000000	100.864607 
2194.000000	100.869339 
2193.000000	100.876821 
2192.000000	100.884609 
2191.000000	100.891178 
2190.000000	100.895192 
2189.000000	100.896336 
2188.000000	100.896747 
2187.000000	100.899194 
2186.000000	100.903974 
2185.000000	100.909489 
2184.000000	100.915023 
2183.000000	100.920604 
2182.000000	100.925198 
2181.000000	100.928127 
2180.000000	100.931463 
2179.000000	100.937479 
2178.000000	100.943978 
2177.000000	100.945610 
2176.000000	100.940202 
2175.000000	100.931281 
2174.000000	100.924119 
2173.000000	100.921106 
2172.000000	100.921192 
2171.000000	100.921890 
2170.000000	100.921804 
2169.000000	100.922720 
2168.000000	100.928457 
2167.000000	100.939813 
2166.000000	100.951742 
2165.000000	100.958579 
2164.000000	100.961444 
2163.000000	100.966862 
2162.000000	100.977954 
2161.000000	100.990113 
2160.000000	100.995896 
2159.000000	100.991227 
2158.000000	100.976733 
2157.000000	100.957006 
2156.000000	100.939138 
2155.000000	100.928613 
2154.000000	100.925387 
2153.000000	100.924580 
2152.000000	100.921145 
2151.000000	100.913724 
2150.000000	100.904879 
2149.000000	100.898955 
2148.000000	100.898824 
2147.000000	100.902813 
2146.000000	100.905003 
2145.000000	100.900351 
2144.000000	100.889577 
2143.000000	100.877945 
2142.000000	100.869614 
2141.000000	100.864659 
2140.000000	100.861359 
2139.000000	100.859228 
2138.000000	100.858589 
2137.000000	100.858262 
2136.000000	100.855462 
2135.000000	100.848606 
2134.000000	100.839551 
2133.000000	100.832072 
2132.000000	100.827651 
2131.000000	100.823592 
2130.000000	100.816259 
2129.000000	100.805848 
2128.000000	100.796607 
2127.000000	100.791820 
2126.000000	100.790108 
2125.000000	100.787817 
2124.000000	100.784337 
2123.000000	100.783022 
2122.000000	100.786355 
2121.000000	100.791945 
2120.000000	100.794596 
2119.000000	100.791989 
2118.000000	100.786905 
2117.000000	100.783788 
2116.000000	100.784145 
2115.000000	100.785921 
2114.000000	100.786716 
2113.000000	100.786364 
2112.000000	100.786045 
2111.000000	100.786068 
2110.000000	100.785584 
2109.000000	100.783974 
2108.000000	100.781412 
2107.000000	100.778143 
2106.000000	100.774092 
2105.000000	100.769370 
2104.000000	100.764743 
2103.000000	100.761638 
2102.000000	100.761716 
2101.000000	100.765604 
2100.000000	100.771494 
2099.000000	100.775798 
2098.000000	100.776431 
2097.000000	100.775066 
2096.000000	100.774964 
2095.000000	100.776702 
2094.000000	100.777430 
2093.000000	100.774638 
2092.000000	100.769551 
2091.000000	100.766312 
2090.000000	100.768196 
2089.000000	100.774786 
2088.000000	100.782122 
2087.000000	100.786077 
2086.000000	100.786251 
2085.000000	100.786034 
2084.000000	100.788511 
2083.000000	100.793175 
2082.000000	100.797433 
2081.000000	100.800349 
2080.000000	100.803309 
2079.000000	100.807378 
2078.000000	100.812020 
2077.000000	100.816874 
2076.000000	100.822935 
2075.000000	100.830811 
2074.000000	100.838946 
2073.000000	100.844741 
2072.000000	100.847120 
2071.000000	100.847106 
2070.000000	100.846413 
2069.000000	100.846153 
2068.000000	100.846649 
2067.000000	100.847857 
2066.000000	100.849782 
2065.000000	100.852549 
2064.000000	100.856119 
2063.000000	100.860253 
2062.000000	100.865160 
2061.000000	100.871746 
2060.000000	100.880456 
2059.000000	100.890050 
2058.000000	100.898202 
2057.000000	100.903296 
2056.000000	100.905196 
2055.000000	100.904889 
2054.000000	100.904370 
2053.000000	100.906121 
2052.000000	100.911350 
2051.000000	100.918715 
2050.000000	100.925450 
2049.000000	100.929873 
2048.000000	100.932052 
2047.000000	100.932330 
2046.000000	100.930878 
2045.000000	100.929041 
2044.000000	100.929386 
2043.000000	100.933372 
2042.000000	100.940011 
2041.000000	100.947158 
2040.000000	100.953379 
2039.000000	100.958397 
2038.000000	100.962686 
2037.000000	100.966965 
2036.000000	100.970980 
2035.000000	100.972842 
2034.000000	100.971103 
2033.000000	100.967384 
2032.000000	100.964927 
2031.000000	100.964621 
2030.000000	100.964907 
2029.000000	100.965004 
2028.000000	100.965791 
2027.000000	100.967485 
2026.000000	100.968998 
2025.000000	100.970038 
2024.000000	100.971723 
2023.000000	100.974312 
2022.000000	100.975921 
2021.000000	100.974653 
2020.000000	100.970986 
2019.000000	100.967345 
2018.000000	100.965894 
2017.000000	100.966801 
2016.000000	100.968160 
2015.000000	100.967708 
2014.000000	100.965265 
2013.000000	100.963170 
2012.000000	100.963642 
2011.000000	100.966289 
2010.000000	100.969112 
2009.000000	100.971380 
2008.000000	100.973924 
2007.000000	100.976681 
2006.000000	100.978051 
2005.000000	100.977168 
2004.000000	100.975058 
2003.000000	100.973048 
2002.000000	100.971291 
2001.000000	100.969558 
2000.000000	100.967885 
1999.000000	100.965940 
1998.000000	100.963126 
1997.000000	100.959881 
1996.000000	100.958060 
1995.000000	100.959358 
1994.000000	100.963780 
1993.000000	100.969390 
1992.000000	100.973241 
1991.000000	100.973290 
1990.000000	100.970027 
1989.000000	100.966422 
1988.000000	100.965489 
1987.000000	100.967529 
1986.000000	100.970161 
1985.000000	100.971083 
1984.000000	100.970302 
1983.000000	100.969822 
1982.000000	100.971747 
1981.000000	100.976438 
1980.000000	100.981298 
1979.000000	100.982191 
1978.000000	100.977490 
1977.000000	100.970136 
1976.000000	100.964195 
1975.000000	100.960029 
1974.000000	100.955922 
1973.000000	100.952850 
1972.000000	100.953979 
1971.000000	100.959426 
1970.000000	100.964435 
1969.000000	100.964028 
1968.000000	100.957747 
1967.000000	100.949212 
1966.000000	100.942310 
1965.000000	100.938342 
1964.000000	100.936060 
1963.000000	100.933289 
1962.000000	100.928760 
1961.000000	100.922872 
1960.000000	100.916673 
1959.000000	100.910757 
1958.000000	100.905698 
1957.000000	100.902442 
1956.000000	100.901065 
1955.000000	100.899891 
1954.000000	100.897182 
1953.000000	100.892877 
1952.000000	100.887782 
1951.000000	100.881805 
1950.000000	100.874593 
1949.000000	100.867630 
1948.000000	100.863105 
1947.000000	100.860631 
1946.000000	100.857234 
1945.000000	100.850721 
1944.000000	100.841941 
1943.000000	100.834012 
1942.000000	100.830093 
1941.000000	100.831021 
1940.000000	100.834054 
1939.000000	100.835106 
1938.000000	100.833461 
1937.000000	100.832565 
1936.000000	100.834842 
1935.000000	100.837654 
1934.000000	100.836906 
1933.000000	100.832929 
1932.000000	100.830071 
1931.000000	100.830484 
1930.000000	100.831414 
1929.000000	100.829834 
1928.000000	100.825956 
1927.000000	100.821747 
1926.000000	100.818078 
1925.000000	100.814948 
1924.000000	100.812868 
1923.000000	100.811997 
1922.000000	100.811533 
1921.000000	100.810703 
1920.000000	100.809027 
1919.000000	100.805894 
1918.000000	100.801030 
1917.000000	100.795940 
1916.000000	100.792838 
1915.000000	100.791774 
1914.000000	100.791441 
1913.000000	100.791523 
1912.000000	100.792614 
1911.000000	100.794204 
1910.000000	100.794626 
1909.000000	100.793412 
1908.000000	100.791677 
1907.000000	100.790476 
1906.000000	100.789725 
1905.000000	100.789014 
1904.000000	100.788242 
1903.000000	100.787069 
1902.000000	100.785265 
1901.000000	100.783413 
1900.000000	100.782187 
1899.000000	100.781506 
1898.000000	100.780797 
1897.000000	100.779891 
1896.000000	100.779232 
1895.000000	100.778962 
1894.000000	100.778537 
1893.000000	100.777600 
1892.000000	100.776552 
1891.000000	100.775904 
1890.000000	100.775535 
1889.000000	100.774995 
1888.000000	100.774198 
1887.000000	100.773247 
1886.000000	100.772197 
1885.000000	100.771380 
1884.000000	100.771289 
1883.000000	100.771797 
1882.000000	100.772055 
1881.000000	100.771597 
1880.000000	100.770916 
1879.000000	100.770819 
1878.000000	100.771600 
1877.000000	100.772898 
1876.000000	100.774106 
1875.000000	100.774603 
1874.000000	100.773891 
1873.000000	100.772048 
1872.000000	100.769793 
1871.000000	100.767830 
1870.000000	100.766493 
1869.000000	100.765960 
1868.000000	100.766326 
1867.000000	100.767188 
1866.000000	100.767731 
1865.000000	100.767687 
1864.000000	100.767351 
1863.000000	100.766644 
1862.000000	100.765206 
1861.000000	100.763658 
1860.000000	100.763504 
1859.000000	100.765292 
1858.000000	100.767874 
1857.000000	100.769738 
1856.000000	100.770470 
1855.000000	100.770499 
1854.000000	100.770298 
1853.000000	100.770428 
1852.000000	100.770980 
1851.000000	100.771397 
1850.000000	100.771530 
1849.000000	100.772123 
1848.000000	100.773806 
1847.000000	100.775773 
1846.000000	100.776630 
1845.000000	100.776306 
1844.000000	100.776126 
1843.000000	100.776987 
1842.000000	100.778192 
1841.000000	100.778574 
1840.000000	100.777755 
1839.000000	100.776287 
1838.000000	100.774917 
1837.000000	100.774180 
1836.000000	100.774204 
1835.000000	100.774448 
1834.000000	100.774323 
1833.000000	100.773863 
1832.000000	100.773264 
1831.000000	100.772768 
1830.000000	100.772705 
1829.000000	100.773262 
1828.000000	100.774368 
1827.000000	100.775313 
1826.000000	100.775553 
1825.000000	100.775466 
1824.000000	100.775824 
1823.000000	100.776423 
1822.000000	100.776022 
1821.000000	100.774132 
1820.000000	100.771987 
1819.000000	100.771240 
1818.000000	100.771832 
1817.000000	100.772382 
1816.000000	100.772333 
1815.000000	100.772239 
1814.000000	100.772715 
1813.000000	100.773894 
1812.000000	100.775825 
1811.000000	100.778308 
1810.000000	100.780152 
1809.000000	100.780519 
1808.000000	100.780037 
1807.000000	100.779428 
1806.000000	100.778429 
1805.000000	100.776891 
1804.000000	100.775739 
1803.000000	100.775552 
1802.000000	100.775714 
1801.000000	100.775253 
1800.000000	100.774426 
1799.000000	100.774289 
1798.000000	100.774954 
1797.000000	100.776073 
1796.000000	100.777687 
1795.000000	100.779623 
1794.000000	100.781309 
1793.000000	100.782262 
1792.000000	100.782642 
1791.000000	100.782931 
1790.000000	100.782929 
1789.000000	100.782363 
1788.000000	100.781797 
1787.000000	100.781973 
1786.000000	100.782845 
1785.000000	100.783937 
1784.000000	100.785209 
1783.000000	100.786330 
1782.000000	100.786926 
1781.000000	100.786946 
1780.000000	100.786603 
1779.000000	100.786228 
1778.000000	100.785836 
1777.000000	100.785766 
1776.000000	100.786366 
1775.000000	100.787352 
1774.000000	100.788330 
1773.000000	100.789337 
1772.000000	100.790409 
1771.000000	100.791821 
1770.000000	100.793280 
1769.000000	100.793836 
1768.000000	100.793517 
1767.000000	100.793353 
1766.000000	100.793958 
1765.000000	100.794743 
1764.000000	100.795048 
1763.000000	100.795118 
1762.000000	100.795673 
1761.000000	100.796748 
1760.000000	100.798041 
1759.000000	100.799286 
1758.000000	100.800394 
1757.000000	100.801491 
1756.000000	100.802487 
1755.000000	100.803369 
1754.000000	100.804114 
1753.000000	100.804607 
1752.000000	100.804851 
1751.000000	100.805094 
1750.000000	100.805536 
1749.000000	100.806106 
1748.000000	100.806638 
1747.000000	100.807087 
1746.000000	100.807547 
1745.000000	100.807990 
1744.000000	100.808367 
1743.000000	100.808742 
1742.000000	100.809140 
1741.000000	100.809523 
1740.000000	100.809888 
1739.000000	100.810250 
1738.000000	100.810605 
1737.000000	100.810944 
1736.000000	100.811253 
1735.000000	100.811530 
1734.000000	100.811774 
1733.000000	100.811993 
1732.000000	100.812190 
1731.000000	100.812364 
1730.000000	100.812511 
1729.000000	100.812637 
1728.000000	100.812749 
1727.000000	100.812855 
1726.000000	100.812960 
1725.000000	100.813060 
1724.000000	100.813149 
1723.000000	100.813226 
1722.000000	100.813288 
1721.000000	100.813336 
1720.000000	100.813372 
1719.000000	100.813394 
1718.000000	100.813395 
1717.000000	100.813362 
1716.000000	100.813296 
1715.000000	100.813207 
1714.000000	100.813101 
1713.000000	100.812985 
1712.000000	100.812864 
1711.000000	100.812741 
1710.000000	100.812615 
1709.000000	100.812484 
1708.000000	100.812348 
1707.000000	100.812203 
1706.000000	100.812047 
1705.000000	100.811875 
1704.000000	100.811695 
1703.000000	100.811510 
1702.000000	100.811324 
1701.000000	100.811143 
1700.000000	100.810977 
1699.000000	100.810834 
1698.000000	100.810707 
1697.000000	100.810571 
1696.000000	100.810417 
1695.000000	100.810250 
1694.000000	100.810081 
1693.000000	100.809919 
1692.000000	100.809770 
1691.000000	100.809636 
1690.000000	100.809517 
1689.000000	100.809408 
1688.000000	100.809306 
1687.000000	100.809207 
1686.000000	100.809109 
1685.000000	100.809012 
1684.000000	100.808912 
1683.000000	100.808807 
1682.000000	100.808701 
1681.000000	100.808594 
1680.000000	100.808484 
1679.000000	100.808374 
1678.000000	100.808271 
1677.000000	100.808175 
1676.000000	100.808091 
1675.000000	100.808026 
1674.000000	100.807992 
1673.000000	100.807988 
1672.000000	100.807999 
1671.000000	100.808011 
1670.000000	100.808019 
1669.000000	100.808023 
1668.000000	100.808026 
1667.000000	100.808033 
1666.000000	100.808045 
1665.000000	100.808065 
1664.000000	100.808097 
1663.000000	100.808148 
1662.000000	100.808222 
1661.000000	100.808315 
1660.000000	100.808418 
1659.000000	100.808525 
1658.000000	100.808635 
1657.000000	100.808747 
1656.000000	100.808864 
1655.000000	100.809002 
1654.000000	100.809179 
1653.000000	100.809399 
1652.000000	100.809656 
1651.000000	100.809949 
1650.000000	100.810268 
1649.000000	100.810595 
1648.000000	100.810916 
1647.000000	100.811233 
1646.000000	100.811540 
1645.000000	100.811853 
1644.000000	100.812241 
1643.000000	100.812713 
1642.000000	100.813200 
1641.000000	100.813650 
1640.000000	100.814067 
1639.000000	100.814503 
1638.000000	100.814976 
1637.000000	100.815584 
1636.000000	100.816346 
1635.000000	100.816919 
1634.000000	100.817428 
1633.000000	100.818082 
1632.000000	100.818678 
1631.000000	100.818916 
1630.000000	100.818789 
1629.000000	100.818702 
1628.000000	100.819142 
1627.000000	100.820054 
1626.000000	100.821092 
1625.000000	100.822086 
1624.000000	100.823035 
1623.000000	100.823736 
1622.000000	100.824350 
1621.000000	100.825590 
1620.000000	100.826963 
1619.000000	100.827473 
1618.000000	100.827496 
1617.000000	100.828647 
1616.000000	100.831236 
1615.000000	100.834317 
1614.000000	100.837106 
1613.000000	100.839353 
1612.000000	100.841158 
1611.000000	100.842241 
1610.000000	100.842587 
1609.000000	100.843020 
1608.000000	100.843966 
1607.000000	100.844741 
1606.000000	100.845455 
1605.000000	100.847014 
1604.000000	100.849047 
1603.000000	100.850766 
1602.000000	100.852424 
1601.000000	100.854598 
1600.000000	100.856772 
1599.000000	100.858096 
1598.000000	100.858912 
1597.000000	100.860084 
1596.000000	100.861691 
1595.000000	100.863160 
1594.000000	100.864387 
1593.000000	100.865900 
1592.000000	100.867833 
1591.000000	100.869662 
1590.000000	100.871134 
1589.000000	100.872634 
1588.000000	100.874357 
1587.000000	100.875978 
1586.000000	100.877212 
1585.000000	100.878347 
1584.000000	100.879404 
1583.000000	100.880135 
1582.000000	100.880740 
1581.000000	100.881577 
1580.000000	100.882502 
1579.000000	100.883290 
1578.000000	100.884031 
1577.000000	100.884846 
1576.000000	100.885667 
1575.000000	100.886448 
1574.000000	100.887217 
1573.000000	100.887950 
1572.000000	100.888637 
1571.000000	100.889287 
1570.000000	100.889901 
1569.000000	100.890481 
1568.000000	100.891020 
1567.000000	100.891514 
1566.000000	100.891960 
1565.000000	100.892363 
1564.000000	100.892728 
1563.000000	100.893055 
1562.000000	100.893348 
1561.000000	100.893620 
1560.000000	100.893878 
1559.000000	100.894115 
1558.000000	100.894314 
1557.000000	100.894477 
1556.000000	100.894601 
1555.000000	100.894671 
1554.000000	100.894682 
1553.000000	100.894634 
1552.000000	100.894532 
1551.000000	100.894379 
1550.000000	100.894181 
1549.000000	100.893949 
1548.000000	100.893686 
1547.000000	100.893386 
1546.000000	100.893050 
1545.000000	100.892691 
1544.000000	100.892333 
1543.000000	100.891991 
1542.000000	100.891662 
1541.000000	100.891330 
1540.000000	100.890973 
1539.000000	100.890575 
1538.000000	100.890136 
1537.000000	100.889661 
1536.000000	100.889149 
1535.000000	100.888594 
1534.000000	100.887996 
1533.000000	100.887356 
1532.000000	100.886682 
1531.000000	100.885975 
1530.000000	100.885233 
1529.000000	100.884456 
1528.000000	100.883645 
1527.000000	100.882806 
1526.000000	100.881940 
1525.000000	100.881053 
1524.000000	100.880145 
1523.000000	100.879228 
1522.000000	100.878305 
1521.000000	100.877335 
1520.000000	100.876309 
1519.000000	100.875272 
1518.000000	100.874150 
1517.000000	100.872847 
1516.000000	100.871474 
1515.000000	100.870250 
1514.000000	100.869139 
1513.000000	100.867851 
1512.000000	100.866351 
1511.000000	100.864993 
1510.000000	100.863829 
1509.000000	100.862603 
1508.000000	100.861659 
1507.000000	100.861608 
1506.000000	100.860697 
1505.000000	100.858968 
1504.000000	100.858218 
1503.000000	100.858463 
1502.000000	100.858849 
1501.000000	100.858607 
1500.000000	100.857449 
1499.000000	100.855953 
1498.000000	100.854505 
1497.000000	100.851708 
1496.000000	100.847388 
1495.000000	100.843886 
1494.000000	100.842257 
1493.000000	100.841298 
1492.000000	100.840000 
1491.000000	100.838421 
1490.000000	100.836475 
1489.000000	100.833678 
1488.000000	100.830959 
1487.000000	100.829292 
1486.000000	100.827722 
1485.000000	100.825951 
1484.000000	100.824453 
1483.000000	100.823390 
1482.000000	100.822702 
1481.000000	100.822220 
1480.000000	100.821971 
1479.000000	100.821597 
1478.000000	100.820451 
1477.000000	100.818496 
1476.000000	100.817001 
1475.000000	100.816754 
1474.000000	100.817027 
1473.000000	100.816447 
1472.000000	100.814643 
1471.000000	100.813193 
1470.000000	100.812746 
1469.000000	100.812198 
1468.000000	100.811078 
1467.000000	100.809899 
1466.000000	100.809103 
1465.000000	100.808659 
1464.000000	100.808227 
1463.000000	100.808351 
1462.000000	100.808822 
1461.000000	100.808516 
1460.000000	100.806994 
1459.000000	100.805312 
1458.000000	100.804176 
1457.000000	100.800393 
1456.000000	100.793289 
1455.000000	100.788791 
1454.000000	100.788359 
1453.000000	100.788487 
1452.000000	100.787280 
1451.000000	100.785605 
1450.000000	100.784279 
1449.000000	100.781959 
1448.000000	100.778848 
1447.000000	100.777420 
1446.000000	100.779403 
1445.000000	100.782754 
1444.000000	100.783962 
1443.000000	100.783584 
1442.000000	100.784072 
1441.000000	100.785676 
1440.000000	100.786400 
1439.000000	100.786098 
1438.000000	100.786229 
1437.000000	100.785828 
1436.000000	100.783154 
1435.000000	100.781990 
1434.000000	100.783908 
1433.000000	100.784334 
1432.000000	100.780758 
1431.000000	100.775913 
1430.000000	100.773281 
1429.000000	100.771760 
1428.000000	100.769527 
1427.000000	100.766826 
1426.000000	100.764832 
1425.000000	100.763559 
1424.000000	100.761359 
1423.000000	100.758883 
1422.000000	100.756953 
1421.000000	100.753307 
1420.000000	100.745263 
1419.000000	100.735728 
1418.000000	100.730560 
1417.000000	100.728681 
1416.000000	100.724570 
1415.000000	100.717283 
1414.000000	100.710049 
1413.000000	100.704459 
1412.000000	100.699333 
1411.000000	100.694688 
1410.000000	100.691826 
1409.000000	100.689761 
1408.000000	100.687296 
1407.000000	100.685525 
1406.000000	100.686436 
1405.000000	100.689814 
1404.000000	100.693475 
1403.000000	100.697917 
1402.000000	100.704725 
1401.000000	100.712728 
1400.000000	100.719124 
1399.000000	100.722668 
1398.000000	100.723640 
1397.000000	100.720524 
1396.000000	100.711357 
1395.000000	100.699650 
1394.000000	100.695133 
1393.000000	100.703103 
1392.000000	100.718928 
1391.000000	100.734630 
1390.000000	100.745713 
1389.000000	100.751452 
1388.000000	100.752780 
1387.000000	100.751453 
1386.000000	100.749953 
1385.000000	100.749835 
1384.000000	100.750470 
1383.000000	100.751098 
1382.000000	100.752120 
1381.000000	100.754412 
1380.000000	100.758593 
1379.000000	100.764704 
1378.000000	100.772314 
1377.000000	100.780405 
1376.000000	100.787673 
1375.000000	100.793448 
1374.000000	100.798853 
1373.000000	100.805668 
1372.000000	100.814100 
1371.000000	100.822289 
1370.000000	100.828704 
1369.000000	100.833777 
1368.000000	100.838529 
1367.000000	100.843591 
1366.000000	100.849137 
1365.000000	100.855044 
1364.000000	100.861220 
1363.000000	100.867511 
1362.000000	100.873440 
1361.000000	100.878697 
1360.000000	100.883468 
1359.000000	100.888147 
1358.000000	100.893500 
1357.000000	100.900208 
1356.000000	100.907738 
1355.000000	100.914605 
1354.000000	100.920193 
1353.000000	100.925149 
1352.000000	100.930523 
1351.000000	100.935196 
1350.000000	100.937219 
1349.000000	100.937524 
1348.000000	100.938154 
1347.000000	100.939704 
1346.000000	100.941226 
1345.000000	100.942091 
1344.000000	100.942549 
1343.000000	100.942675 
1342.000000	100.942297 
1341.000000	100.942357 
1340.000000	100.944716 
1339.000000	100.949709 
1338.000000	100.955370 
1337.000000	100.959676 
1336.000000	100.962535 
1335.000000	100.965002 
1334.000000	100.967256 
1333.000000	100.968244 
1332.000000	100.967374 
1331.000000	100.965436 
1330.000000	100.963857 
1329.000000	100.963476 
1328.000000	100.964450 
1327.000000	100.966377 
1326.000000	100.968548 
1325.000000	100.970230 
1324.000000	100.970878 
1323.000000	100.970874 
1322.000000	100.971249 
1321.000000	100.972471 
1320.000000	100.974132 
1319.000000	100.975854 
1318.000000	100.977421 
1317.000000	100.977986 
1316.000000	100.976500 
1315.000000	100.973412 
1314.000000	100.970866 
1313.000000	100.970336 
1312.000000	100.971055 
1311.000000	100.971435 
1310.000000	100.971213 
1309.000000	100.971150 
1308.000000	100.971639 
1307.000000	100.972121 
1306.000000	100.971987 
1305.000000	100.971478 
1304.000000	100.971407 
1303.000000	100.972512 
1302.000000	100.974527 
1301.000000	100.976029 
1300.000000	100.975839 
1299.000000	100.974705 
1298.000000	100.974619 
1297.000000	100.976342 
1296.000000	100.978581 
1295.000000	100.979731 
1294.000000	100.979378 
1293.000000	100.977667 
1292.000000	100.974573 
1291.000000	100.970736 
1290.000000	100.967905 
1289.000000	100.967462 
1288.000000	100.968924 
1287.000000	100.970526 
1286.000000	100.970982 
1285.000000	100.970220 
1284.000000	100.968880 
1283.000000	100.967773 
1282.000000	100.967127 
1281.000000	100.966228 
1280.000000	100.964317 
1279.000000	100.961743 
1278.000000	100.959632 
1277.000000	100.958598 
1276.000000	100.958382 
1275.000000	100.958447 
1274.000000	100.958279 
1273.000000	100.957205 
1272.000000	100.954825 
1271.000000	100.951736 
1270.000000	100.949005 
1269.000000	100.946814 
1268.000000	100.944291 
1267.000000	100.940798 
1266.000000	100.936454 
1265.000000	100.931372 
1264.000000	100.925687 
1263.000000	100.920371 
1262.000000	100.916407 
1261.000000	100.912993 
1260.000000	100.908186 
1259.000000	100.901914 
1258.000000	100.896592 
1257.000000	100.893956 
1256.000000	100.893229 
1255.000000	100.893215 
1254.000000	100.894048 
1253.000000	100.895523 
1252.000000	100.895734 
1251.000000	100.893545 
1250.000000	100.891155 
1249.000000	100.892035 
1248.000000	100.896821 
1247.000000	100.902770 
1246.000000	100.906180 
1245.000000	100.903661 
1244.000000	100.892999 
1243.000000	100.876197 
1242.000000	100.861252 
1241.000000	100.857032 
1240.000000	100.864869 
1239.000000	100.876773 
1238.000000	100.882913 
1237.000000	100.879815 
1236.000000	100.870880 
1235.000000	100.861260 
1234.000000	100.853736 
1233.000000	100.848072 
1232.000000	100.842015 
1231.000000	100.832798 
1230.000000	100.819392 
1229.000000	100.804243 
1228.000000	100.792073 
1227.000000	100.785764 
1226.000000	100.783208 
1225.000000	100.778991 
1224.000000	100.769472 
1223.000000	100.755582 
1222.000000	100.740532 
1221.000000	100.725881 
1220.000000	100.710895 
1219.000000	100.694846 
1218.000000	100.678019 
1217.000000	100.660211 
1216.000000	100.639948 
1215.000000	100.616036 
1214.000000	100.588899 
1213.000000	100.559648 
1212.000000	100.528828 
1211.000000	100.497021 
1210.000000	100.465754 
1209.000000	100.436653 
1208.000000	100.409770 
1207.000000	100.383404 
1206.000000	100.355616 
1205.000000	100.325774 
1204.000000	100.294696 
1203.000000	100.263573 
1202.000000	100.233007 
1201.000000	100.203071 
1200.000000	100.173794 
1199.000000	100.144947 
1198.000000	100.115634 
1197.000000	100.084919 
1196.000000	100.052893 
1195.000000	100.020291 
1194.000000	99.987150  
1193.000000	99.952970  
1192.000000	99.918276  
1191.000000	99.884481  
1190.000000	99.851570  
1189.000000	99.817442  
1188.000000	99.780602  
1187.000000	99.742352  
1186.000000	99.705239  
1185.000000	99.670145  
1184.000000	99.635758  
1183.000000	99.599950  
1182.000000	99.560998  
1181.000000	99.518659  
1180.000000	99.474712  
1179.000000	99.431194  
1178.000000	99.387601  
1177.000000	99.341382  
1176.000000	99.291769  
1175.000000	99.240953  
1174.000000	99.190422  
1173.000000	99.138609  
1172.000000	99.084128  
1171.000000	99.029369  
1170.000000	98.978361  
1169.000000	98.932351  
1168.000000	98.889917  
1167.000000	98.850818  
1166.000000	98.817954  
1165.000000	98.795952  
1164.000000	98.788951  
1163.000000	98.798559  
1162.000000	98.822030  
1161.000000	98.852629  
1160.000000	98.882456  
1159.000000	98.904551  
1158.000000	98.912861  
1157.000000	98.902674  
1156.000000	98.872888  
1155.000000	98.827645  
1154.000000	98.774840  
1153.000000	98.722472  
1152.000000	98.675464  
1151.000000	98.634098  
1150.000000	98.594716  
1149.000000	98.553465  
1148.000000	98.510199  
1147.000000	98.467773  
1146.000000	98.427632  
1145.000000	98.388082  
1144.000000	98.347188  
1143.000000	98.305107  
1142.000000	98.262943  
1141.000000	98.221547  
1140.000000	98.182116  
1139.000000	98.145541  
1138.000000	98.110136  
1137.000000	98.072374  
1136.000000	98.030920  
1135.000000	97.987745  
1134.000000	97.944411  
1133.000000	97.899827  
1132.000000	97.852985  
1131.000000	97.805521  
1130.000000	97.760107  
1129.000000	97.717941  
1128.000000	97.678378  
1127.000000	97.638727  
1126.000000	97.594310  
1125.000000	97.542201  
1124.000000	97.485915  
1123.000000	97.433153  
1122.000000	97.387491  
1121.000000	97.345378  
1120.000000	97.302398  
1119.000000	97.258492  
1118.000000	97.215086  
1117.000000	97.171235  
1116.000000	97.125712  
1115.000000	97.079832  
1114.000000	97.035361  
1113.000000	96.992101  
1112.000000	96.949683  
1111.000000	96.908589  
1110.000000	96.867570  
1109.000000	96.823405  
1108.000000	96.775445  
1107.000000	96.727589  
1106.000000	96.683306  
1105.000000	96.641631  
1104.000000	96.600268  
1103.000000	96.559506  
1102.000000	96.521088  
1101.000000	96.485518  
1100.000000	96.452995  
1099.000000	96.424113  
1098.000000	96.397679  
1097.000000	96.370979  
1096.000000	96.343196  
1095.000000	96.315918  
1094.000000	96.288964  
1093.000000	96.258941  
1092.000000	96.223349  
1091.000000	96.183287  
1090.000000	96.141186  
1089.000000	96.099076  
1088.000000	96.059834  
1087.000000	96.026216  
1086.000000	95.997187  
1085.000000	95.968807  
1084.000000	95.939870  
1083.000000	95.912871  
1082.000000	95.888475  
1081.000000	95.863484  
1080.000000	95.835840  
1079.000000	95.807501  
1078.000000	95.780895  
1077.000000	95.756522  
1076.000000	95.735231  
1075.000000	95.718221  
1074.000000	95.703231  
1073.000000	95.684916  
1072.000000	95.659492  
1071.000000	95.623824  
1070.000000	95.570160  
1069.000000	95.490116  
1068.000000	95.387752  
1067.000000	95.282979  
1066.000000	95.196151  
1065.000000	95.131760  
1064.000000	95.080424  
1063.000000	95.030691  
1062.000000	94.974137  
1061.000000	94.905010  
1060.000000	94.823050  
1059.000000	94.736324  
1058.000000	94.656537  
1057.000000	94.590638  
1056.000000	94.537710  
1055.000000	94.491204  
1054.000000	94.442447  
1053.000000	94.385343  
1052.000000	94.320328  
1051.000000	94.251850  
1050.000000	94.181352  
1049.000000	94.106735  
1048.000000	94.029198  
1047.000000	93.954906  
1046.000000	93.888148  
1045.000000	93.827348  
1044.000000	93.768576  
1043.000000	93.708860  
1042.000000	93.646308  
1041.000000	93.581842  
1040.000000	93.521143  
1039.000000	93.470392  
1038.000000	93.430057  
1037.000000	93.397057  
1036.000000	93.371555  
1035.000000	93.355710  
1034.000000	93.346967  
1033.000000	93.339254  
1032.000000	93.329821  
1031.000000	93.318288  
1030.000000	93.301343  
1029.000000	93.277718  
1028.000000	93.257621  
1027.000000	93.256362  
1026.000000	93.276161  
1025.000000	93.302475  
1024.000000	93.320353  
1023.000000	93.326731  
1022.000000	93.325589  
1021.000000	93.320834  
1020.000000	93.317214  
1019.000000	93.319718  
1018.000000	93.327554  
1017.000000	93.334530  
1016.000000	93.337894  
1015.000000	93.340855  
1014.000000	93.345032  
1013.000000	93.347704  
1012.000000	93.348505  
1011.000000	93.351569  
1010.000000	93.358667  
1009.000000	93.367199  
1008.000000	93.377166  
1007.000000	93.392857  
1006.000000	93.415006  
1005.000000	93.438277  
1004.000000	93.459423  
1003.000000	93.481604  
1002.000000	93.507877  
1001.000000	93.536496  
1000.000000	93.565049  
999.000000	 93.593440  
998.000000	 93.620921  
997.000000	 93.646271  
996.000000	 93.672762  
995.000000	 93.706512  
994.000000	 93.747767  
993.000000	 93.789933  
992.000000	 93.829112  
991.000000	 93.868215  
990.000000	 93.909675  
989.000000	 93.951141  
988.000000	 93.991520  
987.000000	 94.035095  
986.000000	 94.086119  
985.000000	 94.144368  
984.000000	 94.208540  
983.000000	 94.278894  
982.000000	 94.354261  
981.000000	 94.431231  
980.000000	 94.508646  
979.000000	 94.589139  
978.000000	 94.674863  
977.000000	 94.765552  
976.000000	 94.861006  
975.000000	 94.960529  
974.000000	 95.059733  
973.000000	 95.153734  
972.000000	 95.244441  
971.000000	 95.339133  
970.000000	 95.440708  
969.000000	 95.544543  
968.000000	 95.645755  
967.000000	 95.743886  
966.000000	 95.839197  
965.000000	 95.930146  
964.000000	 96.016707  
963.000000	 96.101548  
962.000000	 96.186006  
961.000000	 96.268720  
960.000000	 96.349169  
959.000000	 96.428252  
958.000000	 96.504673  
957.000000	 96.575556  
956.000000	 96.641702  
955.000000	 96.707484  
954.000000	 96.774168  
953.000000	 96.837938  
952.000000	 96.896029  
951.000000	 96.950200  
950.000000	 97.002418  
949.000000	 97.051456  
948.000000	 97.095762  
947.000000	 97.135842  
946.000000	 97.171977  
945.000000	 97.203253  
944.000000	 97.230879  
943.000000	 97.259298  
942.000000	 97.291946  
941.000000	 97.328138  
940.000000	 97.364990  
939.000000	 97.399760  
938.000000	 97.430205  
937.000000	 97.456301  
936.000000	 97.482361  
935.000000	 97.513899  
934.000000	 97.551519  
933.000000	 97.591127  
932.000000	 97.630215  
931.000000	 97.669773  
930.000000	 97.709508  
929.000000	 97.745628  
928.000000	 97.774855  
927.000000	 97.797439  
926.000000	 97.815629  
925.000000	 97.832632  
924.000000	 97.853447  
923.000000	 97.882367  
922.000000	 97.917996  
921.000000	 97.953753  
920.000000	 97.984155  
919.000000	 98.007955  
918.000000	 98.025709  
917.000000	 98.038589  
916.000000	 98.050055  
915.000000	 98.064419  
914.000000	 98.082598  
913.000000	 98.102771  
912.000000	 98.125664  
911.000000	 98.155133  
910.000000	 98.193044  
909.000000	 98.237830  
908.000000	 98.288574  
907.000000	 98.345728  
906.000000	 98.406652  
905.000000	 98.465213  
904.000000	 98.517772  
903.000000	 98.566529  
902.000000	 98.616500  
901.000000	 98.672428  
900.000000	 98.738007  
899.000000	 98.812707  
898.000000	 98.888293  
897.000000	 98.953803  
896.000000	 99.005884  
895.000000	 99.050718  
894.000000	 99.095326  
893.000000	 99.141413  
892.000000	 99.188980  
891.000000	 99.240602  
890.000000	 99.298432  
889.000000	 99.359898  
888.000000	 99.419205  
887.000000	 99.471466  
886.000000	 99.514561  
885.000000	 99.549777  
884.000000	 99.581603  
883.000000	 99.613922  
882.000000	 99.645625  
881.000000	 99.673408  
880.000000	 99.699356  
879.000000	 99.730906  
878.000000	 99.771316  
877.000000	 99.815005  
876.000000	 99.855018  
875.000000	 99.890643  
874.000000	 99.924937  
873.000000	 99.959274  
872.000000	 99.993980  
871.000000	 100.030884 
870.000000	 100.071680 
869.000000	 100.116257 
868.000000	 100.164845 
867.000000	 100.218232 
866.000000	 100.273141 
865.000000	 100.321425 
864.000000	 100.358118 
863.000000	 100.388055 
862.000000	 100.420470 
861.000000	 100.458100 
860.000000	 100.495567 
859.000000	 100.527856 
858.000000	 100.556277 
857.000000	 100.585620 
856.000000	 100.618813 
855.000000	 100.655671 
854.000000	 100.694157 
853.000000	 100.730850 
852.000000	 100.761714 
851.000000	 100.785127 
850.000000	 100.804562 
849.000000	 100.826262 
848.000000	 100.852760 
847.000000	 100.879453 
846.000000	 100.899097 
845.000000	 100.909542 
844.000000	 100.915290 
843.000000	 100.921336 
842.000000	 100.927822 
841.000000	 100.931647 
840.000000	 100.930548 
839.000000	 100.923556 
838.000000	 100.910093 
837.000000	 100.891791 
836.000000	 100.873599 
835.000000	 100.859564 
834.000000	 100.848512 
833.000000	 100.837708 
832.000000	 100.829866 
831.000000	 100.831364 
830.000000	 100.842562 
829.000000	 100.855154 
828.000000	 100.862013 
827.000000	 100.865555 
826.000000	 100.872465 
825.000000	 100.882968 
824.000000	 100.890342 
823.000000	 100.890450 
822.000000	 100.887345 
821.000000	 100.888082 
820.000000	 100.894405 
819.000000	 100.901203 
818.000000	 100.902496 
817.000000	 100.897405 
816.000000	 100.888438 
815.000000	 100.873912 
814.000000	 100.845195 
813.000000	 100.793747 
812.000000	 100.718560 
811.000000	 100.623193 
810.000000	 100.506766 
809.000000	 100.362296 
808.000000	 100.184762 
807.000000	 99.977600  
806.000000	 99.750591  
805.000000	 99.515194  
804.000000	 99.283904  
803.000000	 99.070021  
802.000000	 98.883829  
801.000000	 98.730566  
800.000000	 98.613738  
799.000000	 98.537309  
798.000000	 98.503023  
797.000000	 98.508188  
796.000000	 98.546094  
795.000000	 98.605430  
794.000000	 98.671315  
793.000000	 98.732701  
792.000000	 98.788421  
791.000000	 98.841397  
790.000000	 98.888335  
789.000000	 98.919999  
788.000000	 98.929670  
787.000000	 98.915415  
786.000000	 98.875659  
785.000000	 98.809929  
784.000000	 98.724865  
783.000000	 98.633529  
782.000000	 98.546909  
781.000000	 98.470365  
780.000000	 98.408557  
779.000000	 98.367851  
778.000000	 98.352581  
777.000000	 98.364100  
776.000000	 98.403656  
775.000000	 98.469975  
774.000000	 98.553562  
773.000000	 98.640066  
772.000000	 98.721011  
771.000000	 98.796541  
770.000000	 98.868042  
769.000000	 98.933724  
768.000000	 98.991413  
767.000000	 99.040319  
766.000000	 99.080193  
765.000000	 99.113656  
764.000000	 99.147983  
763.000000	 99.188033  
762.000000	 99.227915  
761.000000	 99.256910  
760.000000	 99.274511  
759.000000	 99.292961  
758.000000	 99.323300  
757.000000	 99.364269  
756.000000	 99.405898  
755.000000	 99.438827  
754.000000	 99.460068  
753.000000	 99.475551  
752.000000	 99.497795  
751.000000	 99.535679  
750.000000	 99.584809  
749.000000	 99.631584  
748.000000	 99.666813  
747.000000	 99.691828  
746.000000	 99.713483  
745.000000	 99.739214  
744.000000	 99.775701  
743.000000	 99.825096  
742.000000	 99.881738  
741.000000	 99.938128  
740.000000	 99.993471  
739.000000	 100.050513 
738.000000	 100.105739 
737.000000	 100.150330 
736.000000	 100.180435 
735.000000	 100.199558 
734.000000	 100.212114 
733.000000	 100.222396 
732.000000	 100.239006 
731.000000	 100.270258 
730.000000	 100.312568 
729.000000	 100.351831 
728.000000	 100.378764 
727.000000	 100.396081 
726.000000	 100.409280 
725.000000	 100.418218 
724.000000	 100.421608 
723.000000	 100.422973 
722.000000	 100.427622 
721.000000	 100.438591 
720.000000	 100.458500 
719.000000	 100.490108 
718.000000	 100.531444 
717.000000	 100.574447 
716.000000	 100.610916 
715.000000	 100.636873 
714.000000	 100.651980 
713.000000	 100.660030 
712.000000	 100.670019 
711.000000	 100.690022 
710.000000	 100.717502 
709.000000	 100.740850 
708.000000	 100.751833 
707.000000	 100.751800 
706.000000	 100.745406 
705.000000	 100.733480 
704.000000	 100.714089 
703.000000	 100.685777 
702.000000	 100.646554 
701.000000	 100.593143 
700.000000	 100.522774 
699.000000	 100.433393 
698.000000	 100.325955 
697.000000	 100.211767 
696.000000	 100.114437 
695.000000	 100.056306 
694.000000	 100.042717 
693.000000	 100.066134 
692.000000	 100.120575 
691.000000	 100.200209 
690.000000	 100.288106 
689.000000	 100.361904 
688.000000	 100.414287 
687.000000	 100.454739 
686.000000	 100.487603 
685.000000	 100.505347 
684.000000	 100.507883 
683.000000	 100.511251 
682.000000	 100.530464 
681.000000	 100.565358 
680.000000	 100.606861 
679.000000	 100.645282 
678.000000	 100.670319 
677.000000	 100.678793 
676.000000	 100.684774 
675.000000	 100.706827 
674.000000	 100.744704 
673.000000	 100.777922 
672.000000	 100.789099 
671.000000	 100.778080 
670.000000	 100.753237 
669.000000	 100.733103 
668.000000	 100.745515 
667.000000	 100.788308 
666.000000	 100.835873 
665.000000	 100.873856 
664.000000	 100.899649 
663.000000	 100.928950 
662.000000	 100.971138 
661.000000	 101.011347 
660.000000	 101.026821 
659.000000	 101.015791 
658.000000	 100.994474 
657.000000	 100.974557 
656.000000	 100.955983 
655.000000	 100.940601 
654.000000	 100.937557 
653.000000	 100.948384 
652.000000	 100.961330 
651.000000	 100.967188 
650.000000	 100.970518 

