4000.000000	101.327182 
3999.000000	101.326530 
3998.000000	101.325953 
3997.000000	101.325948 
3996.000000	101.326515 
3995.000000	101.327206 
3994.000000	101.327562 
3993.000000	101.327507 
3992.000000	101.327332 
3991.000000	101.327270 
3990.000000	101.327043 
3989.000000	101.326087 
3988.000000	101.324313 
3987.000000	101.322411 
3986.000000	101.321153 
3985.000000	101.320714 
3984.000000	101.320878 
3983.000000	101.321608 
3982.000000	101.323042 
3981.000000	101.324915 
3980.000000	101.326523 
3979.000000	101.327439 
3978.000000	101.327804 
3977.000000	101.327889 
3976.000000	101.327687 
3975.000000	101.327080 
3974.000000	101.326074 
3973.000000	101.324730 
3972.000000	101.323242 
3971.000000	101.322044 
3970.000000	101.321539 
3969.000000	101.321669 
3968.000000	101.322034 
3967.000000	101.322260 
3966.000000	101.322162 
3965.000000	101.321692 
3964.000000	101.320958 
3963.000000	101.320242 
3962.000000	101.319785 
3961.000000	101.319531 
3960.000000	101.319263 
3959.000000	101.318883 
3958.000000	101.318445 
3957.000000	101.318014 
3956.000000	101.317609 
3955.000000	101.317217 
3954.000000	101.316815 
3953.000000	101.316399 
3952.000000	101.315974 
3951.000000	101.315539 
3950.000000	101.315099 
3949.000000	101.314659 
3948.000000	101.314225 
3947.000000	101.313807 
3946.000000	101.313410 
3945.000000	101.313035 
3944.000000	101.312670 
3943.000000	101.312302 
3942.000000	101.311918 
3941.000000	101.311517 
3940.000000	101.311108 
3939.000000	101.310697 
3938.000000	101.310289 
3937.000000	101.309881 
3936.000000	101.309470 
3935.000000	101.309057 
3934.000000	101.308647 
3933.000000	101.308250 
3932.000000	101.307872 
3931.000000	101.307517 
3930.000000	101.307185 
3929.000000	101.306869 
3928.000000	101.306564 
3927.000000	101.306268 
3926.000000	101.305980 
3925.000000	101.305698 
3924.000000	101.305419 
3923.000000	101.305144 
3922.000000	101.304880 
3921.000000	101.304627 
3920.000000	101.304374 
3919.000000	101.304105 
3918.000000	101.303820 
3917.000000	101.303532 
3916.000000	101.303259 
3915.000000	101.303008 
3914.000000	101.302771 
3913.000000	101.302542 
3912.000000	101.302324 
3911.000000	101.302125 
3910.000000	101.301945 
3909.000000	101.301780 
3908.000000	101.301627 
3907.000000	101.301492 
3906.000000	101.301370 
3905.000000	101.301246 
3904.000000	101.301094 
3903.000000	101.300898 
3902.000000	101.300662 
3901.000000	101.300400 
3900.000000	101.300131 
3899.000000	101.299858 
3898.000000	101.299573 
3897.000000	101.299275 
3896.000000	101.298981 
3895.000000	101.298715 
3894.000000	101.298484 
3893.000000	101.298282 
3892.000000	101.298104 
3891.000000	101.297946 
3890.000000	101.297793 
3889.000000	101.297623 
3888.000000	101.297424 
3887.000000	101.297199 
3886.000000	101.296954 
3885.000000	101.296681 
3884.000000	101.296375 
3883.000000	101.296047 
3882.000000	101.295717 
3881.000000	101.295396 
3880.000000	101.295082 
3879.000000	101.294772 
3878.000000	101.294471 
3877.000000	101.294195 
3876.000000	101.293951 
3875.000000	101.293731 
3874.000000	101.293514 
3873.000000	101.293281 
3872.000000	101.293030 
3871.000000	101.292780 
3870.000000	101.292536 
3869.000000	101.292279 
3868.000000	101.291991 
3867.000000	101.291680 
3866.000000	101.291366 
3865.000000	101.291041 
3864.000000	101.290687 
3863.000000	101.290311 
3862.000000	101.289949 
3861.000000	101.289622 
3860.000000	101.289324 
3859.000000	101.289042 
3858.000000	101.288779 
3857.000000	101.288545 
3856.000000	101.288345 
3855.000000	101.288177 
3854.000000	101.288026 
3853.000000	101.287855 
3852.000000	101.287633 
3851.000000	101.287359 
3850.000000	101.287047 
3849.000000	101.286713 
3848.000000	101.286366 
3847.000000	101.286014 
3846.000000	101.285660 
3845.000000	101.285312 
3844.000000	101.284975 
3843.000000	101.284658 
3842.000000	101.284359 
3841.000000	101.284066 
3840.000000	101.283768 
3839.000000	101.283458 
3838.000000	101.283133 
3837.000000	101.282784 
3836.000000	101.282401 
3835.000000	101.281976 
3834.000000	101.281512 
3833.000000	101.281024 
3832.000000	101.280524 
3831.000000	101.280017 
3830.000000	101.279508 
3829.000000	101.278993 
3828.000000	101.278475 
3827.000000	101.277965 
3826.000000	101.277476 
3825.000000	101.277005 
3824.000000	101.276543 
3823.000000	101.276090 
3822.000000	101.275662 
3821.000000	101.275258 
3820.000000	101.274847 
3819.000000	101.274401 
3818.000000	101.273926 
3817.000000	101.273449 
3816.000000	101.272973 
3815.000000	101.272472 
3814.000000	101.271928 
3813.000000	101.271356 
3812.000000	101.270782 
3811.000000	101.270218 
3810.000000	101.269666 
3809.000000	101.269131 
3808.000000	101.268628 
3807.000000	101.268161 
3806.000000	101.267708 
3805.000000	101.267245 
3804.000000	101.266772 
3803.000000	101.266316 
3802.000000	101.265892 
3801.000000	101.265486 
3800.000000	101.265072 
3799.000000	101.264660 
3798.000000	101.264280 
3797.000000	101.263943 
3796.000000	101.263642 
3795.000000	101.263373 
3794.000000	101.263151 
3793.000000	101.262991 
3792.000000	101.262889 
3791.000000	101.262830 
3790.000000	101.262807 
3789.000000	101.262814 
3788.000000	101.262844 
3787.000000	101.262898 
3786.000000	101.262978 
3785.000000	101.263078 
3784.000000	101.263177 
3783.000000	101.263258 
3782.000000	101.263327 
3781.000000	101.263395 
3780.000000	101.263460 
3779.000000	101.263512 
3778.000000	101.263558 
3777.000000	101.263620 
3776.000000	101.263710 
3775.000000	101.263823 
3774.000000	101.263949 
3773.000000	101.264093 
3772.000000	101.264272 
3771.000000	101.264488 
3770.000000	101.264725 
3769.000000	101.264964 
3768.000000	101.265202 
3767.000000	101.265449 
3766.000000	101.265707 
3765.000000	101.265964 
3764.000000	101.266212 
3763.000000	101.266460 
3762.000000	101.266723 
3761.000000	101.266997 
3760.000000	101.267261 
3759.000000	101.267499 
3758.000000	101.267722 
3757.000000	101.267939 
3756.000000	101.268132 
3755.000000	101.268274 
3754.000000	101.268357 
3753.000000	101.268380 
3752.000000	101.268335 
3751.000000	101.268207 
3750.000000	101.268000 
3749.000000	101.267728 
3748.000000	101.267386 
3747.000000	101.266964 
3746.000000	101.266469 
3745.000000	101.265919 
3744.000000	101.265307 
3743.000000	101.264612 
3742.000000	101.263845 
3741.000000	101.263039 
3740.000000	101.262205 
3739.000000	101.261323 
3738.000000	101.260372 
3737.000000	101.259358 
3736.000000	101.258290 
3735.000000	101.257160 
3734.000000	101.255959 
3733.000000	101.254692 
3732.000000	101.253363 
3731.000000	101.251961 
3730.000000	101.250469 
3729.000000	101.248882 
3728.000000	101.247209 
3727.000000	101.245457 
3726.000000	101.243629 
3725.000000	101.241724 
3724.000000	101.239742 
3723.000000	101.237682 
3722.000000	101.235542 
3721.000000	101.233318 
3720.000000	101.231004 
3719.000000	101.228588 
3718.000000	101.226071 
3717.000000	101.223464 
3716.000000	101.220780 
3715.000000	101.218024 
3714.000000	101.215210 
3713.000000	101.212364 
3712.000000	101.209505 
3711.000000	101.206637 
3710.000000	101.203761 
3709.000000	101.200875 
3708.000000	101.197978 
3707.000000	101.195059 
3706.000000	101.192107 
3705.000000	101.189128 
3704.000000	101.186127 
3703.000000	101.183099 
3702.000000	101.180066 
3701.000000	101.177065 
3700.000000	101.174096 
3699.000000	101.171097 
3698.000000	101.168060 
3697.000000	101.165065 
3696.000000	101.162092 
3695.000000	101.159062 
3694.000000	101.156080 
3693.000000	101.153345 
3692.000000	101.150832 
3691.000000	101.148304 
3690.000000	101.145724 
3689.000000	101.143252 
3688.000000	101.140895 
3687.000000	101.138504 
3686.000000	101.136033 
3685.000000	101.133618 
3684.000000	101.131361 
3683.000000	101.129172 
3682.000000	101.126935 
3681.000000	101.124755 
3680.000000	101.122783 
3679.000000	101.120918 
3678.000000	101.118932 
3677.000000	101.116977 
3676.000000	101.115462 
3675.000000	101.114407 
3674.000000	101.113438 
3673.000000	101.112340 
3672.000000	101.111317 
3671.000000	101.110631 
3670.000000	101.110028 
3669.000000	101.109027 
3668.000000	101.107768 
3667.000000	101.106792 
3666.000000	101.106238 
3665.000000	101.105867 
3664.000000	101.105479 
3663.000000	101.105180 
3662.000000	101.105222 
3661.000000	101.105675 
3660.000000	101.106285 
3659.000000	101.106819 
3658.000000	101.107317 
3657.000000	101.108050 
3656.000000	101.109047 
3655.000000	101.110050 
3654.000000	101.110944 
3653.000000	101.111879 
3652.000000	101.113027 
3651.000000	101.114238 
3650.000000	101.115135 
3649.000000	101.115689 
3648.000000	101.116288 
3647.000000	101.117192 
3646.000000	101.118296 
3645.000000	101.119437 
3644.000000	101.120604 
3643.000000	101.121848 
3642.000000	101.123136 
3641.000000	101.124398 
3640.000000	101.125680 
3639.000000	101.127131 
3638.000000	101.128761 
3637.000000	101.130398 
3636.000000	101.131892 
3635.000000	101.133299 
3634.000000	101.134720 
3633.000000	101.136094 
3632.000000	101.137346 
3631.000000	101.138562 
3630.000000	101.139897 
3629.000000	101.141288 
3628.000000	101.142542 
3627.000000	101.143688 
3626.000000	101.144919 
3625.000000	101.146283 
3624.000000	101.147666 
3623.000000	101.148910 
3622.000000	101.149970 
3621.000000	101.150942 
3620.000000	101.151939 
3619.000000	101.152939 
3618.000000	101.153887 
3617.000000	101.154808 
3616.000000	101.155711 
3615.000000	101.156597 
3614.000000	101.157467 
3613.000000	101.158166 
3612.000000	101.158448 
3611.000000	101.158335 
3610.000000	101.158206 
3609.000000	101.158300 
3608.000000	101.158324 
3607.000000	101.158033 
3606.000000	101.157933 
3605.000000	101.158595 
3604.000000	101.159813 
3603.000000	101.160755 
3602.000000	101.160984 
3601.000000	101.161019 
3600.000000	101.161434 
3599.000000	101.162324 
3598.000000	101.163517 
3597.000000	101.164627 
3596.000000	101.164969 
3595.000000	101.164462 
3594.000000	101.163815 
3593.000000	101.163958 
3592.000000	101.165353 
3591.000000	101.167619 
3590.000000	101.169832 
3589.000000	101.170911 
3588.000000	101.169997 
3587.000000	101.167267 
3586.000000	101.164259 
3585.000000	101.162395 
3584.000000	101.161752 
3583.000000	101.161530 
3582.000000	101.160913 
3581.000000	101.159763 
3580.000000	101.158420 
3579.000000	101.157205 
3578.000000	101.156193 
3577.000000	101.155360 
3576.000000	101.154746 
3575.000000	101.154480 
3574.000000	101.154725 
3573.000000	101.155430 
3572.000000	101.156336 
3571.000000	101.156967 
3570.000000	101.156873 
3569.000000	101.155951 
3568.000000	101.154430 
3567.000000	101.152814 
3566.000000	101.151764 
3565.000000	101.151522 
3564.000000	101.151747 
3563.000000	101.151855 
3562.000000	101.151488 
3561.000000	101.150688 
3560.000000	101.149754 
3559.000000	101.148941 
3558.000000	101.148306 
3557.000000	101.147776 
3556.000000	101.147264 
3555.000000	101.146718 
3554.000000	101.146173 
3553.000000	101.145700 
3552.000000	101.145309 
3551.000000	101.144940 
3550.000000	101.144534 
3549.000000	101.144077 
3548.000000	101.143585 
3547.000000	101.143090 
3546.000000	101.142629 
3545.000000	101.142218 
3544.000000	101.141846 
3543.000000	101.141503 
3542.000000	101.141176 
3541.000000	101.140857 
3540.000000	101.140545 
3539.000000	101.140239 
3538.000000	101.139935 
3537.000000	101.139623 
3536.000000	101.139295 
3535.000000	101.138951 
3534.000000	101.138594 
3533.000000	101.138228 
3532.000000	101.137857 
3531.000000	101.137481 
3530.000000	101.137108 
3529.000000	101.136747 
3528.000000	101.136411 
3527.000000	101.136101 
3526.000000	101.135800 
3525.000000	101.135480 
3524.000000	101.135124 
3523.000000	101.134732 
3522.000000	101.134328 
3521.000000	101.133938 
3520.000000	101.133565 
3519.000000	101.133208 
3518.000000	101.132859 
3517.000000	101.132515 
3516.000000	101.132174 
3515.000000	101.131830 
3514.000000	101.131482 
3513.000000	101.131129 
3512.000000	101.130770 
3511.000000	101.130402 
3510.000000	101.130023 
3509.000000	101.129635 
3508.000000	101.129241 
3507.000000	101.128842 
3506.000000	101.128437 
3505.000000	101.128023 
3504.000000	101.127599 
3503.000000	101.127167 
3502.000000	101.126735 
3501.000000	101.126306 
3500.000000	101.125876 
3499.000000	101.125439 
3498.000000	101.124984 
3497.000000	101.124508 
3496.000000	101.124018 
3495.000000	101.123522 
3494.000000	101.123028 
3493.000000	101.122540 
3492.000000	101.122057 
3491.000000	101.121579 
3490.000000	101.121105 
3489.000000	101.120637 
3488.000000	101.120173 
3487.000000	101.119711 
3486.000000	101.119247 
3485.000000	101.118781 
3484.000000	101.118314 
3483.000000	101.117851 
3482.000000	101.117394 
3481.000000	101.116942 
3480.000000	101.116492 
3479.000000	101.116042 
3478.000000	101.115589 
3477.000000	101.115132 
3476.000000	101.114669 
3475.000000	101.114196 
3474.000000	101.113715 
3473.000000	101.113232 
3472.000000	101.112752 
3471.000000	101.112275 
3470.000000	101.111795 
3469.000000	101.111307 
3468.000000	101.110804 
3467.000000	101.110285 
3466.000000	101.109751 
3465.000000	101.109208 
3464.000000	101.108655 
3463.000000	101.108096 
3462.000000	101.107543 
3461.000000	101.106995 
3460.000000	101.106424 
3459.000000	101.105810 
3458.000000	101.105209 
3457.000000	101.104706 
3456.000000	101.104315 
3455.000000	101.103940 
3454.000000	101.103460 
3453.000000	101.102887 
3452.000000	101.102347 
3451.000000	101.101904 
3450.000000	101.101499 
3449.000000	101.101065 
3448.000000	101.100583 
3447.000000	101.099984 
3446.000000	101.099182 
3445.000000	101.098279 
3444.000000	101.097570 
3443.000000	101.097217 
3442.000000	101.097047 
3441.000000	101.096772 
3440.000000	101.096340 
3439.000000	101.095883 
3438.000000	101.095392 
3437.000000	101.094667 
3436.000000	101.093629 
3435.000000	101.092501 
3434.000000	101.091645 
3433.000000	101.091306 
3432.000000	101.091416 
3431.000000	101.091571 
3430.000000	101.091297 
3429.000000	101.090350 
3428.000000	101.088823 
3427.000000	101.087057 
3426.000000	101.085501 
3425.000000	101.084526 
3424.000000	101.084234 
3423.000000	101.084434 
3422.000000	101.084764 
3421.000000	101.084877 
3420.000000	101.084561 
3419.000000	101.083885 
3418.000000	101.083232 
3417.000000	101.083003 
3416.000000	101.083202 
3415.000000	101.083422 
3414.000000	101.083322 
3413.000000	101.082987 
3412.000000	101.082724 
3411.000000	101.082706 
3410.000000	101.082946 
3409.000000	101.083394 
3408.000000	101.083865 
3407.000000	101.084008 
3406.000000	101.083588 
3405.000000	101.082745 
3404.000000	101.081945 
3403.000000	101.081630 
3402.000000	101.081883 
3401.000000	101.082378 
3400.000000	101.082642 
3399.000000	101.082492 
3398.000000	101.082176 
3397.000000	101.082071 
3396.000000	101.082265 
3395.000000	101.082511 
3394.000000	101.082541 
3393.000000	101.082338 
3392.000000	101.082067 
3391.000000	101.081854 
3390.000000	101.081678 
3389.000000	101.081440 
3388.000000	101.081094 
3387.000000	101.080709 
3386.000000	101.080403 
3385.000000	101.080212 
3384.000000	101.080079 
3383.000000	101.079995 
3382.000000	101.080025 
3381.000000	101.080134 
3380.000000	101.080095 
3379.000000	101.079693 
3378.000000	101.079021 
3377.000000	101.078491 
3376.000000	101.078497 
3375.000000	101.079128 
3374.000000	101.080141 
3373.000000	101.081090 
3372.000000	101.081585 
3371.000000	101.081520 
3370.000000	101.081109 
3369.000000	101.080718 
3368.000000	101.080586 
3367.000000	101.080658 
3366.000000	101.080645 
3365.000000	101.080239 
3364.000000	101.079379 
3363.000000	101.078401 
3362.000000	101.077825 
3361.000000	101.077845 
3360.000000	101.078062 
3359.000000	101.077865 
3358.000000	101.077125 
3357.000000	101.076390 
3356.000000	101.076341 
3355.000000	101.077163 
3354.000000	101.078408 
3353.000000	101.079384 
3352.000000	101.079703 
3351.000000	101.079520 
3350.000000	101.079319 
3349.000000	101.079498 
3348.000000	101.080107 
3347.000000	101.080940 
3346.000000	101.081752 
3345.000000	101.082352 
3344.000000	101.082546 
3343.000000	101.082161 
3342.000000	101.081156 
3341.000000	101.079690 
3340.000000	101.078146 
3339.000000	101.076990 
3338.000000	101.076415 
3337.000000	101.076118 
3336.000000	101.075604 
3335.000000	101.074831 
3334.000000	101.074371 
3333.000000	101.074752 
3332.000000	101.075790 
3331.000000	101.076719 
3330.000000	101.076964 
3329.000000	101.076651 
3328.000000	101.076390 
3327.000000	101.076678 
3326.000000	101.077519 
3325.000000	101.078520 
3324.000000	101.079320 
3323.000000	101.079955 
3322.000000	101.080660 
3321.000000	101.081316 
3320.000000	101.081341 
3319.000000	101.080288 
3318.000000	101.078435 
3317.000000	101.076698 
3316.000000	101.075887 
3315.000000	101.076168 
3314.000000	101.077140 
3313.000000	101.078216 
3312.000000	101.079026 
3311.000000	101.079570 
3310.000000	101.080022 
3309.000000	101.080429 
3308.000000	101.080691 
3307.000000	101.080793 
3306.000000	101.080883 
3305.000000	101.080959 
3304.000000	101.080712 
3303.000000	101.079921 
3302.000000	101.078912 
3301.000000	101.078389 
3300.000000	101.078721 
3299.000000	101.079630 
3298.000000	101.080506 
3297.000000	101.080967 
3296.000000	101.081026 
3295.000000	101.080927 
3294.000000	101.080942 
3293.000000	101.081218 
3292.000000	101.081702 
3291.000000	101.082213 
3290.000000	101.082587 
3289.000000	101.082728 
3288.000000	101.082553 
3287.000000	101.082046 
3286.000000	101.081377 
3285.000000	101.080773 
3284.000000	101.080286 
3283.000000	101.079832 
3282.000000	101.079353 
3281.000000	101.078786 
3280.000000	101.077980 
3279.000000	101.076880 
3278.000000	101.075761 
3277.000000	101.075109 
3276.000000	101.075160 
3275.000000	101.075739 
3274.000000	101.076504 
3273.000000	101.077135 
3272.000000	101.077326 
3271.000000	101.076862 
3270.000000	101.075807 
3269.000000	101.074585 
3268.000000	101.073726 
3267.000000	101.073523 
3266.000000	101.073936 
3265.000000	101.074682 
3264.000000	101.075405 
3263.000000	101.075900 
3262.000000	101.076198 
3261.000000	101.076398 
3260.000000	101.076454 
3259.000000	101.076208 
3258.000000	101.075618 
3257.000000	101.074879 
3256.000000	101.074263 
3255.000000	101.073889 
3254.000000	101.073722 
3253.000000	101.073690 
3252.000000	101.073730 
3251.000000	101.073772 
3250.000000	101.073732 
3249.000000	101.073574 
3248.000000	101.073343 
3247.000000	101.073114 
3246.000000	101.072915 
3245.000000	101.072718 
3244.000000	101.072510 
3243.000000	101.072358 
3242.000000	101.072357 
3241.000000	101.072529 
3240.000000	101.072793 
3239.000000	101.072997 
3238.000000	101.073037 
3237.000000	101.072915 
3236.000000	101.072732 
3235.000000	101.072607 
3234.000000	101.072575 
3233.000000	101.072596 
3232.000000	101.072622 
3231.000000	101.072640 
3230.000000	101.072658 
3229.000000	101.072642 
3228.000000	101.072534 
3227.000000	101.072313 
3226.000000	101.072038 
3225.000000	101.071814 
3224.000000	101.071709 
3223.000000	101.071723 
3222.000000	101.071804 
3221.000000	101.071888 
3220.000000	101.071946 
3219.000000	101.071996 
3218.000000	101.072042 
3217.000000	101.072020 
3216.000000	101.071833 
3215.000000	101.071463 
3214.000000	101.071048 
3213.000000	101.070773 
3212.000000	101.070690 
3211.000000	101.070704 
3210.000000	101.070770 
3209.000000	101.070995 
3208.000000	101.071477 
3207.000000	101.072089 
3206.000000	101.072513 
3205.000000	101.072532 
3204.000000	101.072243 
3203.000000	101.071965 
3202.000000	101.071936 
3201.000000	101.072154 
3200.000000	101.072477 
3199.000000	101.072717 
3198.000000	101.072657 
3197.000000	101.072191 
3196.000000	101.071554 
3195.000000	101.071237 
3194.000000	101.071380 
3193.000000	101.071433 
3192.000000	101.070783 
3191.000000	101.069619 
3190.000000	101.068823 
3189.000000	101.068919 
3188.000000	101.069537 
3187.000000	101.069950 
3186.000000	101.069835 
3185.000000	101.069306 
3184.000000	101.068537 
3183.000000	101.067652 
3182.000000	101.066884 
3181.000000	101.066492 
3180.000000	101.066489 
3179.000000	101.066661 
3178.000000	101.066836 
3177.000000	101.066924 
3176.000000	101.066749 
3175.000000	101.066181 
3174.000000	101.065516 
3173.000000	101.065434 
3172.000000	101.066321 
3171.000000	101.067810 
3170.000000	101.069044 
3169.000000	101.069498 
3168.000000	101.069389 
3167.000000	101.069310 
3166.000000	101.069591 
3165.000000	101.070073 
3164.000000	101.070425 
3163.000000	101.070504 
3162.000000	101.070390 
3161.000000	101.070243 
3160.000000	101.070194 
3159.000000	101.070301 
3158.000000	101.070507 
3157.000000	101.070645 
3156.000000	101.070568 
3155.000000	101.070297 
3154.000000	101.070000 
3153.000000	101.069856 
3152.000000	101.069926 
3151.000000	101.070140 
3150.000000	101.070345 
3149.000000	101.070402 
3148.000000	101.070297 
3147.000000	101.070163 
3146.000000	101.070134 
3145.000000	101.070184 
3144.000000	101.070142 
3143.000000	101.069904 
3142.000000	101.069613 
3141.000000	101.069509 
3140.000000	101.069600 
3139.000000	101.069650 
3138.000000	101.069473 
3137.000000	101.069135 
3136.000000	101.068852 
3135.000000	101.068733 
3134.000000	101.068687 
3133.000000	101.068553 
3132.000000	101.068297 
3131.000000	101.068022 
3130.000000	101.067794 
3129.000000	101.067530 
3128.000000	101.067123 
3127.000000	101.066630 
3126.000000	101.066265 
3125.000000	101.066161 
3124.000000	101.066189 
3123.000000	101.066074 
3122.000000	101.065680 
3121.000000	101.065150 
3120.000000	101.064777 
3119.000000	101.064747 
3118.000000	101.064946 
3117.000000	101.064995 
3116.000000	101.064577 
3115.000000	101.063787 
3114.000000	101.063060 
3113.000000	101.062646 
3112.000000	101.062290 
3111.000000	101.061586 
3110.000000	101.060570 
3109.000000	101.059727 
3108.000000	101.059356 
3107.000000	101.059225 
3106.000000	101.058899 
3105.000000	101.058269 
3104.000000	101.057621 
3103.000000	101.057372 
3102.000000	101.057826 
3101.000000	101.058961 
3100.000000	101.060277 
3099.000000	101.061042 
3098.000000	101.060914 
3097.000000	101.060165 
3096.000000	101.059397 
3095.000000	101.059038 
3094.000000	101.059140 
3093.000000	101.059566 
3092.000000	101.060136 
3091.000000	101.060614 
3090.000000	101.060730 
3089.000000	101.060356 
3088.000000	101.059678 
3087.000000	101.059163 
3086.000000	101.059233 
3085.000000	101.059912 
3084.000000	101.060784 
3083.000000	101.061365 
3082.000000	101.061528 
3081.000000	101.061468 
3080.000000	101.061348 
3079.000000	101.061140 
3078.000000	101.060721 
3077.000000	101.059935 
3076.000000	101.058613 
3075.000000	101.056828 
3074.000000	101.055135 
3073.000000	101.054298 
3072.000000	101.054702 
3071.000000	101.056311 
3070.000000	101.058930 
3069.000000	101.061687 
3068.000000	101.062459 
3067.000000	101.059182 
3066.000000	101.052424 
3065.000000	101.045825 
3064.000000	101.042859 
3063.000000	101.043741 
3062.000000	101.046132 
3061.000000	101.047989 
3060.000000	101.048918 
3059.000000	101.049310 
3058.000000	101.049347 
3057.000000	101.048996 
3056.000000	101.048400 
3055.000000	101.048118 
3054.000000	101.048869 
3053.000000	101.050646 
3052.000000	101.051996 
3051.000000	101.051150 
3050.000000	101.048245 
3049.000000	101.045470 
3048.000000	101.044367 
3047.000000	101.043790 
3046.000000	101.041384 
3045.000000	101.036426 
3044.000000	101.030311 
3043.000000	101.024774 
3042.000000	101.020559 
3041.000000	101.017659 
3040.000000	101.015985 
3039.000000	101.015406 
3038.000000	101.015496 
3037.000000	101.015367 
3036.000000	101.013792 
3035.000000	101.010038 
3034.000000	101.004756 
3033.000000	100.999438 
3032.000000	100.994633 
3031.000000	100.989209 
3030.000000	100.981678 
3029.000000	100.971762 
3028.000000	100.960504 
3027.000000	100.949427 
3026.000000	100.939905 
3025.000000	100.932670 
3024.000000	100.927104 
3023.000000	100.921257 
3022.000000	100.913309 
3021.000000	100.902983 
3020.000000	100.891306 
3019.000000	100.879475 
3018.000000	100.868483 
3017.000000	100.859050 
3016.000000	100.850922 
3015.000000	100.842561 
3014.000000	100.832426 
3013.000000	100.820435 
3012.000000	100.807487 
3011.000000	100.793841 
3010.000000	100.778901 
3009.000000	100.762688 
3008.000000	100.746626 
3007.000000	100.732550 
3006.000000	100.721357 
3005.000000	100.712593 
3004.000000	100.704554 
3003.000000	100.694652 
3002.000000	100.680853 
3001.000000	100.663751 
3000.000000	100.646865 
2999.000000	100.633904 
2998.000000	100.625574 
2997.000000	100.619636 
2996.000000	100.614036 
2995.000000	100.608564 
2994.000000	100.602550 
2993.000000	100.592366 
2992.000000	100.573892 
2991.000000	100.548246 
2990.000000	100.523265 
2989.000000	100.507369 
2988.000000	100.502679 
2987.000000	100.505058 
2986.000000	100.509651 
2985.000000	100.514869 
2984.000000	100.521056 
2983.000000	100.527520 
2982.000000	100.532378 
2981.000000	100.534462 
2980.000000	100.534249 
2979.000000	100.533011 
2978.000000	100.531620 
2977.000000	100.530003 
2976.000000	100.527517 
2975.000000	100.524066 
2974.000000	100.520845 
2973.000000	100.519448 
2972.000000	100.520232 
2971.000000	100.522259 
2970.000000	100.524988 
2969.000000	100.529214 
2968.000000	100.535911 
2967.000000	100.544853 
2966.000000	100.554863 
2965.000000	100.564944 
2964.000000	100.574752 
2963.000000	100.584297 
2962.000000	100.593580 
2961.000000	100.602286 
2960.000000	100.609720 
2959.000000	100.615558 
2958.000000	100.620782 
2957.000000	100.627004 
2956.000000	100.634332 
2955.000000	100.640582 
2954.000000	100.643537 
2953.000000	100.643919 
2952.000000	100.645482 
2951.000000	100.651799 
2950.000000	100.662881 
2949.000000	100.674831 
2948.000000	100.683001 
2947.000000	100.685823 
2946.000000	100.685696 
2945.000000	100.686237 
2944.000000	100.688908 
2943.000000	100.692850 
2942.000000	100.697258 
2941.000000	100.702235 
2940.000000	100.707085 
2939.000000	100.709566 
2938.000000	100.708115 
2937.000000	100.704129 
2936.000000	100.701098 
2935.000000	100.701678 
2934.000000	100.705960 
2933.000000	100.711910 
2932.000000	100.716741 
2931.000000	100.718334 
2930.000000	100.716287 
2929.000000	100.711826 
2928.000000	100.706656 
2927.000000	100.702070 
2926.000000	100.698902 
2925.000000	100.697231 
2924.000000	100.695848 
2923.000000	100.693118 
2922.000000	100.688907 
2921.000000	100.684695 
2920.000000	100.681260 
2919.000000	100.677545 
2918.000000	100.672673 
2917.000000	100.667775 
2916.000000	100.664373 
2915.000000	100.661860 
2914.000000	100.658243 
2913.000000	100.653027 
2912.000000	100.647840 
2911.000000	100.644187 
2910.000000	100.641922 
2909.000000	100.640025 
2908.000000	100.637695 
2907.000000	100.634384 
2906.000000	100.629561 
2905.000000	100.622957 
2904.000000	100.614673 
2903.000000	100.605176 
2902.000000	100.596096 
2901.000000	100.590809 
2900.000000	100.592772 
2899.000000	100.602403 
2898.000000	100.615818 
2897.000000	100.627332 
2896.000000	100.633668 
2895.000000	100.635787 
2894.000000	100.637006 
2893.000000	100.639788 
2892.000000	100.644138 
2891.000000	100.648526 
2890.000000	100.651782 
2889.000000	100.653856 
2888.000000	100.655125 
2887.000000	100.655902 
2886.000000	100.656948 
2885.000000	100.659666 
2884.000000	100.664997 
2883.000000	100.672380 
2882.000000	100.680385 
2881.000000	100.688205 
2880.000000	100.696058 
2879.000000	100.704487 
2878.000000	100.713915 
2877.000000	100.724492 
2876.000000	100.735460 
2875.000000	100.744767 
2874.000000	100.750334 
2873.000000	100.752170 
2872.000000	100.752821 
2871.000000	100.755410 
2870.000000	100.761401 
2869.000000	100.770110 
2868.000000	100.779769 
2867.000000	100.788898 
2866.000000	100.797211 
2865.000000	100.805537 
2864.000000	100.814668 
2863.000000	100.824106 
2862.000000	100.832216 
2861.000000	100.837826 
2860.000000	100.841598 
2859.000000	100.845709 
2858.000000	100.852025 
2857.000000	100.860463 
2856.000000	100.869120 
2855.000000	100.876211 
2854.000000	100.881709 
2853.000000	100.886793 
2852.000000	100.891853 
2851.000000	100.895912 
2850.000000	100.898493 
2849.000000	100.901079 
2848.000000	100.905595 
2847.000000	100.911785 
2846.000000	100.917163 
2845.000000	100.919627 
2844.000000	100.919321 
2843.000000	100.918062 
2842.000000	100.917787 
2841.000000	100.919606 
2840.000000	100.923442 
2839.000000	100.927950 
2838.000000	100.931219 
2837.000000	100.932195 
2836.000000	100.931450 
2835.000000	100.930605 
2834.000000	100.931157 
2833.000000	100.933727 
2832.000000	100.937867 
2831.000000	100.942332 
2830.000000	100.945925 
2829.000000	100.948461 
2828.000000	100.950797 
2827.000000	100.953725 
2826.000000	100.956953 
2825.000000	100.959288 
2824.000000	100.959808 
2823.000000	100.958848 
2822.000000	100.957894 
2821.000000	100.958396 
2820.000000	100.960496 
2819.000000	100.962997 
2818.000000	100.964659 
2817.000000	100.965314 
2816.000000	100.965570 
2815.000000	100.965838 
2814.000000	100.966108 
2813.000000	100.966424 
2812.000000	100.966927 
2811.000000	100.967377 
2810.000000	100.967177 
2809.000000	100.966125 
2808.000000	100.964847 
2807.000000	100.964255 
2806.000000	100.964700 
2805.000000	100.965795 
2804.000000	100.966935 
2803.000000	100.967864 
2802.000000	100.968741 
2801.000000	100.969696 
2800.000000	100.970404 
2799.000000	100.970276 
2798.000000	100.969182 
2797.000000	100.967810 
2796.000000	100.967096 
2795.000000	100.967388 
2794.000000	100.968324 
2793.000000	100.969333 
2792.000000	100.970020 
2791.000000	100.970194 
2790.000000	100.969915 
2789.000000	100.969619 
2788.000000	100.969890 
2787.000000	100.970913 
2786.000000	100.972274 
2785.000000	100.973396 
2784.000000	100.974084 
2783.000000	100.974528 
2782.000000	100.974873 
2781.000000	100.974992 
2780.000000	100.974719 
2779.000000	100.974184 
2778.000000	100.973788 
2777.000000	100.973834 
2776.000000	100.974224 
2775.000000	100.974549 
2774.000000	100.974445 
2773.000000	100.973879 
2772.000000	100.973126 
2771.000000	100.972563 
2770.000000	100.972495 
2769.000000	100.973115 
2768.000000	100.974512 
2767.000000	100.976552 
2766.000000	100.978712 
2765.000000	100.980170 
2764.000000	100.980327 
2763.000000	100.979305 
2762.000000	100.977903 
2761.000000	100.976903 
2760.000000	100.976518 
2759.000000	100.976619 
2758.000000	100.977215 
2757.000000	100.978388 
2756.000000	100.979851 
2755.000000	100.980948 
2754.000000	100.981179 
2753.000000	100.980452 
2752.000000	100.978925 
2751.000000	100.976902 
2750.000000	100.974890 
2749.000000	100.973330 
2748.000000	100.972120 
2747.000000	100.970721 
2746.000000	100.968945 
2745.000000	100.967357 
2744.000000	100.966682 
2743.000000	100.967094 
2742.000000	100.968251 
2741.000000	100.969699 
2740.000000	100.971079 
2739.000000	100.972227 
2738.000000	100.973285 
2737.000000	100.974529 
2736.000000	100.975884 
2735.000000	100.976813 
2734.000000	100.976854 
2733.000000	100.976095 
2732.000000	100.974978 
2731.000000	100.973854 
2730.000000	100.972905 
2729.000000	100.972255 
2728.000000	100.971982 
2727.000000	100.972100 
2726.000000	100.972587 
2725.000000	100.973292 
2724.000000	100.973843 
2723.000000	100.973963 
2722.000000	100.973884 
2721.000000	100.974138 
2720.000000	100.974837 
2719.000000	100.975505 
2718.000000	100.975680 
2717.000000	100.975364 
2716.000000	100.974815 
2715.000000	100.974303 
2714.000000	100.974168 
2713.000000	100.974695 
2712.000000	100.975647 
2711.000000	100.976270 
2710.000000	100.976112 
2709.000000	100.975530 
2708.000000	100.975212 
2707.000000	100.975302 
2706.000000	100.975300 
2705.000000	100.974791 
2704.000000	100.973931 
2703.000000	100.973183 
2702.000000	100.972775 
2701.000000	100.972578 
2700.000000	100.972362 
2699.000000	100.972034 
2698.000000	100.971669 
2697.000000	100.971377 
2696.000000	100.971185 
2695.000000	100.971083 
2694.000000	100.971133 
2693.000000	100.971365 
2692.000000	100.971560 
2691.000000	100.971350 
2690.000000	100.970683 
2689.000000	100.970059 
2688.000000	100.970068 
2687.000000	100.970761 
2686.000000	100.971610 
2685.000000	100.972048 
2684.000000	100.971944 
2683.000000	100.971560 
2682.000000	100.971257 
2681.000000	100.971253 
2680.000000	100.971506 
2679.000000	100.971764 
2678.000000	100.971813 
2677.000000	100.971696 
2676.000000	100.971621 
2675.000000	100.971708 
2674.000000	100.971931 
2673.000000	100.972225 
2672.000000	100.972479 
2671.000000	100.972470 
2670.000000	100.971956 
2669.000000	100.970897 
2668.000000	100.969548 
2667.000000	100.968415 
2666.000000	100.968100 
2665.000000	100.968989 
2664.000000	100.970887 
2663.000000	100.972994 
2662.000000	100.974567 
2661.000000	100.975515 
2660.000000	100.976166 
2659.000000	100.976706 
2658.000000	100.977055 
2657.000000	100.977205 
2656.000000	100.977388 
2655.000000	100.977831 
2654.000000	100.978531 
2653.000000	100.979286 
2652.000000	100.979860 
2651.000000	100.980121 
2650.000000	100.980150 
2649.000000	100.980200 
2648.000000	100.980471 
2647.000000	100.980922 
2646.000000	100.981404 
2645.000000	100.981904 
2644.000000	100.982517 
2643.000000	100.983227 
2642.000000	100.983873 
2641.000000	100.984348 
2640.000000	100.984735 
2639.000000	100.985201 
2638.000000	100.985828 
2637.000000	100.986566 
2636.000000	100.987255 
2635.000000	100.987739 
2634.000000	100.987994 
2633.000000	100.988175 
2632.000000	100.988473 
2631.000000	100.988901 
2630.000000	100.989347 
2629.000000	100.989730 
2628.000000	100.990069 
2627.000000	100.990421 
2626.000000	100.990819 
2625.000000	100.991252 
2624.000000	100.991688 
2623.000000	100.992092 
2622.000000	100.992428 
2621.000000	100.992670 
2620.000000	100.992827 
2619.000000	100.992948 
2618.000000	100.993081 
2617.000000	100.993236 
2616.000000	100.993401 
2615.000000	100.993569 
2614.000000	100.993739 
2613.000000	100.993899 
2612.000000	100.994022 
2611.000000	100.994089 
2610.000000	100.994132 
2609.000000	100.994208 
2608.000000	100.994341 
2607.000000	100.994484 
2606.000000	100.994589 
2605.000000	100.994679 
2604.000000	100.994792 
2603.000000	100.994862 
2602.000000	100.994760 
2601.000000	100.994473 
2600.000000	100.994141 
2599.000000	100.993906 
2598.000000	100.993774 
2597.000000	100.993662 
2596.000000	100.993493 
2595.000000	100.993227 
2594.000000	100.992862 
2593.000000	100.992448 
2592.000000	100.992093 
2591.000000	100.991886 
2590.000000	100.991831 
2589.000000	100.991844 
2588.000000	100.991793 
2587.000000	100.991599 
2586.000000	100.991252 
2585.000000	100.990792 
2584.000000	100.990284 
2583.000000	100.989800 
2582.000000	100.989391 
2581.000000	100.989063 
2580.000000	100.988778 
2579.000000	100.988487 
2578.000000	100.988168 
2577.000000	100.987834 
2576.000000	100.987500 
2575.000000	100.987173 
2574.000000	100.986849 
2573.000000	100.986523 
2572.000000	100.986190 
2571.000000	100.985851 
2570.000000	100.985513 
2569.000000	100.985191 
2568.000000	100.984899 
2567.000000	100.984639 
2566.000000	100.984403 
2565.000000	100.984181 
2564.000000	100.983965 
2563.000000	100.983755 
2562.000000	100.983550 
2561.000000	100.983357 
2560.000000	100.983183 
2559.000000	100.983037 
2558.000000	100.982920 
2557.000000	100.982822 
2556.000000	100.982716 
2555.000000	100.982574 
2554.000000	100.982398 
2553.000000	100.982249 
2552.000000	100.982182 
2551.000000	100.982181 
2550.000000	100.982166 
2549.000000	100.982095 
2548.000000	100.981998 
2547.000000	100.981884 
2546.000000	100.981701 
2545.000000	100.981436 
2544.000000	100.981183 
2543.000000	100.981070 
2542.000000	100.981162 
2541.000000	100.981435 
2540.000000	100.981767 
2539.000000	100.981951 
2538.000000	100.981794 
2537.000000	100.981229 
2536.000000	100.980356 
2535.000000	100.979432 
2534.000000	100.978787 
2533.000000	100.978692 
2532.000000	100.979147 
2531.000000	100.979768 
2530.000000	100.980110 
2529.000000	100.980146 
2528.000000	100.980229 
2527.000000	100.980595 
2526.000000	100.981073 
2525.000000	100.981371 
2524.000000	100.981449 
2523.000000	100.981439 
2522.000000	100.981370 
2521.000000	100.981174 
2520.000000	100.980859 
2519.000000	100.980475 
2518.000000	100.979986 
2517.000000	100.979335 
2516.000000	100.978564 
2515.000000	100.977786 
2514.000000	100.977119 
2513.000000	100.976684 
2512.000000	100.976497 
2511.000000	100.976324 
2510.000000	100.975853 
2509.000000	100.975114 
2508.000000	100.974574 
2507.000000	100.974616 
2506.000000	100.975055 
2505.000000	100.975272 
2504.000000	100.974821 
2503.000000	100.973731 
2502.000000	100.972391 
2501.000000	100.971264 
2500.000000	100.970686 
2499.000000	100.970750 
2498.000000	100.971313 
2497.000000	100.972066 
2496.000000	100.972655 
2495.000000	100.972811 
2494.000000	100.972445 
2493.000000	100.971653 
2492.000000	100.970642 
2491.000000	100.969626 
2490.000000	100.968756 
2489.000000	100.968097 
2488.000000	100.967623 
2487.000000	100.967243 
2486.000000	100.966886 
2485.000000	100.966574 
2484.000000	100.966358 
2483.000000	100.966216 
2482.000000	100.966044 
2481.000000	100.965748 
2480.000000	100.965321 
2479.000000	100.964834 
2478.000000	100.964381 
2477.000000	100.964007 
2476.000000	100.963686 
2475.000000	100.963363 
2474.000000	100.963016 
2473.000000	100.962668 
2472.000000	100.962356 
2471.000000	100.962116 
2470.000000	100.961983 
2469.000000	100.961933 
2468.000000	100.961790 
2467.000000	100.961307 
2466.000000	100.960422 
2465.000000	100.959425 
2464.000000	100.958733 
2463.000000	100.958473 
2462.000000	100.958374 
2461.000000	100.958047 
2460.000000	100.957379 
2459.000000	100.956589 
2458.000000	100.956004 
2457.000000	100.955794 
2456.000000	100.955836 
2455.000000	100.955781 
2454.000000	100.955326 
2453.000000	100.954425 
2452.000000	100.953236 
2451.000000	100.951943 
2450.000000	100.950729 
2449.000000	100.949825 
2448.000000	100.949361 
2447.000000	100.949205 
2446.000000	100.949139 
2445.000000	100.949205 
2444.000000	100.949607 
2443.000000	100.950246 
2442.000000	100.950623 
2441.000000	100.950343 
2440.000000	100.949482 
2439.000000	100.948382 
2438.000000	100.947277 
2437.000000	100.946255 
2436.000000	100.945318 
2435.000000	100.944289 
2434.000000	100.942847 
2433.000000	100.940867 
2432.000000	100.938657 
2431.000000	100.936765 
2430.000000	100.935531 
2429.000000	100.934909 
2428.000000	100.934641 
2427.000000	100.934532 
2426.000000	100.934489 
2425.000000	100.934289 
2424.000000	100.933499 
2423.000000	100.931870 
2422.000000	100.929754 
2421.000000	100.927988 
2420.000000	100.927076 
2419.000000	100.926753 
2418.000000	100.926372 
2417.000000	100.925568 
2416.000000	100.924417 
2415.000000	100.923075 
2414.000000	100.921598 
2413.000000	100.920095 
2412.000000	100.918758 
2411.000000	100.917627 
2410.000000	100.916530 
2409.000000	100.915352 
2408.000000	100.914206 
2407.000000	100.913278 
2406.000000	100.912618 
2405.000000	100.912101 
2404.000000	100.911523 
2403.000000	100.910676 
2402.000000	100.909466 
2401.000000	100.907979 
2400.000000	100.906396 
2399.000000	100.904848 
2398.000000	100.903414 
2397.000000	100.902158 
2396.000000	100.901097 
2395.000000	100.900148 
2394.000000	100.899184 
2393.000000	100.898140 
2392.000000	100.897046 
2391.000000	100.895959 
2390.000000	100.894919 
2389.000000	100.893963 
2388.000000	100.893097 
2387.000000	100.892228 
2386.000000	100.891214 
2385.000000	100.890023 
2384.000000	100.888774 
2383.000000	100.887584 
2382.000000	100.886459 
2381.000000	100.885353 
2380.000000	100.884250 
2379.000000	100.883116 
2378.000000	100.881882 
2377.000000	100.880592 
2376.000000	100.879453 
2375.000000	100.878623 
2374.000000	100.878014 
2373.000000	100.877397 
2372.000000	100.876696 
2371.000000	100.876065 
2370.000000	100.875692 
2369.000000	100.875577 
2368.000000	100.875430 
2367.000000	100.874818 
2366.000000	100.873527 
2365.000000	100.871875 
2364.000000	100.870581 
2363.000000	100.870036 
2362.000000	100.870101 
2361.000000	100.870351 
2360.000000	100.870485 
2359.000000	100.870476 
2358.000000	100.870224 
2357.000000	100.869763 
2356.000000	100.869311 
2355.000000	100.868792 
2354.000000	100.868075 
2353.000000	100.867384 
2352.000000	100.867319 
2351.000000	100.867899 
2350.000000	100.868694 
2349.000000	100.869534 
2348.000000	100.869998 
2347.000000	100.869834 
2346.000000	100.869607 
2345.000000	100.870378 
2344.000000	100.872105 
2343.000000	100.873462 
2342.000000	100.874440 
2341.000000	100.875321 
2340.000000	100.875956 
2339.000000	100.875936 
2338.000000	100.875635 
2337.000000	100.876305 
2336.000000	100.878201 
2335.000000	100.880196 
2334.000000	100.880899 
2333.000000	100.880763 
2332.000000	100.880871 
2331.000000	100.881606 
2330.000000	100.881996 
2329.000000	100.882580 
2328.000000	100.884083 
2327.000000	100.887586 
2326.000000	100.892268 
2325.000000	100.896712 
2324.000000	100.899486 
2323.000000	100.900236 
2322.000000	100.900475 
2321.000000	100.901867 
2320.000000	100.904895 
2319.000000	100.908279 
2318.000000	100.910585 
2317.000000	100.911756 
2316.000000	100.912337 
2315.000000	100.913244 
2314.000000	100.914682 
2313.000000	100.917209 
2312.000000	100.920558 
2311.000000	100.924608 
2310.000000	100.928759 
2309.000000	100.932974 
2308.000000	100.936307 
2307.000000	100.937891 
2306.000000	100.937506 
2305.000000	100.936567 
2304.000000	100.936238 
2303.000000	100.936650 
2302.000000	100.937198 
2301.000000	100.938020 
2300.000000	100.939368 
2299.000000	100.941106 
2298.000000	100.942677 
2297.000000	100.944241 
2296.000000	100.946290 
2295.000000	100.948933 
2294.000000	100.951522 
2293.000000	100.953505 
2292.000000	100.954895 
2291.000000	100.956114 
2290.000000	100.957547 
2289.000000	100.959378 
2288.000000	100.961527 
2287.000000	100.963704 
2286.000000	100.965627 
2285.000000	100.967261 
2284.000000	100.968807 
2283.000000	100.970446 
2282.000000	100.972188 
2281.000000	100.973926 
2280.000000	100.975590 
2279.000000	100.977235 
2278.000000	100.979012 
2277.000000	100.981012 
2276.000000	100.983168 
2275.000000	100.985312 
2274.000000	100.987307 
2273.000000	100.989134 
2272.000000	100.990782 
2271.000000	100.992031 
2270.000000	100.992665 
2269.000000	100.993162 
2268.000000	100.994573 
2267.000000	100.997429 
2266.000000	101.001099 
2265.000000	101.004409 
2264.000000	101.006773 
2263.000000	101.008339 
2262.000000	101.009640 
2261.000000	101.011433 
2260.000000	101.014270 
2259.000000	101.017625 
2258.000000	101.020081 
2257.000000	101.020984 
2256.000000	101.021335 
2255.000000	101.022397 
2254.000000	101.024039 
2253.000000	101.025410 
2252.000000	101.026777 
2251.000000	101.029590 
2250.000000	101.034734 
2249.000000	101.041417 
2248.000000	101.047520 
2247.000000	101.050930 
2246.000000	101.050876 
2245.000000	101.048617 
2244.000000	101.046526 
2243.000000	101.045987 
2242.000000	101.046733 
2241.000000	101.048178 
2240.000000	101.050300 
2239.000000	101.052786 
2238.000000	101.054508 
2237.000000	101.054595 
2236.000000	101.053137 
2235.000000	101.050368 
2234.000000	101.046494 
2233.000000	101.043202 
2232.000000	101.043754 
2231.000000	101.050185 
2230.000000	101.061330 
2229.000000	101.074224 
2228.000000	101.086560 
2227.000000	101.096917 
2226.000000	101.103754 
2225.000000	101.105882 
2224.000000	101.103804 
2223.000000	101.099682 
2222.000000	101.096210 
2221.000000	101.095728 
2220.000000	101.099206 
2219.000000	101.105526 
2218.000000	101.112581 
2217.000000	101.119563 
2216.000000	101.127255 
2215.000000	101.135730 
2214.000000	101.143089 
2213.000000	101.147133 
2212.000000	101.147322 
2211.000000	101.144984 
2210.000000	101.142851 
2209.000000	101.144091 
2208.000000	101.149736 
2207.000000	101.156688 
2206.000000	101.160129 
2205.000000	101.158318 
2204.000000	101.153458 
2203.000000	101.148007 
2202.000000	101.142712 
2201.000000	101.138892 
2200.000000	101.138906 
2199.000000	101.142189 
2198.000000	101.144050 
2197.000000	101.141789 
2196.000000	101.139511 
2195.000000	101.143182 
2194.000000	101.153456 
2193.000000	101.166530 
2192.000000	101.179516 
2191.000000	101.191233 
2190.000000	101.199645 
2189.000000	101.202988 
2188.000000	101.203127 
2187.000000	101.204621 
2186.000000	101.210699 
2185.000000	101.221806 
2184.000000	101.235996 
2183.000000	101.248349 
2182.000000	101.252741 
2181.000000	101.248138 
2180.000000	101.241624 
2179.000000	101.241241 
2178.000000	101.246983 
2177.000000	101.252066 
2176.000000	101.251474 
2175.000000	101.245838 
2174.000000	101.238239 
2173.000000	101.231388 
2172.000000	101.227779 
2171.000000	101.229151 
2170.000000	101.235341 
2169.000000	101.245616 
2168.000000	101.260444 
2167.000000	101.279435 
2166.000000	101.298464 
2165.000000	101.312546 
2164.000000	101.321894 
2163.000000	101.331622 
2162.000000	101.344454 
2161.000000	101.355944 
2160.000000	101.357563 
2159.000000	101.343336 
2158.000000	101.314790 
2157.000000	101.282119 
2156.000000	101.258253 
2155.000000	101.248449 
2154.000000	101.246297 
2153.000000	101.240516 
2152.000000	101.225653 
2151.000000	101.205951 
2150.000000	101.190239 
2149.000000	101.184633 
2148.000000	101.188700 
2147.000000	101.195669 
2146.000000	101.196327 
2145.000000	101.185649 
2144.000000	101.167059 
2143.000000	101.149252 
2142.000000	101.138193 
2141.000000	101.133069 
2140.000000	101.129697 
2139.000000	101.125535 
2138.000000	101.119943 
2137.000000	101.111455 
2136.000000	101.098173 
2135.000000	101.081582 
2134.000000	101.067581 
2133.000000	101.061295 
2132.000000	101.061144 
2131.000000	101.059679 
2130.000000	101.050754 
2129.000000	101.035307 
2128.000000	101.019977 
2127.000000	101.010679 
2126.000000	101.008157 
2125.000000	101.009226 
2124.000000	101.011257 
2123.000000	101.014661 
2122.000000	101.020569 
2121.000000	101.027043 
2120.000000	101.029513 
2119.000000	101.025850 
2118.000000	101.019542 
2117.000000	101.016262 
2116.000000	101.017768 
2115.000000	101.020944 
2114.000000	101.022784 
2113.000000	101.023861 
2112.000000	101.025847 
2111.000000	101.027996 
2110.000000	101.028317 
2109.000000	101.026886 
2108.000000	101.025565 
2107.000000	101.024702 
2106.000000	101.022283 
2105.000000	101.016702 
2104.000000	101.009185 
2103.000000	101.003261 
2102.000000	101.002365 
2101.000000	101.007289 
2100.000000	101.014936 
2099.000000	101.020161 
2098.000000	101.020154 
2097.000000	101.016950 
2096.000000	101.014610 
2095.000000	101.014235 
2094.000000	101.013010 
2093.000000	101.008101 
2092.000000	101.000568 
2091.000000	100.995263 
2090.000000	100.996819 
2089.000000	101.005321 
2088.000000	101.015616 
2087.000000	101.021760 
2086.000000	101.022989 
2085.000000	101.023878 
2084.000000	101.028367 
2083.000000	101.035671 
2082.000000	101.042765 
2081.000000	101.048714 
2080.000000	101.054626 
2079.000000	101.060893 
2078.000000	101.066885 
2077.000000	101.072984 
2076.000000	101.080687 
2075.000000	101.090312 
2074.000000	101.100208 
2073.000000	101.108310 
2072.000000	101.113728 
2071.000000	101.116707 
2070.000000	101.118039 
2069.000000	101.118850 
2068.000000	101.120141 
2067.000000	101.122274 
2066.000000	101.125126 
2065.000000	101.128405 
2064.000000	101.131637 
2063.000000	101.134680 
2062.000000	101.138812 
2061.000000	101.146123 
2060.000000	101.156884 
2059.000000	101.168617 
2058.000000	101.178584 
2057.000000	101.185929 
2056.000000	101.190719 
2055.000000	101.192838 
2054.000000	101.193798 
2053.000000	101.197783 
2052.000000	101.208218 
2051.000000	101.223724 
2050.000000	101.238626 
2049.000000	101.247697 
2048.000000	101.249789 
2047.000000	101.247317 
2046.000000	101.244258 
2045.000000	101.244367 
2044.000000	101.249207 
2043.000000	101.257204 
2042.000000	101.265615 
2041.000000	101.273409 
2040.000000	101.281317 
2039.000000	101.289986 
2038.000000	101.299773 
2037.000000	101.311013 
2036.000000	101.322055 
2035.000000	101.328508 
2034.000000	101.327643 
2033.000000	101.322605 
2032.000000	101.318933 
2031.000000	101.317639 
2030.000000	101.316211 
2029.000000	101.314459 
2028.000000	101.314548 
2027.000000	101.316037 
2026.000000	101.316402 
2025.000000	101.316171 
2024.000000	101.318625 
2023.000000	101.323482 
2022.000000	101.325262 
2021.000000	101.320162 
2020.000000	101.311348 
2019.000000	101.305662 
2018.000000	101.306834 
2017.000000	101.312966 
2016.000000	101.318703 
2015.000000	101.319334 
2014.000000	101.314403 
2013.000000	101.308338 
2012.000000	101.306396 
2011.000000	101.309461 
2010.000000	101.314285 
2009.000000	101.318142 
2008.000000	101.320793 
2007.000000	101.321625 
2006.000000	101.318643 
2005.000000	101.311509 
2004.000000	101.303026 
2003.000000	101.296535 
2002.000000	101.293073 
2001.000000	101.291788 
2000.000000	101.290046 
1999.000000	101.284468 
1998.000000	101.274435 
1997.000000	101.264076 
1996.000000	101.258977 
1995.000000	101.261372 
1994.000000	101.269732 
1993.000000	101.280818 
1992.000000	101.290368 
1991.000000	101.294035 
1990.000000	101.290991 
1989.000000	101.286002 
1988.000000	101.285288 
1987.000000	101.290202 
1986.000000	101.296919 
1985.000000	101.302010 
1984.000000	101.306011 
1983.000000	101.312013 
1982.000000	101.322373 
1981.000000	101.336404 
1980.000000	101.348108 
1979.000000	101.349167 
1978.000000	101.337394 
1977.000000	101.320669 
1976.000000	101.308604 
1975.000000	101.302057 
1974.000000	101.296850 
1973.000000	101.293783 
1972.000000	101.297652 
1971.000000	101.307442 
1970.000000	101.314283 
1969.000000	101.310657 
1968.000000	101.297616 
1967.000000	101.282105 
1966.000000	101.269851 
1965.000000	101.261960 
1964.000000	101.256212 
1963.000000	101.249623 
1962.000000	101.240694 
1961.000000	101.230097 
1960.000000	101.219308 
1959.000000	101.209588 
1958.000000	101.202430 
1957.000000	101.198789 
1956.000000	101.196936 
1955.000000	101.193291 
1954.000000	101.187138 
1953.000000	101.181303 
1952.000000	101.177271 
1951.000000	101.171824 
1950.000000	101.161712 
1949.000000	101.150009 
1948.000000	101.142748 
1947.000000	101.140459 
1946.000000	101.137491 
1945.000000	101.129182 
1944.000000	101.116848 
1943.000000	101.105790 
1942.000000	101.100711 
1941.000000	101.102236 
1940.000000	101.105969 
1939.000000	101.106219 
1938.000000	101.102047 
1937.000000	101.098007 
1936.000000	101.097902 
1935.000000	101.099554 
1934.000000	101.098254 
1933.000000	101.093177 
1932.000000	101.088191 
1931.000000	101.085930 
1930.000000	101.084643 
1929.000000	101.082095 
1928.000000	101.077725 
1927.000000	101.072460 
1926.000000	101.067069 
1925.000000	101.062636 
1924.000000	101.060415 
1923.000000	101.059850 
1922.000000	101.059179 
1921.000000	101.057833 
1920.000000	101.056088 
1919.000000	101.053388 
1918.000000	101.048378 
1917.000000	101.041941 
1916.000000	101.036808 
1915.000000	101.033516 
1914.000000	101.030871 
1913.000000	101.028707 
1912.000000	101.028062 
1911.000000	101.028702 
1910.000000	101.028910 
1909.000000	101.028353 
1908.000000	101.028037 
1907.000000	101.028642 
1906.000000	101.029243 
1905.000000	101.028904 
1904.000000	101.027661 
1903.000000	101.025329 
1902.000000	101.022086 
1901.000000	101.019453 
1900.000000	101.018406 
1899.000000	101.018239 
1898.000000	101.017616 
1897.000000	101.016613 
1896.000000	101.016412 
1895.000000	101.016803 
1894.000000	101.016135 
1893.000000	101.013867 
1892.000000	101.011260 
1891.000000	101.009537 
1890.000000	101.008557 
1889.000000	101.007762 
1888.000000	101.007103 
1887.000000	101.006248 
1886.000000	101.004786 
1885.000000	101.003321 
1884.000000	101.002950 
1883.000000	101.003477 
1882.000000	101.003757 
1881.000000	101.003679 
1880.000000	101.003946 
1879.000000	101.004715 
1878.000000	101.005524 
1877.000000	101.006207 
1876.000000	101.007116 
1875.000000	101.007872 
1874.000000	101.007195 
1873.000000	101.004763 
1872.000000	101.001774 
1871.000000	100.999506 
1870.000000	100.998221 
1869.000000	100.997714 
1868.000000	100.998091 
1867.000000	100.998974 
1866.000000	100.999159 
1865.000000	100.998150 
1864.000000	100.996446 
1863.000000	100.994300 
1862.000000	100.991684 
1861.000000	100.989678 
1860.000000	100.989925 
1859.000000	100.992505 
1858.000000	100.995669 
1857.000000	100.997938 
1856.000000	100.999252 
1855.000000	100.999934 
1854.000000	100.999834 
1853.000000	100.999509 
1852.000000	100.999129 
1851.000000	100.998227 
1850.000000	100.997034 
1849.000000	100.996617 
1848.000000	100.997457 
1847.000000	100.998385 
1846.000000	100.998476 
1845.000000	100.998603 
1844.000000	100.999729 
1843.000000	101.001286 
1842.000000	101.001934 
1841.000000	101.001343 
1840.000000	101.000211 
1839.000000	100.999228 
1838.000000	100.998125 
1837.000000	100.996991 
1836.000000	100.996535 
1835.000000	100.996492 
1834.000000	100.995931 
1833.000000	100.994788 
1832.000000	100.993520 
1831.000000	100.992872 
1830.000000	100.993027 
1829.000000	100.993641 
1828.000000	100.994556 
1827.000000	100.995253 
1826.000000	100.995454 
1825.000000	100.995395 
1824.000000	100.995659 
1823.000000	100.996169 
1822.000000	100.995824 
1821.000000	100.994191 
1820.000000	100.992356 
1819.000000	100.991769 
1818.000000	100.992191 
1817.000000	100.992507 
1816.000000	100.992726 
1815.000000	100.993272 
1814.000000	100.994105 
1813.000000	100.994725 
1812.000000	100.995335 
1811.000000	100.996471 
1810.000000	100.997512 
1809.000000	100.998010 
1808.000000	100.998518 
1807.000000	100.999051 
1806.000000	100.998803 
1805.000000	100.997771 
1804.000000	100.997291 
1803.000000	100.997728 
1802.000000	100.998215 
1801.000000	100.997791 
1800.000000	100.996970 
1799.000000	100.996751 
1798.000000	100.997002 
1797.000000	100.997544 
1796.000000	100.998784 
1795.000000	101.000550 
1794.000000	101.002178 
1793.000000	101.002978 
1792.000000	101.003118 
1791.000000	101.003504 
1790.000000	101.004171 
1789.000000	101.004756 
1788.000000	101.005644 
1787.000000	101.007046 
1786.000000	101.008235 
1785.000000	101.008734 
1784.000000	101.009285 
1783.000000	101.009659 
1782.000000	101.009658 
1781.000000	101.009327 
1780.000000	101.008983 
1779.000000	101.009059 
1778.000000	101.009299 
1777.000000	101.009754 
1776.000000	101.010332 
1775.000000	101.010760 
1774.000000	101.011609 
1773.000000	101.013275 
1772.000000	101.014893 
1771.000000	101.016735 
1770.000000	101.018848 
1769.000000	101.020118 
1768.000000	101.020501 
1767.000000	101.020721 
1766.000000	101.021305 
1765.000000	101.021845 
1764.000000	101.022288 
1763.000000	101.023110 
1762.000000	101.024378 
1761.000000	101.025257 
1760.000000	101.025881 
1759.000000	101.026746 
1758.000000	101.028149 
1757.000000	101.030048 
1756.000000	101.031672 
1755.000000	101.032821 
1754.000000	101.033678 
1753.000000	101.034353 
1752.000000	101.034785 
1751.000000	101.035092 
1750.000000	101.035490 
1749.000000	101.036100 
1748.000000	101.036889 
1747.000000	101.037784 
1746.000000	101.038757 
1745.000000	101.039674 
1744.000000	101.040500 
1743.000000	101.041303 
1742.000000	101.042107 
1741.000000	101.042905 
1740.000000	101.043694 
1739.000000	101.044468 
1738.000000	101.045227 
1737.000000	101.045967 
1736.000000	101.046685 
1735.000000	101.047378 
1734.000000	101.048037 
1733.000000	101.048660 
1732.000000	101.049254 
1731.000000	101.049822 
1730.000000	101.050364 
1729.000000	101.050888 
1728.000000	101.051398 
1727.000000	101.051906 
1726.000000	101.052416 
1725.000000	101.052927 
1724.000000	101.053431 
1723.000000	101.053926 
1722.000000	101.054410 
1721.000000	101.054882 
1720.000000	101.055347 
1719.000000	101.055809 
1718.000000	101.056257 
1717.000000	101.056676 
1716.000000	101.057064 
1715.000000	101.057433 
1714.000000	101.057788 
1713.000000	101.058137 
1712.000000	101.058488 
1711.000000	101.058843 
1710.000000	101.059200 
1709.000000	101.059556 
1708.000000	101.059914 
1707.000000	101.060270 
1706.000000	101.060617 
1705.000000	101.060947 
1704.000000	101.061266 
1703.000000	101.061580 
1702.000000	101.061896 
1701.000000	101.062220 
1700.000000	101.062551 
1699.000000	101.062893 
1698.000000	101.063244 
1697.000000	101.063598 
1696.000000	101.063961 
1695.000000	101.064334 
1694.000000	101.064714 
1693.000000	101.065106 
1692.000000	101.065521 
1691.000000	101.065966 
1690.000000	101.066438 
1689.000000	101.066933 
1688.000000	101.067444 
1687.000000	101.067969 
1686.000000	101.068510 
1685.000000	101.069062 
1684.000000	101.069609 
1683.000000	101.070145 
1682.000000	101.070682 
1681.000000	101.071224 
1680.000000	101.071769 
1679.000000	101.072318 
1678.000000	101.072878 
1677.000000	101.073449 
1676.000000	101.074033 
1675.000000	101.074632 
1674.000000	101.075255 
1673.000000	101.075899 
1672.000000	101.076553 
1671.000000	101.077209 
1670.000000	101.077865 
1669.000000	101.078521 
1668.000000	101.079179 
1667.000000	101.079844 
1666.000000	101.080515 
1665.000000	101.081192 
1664.000000	101.081877 
1663.000000	101.082568 
1662.000000	101.083266 
1661.000000	101.083968 
1660.000000	101.084667 
1659.000000	101.085362 
1658.000000	101.086055 
1657.000000	101.086749 
1656.000000	101.087445 
1655.000000	101.088151 
1654.000000	101.088880 
1653.000000	101.089618 
1652.000000	101.090359 
1651.000000	101.091104 
1650.000000	101.091841 
1649.000000	101.092560 
1648.000000	101.093265 
1647.000000	101.093960 
1646.000000	101.094652 
1645.000000	101.095343 
1644.000000	101.096035 
1643.000000	101.096723 
1642.000000	101.097411 
1641.000000	101.098105 
1640.000000	101.098810 
1639.000000	101.099524 
1638.000000	101.100253 
1637.000000	101.101002 
1636.000000	101.101764 
1635.000000	101.102526 
1634.000000	101.103284 
1633.000000	101.104042 
1632.000000	101.104801 
1631.000000	101.105564 
1630.000000	101.106339 
1629.000000	101.107142 
1628.000000	101.107979 
1627.000000	101.108850 
1626.000000	101.109752 
1625.000000	101.110682 
1624.000000	101.111632 
1623.000000	101.112598 
1622.000000	101.113579 
1621.000000	101.114567 
1620.000000	101.115564 
1619.000000	101.116542 
1618.000000	101.117526 
1617.000000	101.118638 
1616.000000	101.119891 
1615.000000	101.121185 
1614.000000	101.122457 
1613.000000	101.123739 
1612.000000	101.125080 
1611.000000	101.126181 
1610.000000	101.126944 
1609.000000	101.127691 
1608.000000	101.128571 
1607.000000	101.129283 
1606.000000	101.130059 
1605.000000	101.131358 
1604.000000	101.132838 
1603.000000	101.133997 
1602.000000	101.135095 
1601.000000	101.136525 
1600.000000	101.138057 
1599.000000	101.139382 
1598.000000	101.140636 
1597.000000	101.141935 
1596.000000	101.143219 
1595.000000	101.144455 
1594.000000	101.145685 
1593.000000	101.146922 
1592.000000	101.148149 
1591.000000	101.149371 
1590.000000	101.150588 
1589.000000	101.151801 
1588.000000	101.153001 
1587.000000	101.154173 
1586.000000	101.155303 
1585.000000	101.156390 
1584.000000	101.157435 
1583.000000	101.158444 
1582.000000	101.159427 
1581.000000	101.160388 
1580.000000	101.161324 
1579.000000	101.162236 
1578.000000	101.163130 
1577.000000	101.164012 
1576.000000	101.164876 
1575.000000	101.165708 
1574.000000	101.166504 
1573.000000	101.167268 
1572.000000	101.168005 
1571.000000	101.168720 
1570.000000	101.169416 
1569.000000	101.170095 
1568.000000	101.170750 
1567.000000	101.171375 
1566.000000	101.171969 
1565.000000	101.172541 
1564.000000	101.173097 
1563.000000	101.173641 
1562.000000	101.174176 
1561.000000	101.174709 
1560.000000	101.175232 
1559.000000	101.175714 
1558.000000	101.176148 
1557.000000	101.176556 
1556.000000	101.176938 
1555.000000	101.177284 
1554.000000	101.177595 
1553.000000	101.177874 
1552.000000	101.178124 
1551.000000	101.178343 
1550.000000	101.178536 
1549.000000	101.178710 
1548.000000	101.178863 
1547.000000	101.178990 
1546.000000	101.179089 
1545.000000	101.179172 
1544.000000	101.179262 
1543.000000	101.179374 
1542.000000	101.179512 
1541.000000	101.179666 
1540.000000	101.179821 
1539.000000	101.179964 
1538.000000	101.180094 
1537.000000	101.180206 
1536.000000	101.180290 
1535.000000	101.180337 
1534.000000	101.180346 
1533.000000	101.180325 
1532.000000	101.180286 
1531.000000	101.180235 
1530.000000	101.180167 
1529.000000	101.180076 
1528.000000	101.179962 
1527.000000	101.179824 
1526.000000	101.179666 
1525.000000	101.179486 
1524.000000	101.179326 
1523.000000	101.179292 
1522.000000	101.179418 
1521.000000	101.179440 
1520.000000	101.179230 
1519.000000	101.178781 
1518.000000	101.177792 
1517.000000	101.176257 
1516.000000	101.174932 
1515.000000	101.174508 
1514.000000	101.174673 
1513.000000	101.174472 
1512.000000	101.173957 
1511.000000	101.173827 
1510.000000	101.173811 
1509.000000	101.172964 
1508.000000	101.172101 
1507.000000	101.172024 
1506.000000	101.170775 
1505.000000	101.170206 
1504.000000	101.171631 
1503.000000	101.173986 
1502.000000	101.176684 
1501.000000	101.179022 
1500.000000	101.180180 
1499.000000	101.180282 
1498.000000	101.179168 
1497.000000	101.174584 
1496.000000	101.167913 
1495.000000	101.163552 
1494.000000	101.162144 
1493.000000	101.161369 
1492.000000	101.160449 
1491.000000	101.159711 
1490.000000	101.158217 
1489.000000	101.155385 
1488.000000	101.153562 
1487.000000	101.153718 
1486.000000	101.153416 
1485.000000	101.152710 
1484.000000	101.152320 
1483.000000	101.152079 
1482.000000	101.151606 
1481.000000	101.151002 
1480.000000	101.151218 
1479.000000	101.152036 
1478.000000	101.152126 
1477.000000	101.150823 
1476.000000	101.150004 
1475.000000	101.150708 
1474.000000	101.152055 
1473.000000	101.152278 
1472.000000	101.150993 
1471.000000	101.150221 
1470.000000	101.150268 
1469.000000	101.149953 
1468.000000	101.149708 
1467.000000	101.150166 
1466.000000	101.150862 
1465.000000	101.150983 
1464.000000	101.150254 
1463.000000	101.150445 
1462.000000	101.151544 
1461.000000	101.152206 
1460.000000	101.151858 
1459.000000	101.151736 
1458.000000	101.151636 
1457.000000	101.146538 
1456.000000	101.137256 
1455.000000	101.131145 
1454.000000	101.129317 
1453.000000	101.128803 
1452.000000	101.128192 
1451.000000	101.127672 
1450.000000	101.127007 
1449.000000	101.124240 
1448.000000	101.120162 
1447.000000	101.117392 
1446.000000	101.118209 
1445.000000	101.120764 
1444.000000	101.121208 
1443.000000	101.120681 
1442.000000	101.121733 
1441.000000	101.124103 
1440.000000	101.125622 
1439.000000	101.127524 
1438.000000	101.131030 
1437.000000	101.131293 
1436.000000	101.124969 
1435.000000	101.119807 
1434.000000	101.119804 
1433.000000	101.119970 
1432.000000	101.116906 
1431.000000	101.112404 
1430.000000	101.109487 
1429.000000	101.106890 
1428.000000	101.103817 
1427.000000	101.100771 
1426.000000	101.099154 
1425.000000	101.098111 
1424.000000	101.094405 
1423.000000	101.090150 
1422.000000	101.088200 
1421.000000	101.086053 
1420.000000	101.078363 
1419.000000	101.066150 
1418.000000	101.057072 
1417.000000	101.051911 
1416.000000	101.045411 
1415.000000	101.037206 
1414.000000	101.030528 
1413.000000	101.025281 
1412.000000	101.019051 
1411.000000	101.013171 
1410.000000	101.010561 
1409.000000	101.009653 
1408.000000	101.008268 
1407.000000	101.006499 
1406.000000	101.005899 
1405.000000	101.006393 
1404.000000	101.006605 
1403.000000	101.008844 
1402.000000	101.015304 
1401.000000	101.024053 
1400.000000	101.030963 
1399.000000	101.034104 
1398.000000	101.034008 
1397.000000	101.029217 
1396.000000	101.017815 
1395.000000	101.003780 
1394.000000	100.997983 
1393.000000	101.005994 
1392.000000	101.022560 
1391.000000	101.039761 
1390.000000	101.053278 
1389.000000	101.061466 
1388.000000	101.063803 
1387.000000	101.061623 
1386.000000	101.058559 
1385.000000	101.057289 
1384.000000	101.057309 
1383.000000	101.057977 
1382.000000	101.059413 
1381.000000	101.061756 
1380.000000	101.065075 
1379.000000	101.069558 
1378.000000	101.075723 
1377.000000	101.083461 
1376.000000	101.091481 
1375.000000	101.098166 
1374.000000	101.104019 
1373.000000	101.110920 
1372.000000	101.119491 
1371.000000	101.128062 
1370.000000	101.135427 
1369.000000	101.141896 
1368.000000	101.147727 
1367.000000	101.153513 
1366.000000	101.160079 
1365.000000	101.167528 
1364.000000	101.175032 
1363.000000	101.181671 
1362.000000	101.187400 
1361.000000	101.192824 
1360.000000	101.198131 
1359.000000	101.203232 
1358.000000	101.208876 
1357.000000	101.215747 
1356.000000	101.222878 
1355.000000	101.228647 
1354.000000	101.233174 
1353.000000	101.237580 
1352.000000	101.242759 
1351.000000	101.247030 
1350.000000	101.249285 
1349.000000	101.251638 
1348.000000	101.255409 
1347.000000	101.259708 
1346.000000	101.263288 
1345.000000	101.266393 
1344.000000	101.269461 
1343.000000	101.271843 
1342.000000	101.272922 
1341.000000	101.273593 
1340.000000	101.275187 
1339.000000	101.277843 
1338.000000	101.280916 
1337.000000	101.284022 
1336.000000	101.287168 
1335.000000	101.290153 
1334.000000	101.292327 
1333.000000	101.293177 
1332.000000	101.293057 
1331.000000	101.292876 
1330.000000	101.293418 
1329.000000	101.294681 
1328.000000	101.296285 
1327.000000	101.297803 
1326.000000	101.299232 
1325.000000	101.300565 
1324.000000	101.301291 
1323.000000	101.301626 
1322.000000	101.302584 
1321.000000	101.304613 
1320.000000	101.307183 
1319.000000	101.310032 
1318.000000	101.313207 
1317.000000	101.315706 
1316.000000	101.315841 
1315.000000	101.313646 
1314.000000	101.311497 
1313.000000	101.311364 
1312.000000	101.312733 
1311.000000	101.313981 
1310.000000	101.314723 
1309.000000	101.315559 
1308.000000	101.316962 
1307.000000	101.318806 
1306.000000	101.320924 
1305.000000	101.323049 
1304.000000	101.324502 
1303.000000	101.325040 
1302.000000	101.325087 
1301.000000	101.324947 
1300.000000	101.324501 
1299.000000	101.324218 
1298.000000	101.325168 
1297.000000	101.327545 
1296.000000	101.330013 
1295.000000	101.331109 
1294.000000	101.330567 
1293.000000	101.328778 
1292.000000	101.326055 
1291.000000	101.323080 
1290.000000	101.321050 
1289.000000	101.320572 
1288.000000	101.320959 
1287.000000	101.320976 
1286.000000	101.319873 
1285.000000	101.317496 
1284.000000	101.314210 
1283.000000	101.311032 
1282.000000	101.308661 
1281.000000	101.306589 
1280.000000	101.303974 
1279.000000	101.301125 
1278.000000	101.299157 
1277.000000	101.298422 
1276.000000	101.298299 
1275.000000	101.298133 
1274.000000	101.297357 
1273.000000	101.294951 
1272.000000	101.290263 
1271.000000	101.284401 
1270.000000	101.279460 
1269.000000	101.276099 
1268.000000	101.272986 
1267.000000	101.268877 
1266.000000	101.263941 
1265.000000	101.258871 
1264.000000	101.254085 
1263.000000	101.249996 
1262.000000	101.246722 
1261.000000	101.243468 
1260.000000	101.239268 
1259.000000	101.234583 
1258.000000	101.230900 
1257.000000	101.228645 
1256.000000	101.227000 
1255.000000	101.225800 
1254.000000	101.225898 
1253.000000	101.227226 
1252.000000	101.228162 
1251.000000	101.227690 
1250.000000	101.226944 
1249.000000	101.227656 
1248.000000	101.230026 
1247.000000	101.232871 
1246.000000	101.234751 
1245.000000	101.234185 
1244.000000	101.230060 
1243.000000	101.223311 
1242.000000	101.217651 
1241.000000	101.216741 
1240.000000	101.220704 
1239.000000	101.225994 
1238.000000	101.228828 
1237.000000	101.228359 
1236.000000	101.226155 
1235.000000	101.223888 
1234.000000	101.222126 
1233.000000	101.220636 
1232.000000	101.218866 
1231.000000	101.216134 
1230.000000	101.212175 
1229.000000	101.207956 
1228.000000	101.205569 
1227.000000	101.206489 
1226.000000	101.209681 
1225.000000	101.212114 
1224.000000	101.211820 
1223.000000	101.209914 
1222.000000	101.208880 
1221.000000	101.209462 
1220.000000	101.210477 
1219.000000	101.211337 
1218.000000	101.213035 
1217.000000	101.216131 
1216.000000	101.219195 
1215.000000	101.220135 
1214.000000	101.218164 
1213.000000	101.213818 
1212.000000	101.208071 
1211.000000	101.202233 
1210.000000	101.197766 
1209.000000	101.195218 
1208.000000	101.193651 
1207.000000	101.191631 
1206.000000	101.188406 
1205.000000	101.184117 
1204.000000	101.179514 
1203.000000	101.175622 
1202.000000	101.172837 
1201.000000	101.170137 
1200.000000	101.166009 
1199.000000	101.160259 
1198.000000	101.154092 
1197.000000	101.148169 
1196.000000	101.141599 
1195.000000	101.133426 
1194.000000	101.124212 
1193.000000	101.115519 
1192.000000	101.108430 
1191.000000	101.102747 
1190.000000	101.096972 
1189.000000	101.089264 
1188.000000	101.079297 
1187.000000	101.069101 
1186.000000	101.061187 
1185.000000	101.055889 
1184.000000	101.051333 
1183.000000	101.045671 
1182.000000	101.038440 
1181.000000	101.030176 
1180.000000	101.021787 
1179.000000	101.014094 
1178.000000	101.006978 
1177.000000	100.999159 
1176.000000	100.989691 
1175.000000	100.979103 
1174.000000	100.968117 
1173.000000	100.956100 
1172.000000	100.942416 
1171.000000	100.928721 
1170.000000	100.917704 
1169.000000	100.909522 
1168.000000	100.901391 
1167.000000	100.891262 
1166.000000	100.880471 
1165.000000	100.872131 
1164.000000	100.868245 
1163.000000	100.868886 
1162.000000	100.872722 
1161.000000	100.877688 
1160.000000	100.881993 
1159.000000	100.884787 
1158.000000	100.885278 
1157.000000	100.881503 
1156.000000	100.871508 
1155.000000	100.856227 
1154.000000	100.840122 
1153.000000	100.827948 
1152.000000	100.821170 
1151.000000	100.817562 
1150.000000	100.813240 
1149.000000	100.805191 
1148.000000	100.793242 
1147.000000	100.780168 
1146.000000	100.768988 
1145.000000	100.759714 
1144.000000	100.749640 
1143.000000	100.736930 
1142.000000	100.722806 
1141.000000	100.710050 
1140.000000	100.700488 
1139.000000	100.694144 
1138.000000	100.689394 
1137.000000	100.683497 
1136.000000	100.674344 
1135.000000	100.662413 
1134.000000	100.650012 
1133.000000	100.638090 
1132.000000	100.625229 
1131.000000	100.610729 
1130.000000	100.597065 
1129.000000	100.587420 
1128.000000	100.581248 
1127.000000	100.573935 
1126.000000	100.561218 
1125.000000	100.543194 
1124.000000	100.523962 
1123.000000	100.507851 
1122.000000	100.495904 
1121.000000	100.485760 
1120.000000	100.474478 
1119.000000	100.461051 
1118.000000	100.446198 
1117.000000	100.430666 
1116.000000	100.414719 
1115.000000	100.398905 
1114.000000	100.384092 
1113.000000	100.370463 
1112.000000	100.357170 
1111.000000	100.342936 
1110.000000	100.326565 
1109.000000	100.307253 
1108.000000	100.285850 
1107.000000	100.265324 
1106.000000	100.248242 
1105.000000	100.233997 
1104.000000	100.219489 
1103.000000	100.202632 
1102.000000	100.184412 
1101.000000	100.167213 
1100.000000	100.152430 
1099.000000	100.139916 
1098.000000	100.128673 
1097.000000	100.117618 
1096.000000	100.105868 
1095.000000	100.092702 
1094.000000	100.077163 
1093.000000	100.057932 
1092.000000	100.034122 
1091.000000	100.006376 
1090.000000	99.976974  
1089.000000	99.948636  
1088.000000	99.923085  
1087.000000	99.900391  
1086.000000	99.879295  
1085.000000	99.858385  
1084.000000	99.837261  
1083.000000	99.816341  
1082.000000	99.795502  
1081.000000	99.773608  
1080.000000	99.749843  
1079.000000	99.724993  
1078.000000	99.700933  
1077.000000	99.679323  
1076.000000	99.661205  
1075.000000	99.647118  
1074.000000	99.636916  
1073.000000	99.629768  
1072.000000	99.624160  
1071.000000	99.616710  
1070.000000	99.601495  
1069.000000	99.573648  
1068.000000	99.535726  
1067.000000	99.499124  
1066.000000	99.475765  
1065.000000	99.468317  
1064.000000	99.469782  
1063.000000	99.470703  
1062.000000	99.464747  
1061.000000	99.448496  
1060.000000	99.420891  
1059.000000	99.385767  
1058.000000	99.352244  
1057.000000	99.328716  
1056.000000	99.316299  
1055.000000	99.309176  
1054.000000	99.300674  
1053.000000	99.288107  
1052.000000	99.272411  
1051.000000	99.255356  
1050.000000	99.238181  
1049.000000	99.221679  
1048.000000	99.206136  
1047.000000	99.191407  
1046.000000	99.177925  
1045.000000	99.167182  
1044.000000	99.160142  
1043.000000	99.155304  
1042.000000	99.149608  
1041.000000	99.141768  
1040.000000	99.133797  
1039.000000	99.128998  
1038.000000	99.129641  
1037.000000	99.136699  
1036.000000	99.149697  
1035.000000	99.165557  
1034.000000	99.179409  
1033.000000	99.188213  
1032.000000	99.192060  
1031.000000	99.190937  
1030.000000	99.183403  
1029.000000	99.171488  
1028.000000	99.164182  
1027.000000	99.170698  
1026.000000	99.189978  
1025.000000	99.210756  
1024.000000	99.223117  
1023.000000	99.226732  
1022.000000	99.227238  
1021.000000	99.228825  
1020.000000	99.232447  
1019.000000	99.237867  
1018.000000	99.244100  
1017.000000	99.249314  
1016.000000	99.252796  
1015.000000	99.256144  
1014.000000	99.260955  
1013.000000	99.266361  
1012.000000	99.270366  
1011.000000	99.272682  
1010.000000	99.274886  
1009.000000	99.278468  
1008.000000	99.283820  
1007.000000	99.290546  
1006.000000	99.297874  
1005.000000	99.305255  
1004.000000	99.312978  
1003.000000	99.321615  
1002.000000	99.330832  
1001.000000	99.339664  
1000.000000	99.347928  
999.000000	 99.356128  
998.000000	 99.364179  
997.000000	 99.371915  
996.000000	 99.380858  
995.000000	 99.393170  
994.000000	 99.408027  
993.000000	 99.421193  
992.000000	 99.429610  
991.000000	 99.434770  
990.000000	 99.440118  
989.000000	 99.446669  
988.000000	 99.453088  
987.000000	 99.459021  
986.000000	 99.466366  
985.000000	 99.477387  
984.000000	 99.492624  
983.000000	 99.510404  
982.000000	 99.527949  
981.000000	 99.543028  
980.000000	 99.555138  
979.000000	 99.565689  
978.000000	 99.577315  
977.000000	 99.592887  
976.000000	 99.613960  
975.000000	 99.638833  
974.000000	 99.662986  
973.000000	 99.683542  
972.000000	 99.702815  
971.000000	 99.725367  
970.000000	 99.751947  
969.000000	 99.778805  
968.000000	 99.803082  
967.000000	 99.825964  
966.000000	 99.849407  
965.000000	 99.872397  
964.000000	 99.892375  
963.000000	 99.908961  
962.000000	 99.924585  
961.000000	 99.942059  
960.000000	 99.962401  
959.000000	 99.984281  
958.000000	 100.004798 
957.000000	 100.021638 
956.000000	 100.035289 
955.000000	 100.048649 
954.000000	 100.064006 
953.000000	 100.080949 
952.000000	 100.097425 
951.000000	 100.111801 
950.000000	 100.123505 
949.000000	 100.132813 
948.000000	 100.140570 
947.000000	 100.147348 
946.000000	 100.152519 
945.000000	 100.155084 
944.000000	 100.155898 
943.000000	 100.158207 
942.000000	 100.165271 
941.000000	 100.177676 
940.000000	 100.192844 
939.000000	 100.206563 
938.000000	 100.215643 
937.000000	 100.220551 
936.000000	 100.225445 
935.000000	 100.234245 
934.000000	 100.246509 
933.000000	 100.258593 
932.000000	 100.268789 
931.000000	 100.279304 
930.000000	 100.292423 
929.000000	 100.306451 
928.000000	 100.316813 
927.000000	 100.320464 
926.000000	 100.318585 
925.000000	 100.316007 
924.000000	 100.318369 
923.000000	 100.328417 
922.000000	 100.343752 
921.000000	 100.358375 
920.000000	 100.367341 
919.000000	 100.369911 
918.000000	 100.368704 
917.000000	 100.367128 
916.000000	 100.367696 
915.000000	 100.371326 
914.000000	 100.376989 
913.000000	 100.382584 
912.000000	 100.387026 
911.000000	 100.391290 
910.000000	 100.397238 
909.000000	 100.406045 
908.000000	 100.417797 
907.000000	 100.431459 
906.000000	 100.444892 
905.000000	 100.456101 
904.000000	 100.464950 
903.000000	 100.473142 
902.000000	 100.482564 
901.000000	 100.494277 
900.000000	 100.508760 
899.000000	 100.525421 
898.000000	 100.541732 
897.000000	 100.554723 
896.000000	 100.563959 
895.000000	 100.571775 
894.000000	 100.580235 
893.000000	 100.589405 
892.000000	 100.599268 
891.000000	 100.611482 
890.000000	 100.627697 
889.000000	 100.647105 
888.000000	 100.666829 
887.000000	 100.684173 
886.000000	 100.698013 
885.000000	 100.709018 
884.000000	 100.719247 
883.000000	 100.730293 
882.000000	 100.740966 
881.000000	 100.748402 
880.000000	 100.752637 
879.000000	 100.758234 
878.000000	 100.769385 
877.000000	 100.784859 
876.000000	 100.799788 
875.000000	 100.811123 
874.000000	 100.819067 
873.000000	 100.824571 
872.000000	 100.828569 
871.000000	 100.833437 
870.000000	 100.842592 
869.000000	 100.858357 
868.000000	 100.881207 
867.000000	 100.909671 
866.000000	 100.939111 
865.000000	 100.962753 
864.000000	 100.977511 
863.000000	 100.988274 
862.000000	 101.002950 
861.000000	 101.022649 
860.000000	 101.040547 
859.000000	 101.051337 
858.000000	 101.057644 
857.000000	 101.065245 
856.000000	 101.075878 
855.000000	 101.088321 
854.000000	 101.103130 
853.000000	 101.121093 
852.000000	 101.138461 
851.000000	 101.149370 
850.000000	 101.153783 
849.000000	 101.158458 
848.000000	 101.168428 
847.000000	 101.181230 
846.000000	 101.191551 
845.000000	 101.197952 
844.000000	 101.202286 
843.000000	 101.205529 
842.000000	 101.207751 
841.000000	 101.210278 
840.000000	 101.213983 
839.000000	 101.216313 
838.000000	 101.213848 
837.000000	 101.207738 
836.000000	 101.202970 
835.000000	 101.201589 
834.000000	 101.200492 
833.000000	 101.197758 
832.000000	 101.197399 
831.000000	 101.204003 
830.000000	 101.214521 
829.000000	 101.220044 
828.000000	 101.216139 
827.000000	 101.207703 
826.000000	 101.202004 
825.000000	 101.199761 
824.000000	 101.196258 
823.000000	 101.189755 
822.000000	 101.185079 
821.000000	 101.188128 
820.000000	 101.198994 
819.000000	 101.211952 
818.000000	 101.221664 
817.000000	 101.228064 
816.000000	 101.234134 
815.000000	 101.239463 
814.000000	 101.238513 
813.000000	 101.226924 
812.000000	 101.207538 
811.000000	 101.187089 
810.000000	 101.166905 
809.000000	 101.140307 
808.000000	 101.100907 
807.000000	 101.050890 
806.000000	 100.998518 
805.000000	 100.948924 
804.000000	 100.901040 
803.000000	 100.853776 
802.000000	 100.811026 
801.000000	 100.777988 
800.000000	 100.754913 
799.000000	 100.737870 
798.000000	 100.725290 
797.000000	 100.720178 
796.000000	 100.724181 
795.000000	 100.732581 
794.000000	 100.738631 
793.000000	 100.741560 
792.000000	 100.746389 
791.000000	 100.756036 
790.000000	 100.767672 
789.000000	 100.777419 
788.000000	 100.784112 
787.000000	 100.786184 
786.000000	 100.779053 
785.000000	 100.759680 
784.000000	 100.732005 
783.000000	 100.704585 
782.000000	 100.683302 
781.000000	 100.668158 
780.000000	 100.655943 
779.000000	 100.643887 
778.000000	 100.631920 
777.000000	 100.623401 
776.000000	 100.622809 
775.000000	 100.631419 
774.000000	 100.646477 
773.000000	 100.665335 
772.000000	 100.687676 
771.000000	 100.712092 
770.000000	 100.734279 
769.000000	 100.751755 
768.000000	 100.766988 
767.000000	 100.782409 
766.000000	 100.795693 
765.000000	 100.804140 
764.000000	 100.810743 
763.000000	 100.820558 
762.000000	 100.832480 
761.000000	 100.840023 
760.000000	 100.840189 
759.000000	 100.837378 
758.000000	 100.838155 
757.000000	 100.845085 
756.000000	 100.855625 
755.000000	 100.864284 
754.000000	 100.866591 
753.000000	 100.863913 
752.000000	 100.863833 
751.000000	 100.873173 
750.000000	 100.890922 
749.000000	 100.909763 
748.000000	 100.923595 
747.000000	 100.931419 
746.000000	 100.935445 
745.000000	 100.938852 
744.000000	 100.944727 
743.000000	 100.954116 
742.000000	 100.965210 
741.000000	 100.976508 
740.000000	 100.989688 
739.000000	 101.006700 
738.000000	 101.025168 
737.000000	 101.039695 
736.000000	 101.047230 
735.000000	 101.048745 
734.000000	 101.046846 
733.000000	 101.044624 
732.000000	 101.046384 
731.000000	 101.055800 
730.000000	 101.071754 
729.000000	 101.088292 
728.000000	 101.100579 
727.000000	 101.108661 
726.000000	 101.113823 
725.000000	 101.114917 
724.000000	 101.111196 
723.000000	 101.105933 
722.000000	 101.104161 
721.000000	 101.108433 
720.000000	 101.118849 
719.000000	 101.134629 
718.000000	 101.152830 
717.000000	 101.167685 
716.000000	 101.174399 
715.000000	 101.173002 
714.000000	 101.167432 
713.000000	 101.162291 
712.000000	 101.162060 
711.000000	 101.170533 
710.000000	 101.187119 
709.000000	 101.204765 
708.000000	 101.214768 
707.000000	 101.213752 
706.000000	 101.204144 
705.000000	 101.189768 
704.000000	 101.174104 
703.000000	 101.161233 
702.000000	 101.154885 
701.000000	 101.155135 
700.000000	 101.156986 
699.000000	 101.153632 
698.000000	 101.141527 
697.000000	 101.123027 
696.000000	 101.104822 
695.000000	 101.092624 
694.000000	 101.087784 
693.000000	 101.089568 
692.000000	 101.097926 
691.000000	 101.112400 
690.000000	 101.129624 
689.000000	 101.145308 
688.000000	 101.158683 
687.000000	 101.170876 
686.000000	 101.180119 
685.000000	 101.182942 
684.000000	 101.180021 
683.000000	 101.177294 
682.000000	 101.180060 
681.000000	 101.188425 
680.000000	 101.198624 
679.000000	 101.206566 
678.000000	 101.210313 
677.000000	 101.210813 
676.000000	 101.211440 
675.000000	 101.215160 
674.000000	 101.221032 
673.000000	 101.225772 
672.000000	 101.229032 
671.000000	 101.234276 
670.000000	 101.243885 
669.000000	 101.259080 
668.000000	 101.274326 
667.000000	 101.278236 
666.000000	 101.274925 
665.000000	 101.273159 
664.000000	 101.273223 
663.000000	 101.278635 
662.000000	 101.290799 
661.000000	 101.304253 
660.000000	 101.310858 
659.000000	 101.309144 
658.000000	 101.303780 
657.000000	 101.300219 
656.000000	 101.301221 
655.000000	 101.307697 
654.000000	 101.317366 
653.000000	 101.324565 
652.000000	 101.326627 
651.000000	 101.326661 
650.000000	 101.329820 

