4000.000000	99.190273 
3999.000000	99.186685 
3998.000000	99.183944 
3997.000000	99.184357 
3996.000000	99.187470 
3995.000000	99.190763 
3994.000000	99.192372 
3993.000000	99.192545 
3992.000000	99.192460 
3991.000000	99.192333 
3990.000000	99.191226 
3989.000000	99.188402 
3988.000000	99.184433 
3987.000000	99.181055 
3986.000000	99.180071 
3985.000000	99.182143 
3984.000000	99.186374 
3983.000000	99.191231 
3982.000000	99.195914 
3981.000000	99.200556 
3980.000000	99.205081 
3979.000000	99.208454 
3978.000000	99.209580 
3977.000000	99.208572 
3976.000000	99.206450 
3975.000000	99.203735 
3974.000000	99.199955 
3973.000000	99.194746 
3972.000000	99.188966 
3971.000000	99.184646 
3970.000000	99.183966 
3969.000000	99.187617 
3968.000000	99.193894 
3967.000000	99.199451 
3966.000000	99.201572 
3965.000000	99.199892 
3964.000000	99.196211 
3963.000000	99.193124 
3962.000000	99.192608 
3961.000000	99.194873 
3960.000000	99.197688 
3959.000000	99.197774 
3958.000000	99.194214 
3957.000000	99.189801 
3956.000000	99.188583 
3955.000000	99.191840 
3954.000000	99.197287 
3953.000000	99.201481 
3952.000000	99.202289 
3951.000000	99.199736 
3950.000000	99.195133 
3949.000000	99.190149 
3948.000000	99.186500 
3947.000000	99.185710 
3946.000000	99.187982 
3945.000000	99.191496 
3944.000000	99.193465 
3943.000000	99.192365 
3942.000000	99.189252 
3941.000000	99.186517 
3940.000000	99.184907 
3939.000000	99.183428 
3938.000000	99.182156 
3937.000000	99.182429 
3936.000000	99.184826 
3935.000000	99.187876 
3934.000000	99.190182 
3933.000000	99.192326 
3932.000000	99.195218 
3931.000000	99.198137 
3930.000000	99.199295 
3929.000000	99.198279 
3928.000000	99.196353 
3927.000000	99.193866 
3926.000000	99.189962 
3925.000000	99.185319 
3924.000000	99.182929 
3923.000000	99.183806 
3922.000000	99.184549 
3921.000000	99.182503 
3920.000000	99.179950 
3919.000000	99.179868 
3918.000000	99.180712 
3917.000000	99.179089 
3916.000000	99.175670 
3915.000000	99.174171 
3914.000000	99.175699 
3913.000000	99.178390 
3912.000000	99.180805 
3911.000000	99.182240 
3910.000000	99.182639 
3909.000000	99.182321 
3908.000000	99.183185 
3907.000000	99.186818 
3906.000000	99.192587 
3905.000000	99.197600 
3904.000000	99.199879 
3903.000000	99.200468 
3902.000000	99.199864 
3901.000000	99.195216 
3900.000000	99.185614 
3899.000000	99.176051 
3898.000000	99.171726 
3897.000000	99.171600 
3896.000000	99.170964 
3895.000000	99.169240 
3894.000000	99.170722 
3893.000000	99.176444 
3892.000000	99.180999 
3891.000000	99.180964 
3890.000000	99.183648 
3889.000000	99.193340 
3888.000000	99.203057 
3887.000000	99.205107 
3886.000000	99.199831 
3885.000000	99.194320 
3884.000000	99.194541 
3883.000000	99.194844 
3882.000000	99.186778 
3881.000000	99.172805 
3880.000000	99.162997 
3879.000000	99.164739 
3878.000000	99.175423 
3877.000000	99.184615 
3876.000000	99.186237 
3875.000000	99.182419 
3874.000000	99.180215 
3873.000000	99.185044 
3872.000000	99.191258 
3871.000000	99.186750 
3870.000000	99.171048 
3869.000000	99.161303 
3868.000000	99.169723 
3867.000000	99.183056 
3866.000000	99.184894 
3865.000000	99.178836 
3864.000000	99.176277 
3863.000000	99.178355 
3862.000000	99.178902 
3861.000000	99.175537 
3860.000000	99.171834 
3859.000000	99.168035 
3858.000000	99.161604 
3857.000000	99.153092 
3856.000000	99.150064 
3855.000000	99.158976 
3854.000000	99.168276 
3853.000000	99.162170 
3852.000000	99.158159 
3851.000000	99.169808 
3850.000000	99.179967 
3849.000000	99.180659 
3848.000000	99.179253 
3847.000000	99.180818 
3846.000000	99.183240 
3845.000000	99.183885 
3844.000000	99.183695 
3843.000000	99.185737 
3842.000000	99.191251 
3841.000000	99.196452 
3840.000000	99.197411 
3839.000000	99.194048 
3838.000000	99.189371 
3837.000000	99.185548 
3836.000000	99.183392 
3835.000000	99.181479 
3834.000000	99.177847 
3833.000000	99.172701 
3832.000000	99.169211 
3831.000000	99.170772 
3830.000000	99.177241 
3829.000000	99.183761 
3828.000000	99.184783 
3827.000000	99.179793 
3826.000000	99.175761 
3825.000000	99.179989 
3824.000000	99.191171 
3823.000000	99.200822 
3822.000000	99.200913 
3821.000000	99.190306 
3820.000000	99.183473 
3819.000000	99.188787 
3818.000000	99.191333 
3817.000000	99.180763 
3816.000000	99.165551 
3815.000000	99.160798 
3814.000000	99.168675 
3813.000000	99.174410 
3812.000000	99.169109 
3811.000000	99.161800 
3810.000000	99.163452 
3809.000000	99.173088 
3808.000000	99.180418 
3807.000000	99.180139 
3806.000000	99.180289 
3805.000000	99.187621 
3804.000000	99.192848 
3803.000000	99.185635 
3802.000000	99.168860 
3801.000000	99.154355 
3800.000000	99.154666 
3799.000000	99.163617 
3798.000000	99.163876 
3797.000000	99.154363 
3796.000000	99.147038 
3795.000000	99.149623 
3794.000000	99.158012 
3793.000000	99.164908 
3792.000000	99.169384 
3791.000000	99.174257 
3790.000000	99.178693 
3789.000000	99.180067 
3788.000000	99.179218 
3787.000000	99.179908 
3786.000000	99.183549 
3785.000000	99.188835 
3784.000000	99.195627 
3783.000000	99.204396 
3782.000000	99.211939 
3781.000000	99.212864 
3780.000000	99.205376 
3779.000000	99.193751 
3778.000000	99.185129 
3777.000000	99.181139 
3776.000000	99.177817 
3775.000000	99.173918 
3774.000000	99.173759 
3773.000000	99.179530 
3772.000000	99.186416 
3771.000000	99.187624 
3770.000000	99.183199 
3769.000000	99.180392 
3768.000000	99.183767 
3767.000000	99.188140 
3766.000000	99.187189 
3765.000000	99.182855 
3764.000000	99.182080 
3763.000000	99.186505 
3762.000000	99.190998 
3761.000000	99.193645 
3760.000000	99.197874 
3759.000000	99.202994 
3758.000000	99.203969 
3757.000000	99.199291 
3756.000000	99.193047 
3755.000000	99.188048 
3754.000000	99.184295 
3753.000000	99.183681 
3752.000000	99.188135 
3751.000000	99.190817 
3750.000000	99.183679 
3749.000000	99.173928 
3748.000000	99.171808 
3747.000000	99.173119 
3746.000000	99.169764 
3745.000000	99.160995 
3744.000000	99.153840 
3743.000000	99.162891 
3742.000000	99.181600 
3741.000000	99.185703 
3740.000000	99.175538 
3739.000000	99.169186 
3738.000000	99.174722 
3737.000000	99.183717 
3736.000000	99.187448 
3735.000000	99.187510 
3734.000000	99.186711 
3733.000000	99.181797 
3732.000000	99.173589 
3731.000000	99.171310 
3730.000000	99.178320 
3729.000000	99.186044 
3728.000000	99.186751 
3727.000000	99.184044 
3726.000000	99.186051 
3725.000000	99.193120 
3724.000000	99.196331 
3723.000000	99.190200 
3722.000000	99.179098 
3721.000000	99.171119 
3720.000000	99.170108 
3719.000000	99.173209 
3718.000000	99.175830 
3717.000000	99.175721 
3716.000000	99.172776 
3715.000000	99.166775 
3714.000000	99.158979 
3713.000000	99.152787 
3712.000000	99.148363 
3711.000000	99.142799 
3710.000000	99.137632 
3709.000000	99.135938 
3708.000000	99.136801 
3707.000000	99.137254 
3706.000000	99.135501 
3705.000000	99.131183 
3704.000000	99.125057 
3703.000000	99.118873 
3702.000000	99.114112 
3701.000000	99.111966 
3700.000000	99.113251 
3699.000000	99.114128 
3698.000000	99.107983 
3697.000000	99.094548 
3696.000000	99.081326 
3695.000000	99.075008 
3694.000000	99.074760 
3693.000000	99.076423 
3692.000000	99.078203 
3691.000000	99.078993 
3690.000000	99.074916 
3689.000000	99.063266 
3688.000000	99.051178 
3687.000000	99.048248 
3686.000000	99.051787 
3685.000000	99.052306 
3684.000000	99.048608 
3683.000000	99.046826 
3682.000000	99.049078 
3681.000000	99.049342 
3680.000000	99.042653 
3679.000000	99.032937 
3678.000000	99.024678 
3677.000000	99.016237 
3676.000000	99.003264 
3675.000000	98.992861 
3674.000000	99.002580 
3673.000000	99.026176 
3672.000000	99.039918 
3671.000000	99.040070 
3670.000000	99.036461 
3669.000000	99.034656 
3668.000000	99.034563 
3667.000000	99.030541 
3666.000000	99.021202 
3665.000000	99.013211 
3664.000000	99.012223 
3663.000000	99.017441 
3662.000000	99.024852 
3661.000000	99.032114 
3660.000000	99.039752 
3659.000000	99.048287 
3658.000000	99.055178 
3657.000000	99.056975 
3656.000000	99.054764 
3655.000000	99.057228 
3654.000000	99.068026 
3653.000000	99.081008 
3652.000000	99.093142 
3651.000000	99.106721 
3650.000000	99.115213 
3649.000000	99.105482 
3648.000000	99.081515 
3647.000000	99.063150 
3646.000000	99.061501 
3645.000000	99.071427 
3644.000000	99.082652 
3643.000000	99.090210 
3642.000000	99.096054 
3641.000000	99.103294 
3640.000000	99.112443 
3639.000000	99.122661 
3638.000000	99.134767 
3637.000000	99.149101 
3636.000000	99.160756 
3635.000000	99.162870 
3634.000000	99.155485 
3633.000000	99.147101 
3632.000000	99.144814 
3631.000000	99.149165 
3630.000000	99.156267 
3629.000000	99.158069 
3628.000000	99.153969 
3627.000000	99.153933 
3626.000000	99.155832 
3625.000000	99.153655 
3624.000000	99.151945 
3623.000000	99.155889 
3622.000000	99.163334 
3621.000000	99.168664 
3620.000000	99.169107 
3619.000000	99.165832 
3618.000000	99.163786 
3617.000000	99.166874 
3616.000000	99.172540 
3615.000000	99.175802 
3614.000000	99.174721 
3613.000000	99.171082 
3612.000000	99.167806 
3611.000000	99.165455 
3610.000000	99.162542 
3609.000000	99.159214 
3608.000000	99.157015 
3607.000000	99.156564 
3606.000000	99.156901 
3605.000000	99.157026 
3604.000000	99.158152 
3603.000000	99.161709 
3602.000000	99.166168 
3601.000000	99.169222 
3600.000000	99.171861 
3599.000000	99.176598 
3598.000000	99.182905 
3597.000000	99.188215 
3596.000000	99.190072 
3595.000000	99.187935 
3594.000000	99.183629 
3593.000000	99.181600 
3592.000000	99.185574 
3591.000000	99.195988 
3590.000000	99.209427 
3589.000000	99.219703 
3588.000000	99.219955 
3587.000000	99.209444 
3586.000000	99.195910 
3585.000000	99.185331 
3584.000000	99.177209 
3583.000000	99.170811 
3582.000000	99.167388 
3581.000000	99.167428 
3580.000000	99.168899 
3579.000000	99.168921 
3578.000000	99.165747 
3577.000000	99.160542 
3576.000000	99.156409 
3575.000000	99.155969 
3574.000000	99.159545 
3573.000000	99.165453 
3572.000000	99.171782 
3571.000000	99.177192 
3570.000000	99.180583 
3569.000000	99.180710 
3568.000000	99.176839 
3567.000000	99.170413 
3566.000000	99.166148 
3565.000000	99.167318 
3564.000000	99.171196 
3563.000000	99.173734 
3562.000000	99.174062 
3561.000000	99.173485 
3560.000000	99.173281 
3559.000000	99.173926 
3558.000000	99.175044 
3557.000000	99.175986 
3556.000000	99.176912 
3555.000000	99.178332 
3554.000000	99.179869 
3553.000000	99.180121 
3552.000000	99.178419 
3551.000000	99.175583 
3550.000000	99.172366 
3549.000000	99.168845 
3548.000000	99.165942 
3547.000000	99.165224 
3546.000000	99.166888 
3545.000000	99.169805 
3544.000000	99.173260 
3543.000000	99.177071 
3542.000000	99.180500 
3541.000000	99.182252 
3540.000000	99.182029 
3539.000000	99.180941 
3538.000000	99.180320 
3537.000000	99.180362 
3536.000000	99.180301 
3535.000000	99.179435 
3534.000000	99.177368 
3533.000000	99.174393 
3532.000000	99.171634 
3531.000000	99.170524 
3530.000000	99.171109 
3529.000000	99.172182 
3528.000000	99.173247 
3527.000000	99.175412 
3526.000000	99.179106 
3525.000000	99.182310 
3524.000000	99.182494 
3523.000000	99.179722 
3522.000000	99.176514 
3521.000000	99.174574 
3520.000000	99.173119 
3519.000000	99.170775 
3518.000000	99.167982 
3517.000000	99.166640 
3516.000000	99.167865 
3515.000000	99.171291 
3514.000000	99.175986 
3513.000000	99.180818 
3512.000000	99.183781 
3511.000000	99.182916 
3510.000000	99.178735 
3509.000000	99.175095 
3508.000000	99.176084 
3507.000000	99.181781 
3506.000000	99.187627 
3505.000000	99.188156 
3504.000000	99.181191 
3503.000000	99.169797 
3502.000000	99.160865 
3501.000000	99.160597 
3500.000000	99.169548 
3499.000000	99.181284 
3498.000000	99.186669 
3497.000000	99.181371 
3496.000000	99.170090 
3495.000000	99.162283 
3494.000000	99.163281 
3493.000000	99.170000 
3492.000000	99.175205 
3491.000000	99.174836 
3490.000000	99.170837 
3489.000000	99.167887 
3488.000000	99.168609 
3487.000000	99.171995 
3486.000000	99.175327 
3485.000000	99.176814 
3484.000000	99.176591 
3483.000000	99.175957 
3482.000000	99.175771 
3481.000000	99.175669 
3480.000000	99.174841 
3479.000000	99.173575 
3478.000000	99.173411 
3477.000000	99.175187 
3476.000000	99.177251 
3475.000000	99.176613 
3474.000000	99.172458 
3473.000000	99.167551 
3472.000000	99.165495 
3471.000000	99.167228 
3470.000000	99.170808 
3469.000000	99.173845 
3468.000000	99.175284 
3467.000000	99.175308 
3466.000000	99.174650 
3465.000000	99.174050 
3464.000000	99.173727 
3463.000000	99.173042 
3462.000000	99.171042 
3461.000000	99.167569 
3460.000000	99.163636 
3459.000000	99.160784 
3458.000000	99.160253 
3457.000000	99.162342 
3456.000000	99.166031 
3455.000000	99.169342 
3454.000000	99.170639 
3453.000000	99.170178 
3452.000000	99.170011 
3451.000000	99.172077 
3450.000000	99.176075 
3449.000000	99.179515 
3448.000000	99.179724 
3447.000000	99.175951 
3446.000000	99.169967 
3445.000000	99.164919 
3444.000000	99.163380 
3443.000000	99.165846 
3442.000000	99.170373 
3441.000000	99.174136 
3440.000000	99.175822 
3439.000000	99.176064 
3438.000000	99.175543 
3437.000000	99.173478 
3436.000000	99.168959 
3435.000000	99.163366 
3434.000000	99.160077 
3433.000000	99.161448 
3432.000000	99.166400 
3431.000000	99.171378 
3430.000000	99.173260 
3429.000000	99.171506 
3428.000000	99.167983 
3427.000000	99.165151 
3426.000000	99.164431 
3425.000000	99.165779 
3424.000000	99.168203 
3423.000000	99.170425 
3422.000000	99.171412 
3421.000000	99.170706 
3420.000000	99.168483 
3419.000000	99.165520 
3418.000000	99.163142 
3417.000000	99.162731 
3416.000000	99.164510 
3415.000000	99.166846 
3414.000000	99.167570 
3413.000000	99.166320 
3412.000000	99.164877 
3411.000000	99.164870 
3410.000000	99.166055 
3409.000000	99.167349 
3408.000000	99.168539 
3407.000000	99.169873 
3406.000000	99.170719 
3405.000000	99.169980 
3404.000000	99.167851 
3403.000000	99.166139 
3402.000000	99.166598 
3401.000000	99.169444 
3400.000000	99.173491 
3399.000000	99.177354 
3398.000000	99.180386 
3397.000000	99.182709 
3396.000000	99.184423 
3395.000000	99.185074 
3394.000000	99.184257 
3393.000000	99.182510 
3392.000000	99.180875 
3391.000000	99.179448 
3390.000000	99.177253 
3389.000000	99.173926 
3388.000000	99.170684 
3387.000000	99.168895 
3386.000000	99.168324 
3385.000000	99.167643 
3384.000000	99.166379 
3383.000000	99.165528 
3382.000000	99.166181 
3381.000000	99.168119 
3380.000000	99.169776 
3379.000000	99.169533 
3378.000000	99.167310 
3377.000000	99.165099 
3376.000000	99.165528 
3375.000000	99.169584 
3374.000000	99.175889 
3373.000000	99.182020 
3372.000000	99.186091 
3371.000000	99.187192 
3370.000000	99.185531 
3369.000000	99.182755 
3368.000000	99.181261 
3367.000000	99.182005 
3366.000000	99.183164 
3365.000000	99.181935 
3364.000000	99.177795 
3363.000000	99.173347 
3362.000000	99.171743 
3361.000000	99.173612 
3360.000000	99.176636 
3359.000000	99.177867 
3358.000000	99.176420 
3357.000000	99.174045 
3356.000000	99.173078 
3355.000000	99.173945 
3354.000000	99.175050 
3353.000000	99.174993 
3352.000000	99.174134 
3351.000000	99.173729 
3350.000000	99.174452 
3349.000000	99.176373 
3348.000000	99.179612 
3347.000000	99.183879 
3346.000000	99.187747 
3345.000000	99.189510 
3344.000000	99.188748 
3343.000000	99.186280 
3342.000000	99.182790 
3341.000000	99.178632 
3340.000000	99.174974 
3339.000000	99.173721 
3338.000000	99.175449 
3337.000000	99.178162 
3336.000000	99.179055 
3335.000000	99.177377 
3334.000000	99.174987 
3333.000000	99.174178 
3332.000000	99.175401 
3331.000000	99.177074 
3330.000000	99.177400 
3329.000000	99.176362 
3328.000000	99.175773 
3327.000000	99.177092 
3326.000000	99.179507 
3325.000000	99.181020 
3324.000000	99.181382 
3323.000000	99.182767 
3322.000000	99.186705 
3321.000000	99.191145 
3320.000000	99.191812 
3319.000000	99.186682 
3318.000000	99.178336 
3317.000000	99.171629 
3316.000000	99.169642 
3315.000000	99.172052 
3314.000000	99.176506 
3313.000000	99.180615 
3312.000000	99.182853 
3311.000000	99.182679 
3310.000000	99.180625 
3309.000000	99.178291 
3308.000000	99.177734 
3307.000000	99.180251 
3306.000000	99.185211 
3305.000000	99.189883 
3304.000000	99.190902 
3303.000000	99.186872 
3302.000000	99.180049 
3301.000000	99.175129 
3300.000000	99.175644 
3299.000000	99.181209 
3298.000000	99.188085 
3297.000000	99.192301 
3296.000000	99.192337 
3295.000000	99.189516 
3294.000000	99.186579 
3293.000000	99.185873 
3292.000000	99.188016 
3291.000000	99.191653 
3290.000000	99.194427 
3289.000000	99.194531 
3288.000000	99.191775 
3287.000000	99.187563 
3286.000000	99.183981 
3285.000000	99.182552 
3284.000000	99.183342 
3283.000000	99.185095 
3282.000000	99.186362 
3281.000000	99.186352 
3280.000000	99.184769 
3279.000000	99.181588 
3278.000000	99.177650 
3277.000000	99.174993 
3276.000000	99.175583 
3275.000000	99.179444 
3274.000000	99.184491 
3273.000000	99.188206 
3272.000000	99.189079 
3271.000000	99.186807 
3270.000000	99.182167 
3269.000000	99.177065 
3268.000000	99.173910 
3267.000000	99.174200 
3266.000000	99.177681 
3265.000000	99.182842 
3264.000000	99.187901 
3263.000000	99.191588 
3262.000000	99.193763 
3261.000000	99.195237 
3260.000000	99.196412 
3259.000000	99.196280 
3258.000000	99.193599 
3257.000000	99.188897 
3256.000000	99.184330 
3255.000000	99.181406 
3254.000000	99.179886 
3253.000000	99.179188 
3252.000000	99.179557 
3251.000000	99.181105 
3250.000000	99.182715 
3249.000000	99.183014 
3248.000000	99.181924 
3247.000000	99.180462 
3246.000000	99.179319 
3245.000000	99.178347 
3244.000000	99.177288 
3243.000000	99.176611 
3242.000000	99.177690 
3241.000000	99.181972 
3240.000000	99.189088 
3239.000000	99.195722 
3238.000000	99.197721 
3237.000000	99.194212 
3236.000000	99.188841 
3235.000000	99.186001 
3234.000000	99.186565 
3233.000000	99.188349 
3232.000000	99.189805 
3231.000000	99.191581 
3230.000000	99.194527 
3229.000000	99.197759 
3228.000000	99.199188 
3227.000000	99.197116 
3226.000000	99.191150 
3225.000000	99.182601 
3224.000000	99.174342 
3223.000000	99.169212 
3222.000000	99.167840 
3221.000000	99.168449 
3220.000000	99.169189 
3219.000000	99.170106 
3218.000000	99.172272 
3217.000000	99.175454 
3216.000000	99.177685 
3215.000000	99.177315 
3214.000000	99.174894 
3213.000000	99.172609 
3212.000000	99.172156 
3211.000000	99.173579 
3210.000000	99.176041 
3209.000000	99.179011 
3208.000000	99.182192 
3207.000000	99.184689 
3206.000000	99.185330 
3205.000000	99.184185 
3204.000000	99.183045 
3203.000000	99.183669 
3202.000000	99.185992 
3201.000000	99.188662 
3200.000000	99.190819 
3199.000000	99.192341 
3198.000000	99.192755 
3197.000000	99.191403 
3196.000000	99.189136 
3195.000000	99.188357 
3194.000000	99.190262 
3193.000000	99.192876 
3192.000000	99.193158 
3191.000000	99.190832 
3190.000000	99.188849 
3189.000000	99.189861 
3188.000000	99.193246 
3187.000000	99.196117 
3186.000000	99.196384 
3185.000000	99.193982 
3184.000000	99.189798 
3183.000000	99.184668 
3182.000000	99.179582 
3181.000000	99.175848 
3180.000000	99.174389 
3179.000000	99.175008 
3178.000000	99.176617 
3177.000000	99.178039 
3176.000000	99.178585 
3175.000000	99.178361 
3174.000000	99.178482 
3173.000000	99.180521 
3172.000000	99.184927 
3171.000000	99.189904 
3170.000000	99.192630 
3169.000000	99.192010 
3168.000000	99.189873 
3167.000000	99.189129 
3166.000000	99.191067 
3165.000000	99.194697 
3164.000000	99.198251 
3163.000000	99.200619 
3162.000000	99.201525 
3161.000000	99.201236 
3160.000000	99.200522 
3159.000000	99.200292 
3158.000000	99.200678 
3157.000000	99.200728 
3156.000000	99.199488 
3155.000000	99.197299 
3154.000000	99.195695 
3153.000000	99.195984 
3152.000000	99.197991 
3151.000000	99.199983 
3150.000000	99.199821 
3149.000000	99.196758 
3148.000000	99.192538 
3147.000000	99.190276 
3146.000000	99.191524 
3145.000000	99.194619 
3144.000000	99.196686 
3143.000000	99.197181 
3142.000000	99.198420 
3141.000000	99.202206 
3140.000000	99.206891 
3139.000000	99.208839 
3138.000000	99.206474 
3137.000000	99.201856 
3136.000000	99.198152 
3135.000000	99.196625 
3134.000000	99.196500 
3133.000000	99.196867 
3132.000000	99.197666 
3131.000000	99.198964 
3130.000000	99.200123 
3129.000000	99.200190 
3128.000000	99.198998 
3127.000000	99.197599 
3126.000000	99.197429 
3125.000000	99.199075 
3124.000000	99.201890 
3123.000000	99.204598 
3122.000000	99.206190 
3121.000000	99.206578 
3120.000000	99.206706 
3119.000000	99.207809 
3118.000000	99.210025 
3117.000000	99.211612 
3116.000000	99.210235 
3115.000000	99.205480 
3114.000000	99.199644 
3113.000000	99.195548 
3112.000000	99.194043 
3111.000000	99.194273 
3110.000000	99.195615 
3109.000000	99.198029 
3108.000000	99.200587 
3107.000000	99.201237 
3106.000000	99.198897 
3105.000000	99.195105 
3104.000000	99.192721 
3103.000000	99.193186 
3102.000000	99.195706 
3101.000000	99.198782 
3100.000000	99.201523 
3099.000000	99.203320 
3098.000000	99.203441 
3097.000000	99.201795 
3096.000000	99.199669 
3095.000000	99.198970 
3094.000000	99.200653 
3093.000000	99.204004 
3092.000000	99.207169 
3091.000000	99.208207 
3090.000000	99.206251 
3089.000000	99.202506 
3088.000000	99.199995 
3087.000000	99.201450 
3086.000000	99.206792 
3085.000000	99.212974 
3084.000000	99.216718 
3083.000000	99.217321 
3082.000000	99.216638 
3081.000000	99.216615 
3080.000000	99.217351 
3079.000000	99.217496 
3078.000000	99.215810 
3077.000000	99.211889 
3076.000000	99.206048 
3075.000000	99.199487 
3074.000000	99.194405 
3073.000000	99.192970 
3072.000000	99.195612 
3071.000000	99.200656 
3070.000000	99.205766 
3069.000000	99.209160 
3068.000000	99.209369 
3067.000000	99.205124 
3066.000000	99.196862 
3065.000000	99.187931 
3064.000000	99.182681 
3063.000000	99.182730 
3062.000000	99.185861 
3061.000000	99.188869 
3060.000000	99.190709 
3059.000000	99.192490 
3058.000000	99.195263 
3057.000000	99.198709 
3056.000000	99.201732 
3055.000000	99.203630 
3054.000000	99.204488 
3053.000000	99.204771 
3052.000000	99.204735 
3051.000000	99.204305 
3050.000000	99.203516 
3049.000000	99.202678 
3048.000000	99.201614 
3047.000000	99.199055 
3046.000000	99.193796 
3045.000000	99.186670 
3044.000000	99.180379 
3043.000000	99.176733 
3042.000000	99.174727 
3041.000000	99.172060 
3040.000000	99.168079 
3039.000000	99.164280 
3038.000000	99.162035 
3037.000000	99.160813 
3036.000000	99.158917 
3035.000000	99.155350 
3034.000000	99.150478 
3033.000000	99.145127 
3032.000000	99.139577 
3031.000000	99.133535 
3030.000000	99.126642 
3029.000000	99.118549 
3028.000000	99.108746 
3027.000000	99.097036 
3026.000000	99.084377 
3025.000000	99.072633 
3024.000000	99.062814 
3023.000000	99.053683 
3022.000000	99.042714 
3021.000000	99.028544 
3020.000000	99.012287 
3019.000000	98.996618 
3018.000000	98.984003 
3017.000000	98.975413 
3016.000000	98.969702 
3015.000000	98.963965 
3014.000000	98.955292 
3013.000000	98.942655 
3012.000000	98.926745 
3011.000000	98.908157 
3010.000000	98.886857 
3009.000000	98.863791 
3008.000000	98.841759 
3007.000000	98.823605 
3006.000000	98.809905 
3005.000000	98.798977 
3004.000000	98.788443 
3003.000000	98.776046 
3002.000000	98.760028 
3001.000000	98.740567 
3000.000000	98.720697 
2999.000000	98.704144 
2998.000000	98.691924 
2997.000000	98.682384 
2996.000000	98.674557 
2995.000000	98.669074 
2994.000000	98.664161 
2993.000000	98.653001 
2992.000000	98.628834 
2991.000000	98.593453 
2990.000000	98.558327 
2989.000000	98.535505 
2988.000000	98.528034 
2987.000000	98.530113 
2986.000000	98.534987 
2985.000000	98.540556 
2984.000000	98.547684 
2983.000000	98.555928 
2982.000000	98.562695 
2981.000000	98.565706 
2980.000000	98.564960 
2979.000000	98.562279 
2978.000000	98.559608 
2977.000000	98.557674 
2976.000000	98.555712 
2975.000000	98.552413 
2974.000000	98.547412 
2973.000000	98.541842 
2972.000000	98.537378 
2971.000000	98.535060 
2970.000000	98.535218 
2969.000000	98.538016 
2968.000000	98.543459 
2967.000000	98.551104 
2966.000000	98.560275 
2965.000000	98.570471 
2964.000000	98.581211 
2963.000000	98.591733 
2962.000000	98.601255 
2961.000000	98.609462 
2960.000000	98.616486 
2959.000000	98.622845 
2958.000000	98.629706 
2957.000000	98.638428 
2956.000000	98.648728 
2955.000000	98.657672 
2954.000000	98.662087 
2953.000000	98.662793 
2952.000000	98.665430 
2951.000000	98.675694 
2950.000000	98.693342 
2949.000000	98.711410 
2948.000000	98.721824 
2947.000000	98.721912 
2946.000000	98.715586 
2945.000000	98.708663 
2944.000000	98.703830 
2943.000000	98.700279 
2942.000000	98.696829 
2941.000000	98.693536 
2940.000000	98.690140 
2939.000000	98.684889 
2938.000000	98.676326 
2937.000000	98.665470 
2936.000000	98.654942 
2935.000000	98.646356 
2934.000000	98.639499 
2933.000000	98.633502 
2932.000000	98.627415 
2931.000000	98.619864 
2930.000000	98.609652 
2929.000000	98.597132 
2928.000000	98.584242 
2927.000000	98.573076 
2926.000000	98.565086 
2925.000000	98.561233 
2924.000000	98.561642 
2923.000000	98.564994 
2922.000000	98.569444 
2921.000000	98.574384 
2920.000000	98.580363 
2919.000000	98.587369 
2918.000000	98.594471 
2917.000000	98.601342 
2916.000000	98.608695 
2915.000000	98.616686 
2914.000000	98.624146 
2913.000000	98.630115 
2912.000000	98.635038 
2911.000000	98.639475 
2910.000000	98.642593 
2909.000000	98.643149 
2908.000000	98.641415 
2907.000000	98.638910 
2906.000000	98.636256 
2905.000000	98.632149 
2904.000000	98.624829 
2903.000000	98.614618 
2902.000000	98.605416 
2901.000000	98.603370 
2900.000000	98.612859 
2899.000000	98.632544 
2898.000000	98.655347 
2897.000000	98.673652 
2896.000000	98.684699 
2895.000000	98.691199 
2894.000000	98.697336 
2893.000000	98.704792 
2892.000000	98.712197 
2891.000000	98.717278 
2890.000000	98.719263 
2889.000000	98.719706 
2888.000000	98.721272 
2887.000000	98.725545 
2886.000000	98.731999 
2885.000000	98.739082 
2884.000000	98.745950 
2883.000000	98.752914 
2882.000000	98.760604 
2881.000000	98.769297 
2880.000000	98.779052 
2879.000000	98.790072 
2878.000000	98.802640 
2877.000000	98.816491 
2876.000000	98.829973 
2875.000000	98.840037 
2874.000000	98.843996 
2873.000000	98.842125 
2872.000000	98.838351 
2871.000000	98.837722 
2870.000000	98.842851 
2869.000000	98.852546 
2868.000000	98.863510 
2867.000000	98.873245 
2866.000000	98.881822 
2865.000000	98.891204 
2864.000000	98.902553 
2863.000000	98.914009 
2862.000000	98.921684 
2861.000000	98.923314 
2860.000000	98.920610 
2859.000000	98.917546 
2858.000000	98.916740 
2857.000000	98.918103 
2856.000000	98.920565 
2855.000000	98.924218 
2854.000000	98.930466 
2853.000000	98.940427 
2852.000000	98.953533 
2851.000000	98.967831 
2850.000000	98.981839 
2849.000000	98.995976 
2848.000000	99.011748 
2847.000000	99.029413 
2846.000000	99.046869 
2845.000000	99.061146 
2844.000000	99.070843 
2843.000000	99.077169 
2842.000000	99.083054 
2841.000000	99.091168 
2840.000000	99.101907 
2839.000000	99.112820 
2838.000000	99.120509 
2837.000000	99.123622 
2836.000000	99.123788 
2835.000000	99.123666 
2834.000000	99.124799 
2833.000000	99.127478 
2832.000000	99.131520 
2831.000000	99.136308 
2830.000000	99.140830 
2829.000000	99.144742 
2828.000000	99.149019 
2827.000000	99.154533 
2826.000000	99.160196 
2825.000000	99.163528 
2824.000000	99.163309 
2823.000000	99.161116 
2822.000000	99.159988 
2821.000000	99.161799 
2820.000000	99.165874 
2819.000000	99.169990 
2818.000000	99.172798 
2817.000000	99.175198 
2816.000000	99.178895 
2815.000000	99.183669 
2814.000000	99.187104 
2813.000000	99.187461 
2812.000000	99.185813 
2811.000000	99.184416 
2810.000000	99.183876 
2809.000000	99.183259 
2808.000000	99.182407 
2807.000000	99.182456 
2806.000000	99.183888 
2805.000000	99.185531 
2804.000000	99.186204 
2803.000000	99.186485 
2802.000000	99.188061 
2801.000000	99.191559 
2800.000000	99.195454 
2799.000000	99.197169 
2798.000000	99.195446 
2797.000000	99.191826 
2796.000000	99.189462 
2795.000000	99.190007 
2794.000000	99.191993 
2793.000000	99.192783 
2792.000000	99.191641 
2791.000000	99.190132 
2790.000000	99.189971 
2789.000000	99.191603 
2788.000000	99.194577 
2787.000000	99.197971 
2786.000000	99.200374 
2785.000000	99.200857 
2784.000000	99.200387 
2783.000000	99.200981 
2782.000000	99.202887 
2781.000000	99.203899 
2780.000000	99.202412 
2779.000000	99.200054 
2778.000000	99.199992 
2777.000000	99.203188 
2776.000000	99.207516 
2775.000000	99.210276 
2774.000000	99.210492 
2773.000000	99.208867 
2772.000000	99.206662 
2771.000000	99.205021 
2770.000000	99.204815 
2769.000000	99.206671 
2768.000000	99.211042 
2767.000000	99.217715 
2766.000000	99.224856 
2765.000000	99.229254 
2764.000000	99.228692 
2763.000000	99.224181 
2762.000000	99.219076 
2761.000000	99.215973 
2760.000000	99.215231 
2759.000000	99.216258 
2758.000000	99.218801 
2757.000000	99.222379 
2756.000000	99.225688 
2755.000000	99.227695 
2754.000000	99.228738 
2753.000000	99.229578 
2752.000000	99.229811 
2751.000000	99.228284 
2750.000000	99.224876 
2749.000000	99.220829 
2748.000000	99.217218 
2747.000000	99.214089 
2746.000000	99.211354 
2745.000000	99.209612 
2744.000000	99.209491 
2743.000000	99.210777 
2742.000000	99.212729 
2741.000000	99.214883 
2740.000000	99.217104 
2739.000000	99.219213 
2738.000000	99.221104 
2737.000000	99.223019 
2736.000000	99.225252 
2735.000000	99.227607 
2734.000000	99.229421 
2733.000000	99.229976 
2732.000000	99.228823 
2731.000000	99.226104 
2730.000000	99.222937 
2729.000000	99.221151 
2728.000000	99.222035 
2727.000000	99.225231 
2726.000000	99.229028 
2725.000000	99.231690 
2724.000000	99.232614 
2723.000000	99.232664 
2722.000000	99.233578 
2721.000000	99.236520 
2720.000000	99.240717 
2719.000000	99.243816 
2718.000000	99.243928 
2717.000000	99.241119 
2716.000000	99.236954 
2715.000000	99.233356 
2714.000000	99.232104 
2713.000000	99.234143 
2712.000000	99.238280 
2711.000000	99.241447 
2710.000000	99.241685 
2709.000000	99.240467 
2708.000000	99.240673 
2707.000000	99.242601 
2706.000000	99.243594 
2705.000000	99.241784 
2704.000000	99.238470 
2703.000000	99.236115 
2702.000000	99.235353 
2701.000000	99.235045 
2700.000000	99.234470 
2699.000000	99.234280 
2698.000000	99.235397 
2697.000000	99.237676 
2696.000000	99.239831 
2695.000000	99.240677 
2694.000000	99.240496 
2693.000000	99.240755 
2692.000000	99.241986 
2691.000000	99.242562 
2690.000000	99.240807 
2689.000000	99.238019 
2688.000000	99.237686 
2687.000000	99.241220 
2686.000000	99.245974 
2685.000000	99.248378 
2684.000000	99.247790 
2683.000000	99.246161 
2682.000000	99.244970 
2681.000000	99.243996 
2680.000000	99.242659 
2679.000000	99.241095 
2678.000000	99.239773 
2677.000000	99.238935 
2676.000000	99.238648 
2675.000000	99.238894 
2674.000000	99.239522 
2673.000000	99.240343 
2672.000000	99.241109 
2671.000000	99.241187 
2670.000000	99.239645 
2669.000000	99.236079 
2668.000000	99.231245 
2667.000000	99.226719 
2666.000000	99.224180 
2665.000000	99.224789 
2664.000000	99.228429 
2663.000000	99.233361 
2662.000000	99.237449 
2661.000000	99.240085 
2660.000000	99.242106 
2659.000000	99.243606 
2658.000000	99.243134 
2657.000000	99.239900 
2656.000000	99.235621 
2655.000000	99.232898 
2654.000000	99.232400 
2653.000000	99.232782 
2652.000000	99.232872 
2651.000000	99.232670 
2650.000000	99.232523 
2649.000000	99.232495 
2648.000000	99.232549 
2647.000000	99.232571 
2646.000000	99.232438 
2645.000000	99.232741 
2644.000000	99.234863 
2643.000000	99.239254 
2642.000000	99.244065 
2641.000000	99.246663 
2640.000000	99.246417 
2639.000000	99.245034 
2638.000000	99.244407 
2637.000000	99.245043 
2636.000000	99.246184 
2635.000000	99.246423 
2634.000000	99.244560 
2633.000000	99.241054 
2632.000000	99.238288 
2631.000000	99.238112 
2630.000000	99.239453 
2629.000000	99.239729 
2628.000000	99.238298 
2627.000000	99.236907 
2626.000000	99.236854 
2625.000000	99.237531 
2624.000000	99.238011 
2623.000000	99.238297 
2622.000000	99.238486 
2621.000000	99.238297 
2620.000000	99.238087 
2619.000000	99.238825 
2618.000000	99.240219 
2617.000000	99.240249 
2616.000000	99.237639 
2615.000000	99.233804 
2614.000000	99.231273 
2613.000000	99.230876 
2612.000000	99.231458 
2611.000000	99.231866 
2610.000000	99.232279 
2609.000000	99.233677 
2608.000000	99.236575 
2607.000000	99.240376 
2606.000000	99.243881 
2605.000000	99.246411 
2604.000000	99.247960 
2603.000000	99.248025 
2602.000000	99.245408 
2601.000000	99.240480 
2600.000000	99.236796 
2599.000000	99.238362 
2598.000000	99.245081 
2597.000000	99.252518 
2596.000000	99.256286 
2595.000000	99.254987 
2594.000000	99.248975 
2593.000000	99.239178 
2592.000000	99.228579 
2591.000000	99.222431 
2590.000000	99.224409 
2589.000000	99.233093 
2588.000000	99.243638 
2587.000000	99.251932 
2586.000000	99.255805 
2585.000000	99.253786 
2584.000000	99.245689 
2583.000000	99.234641 
2582.000000	99.226131 
2581.000000	99.223684 
2580.000000	99.226022 
2579.000000	99.228896 
2578.000000	99.229136 
2577.000000	99.226853 
2576.000000	99.224600 
2575.000000	99.224930 
2574.000000	99.228352 
2573.000000	99.233051 
2572.000000	99.236356 
2571.000000	99.236416 
2570.000000	99.232891 
2569.000000	99.227044 
2568.000000	99.221583 
2567.000000	99.219338 
2566.000000	99.220899 
2565.000000	99.223801 
2564.000000	99.224945 
2563.000000	99.223586 
2562.000000	99.221227 
2561.000000	99.219251 
2560.000000	99.218122 
2559.000000	99.218526 
2558.000000	99.221209 
2557.000000	99.225000 
2556.000000	99.226971 
2555.000000	99.226082 
2554.000000	99.225244 
2553.000000	99.227688 
2552.000000	99.232028 
2551.000000	99.233462 
2550.000000	99.230115 
2549.000000	99.225635 
2548.000000	99.224222 
2547.000000	99.225168 
2546.000000	99.224513 
2545.000000	99.220916 
2544.000000	99.217276 
2543.000000	99.216650 
2542.000000	99.218969 
2541.000000	99.222404 
2540.000000	99.225920 
2539.000000	99.229146 
2538.000000	99.230943 
2537.000000	99.229579 
2536.000000	99.224252 
2535.000000	99.216154 
2534.000000	99.208650 
2533.000000	99.206133 
2532.000000	99.210869 
2531.000000	99.220005 
2530.000000	99.227161 
2529.000000	99.228403 
2528.000000	99.225898 
2527.000000	99.224713 
2526.000000	99.227315 
2525.000000	99.232638 
2524.000000	99.239081 
2523.000000	99.245856 
2522.000000	99.251578 
2521.000000	99.254065 
2520.000000	99.252498 
2519.000000	99.248384 
2518.000000	99.243566 
2517.000000	99.238270 
2516.000000	99.231915 
2515.000000	99.225254 
2514.000000	99.220786 
2513.000000	99.220591 
2512.000000	99.223645 
2511.000000	99.225842 
2510.000000	99.223995 
2509.000000	99.220101 
2508.000000	99.219895 
2507.000000	99.225837 
2506.000000	99.233086 
2505.000000	99.234496 
2504.000000	99.228665 
2503.000000	99.220556 
2502.000000	99.214853 
2501.000000	99.212035 
2500.000000	99.211483 
2499.000000	99.214755 
2498.000000	99.223207 
2497.000000	99.234203 
2496.000000	99.242419 
2495.000000	99.244542 
2494.000000	99.241183 
2493.000000	99.234870 
2492.000000	99.228076 
2491.000000	99.222978 
2490.000000	99.221033 
2489.000000	99.221763 
2488.000000	99.222828 
2487.000000	99.222199 
2486.000000	99.220190 
2485.000000	99.219036 
2484.000000	99.220555 
2483.000000	99.224317 
2482.000000	99.228090 
2481.000000	99.230054 
2480.000000	99.230439 
2479.000000	99.230683 
2478.000000	99.231172 
2477.000000	99.230539 
2476.000000	99.227576 
2475.000000	99.223247 
2474.000000	99.220154 
2473.000000	99.220154 
2472.000000	99.223051 
2471.000000	99.227457 
2470.000000	99.232118 
2469.000000	99.235882 
2468.000000	99.237027 
2467.000000	99.233870 
2466.000000	99.226754 
2465.000000	99.218929 
2464.000000	99.214305 
2463.000000	99.213893 
2462.000000	99.214964 
2461.000000	99.214130 
2460.000000	99.210927 
2459.000000	99.208090 
2458.000000	99.208722 
2457.000000	99.213545 
2456.000000	99.220353 
2455.000000	99.225497 
2454.000000	99.226286 
2453.000000	99.222800 
2452.000000	99.217584 
2451.000000	99.213304 
2450.000000	99.210777 
2449.000000	99.209288 
2448.000000	99.208111 
2447.000000	99.207188 
2446.000000	99.206967 
2445.000000	99.208406 
2444.000000	99.212657 
2443.000000	99.219645 
2442.000000	99.227010 
2441.000000	99.231384 
2440.000000	99.230960 
2439.000000	99.226536 
2438.000000	99.220495 
2437.000000	99.215398 
2436.000000	99.212835 
2435.000000	99.212232 
2434.000000	99.210923 
2433.000000	99.206802 
2432.000000	99.201202 
2431.000000	99.197946 
2430.000000	99.199188 
2429.000000	99.203417 
2428.000000	99.208121 
2427.000000	99.212921 
2426.000000	99.218535 
2425.000000	99.223356 
2424.000000	99.223223 
2423.000000	99.215664 
2422.000000	99.203664 
2421.000000	99.194094 
2420.000000	99.192043 
2419.000000	99.197009 
2418.000000	99.204574 
2417.000000	99.210855 
2416.000000	99.214536 
2415.000000	99.215441 
2414.000000	99.213313 
2413.000000	99.208971 
2412.000000	99.205188 
2411.000000	99.204603 
2410.000000	99.206992 
2409.000000	99.209848 
2408.000000	99.211554 
2407.000000	99.212803 
2406.000000	99.214834 
2405.000000	99.217526 
2404.000000	99.219631 
2403.000000	99.220014 
2402.000000	99.218295 
2401.000000	99.215107 
2400.000000	99.212124 
2399.000000	99.211008 
2398.000000	99.211704 
2397.000000	99.212334 
2396.000000	99.211359 
2395.000000	99.209484 
2394.000000	99.208827 
2393.000000	99.210491 
2392.000000	99.213560 
2391.000000	99.216451 
2390.000000	99.218697 
2389.000000	99.221088 
2388.000000	99.224308 
2387.000000	99.227885 
2386.000000	99.230717 
2385.000000	99.232406 
2384.000000	99.233686 
2383.000000	99.235517 
2382.000000	99.238099 
2381.000000	99.240776 
2380.000000	99.242228 
2379.000000	99.240635 
2378.000000	99.234802 
2377.000000	99.226349 
2376.000000	99.220314 
2375.000000	99.221391 
2374.000000	99.228955 
2373.000000	99.237203 
2372.000000	99.241484 
2371.000000	99.243594 
2370.000000	99.248758 
2369.000000	99.257534 
2368.000000	99.263168 
2367.000000	99.258496 
2366.000000	99.244460 
2365.000000	99.230538 
2364.000000	99.227011 
2363.000000	99.236161 
2362.000000	99.250031 
2361.000000	99.258684 
2360.000000	99.258575 
2359.000000	99.252859 
2358.000000	99.247742 
2357.000000	99.246822 
2356.000000	99.250912 
2355.000000	99.258528 
2354.000000	99.264459 
2353.000000	99.263207 
2352.000000	99.254115 
2351.000000	99.244805 
2350.000000	99.242519 
2349.000000	99.246505 
2348.000000	99.251853 
2347.000000	99.252991 
2346.000000	99.248512 
2345.000000	99.240515 
2344.000000	99.234178 
2343.000000	99.234335 
2342.000000	99.240797 
2341.000000	99.251857 
2340.000000	99.262721 
2339.000000	99.268178 
2338.000000	99.265217 
2337.000000	99.256110 
2336.000000	99.247079 
2335.000000	99.243481 
2334.000000	99.245326 
2333.000000	99.248617 
2332.000000	99.248807 
2331.000000	99.244924 
2330.000000	99.239256 
2329.000000	99.235082 
2328.000000	99.236232 
2327.000000	99.240855 
2326.000000	99.243983 
2325.000000	99.239660 
2324.000000	99.228753 
2323.000000	99.219431 
2322.000000	99.219754 
2321.000000	99.231598 
2320.000000	99.247671 
2319.000000	99.259185 
2318.000000	99.261281 
2317.000000	99.255939 
2316.000000	99.248227 
2315.000000	99.241818 
2314.000000	99.237422 
2313.000000	99.233830 
2312.000000	99.230814 
2311.000000	99.229304 
2310.000000	99.231372 
2309.000000	99.237340 
2308.000000	99.244618 
2307.000000	99.247876 
2306.000000	99.243940 
2305.000000	99.234835 
2304.000000	99.225836 
2303.000000	99.219805 
2302.000000	99.215763 
2301.000000	99.212281 
2300.000000	99.209448 
2299.000000	99.206128 
2298.000000	99.199566 
2297.000000	99.189716 
2296.000000	99.182415 
2295.000000	99.183347 
2294.000000	99.191032 
2293.000000	99.197821 
2292.000000	99.198786 
2291.000000	99.195547 
2290.000000	99.192029 
2289.000000	99.189207 
2288.000000	99.185642 
2287.000000	99.180489 
2286.000000	99.174368 
2285.000000	99.168700 
2284.000000	99.165280 
2283.000000	99.165372 
2282.000000	99.167758 
2281.000000	99.168743 
2280.000000	99.165199 
2279.000000	99.157896 
2278.000000	99.151131 
2277.000000	99.149167 
2276.000000	99.152479 
2275.000000	99.157338 
2274.000000	99.159347 
2273.000000	99.157322 
2272.000000	99.152983 
2271.000000	99.147030 
2270.000000	99.138404 
2269.000000	99.128696 
2268.000000	99.124319 
2267.000000	99.130761 
2266.000000	99.145399 
2265.000000	99.158867 
2264.000000	99.163589 
2263.000000	99.159299 
2262.000000	99.151698 
2261.000000	99.148122 
2260.000000	99.153056 
2259.000000	99.164250 
2258.000000	99.173484 
2257.000000	99.174619 
2256.000000	99.170671 
2255.000000	99.170034 
2254.000000	99.175911 
2253.000000	99.183249 
2252.000000	99.186256 
2251.000000	99.184806 
2250.000000	99.182276 
2249.000000	99.180462 
2248.000000	99.178628 
2247.000000	99.175192 
2246.000000	99.168898 
2245.000000	99.159762 
2244.000000	99.149634 
2243.000000	99.140793 
2242.000000	99.134107 
2241.000000	99.129707 
2240.000000	99.128180 
2239.000000	99.128625 
2238.000000	99.126613 
2237.000000	99.117551 
2236.000000	99.102088 
2235.000000	99.085314 
2234.000000	99.071046 
2233.000000	99.060321 
2232.000000	99.055034 
2231.000000	99.058645 
2230.000000	99.071944 
2229.000000	99.091184 
2228.000000	99.111510 
2227.000000	99.129501 
2226.000000	99.141874 
2225.000000	99.145506 
2224.000000	99.140468 
2223.000000	99.130424 
2222.000000	99.119198 
2221.000000	99.109340 
2220.000000	99.103747 
2219.000000	99.104830 
2218.000000	99.111337 
2217.000000	99.119553 
2216.000000	99.128483 
2215.000000	99.139781 
2214.000000	99.151090 
2213.000000	99.154030 
2212.000000	99.142484 
2211.000000	99.120842 
2210.000000	99.101273 
2209.000000	99.093529 
2208.000000	99.098115 
2207.000000	99.107998 
2206.000000	99.115636 
2205.000000	99.118505 
2204.000000	99.118018 
2203.000000	99.113971 
2202.000000	99.103498 
2201.000000	99.087274 
2200.000000	99.072340 
2199.000000	99.064260 
2198.000000	99.059793 
2197.000000	99.053055 
2196.000000	99.046365 
2195.000000	99.047935 
2194.000000	99.059626 
2193.000000	99.074120 
2192.000000	99.084480 
2191.000000	99.089747 
2190.000000	99.090577 
2189.000000	99.087081 
2188.000000	99.082887 
2187.000000	99.084256 
2186.000000	99.092472 
2185.000000	99.102692 
2184.000000	99.111650 
2183.000000	99.119809 
2182.000000	99.124665 
2181.000000	99.120834 
2180.000000	99.110304 
2179.000000	99.103963 
2178.000000	99.108096 
2177.000000	99.115821 
2176.000000	99.115981 
2175.000000	99.104980 
2174.000000	99.086604 
2173.000000	99.066911 
2172.000000	99.053228 
2171.000000	99.051314 
2170.000000	99.058523 
2169.000000	99.065156 
2168.000000	99.066870 
2167.000000	99.069616 
2166.000000	99.077634 
2165.000000	99.084071 
2164.000000	99.081133 
2163.000000	99.073423 
2162.000000	99.072179 
2161.000000	99.080046 
2160.000000	99.089701 
2159.000000	99.095394 
2158.000000	99.098508 
2157.000000	99.103082 
2156.000000	99.111616 
2155.000000	99.122903 
2154.000000	99.129752 
2153.000000	99.123053 
2152.000000	99.102914 
2151.000000	99.082403 
2150.000000	99.076666 
2149.000000	99.090733 
2148.000000	99.118644 
2147.000000	99.148934 
2146.000000	99.168546 
2145.000000	99.168992 
2144.000000	99.154594 
2143.000000	99.139528 
2142.000000	99.132493 
2141.000000	99.129397 
2140.000000	99.124378 
2139.000000	99.120514 
2138.000000	99.122674 
2137.000000	99.125964 
2136.000000	99.120969 
2135.000000	99.108480 
2134.000000	99.100551 
2133.000000	99.106432 
2132.000000	99.123059 
2131.000000	99.139436 
2130.000000	99.145940 
2129.000000	99.140258 
2128.000000	99.128456 
2127.000000	99.119624 
2126.000000	99.116908 
2125.000000	99.115513 
2124.000000	99.111912 
2123.000000	99.111429 
2122.000000	99.121541 
2121.000000	99.139827 
2120.000000	99.154619 
2119.000000	99.157580 
2118.000000	99.150758 
2117.000000	99.141316 
2116.000000	99.134541 
2115.000000	99.133142 
2114.000000	99.138415 
2113.000000	99.148646 
2112.000000	99.158437 
2111.000000	99.162126 
2110.000000	99.157701 
2109.000000	99.147582 
2108.000000	99.136892 
2107.000000	99.130134 
2106.000000	99.127079 
2105.000000	99.121927 
2104.000000	99.109160 
2103.000000	99.090831 
2102.000000	99.076097 
2101.000000	99.072909 
2100.000000	99.081206 
2099.000000	99.094044 
2098.000000	99.103859 
2097.000000	99.107853 
2096.000000	99.108786 
2095.000000	99.110095 
2094.000000	99.109881 
2093.000000	99.102424 
2092.000000	99.087478 
2091.000000	99.074586 
2090.000000	99.073909 
2089.000000	99.084007 
2088.000000	99.093166 
2087.000000	99.093041 
2086.000000	99.086609 
2085.000000	99.081957 
2084.000000	99.082450 
2083.000000	99.085363 
2082.000000	99.087453 
2081.000000	99.088697 
2080.000000	99.090960 
2079.000000	99.094812 
2078.000000	99.098656 
2077.000000	99.101321 
2076.000000	99.104937 
2075.000000	99.112919 
2074.000000	99.124089 
2073.000000	99.131868 
2072.000000	99.131719 
2071.000000	99.126903 
2070.000000	99.123514 
2069.000000	99.122128 
2068.000000	99.118617 
2067.000000	99.111547 
2066.000000	99.103613 
2065.000000	99.096137 
2064.000000	99.087596 
2063.000000	99.078752 
2062.000000	99.074442 
2061.000000	99.078147 
2060.000000	99.087946 
2059.000000	99.099373 
2058.000000	99.109290 
2057.000000	99.115715 
2056.000000	99.117048 
2055.000000	99.113247 
2054.000000	99.105875 
2053.000000	99.096509 
2052.000000	99.087123 
2051.000000	99.081599 
2050.000000	99.082843 
2049.000000	99.086874 
2048.000000	99.084474 
2047.000000	99.072305 
2046.000000	99.058085 
2045.000000	99.050956 
2044.000000	99.050605 
2043.000000	99.049754 
2042.000000	99.044246 
2041.000000	99.036530 
2040.000000	99.031379 
2039.000000	99.032216 
2038.000000	99.040366 
2037.000000	99.053685 
2036.000000	99.065918 
2035.000000	99.070653 
2034.000000	99.066187 
2033.000000	99.055054 
2032.000000	99.040023 
2031.000000	99.022760 
2030.000000	99.005682 
2029.000000	98.992214 
2028.000000	98.984610 
2027.000000	98.983548 
2026.000000	98.989668 
2025.000000	99.003206 
2024.000000	99.021010 
2023.000000	99.035623 
2022.000000	99.039259 
2021.000000	99.030026 
2020.000000	99.015157 
2019.000000	99.006939 
2018.000000	99.013293 
2017.000000	99.030564 
2016.000000	99.046566 
2015.000000	99.052083 
2014.000000	99.047926 
2013.000000	99.040922 
2012.000000	99.035752 
2011.000000	99.032487 
2010.000000	99.030917 
2009.000000	99.033531 
2008.000000	99.041991 
2007.000000	99.052702 
2006.000000	99.059521 
2005.000000	99.061590 
2004.000000	99.064549 
2003.000000	99.071933 
2002.000000	99.078540 
2001.000000	99.075488 
2000.000000	99.060994 
1999.000000	99.041876 
1998.000000	99.025912 
1997.000000	99.017591 
1996.000000	99.020022 
1995.000000	99.035016 
1994.000000	99.058627 
1993.000000	99.080067 
1992.000000	99.089446 
1991.000000	99.086133 
1990.000000	99.076604 
1989.000000	99.067082 
1988.000000	99.061351 
1987.000000	99.061501 
1986.000000	99.065940 
1985.000000	99.068561 
1984.000000	99.064300 
1983.000000	99.055216 
1982.000000	99.047589 
1981.000000	99.043228 
1980.000000	99.037490 
1979.000000	99.026199 
1978.000000	99.011966 
1977.000000	99.001370 
1976.000000	98.996617 
1975.000000	98.993831 
1974.000000	98.991000 
1973.000000	98.994680 
1972.000000	99.014370 
1971.000000	99.048769 
1970.000000	99.080815 
1969.000000	99.091044 
1968.000000	99.077039 
1967.000000	99.056244 
1966.000000	99.046734 
1965.000000	99.049435 
1964.000000	99.053196 
1963.000000	99.051826 
1962.000000	99.049852 
1961.000000	99.053645 
1960.000000	99.062546 
1959.000000	99.070399 
1958.000000	99.072754 
1957.000000	99.070156 
1956.000000	99.066087 
1955.000000	99.063743 
1954.000000	99.064524 
1953.000000	99.068185 
1952.000000	99.073087 
1951.000000	99.076957 
1950.000000	99.077825 
1949.000000	99.075269 
1948.000000	99.071505 
1947.000000	99.069109 
1946.000000	99.066810 
1945.000000	99.059697 
1944.000000	99.045675 
1943.000000	99.030836 
1942.000000	99.025283 
1941.000000	99.032292 
1940.000000	99.044631 
1939.000000	99.053119 
1938.000000	99.056275 
1937.000000	99.060453 
1936.000000	99.070775 
1935.000000	99.083206 
1934.000000	99.088556 
1933.000000	99.084702 
1932.000000	99.080851 
1931.000000	99.087455 
1930.000000	99.103102 
1929.000000	99.116106 
1928.000000	99.119532 
1927.000000	99.117722 
1926.000000	99.117538 
1925.000000	99.117928 
1924.000000	99.113279 
1923.000000	99.104454 
1922.000000	99.099300 
1921.000000	99.102435 
1920.000000	99.109835 
1919.000000	99.113772 
1918.000000	99.109446 
1917.000000	99.098271 
1916.000000	99.086407 
1915.000000	99.079244 
1914.000000	99.078322 
1913.000000	99.082320 
1912.000000	99.088680 
1911.000000	99.094856 
1910.000000	99.097845 
1909.000000	99.096023 
1908.000000	99.093003 
1907.000000	99.095025 
1906.000000	99.104149 
1905.000000	99.114804 
1904.000000	99.119501 
1903.000000	99.116682 
1902.000000	99.109570 
1901.000000	99.101722 
1900.000000	99.096068 
1899.000000	99.094718 
1898.000000	99.097841 
1897.000000	99.103017 
1896.000000	99.107585 
1895.000000	99.110950 
1894.000000	99.112606 
1893.000000	99.111270 
1892.000000	99.107811 
1891.000000	99.105816 
1890.000000	99.106742 
1889.000000	99.107434 
1888.000000	99.105720 
1887.000000	99.104184 
1886.000000	99.105651 
1885.000000	99.109185 
1884.000000	99.112678 
1883.000000	99.116666 
1882.000000	99.121681 
1881.000000	99.125214 
1880.000000	99.125695 
1879.000000	99.126080 
1878.000000	99.130865 
1877.000000	99.140410 
1876.000000	99.150030 
1875.000000	99.154736 
1874.000000	99.152392 
1873.000000	99.143906 
1872.000000	99.133801 
1871.000000	99.128306 
1870.000000	99.128725 
1869.000000	99.127181 
1868.000000	99.117105 
1867.000000	99.104738 
1866.000000	99.099792 
1865.000000	99.102429 
1864.000000	99.105117 
1863.000000	99.102222 
1862.000000	99.094929 
1861.000000	99.088004 
1860.000000	99.085860 
1859.000000	99.091566 
1858.000000	99.105061 
1857.000000	99.121302 
1856.000000	99.133586 
1855.000000	99.139683 
1854.000000	99.141839 
1853.000000	99.141619 
1852.000000	99.139213 
1851.000000	99.134965 
1850.000000	99.131069 
1849.000000	99.131060 
1848.000000	99.136426 
1847.000000	99.144508 
1846.000000	99.149394 
1845.000000	99.146188 
1844.000000	99.136484 
1843.000000	99.129201 
1842.000000	99.129829 
1841.000000	99.134998 
1840.000000	99.139812 
1839.000000	99.142014 
1838.000000	99.141351 
1837.000000	99.137801 
1836.000000	99.132590 
1835.000000	99.129617 
1834.000000	99.132328 
1833.000000	99.140278 
1832.000000	99.148924 
1831.000000	99.151542 
1830.000000	99.145345 
1829.000000	99.136787 
1828.000000	99.133666 
1827.000000	99.135131 
1826.000000	99.135470 
1825.000000	99.131944 
1824.000000	99.127030 
1823.000000	99.124259 
1822.000000	99.122821 
1821.000000	99.120167 
1820.000000	99.117383 
1819.000000	99.118829 
1818.000000	99.126459 
1817.000000	99.134706 
1816.000000	99.136894 
1815.000000	99.134709 
1814.000000	99.134638 
1813.000000	99.139066 
1812.000000	99.143919 
1811.000000	99.146562 
1810.000000	99.149989 
1809.000000	99.155062 
1808.000000	99.158069 
1807.000000	99.156968 
1806.000000	99.153651 
1805.000000	99.150268 
1804.000000	99.147653 
1803.000000	99.146364 
1802.000000	99.144705 
1801.000000	99.139037 
1800.000000	99.128868 
1799.000000	99.121078 
1798.000000	99.123053 
1797.000000	99.133205 
1796.000000	99.144536 
1795.000000	99.152858 
1794.000000	99.157758 
1793.000000	99.158059 
1792.000000	99.151495 
1791.000000	99.142486 
1790.000000	99.138194 
1789.000000	99.138176 
1788.000000	99.138765 
1787.000000	99.139987 
1786.000000	99.144076 
1785.000000	99.149178 
1784.000000	99.150688 
1783.000000	99.148125 
1782.000000	99.144093 
1781.000000	99.141429 
1780.000000	99.139719 
1779.000000	99.137284 
1778.000000	99.135105 
1777.000000	99.135168 
1776.000000	99.138294 
1775.000000	99.141805 
1774.000000	99.142668 
1773.000000	99.142004 
1772.000000	99.142392 
1771.000000	99.143959 
1770.000000	99.144591 
1769.000000	99.142101 
1768.000000	99.137037 
1767.000000	99.132186 
1766.000000	99.129589 
1765.000000	99.129298 
1764.000000	99.130012 
1763.000000	99.130739 
1762.000000	99.130806 
1761.000000	99.130844 
1760.000000	99.130553 
1759.000000	99.129111 
1758.000000	99.127937 
1757.000000	99.130358 
1756.000000	99.137292 
1755.000000	99.143790 
1754.000000	99.145569 
1753.000000	99.144692 
1752.000000	99.144770 
1751.000000	99.141384 
1750.000000	99.128296 
1749.000000	99.109452 
1748.000000	99.095958 
1747.000000	99.093088 
1746.000000	99.095976 
1745.000000	99.099254 
1744.000000	99.101427 
1743.000000	99.102837 
1742.000000	99.103521 
1741.000000	99.102803 
1740.000000	99.101083 
1739.000000	99.102084 
1738.000000	99.108212 
1737.000000	99.116060 
1736.000000	99.121849 
1735.000000	99.127150 
1734.000000	99.129537 
1733.000000	99.126929 
1732.000000	99.122963 
1731.000000	99.118100 
1730.000000	99.113554 
1729.000000	99.112388 
1728.000000	99.115363 
1727.000000	99.120302 
1726.000000	99.124910 
1725.000000	99.129118 
1724.000000	99.131287 
1723.000000	99.130414 
1722.000000	99.128341 
1721.000000	99.126588 
1720.000000	99.125976 
1719.000000	99.129666 
1718.000000	99.139963 
1717.000000	99.149157 
1716.000000	99.149010 
1715.000000	99.143973 
1714.000000	99.141365 
1713.000000	99.140574 
1712.000000	99.137801 
1711.000000	99.134627 
1710.000000	99.135886 
1709.000000	99.141725 
1708.000000	99.146849 
1707.000000	99.147300 
1706.000000	99.145799 
1705.000000	99.145211 
1704.000000	99.144671 
1703.000000	99.142393 
1702.000000	99.140967 
1701.000000	99.145055 
1700.000000	99.147157 
1699.000000	99.145685 
1698.000000	99.147379 
1697.000000	99.148990 
1696.000000	99.147161 
1695.000000	99.144601 
1694.000000	99.144538 
1693.000000	99.144455 
1692.000000	99.141360 
1691.000000	99.138748 
1690.000000	99.140106 
1689.000000	99.144337 
1688.000000	99.149102 
1687.000000	99.152182 
1686.000000	99.155829 
1685.000000	99.161936 
1684.000000	99.162385 
1683.000000	99.158396 
1682.000000	99.154937 
1681.000000	99.149547 
1680.000000	99.145659 
1679.000000	99.145834 
1678.000000	99.146240 
1677.000000	99.144333 
1676.000000	99.143117 
1675.000000	99.144779 
1674.000000	99.147180 
1673.000000	99.149861 
1672.000000	99.152972 
1671.000000	99.157023 
1670.000000	99.159025 
1669.000000	99.156058 
1668.000000	99.153246 
1667.000000	99.153028 
1666.000000	99.151918 
1665.000000	99.148331 
1664.000000	99.144805 
1663.000000	99.144716 
1662.000000	99.146069 
1661.000000	99.146196 
1660.000000	99.146868 
1659.000000	99.150168 
1658.000000	99.154878 
1657.000000	99.157888 
1656.000000	99.158055 
1655.000000	99.156414 
1654.000000	99.156784 
1653.000000	99.151398 
1652.000000	99.146803 
1651.000000	99.153787 
1650.000000	99.160584 
1649.000000	99.161734 
1648.000000	99.161265 
1647.000000	99.160320 
1646.000000	99.159705 
1645.000000	99.161544 
1644.000000	99.164888 
1643.000000	99.167726 
1642.000000	99.168312 
1641.000000	99.166483 
1640.000000	99.164117 
1639.000000	99.162534 
1638.000000	99.161809 
1637.000000	99.162415 
1636.000000	99.164255 
1635.000000	99.165666 
1634.000000	99.166946 
1633.000000	99.166318 
1632.000000	99.161924 
1631.000000	99.156646 
1630.000000	99.153015 
1629.000000	99.151062 
1628.000000	99.150820 
1627.000000	99.152968 
1626.000000	99.155387 
1625.000000	99.155135 
1624.000000	99.152467 
1623.000000	99.150051 
1622.000000	99.149293 
1621.000000	99.149438 
1620.000000	99.149378 
1619.000000	99.148560 
1618.000000	99.147745 
1617.000000	99.146244 
1616.000000	99.145726 
1615.000000	99.149078 
1614.000000	99.153388 
1613.000000	99.155906 
1612.000000	99.159425 
1611.000000	99.165614 
1610.000000	99.169402 
1609.000000	99.166638 
1608.000000	99.161336 
1607.000000	99.159027 
1606.000000	99.158173 
1605.000000	99.155933 
1604.000000	99.154051 
1603.000000	99.154199 
1602.000000	99.154925 
1601.000000	99.154812 
1600.000000	99.155205 
1599.000000	99.157119 
1598.000000	99.159198 
1597.000000	99.160443 
1596.000000	99.161562 
1595.000000	99.162743 
1594.000000	99.162291 
1593.000000	99.159800 
1592.000000	99.157920 
1591.000000	99.158598 
1590.000000	99.160129 
1589.000000	99.160714 
1588.000000	99.161906 
1587.000000	99.165527 
1586.000000	99.169582 
1585.000000	99.170833 
1584.000000	99.170714 
1583.000000	99.171223 
1582.000000	99.170653 
1581.000000	99.167740 
1580.000000	99.164357 
1579.000000	99.160920 
1578.000000	99.155764 
1577.000000	99.150011 
1576.000000	99.147328 
1575.000000	99.149992 
1574.000000	99.153598 
1573.000000	99.153276 
1572.000000	99.150544 
1571.000000	99.150437 
1570.000000	99.152770 
1569.000000	99.154335 
1568.000000	99.157129 
1567.000000	99.160269 
1566.000000	99.160165 
1565.000000	99.157095 
1564.000000	99.155285 
1563.000000	99.153428 
1562.000000	99.148565 
1561.000000	99.141024 
1560.000000	99.144691 
1559.000000	99.149021 
1558.000000	99.143818 
1557.000000	99.143468 
1556.000000	99.147301 
1555.000000	99.151819 
1554.000000	99.155665 
1553.000000	99.157004 
1552.000000	99.155535 
1551.000000	99.151340 
1550.000000	99.147690 
1549.000000	99.147138 
1548.000000	99.149454 
1547.000000	99.151808 
1546.000000	99.151345 
1545.000000	99.147766 
1544.000000	99.144129 
1543.000000	99.145143 
1542.000000	99.153335 
1541.000000	99.164529 
1540.000000	99.168655 
1539.000000	99.167756 
1538.000000	99.169801 
1537.000000	99.172782 
1536.000000	99.173705 
1535.000000	99.174700 
1534.000000	99.174471 
1533.000000	99.168756 
1532.000000	99.159927 
1531.000000	99.154258 
1530.000000	99.153651 
1529.000000	99.155083 
1528.000000	99.155344 
1527.000000	99.155912 
1526.000000	99.159698 
1525.000000	99.165399 
1524.000000	99.168953 
1523.000000	99.170367 
1522.000000	99.172829 
1521.000000	99.174903 
1520.000000	99.173805 
1519.000000	99.168740 
1518.000000	99.160945 
1517.000000	99.154341 
1516.000000	99.151585 
1515.000000	99.151759 
1514.000000	99.152136 
1513.000000	99.152302 
1512.000000	99.152365 
1511.000000	99.151128 
1510.000000	99.149144 
1509.000000	99.148068 
1508.000000	99.151222 
1507.000000	99.156272 
1506.000000	99.159582 
1505.000000	99.159525 
1504.000000	99.155747 
1503.000000	99.150701 
1502.000000	99.147928 
1501.000000	99.148205 
1500.000000	99.148148 
1499.000000	99.144073 
1498.000000	99.137769 
1497.000000	99.132630 
1496.000000	99.127650 
1495.000000	99.124967 
1494.000000	99.128824 
1493.000000	99.138370 
1492.000000	99.149024 
1491.000000	99.156207 
1490.000000	99.157085 
1489.000000	99.151785 
1488.000000	99.142375 
1487.000000	99.134042 
1486.000000	99.130123 
1485.000000	99.127019 
1484.000000	99.121942 
1483.000000	99.115682 
1482.000000	99.111343 
1481.000000	99.109923 
1480.000000	99.109146 
1479.000000	99.107700 
1478.000000	99.106604 
1477.000000	99.106094 
1476.000000	99.104823 
1475.000000	99.104842 
1474.000000	99.108869 
1473.000000	99.113685 
1472.000000	99.112482 
1471.000000	99.105931 
1470.000000	99.099388 
1469.000000	99.094097 
1468.000000	99.089074 
1467.000000	99.085093 
1466.000000	99.083801 
1465.000000	99.084927 
1464.000000	99.086982 
1463.000000	99.088787 
1462.000000	99.090460 
1461.000000	99.091549 
1460.000000	99.091323 
1459.000000	99.088683 
1458.000000	99.082802 
1457.000000	99.071123 
1456.000000	99.055792 
1455.000000	99.042822 
1454.000000	99.034192 
1453.000000	99.031814 
1452.000000	99.036453 
1451.000000	99.044590 
1450.000000	99.052084 
1449.000000	99.057217 
1448.000000	99.059407 
1447.000000	99.060041 
1446.000000	99.060776 
1445.000000	99.063099 
1444.000000	99.066614 
1443.000000	99.068975 
1442.000000	99.069859 
1441.000000	99.070611 
1440.000000	99.071327 
1439.000000	99.070283 
1438.000000	99.069874 
1437.000000	99.073715 
1436.000000	99.079438 
1435.000000	99.081834 
1434.000000	99.080134 
1433.000000	99.076615 
1432.000000	99.073240 
1431.000000	99.069531 
1430.000000	99.065169 
1429.000000	99.062013 
1428.000000	99.060233 
1427.000000	99.058329 
1426.000000	99.054695 
1425.000000	99.051055 
1424.000000	99.048869 
1423.000000	99.044851 
1422.000000	99.036143 
1421.000000	99.024141 
1420.000000	99.011769 
1419.000000	98.997873 
1418.000000	98.983716 
1417.000000	98.972681 
1416.000000	98.961840 
1415.000000	98.947055 
1414.000000	98.928618 
1413.000000	98.910500 
1412.000000	98.896103 
1411.000000	98.884965 
1410.000000	98.875787 
1409.000000	98.868702 
1408.000000	98.863738 
1407.000000	98.861339 
1406.000000	98.861803 
1405.000000	98.865823 
1404.000000	98.873757 
1403.000000	98.884382 
1402.000000	98.897436 
1401.000000	98.913813 
1400.000000	98.931963 
1399.000000	98.944451 
1398.000000	98.942548 
1397.000000	98.921884 
1396.000000	98.884548 
1395.000000	98.844317 
1394.000000	98.824123 
1393.000000	98.837257 
1392.000000	98.873708 
1391.000000	98.912251 
1390.000000	98.938233 
1389.000000	98.948363 
1388.000000	98.945703 
1387.000000	98.934987 
1386.000000	98.922152 
1385.000000	98.912724 
1384.000000	98.908422 
1383.000000	98.906654 
1382.000000	98.904638 
1381.000000	98.902699 
1380.000000	98.903900 
1379.000000	98.910271 
1378.000000	98.920418 
1377.000000	98.931418 
1376.000000	98.941547 
1375.000000	98.950454 
1374.000000	98.958521 
1373.000000	98.967564 
1372.000000	98.978647 
1371.000000	98.990376 
1370.000000	99.000088 
1369.000000	99.007353 
1368.000000	99.014163 
1367.000000	99.021408 
1366.000000	99.028518 
1365.000000	99.035930 
1364.000000	99.045197 
1363.000000	99.055782 
1362.000000	99.064168 
1361.000000	99.067856 
1360.000000	99.068348 
1359.000000	99.069195 
1358.000000	99.072583 
1357.000000	99.078371 
1356.000000	99.084864 
1355.000000	99.090095 
1354.000000	99.093580 
1353.000000	99.096590 
1352.000000	99.099937 
1351.000000	99.103158 
1350.000000	99.104685 
1349.000000	99.104723 
1348.000000	99.105340 
1347.000000	99.107203 
1346.000000	99.108950 
1345.000000	99.109622 
1344.000000	99.109753 
1343.000000	99.109812 
1342.000000	99.109861 
1341.000000	99.110979 
1340.000000	99.114672 
1339.000000	99.119871 
1338.000000	99.123424 
1337.000000	99.124539 
1336.000000	99.125617 
1335.000000	99.128144 
1334.000000	99.130529 
1333.000000	99.130955 
1332.000000	99.130210 
1331.000000	99.130183 
1330.000000	99.131123 
1329.000000	99.132156 
1328.000000	99.132869 
1327.000000	99.132821 
1326.000000	99.130601 
1325.000000	99.126041 
1324.000000	99.121729 
1323.000000	99.120554 
1322.000000	99.122918 
1321.000000	99.127214 
1320.000000	99.131945 
1319.000000	99.136082 
1318.000000	99.138383 
1317.000000	99.137696 
1316.000000	99.133982 
1315.000000	99.128554 
1314.000000	99.123485 
1313.000000	99.120579 
1312.000000	99.120191 
1311.000000	99.121015 
1310.000000	99.121536 
1309.000000	99.121574 
1308.000000	99.121712 
1307.000000	99.121896 
1306.000000	99.121389 
1305.000000	99.120553 
1304.000000	99.120960 
1303.000000	99.123247 
1302.000000	99.126060 
1301.000000	99.127590 
1300.000000	99.127509 
1299.000000	99.127009 
1298.000000	99.127579 
1297.000000	99.129682 
1296.000000	99.132167 
1295.000000	99.132921 
1294.000000	99.130755 
1293.000000	99.126516 
1292.000000	99.121795 
1291.000000	99.117287 
1290.000000	99.113336 
1289.000000	99.111238 
1288.000000	99.112242 
1287.000000	99.115242 
1286.000000	99.117147 
1285.000000	99.115919 
1284.000000	99.111907 
1283.000000	99.106192 
1282.000000	99.099336 
1281.000000	99.092248 
1280.000000	99.086811 
1279.000000	99.084210 
1278.000000	99.083446 
1277.000000	99.082454 
1276.000000	99.080227 
1275.000000	99.077029 
1274.000000	99.073161 
1273.000000	99.068543 
1272.000000	99.063244 
1271.000000	99.057632 
1270.000000	99.051892 
1269.000000	99.045766 
1268.000000	99.038710 
1267.000000	99.030105 
1266.000000	99.019827 
1265.000000	99.008818 
1264.000000	98.998646 
1263.000000	98.990127 
1262.000000	98.982616 
1261.000000	98.974984 
1260.000000	98.967197 
1259.000000	98.960291 
1258.000000	98.954983 
1257.000000	98.950971 
1256.000000	98.947752 
1255.000000	98.945468 
1254.000000	98.944201 
1253.000000	98.942796 
1252.000000	98.939712 
1251.000000	98.935583 
1250.000000	98.933833 
1249.000000	98.937519 
1248.000000	98.945992 
1247.000000	98.955392 
1246.000000	98.961596 
1245.000000	98.961472 
1244.000000	98.953132 
1243.000000	98.938855 
1242.000000	98.927519 
1241.000000	98.929214 
1240.000000	98.944732 
1239.000000	98.963097 
1238.000000	98.972267 
1237.000000	98.970445 
1236.000000	98.964413 
1235.000000	98.959545 
1234.000000	98.955572 
1233.000000	98.950685 
1232.000000	98.944832 
1231.000000	98.938249 
1230.000000	98.930724 
1229.000000	98.923930 
1228.000000	98.921716 
1227.000000	98.926172 
1226.000000	98.934960 
1225.000000	98.943957 
1224.000000	98.951257 
1223.000000	98.957444 
1222.000000	98.963323 
1221.000000	98.969032 
1220.000000	98.974872 
1219.000000	98.981754 
1218.000000	98.990564 
1217.000000	99.001200 
1216.000000	99.012027 
1215.000000	99.020525 
1214.000000	99.025027 
1213.000000	99.025738 
1212.000000	99.023895 
1211.000000	99.020962 
1210.000000	99.019222 
1209.000000	99.021489 
1208.000000	99.028417 
1207.000000	99.036778 
1206.000000	99.042285 
1205.000000	99.043959 
1204.000000	99.044282 
1203.000000	99.045573 
1202.000000	99.047892 
1201.000000	99.050227 
1200.000000	99.051901 
1199.000000	99.052699 
1198.000000	99.053105 
1197.000000	99.054300 
1196.000000	99.056482 
1195.000000	99.057582 
1194.000000	99.055381 
1193.000000	99.050635 
1192.000000	99.046221 
1191.000000	99.043292 
1190.000000	99.040370 
1189.000000	99.036444 
1188.000000	99.032815 
1187.000000	99.031223 
1186.000000	99.031923 
1185.000000	99.034251 
1184.000000	99.037416 
1183.000000	99.040047 
1182.000000	99.040605 
1181.000000	99.039171 
1180.000000	99.037530 
1179.000000	99.036791 
1178.000000	99.036308 
1177.000000	99.035575 
1176.000000	99.035459 
1175.000000	99.036351 
1174.000000	99.036465 
1173.000000	99.033582 
1172.000000	99.027876 
1171.000000	99.021836 
1170.000000	99.017732 
1169.000000	99.015855 
1168.000000	99.014838 
1167.000000	99.013150 
1166.000000	99.010642 
1165.000000	99.008792 
1164.000000	99.008916 
1163.000000	99.010340 
1162.000000	99.011464 
1161.000000	99.012589 
1160.000000	99.015990 
1159.000000	99.022352 
1158.000000	99.028467 
1157.000000	99.029683 
1156.000000	99.024041 
1155.000000	99.013659 
1154.000000	99.003138 
1153.000000	98.997006 
1152.000000	98.997087 
1151.000000	99.000912 
1150.000000	99.003479 
1149.000000	99.001927 
1148.000000	98.998046 
1147.000000	98.995393 
1146.000000	98.994765 
1145.000000	98.993691 
1144.000000	98.989755 
1143.000000	98.982990 
1142.000000	98.975316 
1141.000000	98.969183 
1140.000000	98.966877 
1139.000000	98.969439 
1138.000000	98.975061 
1137.000000	98.979365 
1136.000000	98.978664 
1135.000000	98.973199 
1134.000000	98.966465 
1133.000000	98.961028 
1132.000000	98.955838 
1131.000000	98.948552 
1130.000000	98.939825 
1129.000000	98.933465 
1128.000000	98.931593 
1127.000000	98.931068 
1126.000000	98.926388 
1125.000000	98.915928 
1124.000000	98.903881 
1123.000000	98.895843 
1122.000000	98.893506 
1121.000000	98.893903 
1120.000000	98.892736 
1119.000000	98.887763 
1118.000000	98.879683 
1117.000000	98.870601 
1116.000000	98.861741 
1115.000000	98.852591 
1114.000000	98.842314 
1113.000000	98.831469 
1112.000000	98.821405 
1111.000000	98.811877 
1110.000000	98.800260 
1109.000000	98.784148 
1108.000000	98.764403 
1107.000000	98.745078 
1106.000000	98.729911 
1105.000000	98.718900 
1104.000000	98.708832 
1103.000000	98.697445 
1102.000000	98.686456 
1101.000000	98.679808 
1100.000000	98.678673 
1099.000000	98.680073 
1098.000000	98.680214 
1097.000000	98.677908 
1096.000000	98.673760 
1095.000000	98.667223 
1094.000000	98.656246 
1093.000000	98.638862 
1092.000000	98.613591 
1091.000000	98.579417 
1090.000000	98.537827 
1089.000000	98.494428 
1088.000000	98.455875 
1087.000000	98.424477 
1086.000000	98.397416 
1085.000000	98.371561 
1084.000000	98.346800 
1083.000000	98.323714 
1082.000000	98.300419 
1081.000000	98.273961 
1080.000000	98.243863 
1079.000000	98.212794 
1078.000000	98.184708 
1077.000000	98.163595 
1076.000000	98.152762 
1075.000000	98.153179 
1074.000000	98.162709 
1073.000000	98.177701 
1072.000000	98.193468 
1071.000000	98.201573 
1070.000000	98.190262 
1069.000000	98.153726 
1068.000000	98.102683 
1067.000000	98.062004 
1066.000000	98.053339 
1065.000000	98.078936 
1064.000000	98.122467 
1063.000000	98.162915 
1062.000000	98.185866 
1061.000000	98.185380 
1060.000000	98.162537 
1059.000000	98.126320 
1058.000000	98.092350 
1057.000000	98.074283 
1056.000000	98.074282 
1055.000000	98.083563 
1054.000000	98.092467 
1053.000000	98.098106 
1052.000000	98.102224 
1051.000000	98.105561 
1050.000000	98.107426 
1049.000000	98.108438 
1048.000000	98.110128 
1047.000000	98.113234 
1046.000000	98.118985 
1045.000000	98.129895 
1044.000000	98.146154 
1043.000000	98.163005 
1042.000000	98.175496 
1041.000000	98.185042 
1040.000000	98.197812 
1039.000000	98.217409 
1038.000000	98.242840 
1037.000000	98.272724 
1036.000000	98.306635 
1035.000000	98.342065 
1034.000000	98.374852 
1033.000000	98.403267 
1032.000000	98.426892 
1031.000000	98.441167 
1030.000000	98.440004 
1029.000000	98.427314 
1028.000000	98.420198 
1027.000000	98.434461 
1026.000000	98.468365 
1025.000000	98.504844 
1024.000000	98.528414 
1023.000000	98.536510 
1022.000000	98.536627 
1021.000000	98.537463 
1020.000000	98.543429 
1019.000000	98.553920 
1018.000000	98.565458 
1017.000000	98.575229 
1016.000000	98.583477 
1015.000000	98.592703 
1014.000000	98.605062 
1013.000000	98.620592 
1012.000000	98.636741 
1011.000000	98.649255 
1010.000000	98.655252 
1009.000000	98.656641 
1008.000000	98.659337 
1007.000000	98.668078 
1006.000000	98.682750 
1005.000000	98.700072 
1004.000000	98.717148 
1003.000000	98.732464 
1002.000000	98.745405 
1001.000000	98.756478 
1000.000000	98.766805 
999.000000	 98.776070 
998.000000	 98.782208 
997.000000	 98.784553 
996.000000	 98.786177 
995.000000	 98.791479 
994.000000	 98.801796 
993.000000	 98.814292 
992.000000	 98.824542 
991.000000	 98.829532 
990.000000	 98.829301 
989.000000	 98.826806 
988.000000	 98.825608 
987.000000	 98.827055 
986.000000	 98.830225 
985.000000	 98.834512 
984.000000	 98.840546 
983.000000	 98.848007 
982.000000	 98.854494 
981.000000	 98.857921 
980.000000	 98.858789 
979.000000	 98.859127 
978.000000	 98.860646 
977.000000	 98.864872 
976.000000	 98.873053 
975.000000	 98.883969 
974.000000	 98.893264 
973.000000	 98.897373 
972.000000	 98.897720 
971.000000	 98.899345 
970.000000	 98.905586 
969.000000	 98.915351 
968.000000	 98.925109 
967.000000	 98.932092 
966.000000	 98.935623 
965.000000	 98.936588 
964.000000	 98.936217 
963.000000	 98.935464 
962.000000	 98.935707 
961.000000	 98.939232 
960.000000	 98.947243 
959.000000	 98.957068 
958.000000	 98.963448 
957.000000	 98.964026 
956.000000	 98.962286 
955.000000	 98.963682 
954.000000	 98.969793 
953.000000	 98.977496 
952.000000	 98.982927 
951.000000	 98.984736 
950.000000	 98.984000 
949.000000	 98.982407 
948.000000	 98.980684 
947.000000	 98.978232 
946.000000	 98.974182 
945.000000	 98.968646 
944.000000	 98.962501 
943.000000	 98.956554 
942.000000	 98.952239 
941.000000	 98.952321 
940.000000	 98.958305 
939.000000	 98.966741 
938.000000	 98.971132 
937.000000	 98.969212 
936.000000	 98.966106 
935.000000	 98.968339 
934.000000	 98.976463 
933.000000	 98.985585 
932.000000	 98.991545 
931.000000	 98.994082 
930.000000	 98.994854 
929.000000	 98.994813 
928.000000	 98.993593 
927.000000	 98.990085 
926.000000	 98.983818 
925.000000	 98.976675 
924.000000	 98.972502 
923.000000	 98.973761 
922.000000	 98.978918 
921.000000	 98.983871 
920.000000	 98.985118 
919.000000	 98.981149 
918.000000	 98.972622 
917.000000	 98.962618 
916.000000	 98.955080 
915.000000	 98.950993 
914.000000	 98.946949 
913.000000	 98.939210 
912.000000	 98.928438 
911.000000	 98.918937 
910.000000	 98.914225 
909.000000	 98.914982 
908.000000	 98.920100 
907.000000	 98.927216 
906.000000	 98.932543 
905.000000	 98.932642 
904.000000	 98.927127 
903.000000	 98.918937 
902.000000	 98.912212 
901.000000	 98.910205 
900.000000	 98.913753 
899.000000	 98.920145 
898.000000	 98.924066 
897.000000	 98.921404 
896.000000	 98.912089 
895.000000	 98.899100 
894.000000	 98.886279 
893.000000	 98.877816 
892.000000	 98.877499 
891.000000	 98.885989 
890.000000	 98.899662 
889.000000	 98.913827 
888.000000	 98.926065 
887.000000	 98.935384 
886.000000	 98.940627 
885.000000	 98.942177 
884.000000	 98.943074 
883.000000	 98.945149 
882.000000	 98.945510 
881.000000	 98.940668 
880.000000	 98.933499 
879.000000	 98.931884 
878.000000	 98.939434 
877.000000	 98.950641 
876.000000	 98.956421 
875.000000	 98.952401 
874.000000	 98.941557 
873.000000	 98.931114 
872.000000	 98.927394 
871.000000	 98.931437 
870.000000	 98.938854 
869.000000	 98.945383 
868.000000	 98.952133 
867.000000	 98.963146 
866.000000	 98.978480 
865.000000	 98.993229 
864.000000	 99.004044 
863.000000	 99.012854 
862.000000	 99.021848 
861.000000	 99.027921 
860.000000	 99.026234 
859.000000	 99.018462 
858.000000	 99.013201 
857.000000	 99.016744 
856.000000	 99.026498 
855.000000	 99.035538 
854.000000	 99.041023 
853.000000	 99.044881 
852.000000	 99.047875 
851.000000	 99.048033 
850.000000	 99.045856 
849.000000	 99.046244 
848.000000	 99.052160 
847.000000	 99.059731 
846.000000	 99.063466 
845.000000	 99.063960 
844.000000	 99.065950 
843.000000	 99.070367 
842.000000	 99.073478 
841.000000	 99.073481 
840.000000	 99.072568 
839.000000	 99.071759 
838.000000	 99.068959 
837.000000	 99.063788 
836.000000	 99.059532 
835.000000	 99.057852 
834.000000	 99.056122 
833.000000	 99.053303 
832.000000	 99.054184 
831.000000	 99.062933 
830.000000	 99.075022 
829.000000	 99.080984 
828.000000	 99.077610 
827.000000	 99.071040 
826.000000	 99.068452 
825.000000	 99.070267 
824.000000	 99.071429 
823.000000	 99.067895 
822.000000	 99.061081 
821.000000	 99.056820 
820.000000	 99.059617 
819.000000	 99.067805 
818.000000	 99.075772 
817.000000	 99.080936 
816.000000	 99.085447 
815.000000	 99.090131 
814.000000	 99.091104 
813.000000	 99.085519 
812.000000	 99.077022 
811.000000	 99.070903 
810.000000	 99.066010 
809.000000	 99.056645 
808.000000	 99.041729 
807.000000	 99.027123 
806.000000	 99.018117 
805.000000	 99.013721 
804.000000	 99.010086 
803.000000	 99.006567 
802.000000	 99.006146 
801.000000	 99.010815 
800.000000	 99.018055 
799.000000	 99.022452 
798.000000	 99.021298 
797.000000	 99.017880 
796.000000	 99.017117 
795.000000	 99.018290 
794.000000	 99.015773 
793.000000	 99.008139 
792.000000	 99.002190 
791.000000	 99.004696 
790.000000	 99.013509 
789.000000	 99.020854 
788.000000	 99.022642 
787.000000	 99.020002 
786.000000	 99.013820 
785.000000	 99.003220 
784.000000	 98.989219 
783.000000	 98.975492 
782.000000	 98.965066 
781.000000	 98.959114 
780.000000	 98.958137 
779.000000	 98.960683 
778.000000	 98.961822 
777.000000	 98.957387 
776.000000	 98.949880 
775.000000	 98.946231 
774.000000	 98.949244 
773.000000	 98.954969 
772.000000	 98.959232 
771.000000	 98.963110 
770.000000	 98.970603 
769.000000	 98.983330 
768.000000	 98.998503 
767.000000	 99.010636 
766.000000	 99.015692 
765.000000	 99.015756 
764.000000	 99.018539 
763.000000	 99.028886 
762.000000	 99.041009 
761.000000	 99.043030 
760.000000	 99.030461 
759.000000	 99.012497 
758.000000	 99.003631 
757.000000	 99.010168 
756.000000	 99.024792 
755.000000	 99.032506 
754.000000	 99.022801 
753.000000	 98.999099 
752.000000	 98.976762 
751.000000	 98.970195 
750.000000	 98.981310 
749.000000	 99.000514 
748.000000	 99.016623 
747.000000	 99.023963 
746.000000	 99.023267 
745.000000	 99.020141 
744.000000	 99.021334 
743.000000	 99.028356 
742.000000	 99.035477 
741.000000	 99.037617 
740.000000	 99.038500 
739.000000	 99.045937 
738.000000	 99.059540 
737.000000	 99.068452 
736.000000	 99.062331 
735.000000	 99.041330 
734.000000	 99.015609 
733.000000	 98.998587 
732.000000	 98.999625 
731.000000	 99.017485 
730.000000	 99.039460 
729.000000	 99.051745 
728.000000	 99.052205 
727.000000	 99.049404 
726.000000	 99.049427 
725.000000	 99.048852 
724.000000	 99.041796 
723.000000	 99.028622 
722.000000	 99.015296 
721.000000	 99.008004 
720.000000	 99.010256 
719.000000	 99.021284 
718.000000	 99.035031 
717.000000	 99.043584 
716.000000	 99.043033 
715.000000	 99.034449 
714.000000	 99.020482 
713.000000	 99.005362 
712.000000	 98.997639 
711.000000	 99.005909 
710.000000	 99.028439 
709.000000	 99.051482 
708.000000	 99.060990 
707.000000	 99.052946 
706.000000	 99.031386 
705.000000	 99.002130 
704.000000	 98.972654 
703.000000	 98.953583 
702.000000	 98.953354 
701.000000	 98.970754 
700.000000	 98.995330 
699.000000	 99.014718 
698.000000	 99.021758 
697.000000	 99.017365 
696.000000	 99.008089 
695.000000	 98.999960 
694.000000	 98.993962 
693.000000	 98.988524 
692.000000	 98.984916 
691.000000	 98.986401 
690.000000	 98.993541 
689.000000	 99.005192 
688.000000	 99.022413 
687.000000	 99.044468 
686.000000	 99.061347 
685.000000	 99.059712 
684.000000	 99.039263 
683.000000	 99.015626 
682.000000	 99.004319 
681.000000	 99.007448 
680.000000	 99.016975 
679.000000	 99.023788 
678.000000	 99.022024 
677.000000	 99.012590 
676.000000	 99.007057 
675.000000	 99.016066 
674.000000	 99.031593 
673.000000	 99.031026 
672.000000	 99.003244 
671.000000	 98.962361 
670.000000	 98.933928 
669.000000	 98.938560 
668.000000	 98.975060 
667.000000	 99.011018 
666.000000	 99.018273 
665.000000	 99.000586 
664.000000	 98.981557 
663.000000	 98.985918 
662.000000	 99.014721 
661.000000	 99.038551 
660.000000	 99.031543 
659.000000	 99.002149 
658.000000	 98.977395 
657.000000	 98.966003 
656.000000	 98.956026 
655.000000	 98.940555 
654.000000	 98.926748 
653.000000	 98.920330 
652.000000	 98.917926 
651.000000	 98.918015 
650.000000	 98.924747 

