4000.000000	99.295895 
3999.000000	99.295000 
3998.000000	99.294095 
3997.000000	99.293899 
3996.000000	99.294443 
3995.000000	99.295151 
3994.000000	99.295503 
3993.000000	99.295477 
3992.000000	99.295295 
3991.000000	99.294938 
3990.000000	99.294054 
3989.000000	99.292363 
3988.000000	99.290081 
3987.000000	99.287917 
3986.000000	99.286613 
3985.000000	99.286522 
3984.000000	99.287466 
3983.000000	99.289000 
3982.000000	99.290772 
3981.000000	99.292602 
3980.000000	99.294342 
3979.000000	99.295832 
3978.000000	99.296990 
3977.000000	99.297789 
3976.000000	99.298131 
3975.000000	99.297786 
3974.000000	99.296533 
3973.000000	99.294435 
3972.000000	99.292018 
3971.000000	99.290155 
3970.000000	99.289571 
3969.000000	99.290373 
3968.000000	99.291987 
3967.000000	99.293507 
3966.000000	99.294275 
3965.000000	99.294189 
3964.000000	99.293587 
3963.000000	99.292997 
3962.000000	99.292817 
3961.000000	99.293057 
3960.000000	99.293341 
3959.000000	99.293267 
3958.000000	99.292795 
3957.000000	99.292278 
3956.000000	99.292098 
3955.000000	99.292271 
3954.000000	99.292479 
3953.000000	99.292417 
3952.000000	99.292046 
3951.000000	99.291521 
3950.000000	99.290978 
3949.000000	99.290493 
3948.000000	99.290163 
3947.000000	99.290124 
3946.000000	99.290434 
3945.000000	99.290963 
3944.000000	99.291388 
3943.000000	99.291379 
3942.000000	99.290856 
3941.000000	99.290031 
3940.000000	99.289207 
3939.000000	99.288637 
3938.000000	99.288476 
3937.000000	99.288733 
3936.000000	99.289231 
3935.000000	99.289682 
3934.000000	99.289901 
3933.000000	99.289941 
3932.000000	99.290048 
3931.000000	99.290464 
3930.000000	99.291154 
3929.000000	99.291711 
3928.000000	99.291559 
3927.000000	99.290445 
3926.000000	99.288829 
3925.000000	99.287577 
3924.000000	99.287228 
3923.000000	99.287492 
3922.000000	99.287495 
3921.000000	99.286681 
3920.000000	99.285312 
3919.000000	99.284080 
3918.000000	99.283340 
3917.000000	99.282891 
3916.000000	99.282484 
3915.000000	99.282190 
3914.000000	99.282148 
3913.000000	99.282216 
3912.000000	99.282012 
3911.000000	99.281377 
3910.000000	99.280636 
3909.000000	99.280427 
3908.000000	99.281352 
3907.000000	99.283627 
3906.000000	99.286893 
3905.000000	99.290102 
3904.000000	99.291925 
3903.000000	99.291685 
3902.000000	99.289462 
3901.000000	99.285851 
3900.000000	99.281894 
3899.000000	99.278623 
3898.000000	99.276670 
3897.000000	99.275898 
3896.000000	99.275769 
3895.000000	99.276174 
3894.000000	99.277428 
3893.000000	99.279553 
3892.000000	99.281913 
3891.000000	99.283991 
3890.000000	99.285866 
3889.000000	99.287386 
3888.000000	99.288265 
3887.000000	99.288541 
3886.000000	99.288246 
3885.000000	99.287490 
3884.000000	99.286690 
3883.000000	99.285895 
3882.000000	99.284793 
3881.000000	99.283399 
3880.000000	99.282278 
3879.000000	99.282094 
3878.000000	99.282734 
3877.000000	99.283498 
3876.000000	99.283960 
3875.000000	99.283939 
3874.000000	99.283329 
3873.000000	99.282248 
3872.000000	99.280838 
3871.000000	99.279193 
3870.000000	99.277771 
3869.000000	99.277603 
3868.000000	99.279115 
3867.000000	99.281342 
3866.000000	99.283099 
3865.000000	99.283772 
3864.000000	99.283448 
3863.000000	99.282899 
3862.000000	99.282790 
3861.000000	99.283038 
3860.000000	99.282903 
3859.000000	99.281267 
3858.000000	99.277520 
3857.000000	99.272721 
3856.000000	99.269876 
3855.000000	99.271425 
3854.000000	99.275180 
3853.000000	99.276727 
3852.000000	99.277264 
3851.000000	99.279308 
3850.000000	99.282172 
3849.000000	99.284809 
3848.000000	99.286846 
3847.000000	99.288315 
3846.000000	99.289307 
3845.000000	99.290105 
3844.000000	99.291199 
3843.000000	99.292665 
3842.000000	99.293748 
3841.000000	99.293856 
3840.000000	99.293275 
3839.000000	99.292647 
3838.000000	99.292213 
3837.000000	99.291598 
3836.000000	99.290328 
3835.000000	99.288255 
3834.000000	99.285850 
3833.000000	99.284175 
3832.000000	99.284030 
3831.000000	99.285198 
3830.000000	99.286636 
3829.000000	99.287190 
3828.000000	99.286525 
3827.000000	99.285413 
3826.000000	99.284893 
3825.000000	99.285479 
3824.000000	99.287281 
3823.000000	99.290069 
3822.000000	99.292337 
3821.000000	99.292308 
3820.000000	99.290936 
3819.000000	99.289743 
3818.000000	99.288335 
3817.000000	99.286441 
3816.000000	99.284365 
3815.000000	99.282554 
3814.000000	99.281352 
3813.000000	99.280476 
3812.000000	99.279493 
3811.000000	99.278582 
3810.000000	99.278411 
3809.000000	99.279561 
3808.000000	99.281906 
3807.000000	99.284453 
3806.000000	99.286351 
3805.000000	99.287146 
3804.000000	99.286514 
3803.000000	99.284841 
3802.000000	99.282441 
3801.000000	99.279453 
3800.000000	99.276981 
3799.000000	99.275223 
3798.000000	99.273165 
3797.000000	99.270701 
3796.000000	99.268564 
3795.000000	99.267443 
3794.000000	99.267690 
3793.000000	99.269425 
3792.000000	99.272321 
3791.000000	99.275375 
3790.000000	99.277434 
3789.000000	99.278303 
3788.000000	99.279041 
3787.000000	99.280828 
3786.000000	99.283771 
3785.000000	99.287062 
3784.000000	99.290088 
3783.000000	99.292809 
3782.000000	99.295117 
3781.000000	99.296239 
3780.000000	99.295109 
3779.000000	99.291633 
3778.000000	99.287261 
3777.000000	99.283759 
3776.000000	99.282102 
3775.000000	99.282482 
3774.000000	99.284480 
3773.000000	99.287208 
3772.000000	99.289692 
3771.000000	99.291075 
3770.000000	99.290900 
3769.000000	99.289638 
3768.000000	99.288168 
3767.000000	99.286936 
3766.000000	99.286201 
3765.000000	99.286246 
3764.000000	99.287150 
3763.000000	99.288754 
3762.000000	99.290846 
3761.000000	99.293251 
3760.000000	99.295437 
3759.000000	99.296815 
3758.000000	99.297382 
3757.000000	99.297231 
3756.000000	99.296205 
3755.000000	99.294534 
3754.000000	99.293458 
3753.000000	99.294531 
3752.000000	99.297278 
3751.000000	99.298621 
3750.000000	99.296749 
3749.000000	99.292821 
3748.000000	99.287581 
3747.000000	99.281241 
3746.000000	99.275773 
3745.000000	99.272824 
3744.000000	99.272245 
3743.000000	99.274226 
3742.000000	99.277761 
3741.000000	99.280547 
3740.000000	99.282226 
3739.000000	99.284400 
3738.000000	99.288203 
3737.000000	99.291980 
3736.000000	99.292455 
3735.000000	99.288220 
3734.000000	99.281434 
3733.000000	99.275635 
3732.000000	99.273182 
3731.000000	99.274375 
3730.000000	99.277237 
3729.000000	99.279388 
3728.000000	99.280442 
3727.000000	99.281793 
3726.000000	99.284454 
3725.000000	99.287621 
3724.000000	99.289128 
3723.000000	99.287055 
3722.000000	99.281567 
3721.000000	99.275291 
3720.000000	99.270927 
3719.000000	99.269163 
3718.000000	99.268601 
3717.000000	99.266737 
3716.000000	99.262081 
3715.000000	99.255353 
3714.000000	99.248560 
3713.000000	99.242555 
3712.000000	99.235803 
3711.000000	99.227498 
3710.000000	99.219777 
3709.000000	99.214617 
3708.000000	99.211504 
3707.000000	99.208537 
3706.000000	99.204150 
3705.000000	99.197949 
3704.000000	99.190447 
3703.000000	99.182466 
3702.000000	99.174858 
3701.000000	99.168707 
3700.000000	99.164497 
3699.000000	99.160915 
3698.000000	99.156019 
3697.000000	99.148948 
3696.000000	99.140495 
3695.000000	99.132693 
3694.000000	99.127178 
3693.000000	99.123872 
3692.000000	99.120974 
3691.000000	99.116042 
3690.000000	99.107750 
3689.000000	99.097772 
3688.000000	99.090057 
3687.000000	99.086199 
3686.000000	99.084450 
3685.000000	99.083193 
3684.000000	99.082571 
3683.000000	99.083268 
3682.000000	99.084879 
3681.000000	99.085510 
3680.000000	99.082848 
3679.000000	99.075601 
3678.000000	99.064588 
3677.000000	99.052696 
3676.000000	99.042887 
3675.000000	99.038212 
3674.000000	99.040034 
3673.000000	99.044409 
3672.000000	99.046747 
3671.000000	99.046087 
3670.000000	99.042524 
3669.000000	99.036904 
3668.000000	99.031264 
3667.000000	99.026370 
3666.000000	99.022391 
3665.000000	99.020147 
3664.000000	99.019961 
3663.000000	99.021218 
3662.000000	99.022965 
3661.000000	99.024642 
3660.000000	99.026461 
3659.000000	99.028992 
3658.000000	99.032330 
3657.000000	99.035623 
3656.000000	99.038167 
3655.000000	99.040781 
3654.000000	99.044560 
3653.000000	99.050028 
3652.000000	99.057578 
3651.000000	99.065701 
3650.000000	99.069611 
3649.000000	99.065970 
3648.000000	99.058272 
3647.000000	99.052914 
3646.000000	99.052351 
3645.000000	99.055194 
3644.000000	99.059164 
3643.000000	99.062940 
3642.000000	99.066153 
3641.000000	99.068948 
3640.000000	99.071945 
3639.000000	99.075985 
3638.000000	99.081423 
3637.000000	99.087427 
3636.000000	99.092252 
3635.000000	99.094530 
3634.000000	99.094313 
3633.000000	99.093033 
3632.000000	99.092558 
3631.000000	99.094280 
3630.000000	99.097727 
3629.000000	99.100239 
3628.000000	99.100605 
3627.000000	99.100525 
3626.000000	99.101210 
3625.000000	99.102787 
3624.000000	99.105129 
3623.000000	99.107721 
3622.000000	99.109969 
3621.000000	99.111656 
3620.000000	99.112964 
3619.000000	99.114379 
3618.000000	99.116571 
3617.000000	99.119701 
3616.000000	99.123202 
3615.000000	99.126289 
3614.000000	99.128323 
3613.000000	99.129096 
3612.000000	99.129036 
3611.000000	99.128904 
3610.000000	99.129351 
3609.000000	99.130561 
3608.000000	99.132122 
3607.000000	99.133576 
3606.000000	99.134861 
3605.000000	99.136264 
3604.000000	99.138196 
3603.000000	99.140663 
3602.000000	99.143215 
3601.000000	99.145528 
3600.000000	99.147885 
3599.000000	99.150817 
3598.000000	99.154304 
3597.000000	99.157451 
3596.000000	99.159136 
3595.000000	99.158887 
3594.000000	99.157486 
3593.000000	99.156810 
3592.000000	99.158407 
3591.000000	99.162362 
3590.000000	99.167136 
3589.000000	99.170059 
3588.000000	99.168913 
3587.000000	99.164307 
3586.000000	99.159434 
3585.000000	99.156619 
3584.000000	99.155814 
3583.000000	99.156077 
3582.000000	99.156557 
3581.000000	99.156611 
3580.000000	99.155824 
3579.000000	99.154179 
3578.000000	99.152084 
3577.000000	99.150221 
3576.000000	99.149204 
3575.000000	99.149299 
3574.000000	99.150291 
3573.000000	99.151742 
3572.000000	99.153304 
3571.000000	99.154713 
3570.000000	99.155647 
3569.000000	99.155574 
3568.000000	99.153908 
3567.000000	99.150990 
3566.000000	99.148484 
3565.000000	99.147538 
3564.000000	99.147560 
3563.000000	99.147383 
3562.000000	99.146503 
3561.000000	99.145210 
3560.000000	99.144003 
3559.000000	99.143123 
3558.000000	99.142529 
3557.000000	99.142173 
3556.000000	99.142099 
3555.000000	99.142295 
3554.000000	99.142566 
3553.000000	99.142632 
3552.000000	99.142336 
3551.000000	99.141685 
3550.000000	99.140780 
3549.000000	99.139883 
3548.000000	99.139340 
3547.000000	99.139277 
3546.000000	99.139504 
3545.000000	99.139735 
3544.000000	99.139820 
3543.000000	99.139772 
3542.000000	99.139614 
3541.000000	99.139325 
3540.000000	99.138898 
3539.000000	99.138414 
3538.000000	99.137999 
3537.000000	99.137719 
3536.000000	99.137546 
3535.000000	99.137376 
3534.000000	99.137108 
3533.000000	99.136725 
3532.000000	99.136284 
3531.000000	99.135858 
3530.000000	99.135492 
3529.000000	99.135228 
3528.000000	99.135111 
3527.000000	99.135127 
3526.000000	99.135140 
3525.000000	99.134951 
3524.000000	99.134475 
3523.000000	99.133809 
3522.000000	99.133170 
3521.000000	99.132697 
3520.000000	99.132377 
3519.000000	99.132123 
3518.000000	99.131891 
3517.000000	99.131692 
3516.000000	99.131543 
3515.000000	99.131432 
3514.000000	99.131327 
3513.000000	99.131196 
3512.000000	99.130990 
3511.000000	99.130662 
3510.000000	99.130223 
3509.000000	99.129751 
3508.000000	99.129326 
3507.000000	99.128949 
3506.000000	99.128552 
3505.000000	99.128078 
3504.000000	99.127528 
3503.000000	99.126959 
3502.000000	99.126452 
3501.000000	99.126044 
3500.000000	99.125719 
3499.000000	99.125411 
3498.000000	99.125029 
3497.000000	99.124525 
3496.000000	99.123918 
3495.000000	99.123301 
3494.000000	99.122742 
3493.000000	99.122225 
3492.000000	99.121679 
3491.000000	99.121068 
3490.000000	99.120455 
3489.000000	99.119950 
3488.000000	99.119610 
3487.000000	99.119379 
3486.000000	99.119127 
3485.000000	99.118763 
3484.000000	99.118310 
3483.000000	99.117866 
3482.000000	99.117476 
3481.000000	99.117063 
3480.000000	99.116504 
3479.000000	99.115786 
3478.000000	99.115038 
3477.000000	99.114383 
3476.000000	99.113792 
3475.000000	99.113127 
3474.000000	99.112372 
3473.000000	99.111742 
3472.000000	99.111487 
3471.000000	99.111610 
3470.000000	99.111814 
3469.000000	99.111771 
3468.000000	99.111365 
3467.000000	99.110645 
3466.000000	99.109675 
3465.000000	99.108516 
3464.000000	99.107330 
3463.000000	99.106327 
3462.000000	99.105558 
3461.000000	99.104815 
3460.000000	99.103831 
3459.000000	99.102623 
3458.000000	99.101615 
3457.000000	99.101241 
3456.000000	99.101485 
3455.000000	99.101843 
3454.000000	99.101811 
3453.000000	99.101420 
3452.000000	99.101100 
3451.000000	99.101144 
3450.000000	99.101426 
3449.000000	99.101598 
3448.000000	99.101395 
3447.000000	99.100750 
3446.000000	99.099771 
3445.000000	99.098706 
3444.000000	99.097832 
3443.000000	99.097254 
3442.000000	99.096849 
3441.000000	99.096435 
3440.000000	99.095967 
3439.000000	99.095498 
3438.000000	99.095029 
3437.000000	99.094498 
3436.000000	99.093918 
3435.000000	99.093435 
3434.000000	99.093248 
3433.000000	99.093450 
3432.000000	99.093893 
3431.000000	99.094186 
3430.000000	99.093924 
3429.000000	99.092989 
3428.000000	99.091634 
3427.000000	99.090280 
3426.000000	99.089234 
3425.000000	99.088612 
3424.000000	99.088398 
3423.000000	99.088461 
3422.000000	99.088549 
3421.000000	99.088406 
3420.000000	99.087950 
3419.000000	99.087329 
3418.000000	99.086796 
3417.000000	99.086511 
3416.000000	99.086396 
3415.000000	99.086183 
3414.000000	99.085622 
3413.000000	99.084719 
3412.000000	99.083772 
3411.000000	99.083141 
3410.000000	99.082963 
3409.000000	99.083132 
3408.000000	99.083429 
3407.000000	99.083626 
3406.000000	99.083551 
3405.000000	99.083198 
3404.000000	99.082823 
3403.000000	99.082789 
3402.000000	99.083262 
3401.000000	99.084040 
3400.000000	99.084690 
3399.000000	99.084905 
3398.000000	99.084709 
3397.000000	99.084371 
3396.000000	99.084119 
3395.000000	99.083950 
3394.000000	99.083766 
3393.000000	99.083590 
3392.000000	99.083565 
3391.000000	99.083721 
3390.000000	99.083896 
3389.000000	99.083930 
3388.000000	99.083848 
3387.000000	99.083797 
3386.000000	99.083849 
3385.000000	99.083958 
3384.000000	99.084078 
3383.000000	99.084260 
3382.000000	99.084587 
3381.000000	99.085030 
3380.000000	99.085399 
3379.000000	99.085462 
3378.000000	99.085174 
3377.000000	99.084811 
3376.000000	99.084800 
3375.000000	99.085370 
3374.000000	99.086410 
3373.000000	99.087571 
3372.000000	99.088497 
3371.000000	99.088993 
3370.000000	99.089053 
3369.000000	99.088869 
3368.000000	99.088697 
3367.000000	99.088627 
3366.000000	99.088495 
3365.000000	99.088123 
3364.000000	99.087598 
3363.000000	99.087265 
3362.000000	99.087378 
3361.000000	99.087835 
3360.000000	99.088253 
3359.000000	99.088317 
3358.000000	99.088112 
3357.000000	99.088092 
3356.000000	99.088651 
3355.000000	99.089699 
3354.000000	99.090727 
3353.000000	99.091315 
3352.000000	99.091513 
3351.000000	99.091711 
3350.000000	99.092240 
3349.000000	99.093138 
3348.000000	99.094189 
3347.000000	99.095056 
3346.000000	99.095464 
3345.000000	99.095388 
3344.000000	99.095092 
3343.000000	99.094930 
3342.000000	99.095054 
3341.000000	99.095359 
3340.000000	99.095679 
3339.000000	99.095931 
3338.000000	99.096077 
3337.000000	99.096067 
3336.000000	99.095916 
3335.000000	99.095807 
3334.000000	99.096005 
3333.000000	99.096625 
3332.000000	99.097498 
3331.000000	99.098283 
3330.000000	99.098786 
3329.000000	99.099120 
3328.000000	99.099555 
3327.000000	99.100227 
3326.000000	99.101010 
3325.000000	99.101679 
3324.000000	99.102149 
3323.000000	99.102539 
3322.000000	99.103004 
3321.000000	99.103545 
3320.000000	99.104011 
3319.000000	99.104285 
3318.000000	99.104424 
3317.000000	99.104629 
3316.000000	99.105058 
3315.000000	99.105693 
3314.000000	99.106354 
3313.000000	99.106845 
3312.000000	99.107110 
3311.000000	99.107243 
3310.000000	99.107407 
3309.000000	99.107729 
3308.000000	99.108235 
3307.000000	99.108843 
3306.000000	99.109403 
3305.000000	99.109790 
3304.000000	99.109978 
3303.000000	99.110047 
3302.000000	99.110167 
3301.000000	99.110533 
3300.000000	99.111233 
3299.000000	99.112138 
3298.000000	99.112968 
3297.000000	99.113551 
3296.000000	99.113952 
3295.000000	99.114365 
3294.000000	99.114900 
3293.000000	99.115543 
3292.000000	99.116229 
3291.000000	99.116854 
3290.000000	99.117227 
3289.000000	99.117160 
3288.000000	99.116643 
3287.000000	99.115952 
3286.000000	99.115488 
3285.000000	99.115466 
3284.000000	99.115759 
3283.000000	99.116043 
3282.000000	99.116141 
3281.000000	99.116172 
3280.000000	99.116320 
3279.000000	99.116572 
3278.000000	99.116767 
3277.000000	99.116871 
3276.000000	99.117039 
3275.000000	99.117406 
3274.000000	99.117910 
3273.000000	99.118346 
3272.000000	99.118496 
3271.000000	99.118202 
3270.000000	99.117448 
3269.000000	99.116532 
3268.000000	99.116001 
3267.000000	99.116198 
3266.000000	99.117018 
3265.000000	99.118021 
3264.000000	99.118815 
3263.000000	99.119317 
3262.000000	99.119633 
3261.000000	99.119883 
3260.000000	99.120130 
3259.000000	99.120369 
3258.000000	99.120543 
3257.000000	99.120576 
3256.000000	99.120439 
3255.000000	99.120207 
3254.000000	99.120058 
3253.000000	99.120169 
3252.000000	99.120573 
3251.000000	99.121117 
3250.000000	99.121574 
3249.000000	99.121839 
3248.000000	99.121972 
3247.000000	99.122100 
3246.000000	99.122286 
3245.000000	99.122504 
3244.000000	99.122710 
3243.000000	99.122929 
3242.000000	99.123270 
3241.000000	99.123861 
3240.000000	99.124710 
3239.000000	99.125598 
3238.000000	99.126201 
3237.000000	99.126385 
3236.000000	99.126334 
3235.000000	99.126364 
3234.000000	99.126591 
3233.000000	99.126904 
3232.000000	99.127214 
3231.000000	99.127601 
3230.000000	99.128208 
3229.000000	99.129027 
3228.000000	99.129808 
3227.000000	99.130202 
3226.000000	99.130009 
3225.000000	99.129356 
3224.000000	99.128719 
3223.000000	99.128579 
3222.000000	99.129066 
3221.000000	99.129976 
3220.000000	99.131026 
3219.000000	99.132064 
3218.000000	99.132996 
3217.000000	99.133700 
3216.000000	99.134131 
3215.000000	99.134408 
3214.000000	99.134696 
3213.000000	99.135037 
3212.000000	99.135388 
3211.000000	99.135809 
3210.000000	99.136500 
3209.000000	99.137570 
3208.000000	99.138812 
3207.000000	99.139775 
3206.000000	99.140156 
3205.000000	99.140124 
3204.000000	99.140240 
3203.000000	99.140999 
3202.000000	99.142459 
3201.000000	99.144274 
3200.000000	99.145954 
3199.000000	99.147076 
3198.000000	99.147386 
3197.000000	99.146999 
3196.000000	99.146488 
3195.000000	99.146497 
3194.000000	99.147111 
3193.000000	99.147736 
3192.000000	99.147745 
3191.000000	99.147218 
3190.000000	99.146900 
3189.000000	99.147424 
3188.000000	99.148698 
3187.000000	99.150058 
3186.000000	99.150896 
3185.000000	99.151081 
3184.000000	99.150828 
3183.000000	99.150400 
3182.000000	99.149969 
3181.000000	99.149674 
3180.000000	99.149677 
3179.000000	99.150095 
3178.000000	99.150913 
3177.000000	99.151893 
3176.000000	99.152584 
3175.000000	99.152651 
3174.000000	99.152362 
3173.000000	99.152552 
3172.000000	99.153810 
3171.000000	99.155773 
3170.000000	99.157440 
3169.000000	99.158310 
3168.000000	99.158879 
3167.000000	99.159906 
3166.000000	99.161463 
3165.000000	99.162973 
3164.000000	99.163971 
3163.000000	99.164476 
3162.000000	99.164687 
3161.000000	99.164725 
3160.000000	99.164818 
3159.000000	99.165379 
3158.000000	99.166634 
3157.000000	99.168275 
3156.000000	99.169640 
3155.000000	99.170298 
3154.000000	99.170376 
3153.000000	99.170363 
3152.000000	99.170614 
3151.000000	99.171042 
3150.000000	99.171275 
3149.000000	99.171102 
3148.000000	99.170742 
3147.000000	99.170629 
3146.000000	99.170978 
3145.000000	99.171610 
3144.000000	99.172245 
3143.000000	99.172923 
3142.000000	99.173999 
3141.000000	99.175683 
3140.000000	99.177617 
3139.000000	99.179074 
3138.000000	99.179633 
3137.000000	99.179550 
3136.000000	99.179431 
3135.000000	99.179560 
3134.000000	99.179719 
3133.000000	99.179628 
3132.000000	99.179333 
3131.000000	99.179090 
3130.000000	99.179061 
3129.000000	99.179225 
3128.000000	99.179512 
3127.000000	99.179926 
3126.000000	99.180528 
3125.000000	99.181361 
3124.000000	99.182368 
3123.000000	99.183314 
3122.000000	99.183912 
3121.000000	99.184096 
3120.000000	99.184150 
3119.000000	99.184463 
3118.000000	99.185123 
3117.000000	99.185837 
3116.000000	99.186270 
3115.000000	99.186403 
3114.000000	99.186446 
3113.000000	99.186537 
3112.000000	99.186642 
3111.000000	99.186741 
3110.000000	99.186923 
3109.000000	99.187253 
3108.000000	99.187618 
3107.000000	99.187819 
3106.000000	99.187813 
3105.000000	99.187801 
3104.000000	99.188024 
3103.000000	99.188559 
3102.000000	99.189316 
3101.000000	99.190150 
3100.000000	99.190897 
3099.000000	99.191385 
3098.000000	99.191508 
3097.000000	99.191320 
3096.000000	99.191070 
3095.000000	99.191067 
3094.000000	99.191500 
3093.000000	99.192327 
3092.000000	99.193270 
3091.000000	99.193910 
3090.000000	99.193885 
3089.000000	99.193340 
3088.000000	99.193213 
3087.000000	99.194565 
3086.000000	99.197324 
3085.000000	99.200021 
3084.000000	99.201188 
3083.000000	99.200744 
3082.000000	99.199818 
3081.000000	99.199509 
3080.000000	99.200101 
3079.000000	99.201186 
3078.000000	99.201910 
3077.000000	99.201202 
3076.000000	99.198540 
3075.000000	99.194867 
3074.000000	99.192205 
3073.000000	99.191854 
3072.000000	99.193259 
3071.000000	99.195062 
3070.000000	99.196775 
3069.000000	99.198562 
3068.000000	99.199635 
3067.000000	99.198215 
3066.000000	99.193747 
3065.000000	99.188300 
3064.000000	99.184822 
3063.000000	99.184328 
3062.000000	99.185589 
3061.000000	99.187138 
3060.000000	99.188595 
3059.000000	99.190157 
3058.000000	99.191865 
3057.000000	99.193716 
3056.000000	99.195829 
3055.000000	99.198069 
3054.000000	99.199901 
3053.000000	99.200802 
3052.000000	99.200475 
3051.000000	99.198722 
3050.000000	99.195569 
3049.000000	99.191530 
3048.000000	99.187056 
3047.000000	99.181686 
3046.000000	99.174617 
3045.000000	99.166459 
3044.000000	99.159524 
3043.000000	99.155625 
3042.000000	99.154078 
3041.000000	99.152578 
3040.000000	99.149744 
3039.000000	99.146107 
3038.000000	99.142853 
3037.000000	99.140240 
3036.000000	99.137292 
3035.000000	99.132643 
3034.000000	99.125644 
3033.000000	99.116692 
3032.000000	99.106502 
3031.000000	99.095297 
3030.000000	99.082620 
3029.000000	99.067927 
3028.000000	99.051590 
3027.000000	99.035281 
3026.000000	99.021146 
3025.000000	99.010173 
3024.000000	99.001016 
3023.000000	98.990592 
3022.000000	98.976423 
3021.000000	98.958677 
3020.000000	98.939937 
3019.000000	98.923058 
3018.000000	98.909317 
3017.000000	98.898002 
3016.000000	98.886877 
3015.000000	98.873183 
3014.000000	98.855352 
3013.000000	98.834301 
3012.000000	98.812361 
3011.000000	98.790519 
3010.000000	98.767510 
3009.000000	98.742192 
3008.000000	98.715968 
3007.000000	98.691944 
3006.000000	98.672035 
3005.000000	98.655563 
3004.000000	98.640132 
3003.000000	98.623039 
3002.000000	98.602498 
3001.000000	98.579048 
3000.000000	98.555906 
2999.000000	98.536644 
2998.000000	98.522094 
2997.000000	98.510460 
2996.000000	98.500356 
2995.000000	98.491589 
2994.000000	98.481646 
2993.000000	98.463687 
2992.000000	98.431786 
2991.000000	98.389052 
2990.000000	98.348159 
2989.000000	98.321669 
2988.000000	98.312745 
2987.000000	98.315774 
2986.000000	98.323879 
2985.000000	98.333948 
2984.000000	98.344923 
2983.000000	98.354603 
2982.000000	98.360340 
2981.000000	98.361760 
2980.000000	98.360985 
2979.000000	98.360110 
2978.000000	98.359415 
2977.000000	98.357953 
2976.000000	98.355002 
2975.000000	98.350788 
2974.000000	98.346430 
2973.000000	98.343406 
2972.000000	98.342764 
2971.000000	98.344752 
2970.000000	98.349345 
2969.000000	98.356899 
2968.000000	98.367845 
2967.000000	98.381895 
2966.000000	98.397951 
2965.000000	98.414741 
2964.000000	98.431243 
2963.000000	98.446709 
2962.000000	98.460830 
2961.000000	98.473858 
2960.000000	98.486129 
2959.000000	98.497557 
2958.000000	98.508031 
2957.000000	98.518056 
2956.000000	98.528119 
2955.000000	98.537479 
2954.000000	98.544701 
2953.000000	98.550152 
2952.000000	98.557114 
2951.000000	98.569096 
2950.000000	98.585722 
2949.000000	98.602053 
2948.000000	98.612708 
2947.000000	98.616414 
2946.000000	98.616513 
2945.000000	98.617615 
2944.000000	98.622022 
2943.000000	98.629234 
2942.000000	98.637716 
2941.000000	98.645849 
2940.000000	98.651654 
2939.000000	98.653466 
2938.000000	98.651742 
2937.000000	98.649388 
2936.000000	98.649448 
2935.000000	98.652640 
2934.000000	98.657468 
2933.000000	98.662064 
2932.000000	98.665165 
2931.000000	98.665830 
2930.000000	98.663455 
2929.000000	98.658392 
2928.000000	98.652017 
2927.000000	98.645959 
2926.000000	98.641398 
2925.000000	98.638729 
2924.000000	98.637328 
2923.000000	98.635840 
2922.000000	98.633344 
2921.000000	98.630172 
2920.000000	98.627108 
2919.000000	98.624082 
2918.000000	98.620297 
2917.000000	98.615378 
2916.000000	98.609574 
2915.000000	98.603048 
2914.000000	98.596016 
2913.000000	98.589705 
2912.000000	98.585924 
2911.000000	98.584944 
2910.000000	98.584489 
2909.000000	98.581645 
2908.000000	98.575617 
2907.000000	98.567964 
2906.000000	98.560161 
2905.000000	98.551495 
2904.000000	98.539907 
2903.000000	98.525328 
2902.000000	98.512255 
2901.000000	98.507941 
2900.000000	98.517030 
2899.000000	98.537402 
2898.000000	98.560869 
2897.000000	98.579085 
2896.000000	98.589235 
2895.000000	98.594394 
2894.000000	98.599217 
2893.000000	98.605692 
2892.000000	98.612510 
2891.000000	98.617563 
2890.000000	98.620437 
2889.000000	98.622398 
2888.000000	98.624574 
2887.000000	98.627017 
2886.000000	98.629802 
2885.000000	98.634219 
2884.000000	98.641938 
2883.000000	98.653234 
2882.000000	98.666833 
2881.000000	98.681502 
2880.000000	98.697033 
2879.000000	98.713573 
2878.000000	98.730728 
2877.000000	98.747524 
2876.000000	98.762603 
2875.000000	98.774289 
2874.000000	98.781384 
2873.000000	98.784644 
2872.000000	98.787051 
2871.000000	98.791875 
2870.000000	98.800427 
2869.000000	98.811831 
2868.000000	98.824593 
2867.000000	98.838019 
2866.000000	98.852444 
2865.000000	98.868613 
2864.000000	98.886672 
2863.000000	98.905268 
2862.000000	98.921841 
2861.000000	98.934542 
2860.000000	98.944213 
2859.000000	98.954009 
2858.000000	98.966484 
2857.000000	98.981115 
2856.000000	98.995119 
2855.000000	99.006640 
2854.000000	99.016425 
2853.000000	99.026148 
2852.000000	99.035718 
2851.000000	99.043360 
2850.000000	99.048455 
2849.000000	99.052998 
2848.000000	99.059490 
2847.000000	99.068088 
2846.000000	99.076659 
2845.000000	99.083177 
2844.000000	99.087346 
2843.000000	99.090455 
2842.000000	99.094622 
2841.000000	99.101654 
2840.000000	99.111385 
2839.000000	99.121004 
2838.000000	99.127106 
2837.000000	99.128691 
2836.000000	99.127675 
2835.000000	99.126769 
2834.000000	99.127642 
2833.000000	99.130924 
2832.000000	99.136453 
2831.000000	99.142907 
2830.000000	99.148333 
2829.000000	99.151973 
2828.000000	99.155096 
2827.000000	99.159432 
2826.000000	99.165070 
2825.000000	99.170283 
2824.000000	99.173167 
2823.000000	99.173308 
2822.000000	99.172289 
2821.000000	99.172632 
2820.000000	99.175662 
2819.000000	99.180308 
2818.000000	99.184521 
2817.000000	99.187700 
2816.000000	99.190866 
2815.000000	99.194506 
2814.000000	99.197502 
2813.000000	99.198630 
2812.000000	99.198029 
2811.000000	99.196564 
2810.000000	99.194685 
2809.000000	99.192728 
2808.000000	99.191579 
2807.000000	99.192032 
2806.000000	99.193800 
2805.000000	99.195919 
2804.000000	99.197924 
2803.000000	99.200046 
2802.000000	99.202455 
2801.000000	99.204823 
2800.000000	99.206548 
2799.000000	99.207132 
2798.000000	99.206620 
2797.000000	99.205923 
2796.000000	99.206292 
2795.000000	99.208099 
2794.000000	99.210385 
2793.000000	99.211866 
2792.000000	99.212110 
2791.000000	99.211533 
2790.000000	99.210816 
2789.000000	99.210683 
2788.000000	99.211768 
2787.000000	99.214079 
2786.000000	99.216755 
2785.000000	99.218838 
2784.000000	99.220218 
2783.000000	99.221392 
2782.000000	99.222529 
2781.000000	99.223277 
2780.000000	99.223470 
2779.000000	99.223508 
2778.000000	99.223886 
2777.000000	99.224636 
2776.000000	99.225397 
2775.000000	99.225876 
2774.000000	99.226093 
2773.000000	99.226286 
2772.000000	99.226696 
2771.000000	99.227410 
2770.000000	99.228363 
2769.000000	99.229465 
2768.000000	99.230692 
2767.000000	99.232037 
2766.000000	99.233383 
2765.000000	99.234526 
2764.000000	99.235342 
2763.000000	99.235877 
2762.000000	99.236270 
2761.000000	99.236683 
2760.000000	99.237290 
2759.000000	99.238198 
2758.000000	99.239283 
2757.000000	99.240222 
2756.000000	99.240825 
2755.000000	99.241286 
2754.000000	99.241965 
2753.000000	99.242923 
2752.000000	99.243816 
2751.000000	99.244328 
2750.000000	99.244556 
2749.000000	99.244888 
2748.000000	99.245523 
2747.000000	99.246259 
2746.000000	99.246772 
2745.000000	99.246974 
2744.000000	99.247074 
2743.000000	99.247341 
2742.000000	99.247904 
2741.000000	99.248744 
2740.000000	99.249759 
2739.000000	99.250818 
2738.000000	99.251788 
2737.000000	99.252583 
2736.000000	99.253198 
2735.000000	99.253692 
2734.000000	99.254126 
2733.000000	99.254527 
2732.000000	99.254900 
2731.000000	99.255273 
2730.000000	99.255718 
2729.000000	99.256283 
2728.000000	99.256956 
2727.000000	99.257683 
2726.000000	99.258393 
2725.000000	99.259020 
2724.000000	99.259522 
2723.000000	99.259922 
2722.000000	99.260307 
2721.000000	99.260746 
2720.000000	99.261226 
2719.000000	99.261688 
2718.000000	99.262104 
2717.000000	99.262499 
2716.000000	99.262914 
2715.000000	99.263360 
2714.000000	99.263835 
2713.000000	99.264326 
2712.000000	99.264802 
2711.000000	99.265212 
2710.000000	99.265548 
2709.000000	99.265851 
2708.000000	99.266174 
2707.000000	99.266524 
2706.000000	99.266840 
2705.000000	99.267058 
2704.000000	99.267185 
2703.000000	99.267311 
2702.000000	99.267512 
2701.000000	99.267788 
2700.000000	99.268068 
2699.000000	99.268267 
2698.000000	99.268351 
2697.000000	99.268360 
2696.000000	99.268371 
2695.000000	99.268446 
2694.000000	99.268631 
2693.000000	99.268946 
2692.000000	99.269301 
2691.000000	99.269489 
2690.000000	99.269384 
2689.000000	99.269177 
2688.000000	99.269265 
2687.000000	99.269821 
2686.000000	99.270549 
2685.000000	99.270950 
2684.000000	99.270833 
2683.000000	99.270416 
2682.000000	99.270060 
2681.000000	99.269997 
2680.000000	99.270236 
2679.000000	99.270572 
2678.000000	99.270708 
2677.000000	99.270546 
2676.000000	99.270315 
2675.000000	99.270307 
2674.000000	99.270529 
2673.000000	99.270717 
2672.000000	99.270604 
2671.000000	99.270039 
2670.000000	99.268947 
2669.000000	99.267341 
2668.000000	99.265454 
2667.000000	99.263788 
2666.000000	99.262952 
2665.000000	99.263330 
2664.000000	99.264779 
2663.000000	99.266638 
2662.000000	99.268221 
2661.000000	99.269327 
2660.000000	99.270084 
2659.000000	99.270452 
2658.000000	99.270175 
2657.000000	99.269246 
2656.000000	99.268129 
2655.000000	99.267377 
2654.000000	99.267176 
2653.000000	99.267333 
2652.000000	99.267464 
2651.000000	99.267181 
2650.000000	99.266416 
2649.000000	99.265618 
2648.000000	99.265349 
2647.000000	99.265594 
2646.000000	99.265847 
2645.000000	99.265957 
2644.000000	99.266411 
2643.000000	99.267556 
2642.000000	99.269016 
2641.000000	99.270122 
2640.000000	99.270690 
2639.000000	99.270960 
2638.000000	99.271124 
2637.000000	99.271237 
2636.000000	99.271269 
2635.000000	99.271027 
2634.000000	99.270358 
2633.000000	99.269624 
2632.000000	99.269565 
2631.000000	99.270435 
2630.000000	99.271717 
2629.000000	99.272781 
2628.000000	99.273536 
2627.000000	99.274174 
2626.000000	99.274649 
2625.000000	99.274840 
2624.000000	99.274921 
2623.000000	99.275187 
2622.000000	99.275640 
2621.000000	99.276049 
2620.000000	99.276333 
2619.000000	99.276621 
2618.000000	99.276951 
2617.000000	99.277163 
2616.000000	99.277156 
2615.000000	99.277077 
2614.000000	99.277159 
2613.000000	99.277476 
2612.000000	99.277931 
2611.000000	99.278402 
2610.000000	99.278847 
2609.000000	99.279329 
2608.000000	99.279928 
2607.000000	99.280599 
2606.000000	99.281152 
2605.000000	99.281447 
2604.000000	99.281521 
2603.000000	99.281427 
2602.000000	99.281098 
2601.000000	99.280530 
2600.000000	99.279990 
2599.000000	99.279832 
2598.000000	99.280133 
2597.000000	99.280651 
2596.000000	99.281054 
2595.000000	99.281152 
2594.000000	99.280922 
2593.000000	99.280452 
2592.000000	99.279963 
2591.000000	99.279715 
2590.000000	99.279799 
2589.000000	99.280103 
2588.000000	99.280452 
2587.000000	99.280742 
2586.000000	99.280886 
2585.000000	99.280759 
2584.000000	99.280308 
2583.000000	99.279678 
2582.000000	99.279156 
2581.000000	99.278933 
2580.000000	99.278973 
2579.000000	99.279094 
2578.000000	99.279139 
2577.000000	99.279109 
2576.000000	99.279129 
2575.000000	99.279301 
2574.000000	99.279593 
2573.000000	99.279869 
2572.000000	99.280016 
2571.000000	99.280037 
2570.000000	99.280006 
2569.000000	99.279988 
2568.000000	99.280011 
2567.000000	99.280092 
2566.000000	99.280247 
2565.000000	99.280471 
2564.000000	99.280732 
2563.000000	99.281002 
2562.000000	99.281266 
2561.000000	99.281528 
2560.000000	99.281810 
2559.000000	99.282144 
2558.000000	99.282549 
2557.000000	99.282985 
2556.000000	99.283354 
2555.000000	99.283603 
2554.000000	99.283812 
2553.000000	99.284134 
2552.000000	99.284634 
2551.000000	99.285199 
2550.000000	99.285652 
2549.000000	99.285954 
2548.000000	99.286206 
2547.000000	99.286469 
2546.000000	99.286682 
2545.000000	99.286818 
2544.000000	99.286997 
2543.000000	99.287363 
2542.000000	99.287918 
2541.000000	99.288518 
2540.000000	99.289035 
2539.000000	99.289457 
2538.000000	99.289819 
2537.000000	99.290081 
2536.000000	99.290126 
2535.000000	99.289903 
2534.000000	99.289604 
2533.000000	99.289622 
2532.000000	99.290195 
2531.000000	99.291152 
2530.000000	99.292045 
2529.000000	99.292645 
2528.000000	99.293085 
2527.000000	99.293540 
2526.000000	99.294017 
2525.000000	99.294550 
2524.000000	99.295298 
2523.000000	99.296195 
2522.000000	99.296739 
2521.000000	99.296514 
2520.000000	99.295745 
2519.000000	99.295126 
2518.000000	99.295052 
2517.000000	99.295304 
2516.000000	99.295428 
2515.000000	99.295224 
2514.000000	99.294880 
2513.000000	99.294753 
2512.000000	99.294982 
2511.000000	99.295234 
2510.000000	99.294980 
2509.000000	99.294135 
2508.000000	99.293286 
2507.000000	99.293064 
2506.000000	99.293418 
2505.000000	99.293714 
2504.000000	99.293504 
2503.000000	99.292920 
2502.000000	99.292342 
2501.000000	99.291977 
2500.000000	99.291867 
2499.000000	99.292100 
2498.000000	99.292800 
2497.000000	99.293914 
2496.000000	99.295073 
2495.000000	99.295751 
2494.000000	99.295639 
2493.000000	99.294856 
2492.000000	99.293833 
2491.000000	99.292929 
2490.000000	99.292237 
2489.000000	99.291744 
2488.000000	99.291451 
2487.000000	99.291303 
2486.000000	99.291184 
2485.000000	99.291102 
2484.000000	99.291233 
2483.000000	99.291646 
2482.000000	99.292102 
2481.000000	99.292266 
2480.000000	99.292050 
2479.000000	99.291619 
2478.000000	99.291142 
2477.000000	99.290658 
2476.000000	99.290177 
2475.000000	99.289780 
2474.000000	99.289554 
2473.000000	99.289537 
2472.000000	99.289734 
2471.000000	99.290129 
2470.000000	99.290657 
2469.000000	99.291151 
2468.000000	99.291373 
2467.000000	99.291118 
2466.000000	99.290401 
2465.000000	99.289600 
2464.000000	99.289218 
2463.000000	99.289413 
2462.000000	99.289847 
2461.000000	99.290018 
2460.000000	99.289790 
2459.000000	99.289417 
2458.000000	99.289181 
2457.000000	99.289126 
2456.000000	99.289109 
2455.000000	99.288961 
2454.000000	99.288584 
2453.000000	99.288009 
2452.000000	99.287400 
2451.000000	99.286922 
2450.000000	99.286597 
2449.000000	99.286366 
2448.000000	99.286246 
2447.000000	99.286307 
2446.000000	99.286543 
2445.000000	99.286888 
2444.000000	99.287302 
2443.000000	99.287718 
2442.000000	99.287958 
2441.000000	99.287884 
2440.000000	99.287604 
2439.000000	99.287379 
2438.000000	99.287303 
2437.000000	99.287235 
2436.000000	99.287039 
2435.000000	99.286692 
2434.000000	99.286126 
2433.000000	99.285203 
2432.000000	99.284007 
2431.000000	99.283011 
2430.000000	99.282694 
2429.000000	99.283090 
2428.000000	99.283839 
2427.000000	99.284660 
2426.000000	99.285549 
2425.000000	99.286423 
2424.000000	99.286866 
2423.000000	99.286468 
2422.000000	99.285308 
2421.000000	99.284053 
2420.000000	99.283450 
2419.000000	99.283707 
2418.000000	99.284515 
2417.000000	99.285369 
2416.000000	99.285915 
2415.000000	99.286035 
2414.000000	99.285816 
2413.000000	99.285516 
2412.000000	99.285396 
2411.000000	99.285500 
2410.000000	99.285705 
2409.000000	99.285989 
2408.000000	99.286513 
2407.000000	99.287370 
2406.000000	99.288381 
2405.000000	99.289255 
2404.000000	99.289870 
2403.000000	99.290205 
2402.000000	99.290216 
2401.000000	99.289935 
2400.000000	99.289576 
2399.000000	99.289399 
2398.000000	99.289486 
2397.000000	99.289785 
2396.000000	99.290272 
2395.000000	99.290980 
2394.000000	99.291909 
2393.000000	99.293004 
2392.000000	99.294180 
2391.000000	99.295348 
2390.000000	99.296441 
2389.000000	99.297468 
2388.000000	99.298463 
2387.000000	99.299373 
2386.000000	99.300076 
2385.000000	99.300542 
2384.000000	99.300891 
2383.000000	99.301270 
2382.000000	99.301752 
2381.000000	99.302357 
2380.000000	99.303084 
2379.000000	99.303848 
2378.000000	99.304477 
2377.000000	99.304882 
2376.000000	99.305189 
2375.000000	99.305615 
2374.000000	99.306226 
2373.000000	99.306906 
2372.000000	99.307535 
2371.000000	99.308122 
2370.000000	99.308731 
2369.000000	99.309334 
2368.000000	99.309791 
2367.000000	99.310011 
2366.000000	99.310055 
2365.000000	99.310055 
2364.000000	99.310123 
2363.000000	99.310267 
2362.000000	99.310448 
2361.000000	99.310605 
2360.000000	99.310701 
2359.000000	99.310746 
2358.000000	99.310771 
2357.000000	99.310799 
2356.000000	99.310826 
2355.000000	99.310824 
2354.000000	99.310752 
2353.000000	99.310597 
2352.000000	99.310392 
2351.000000	99.310181 
2350.000000	99.309983 
2349.000000	99.309786 
2348.000000	99.309576 
2347.000000	99.309334 
2346.000000	99.309026 
2345.000000	99.308636 
2344.000000	99.308230 
2343.000000	99.307940 
2342.000000	99.307786 
2341.000000	99.307633 
2340.000000	99.307314 
2339.000000	99.306770 
2338.000000	99.306034 
2337.000000	99.305234 
2336.000000	99.304651 
2335.000000	99.304570 
2334.000000	99.304940 
2333.000000	99.305330 
2332.000000	99.305278 
2331.000000	99.304504 
2330.000000	99.302969 
2329.000000	99.300908 
2328.000000	99.298965 
2327.000000	99.297661 
2326.000000	99.296873 
2325.000000	99.295946 
2324.000000	99.294511 
2323.000000	99.293165 
2322.000000	99.292938 
2321.000000	99.294357 
2320.000000	99.296701 
2319.000000	99.298459 
2318.000000	99.298630 
2317.000000	99.297382 
2316.000000	99.295682 
2315.000000	99.294161 
2314.000000	99.292727 
2313.000000	99.291173 
2312.000000	99.289895 
2311.000000	99.289627 
2310.000000	99.290765 
2309.000000	99.292868 
2308.000000	99.294695 
2307.000000	99.294802 
2306.000000	99.292701 
2305.000000	99.289367 
2304.000000	99.286281 
2303.000000	99.283944 
2302.000000	99.281734 
2301.000000	99.279156 
2300.000000	99.276521 
2299.000000	99.274240 
2298.000000	99.272316 
2297.000000	99.270861 
2296.000000	99.270448 
2295.000000	99.271252 
2294.000000	99.272355 
2293.000000	99.272457 
2292.000000	99.271154 
2291.000000	99.269014 
2290.000000	99.266716 
2289.000000	99.264702 
2288.000000	99.263339 
2287.000000	99.262764 
2286.000000	99.262545 
2285.000000	99.262003 
2284.000000	99.260913 
2283.000000	99.259547 
2282.000000	99.258043 
2281.000000	99.256200 
2280.000000	99.253998 
2279.000000	99.252059 
2278.000000	99.251285 
2277.000000	99.252038 
2276.000000	99.253777 
2275.000000	99.255428 
2274.000000	99.256246 
2273.000000	99.256210 
2272.000000	99.255531 
2271.000000	99.254093 
2270.000000	99.251943 
2269.000000	99.250182 
2268.000000	99.250449 
2267.000000	99.253175 
2266.000000	99.256785 
2265.000000	99.259045 
2264.000000	99.259139 
2263.000000	99.257907 
2262.000000	99.256818 
2261.000000	99.256996 
2260.000000	99.258773 
2259.000000	99.261277 
2258.000000	99.262638 
2257.000000	99.261666 
2256.000000	99.259162 
2255.000000	99.257070 
2254.000000	99.256205 
2253.000000	99.255633 
2252.000000	99.254518 
2251.000000	99.253633 
2250.000000	99.254458 
2249.000000	99.257294 
2248.000000	99.260772 
2247.000000	99.262994 
2246.000000	99.263012 
2245.000000	99.261274 
2244.000000	99.259005 
2243.000000	99.257187 
2242.000000	99.256115 
2241.000000	99.255698 
2240.000000	99.255628 
2239.000000	99.255218 
2238.000000	99.253774 
2237.000000	99.251493 
2236.000000	99.249451 
2235.000000	99.248314 
2234.000000	99.247786 
2233.000000	99.247845 
2232.000000	99.249522 
2231.000000	99.253420 
2230.000000	99.258296 
2229.000000	99.262232 
2228.000000	99.264833 
2227.000000	99.267006 
2226.000000	99.268918 
2225.000000	99.269418 
2224.000000	99.267670 
2223.000000	99.264454 
2222.000000	99.261678 
2221.000000	99.260971 
2220.000000	99.262536 
2219.000000	99.264978 
2218.000000	99.266585 
2217.000000	99.267364 
2216.000000	99.269268 
2215.000000	99.273726 
2214.000000	99.279319 
2213.000000	99.282696 
2212.000000	99.281789 
2211.000000	99.277537 
2210.000000	99.273199 
2209.000000	99.272009 
2208.000000	99.274714 
2207.000000	99.278722 
2206.000000	99.280172 
2205.000000	99.277577 
2204.000000	99.272781 
2203.000000	99.268331 
2202.000000	99.264867 
2201.000000	99.261974 
2200.000000	99.259892 
2199.000000	99.258792 
2198.000000	99.257646 
2197.000000	99.255818 
2196.000000	99.254960 
2195.000000	99.257252 
2194.000000	99.262205 
2193.000000	99.266978 
2192.000000	99.269500 
2191.000000	99.269679 
2190.000000	99.268002 
2189.000000	99.265057 
2188.000000	99.262370 
2187.000000	99.261697 
2186.000000	99.263305 
2185.000000	99.266296 
2184.000000	99.270113 
2183.000000	99.274315 
2182.000000	99.277470 
2181.000000	99.278455 
2180.000000	99.278552 
2179.000000	99.279975 
2178.000000	99.282358 
2177.000000	99.282970 
2176.000000	99.280528 
2175.000000	99.276628 
2174.000000	99.273163 
2173.000000	99.270304 
2172.000000	99.267783 
2171.000000	99.266382 
2170.000000	99.267161 
2169.000000	99.270186 
2168.000000	99.274625 
2167.000000	99.279280 
2166.000000	99.282752 
2165.000000	99.284272 
2164.000000	99.284639 
2163.000000	99.285394 
2162.000000	99.287096 
2161.000000	99.289268 
2160.000000	99.291641 
2159.000000	99.294155 
2158.000000	99.296031 
2157.000000	99.296508 
2156.000000	99.296283 
2155.000000	99.296652 
2154.000000	99.297421 
2153.000000	99.297162 
2152.000000	99.295375 
2151.000000	99.293242 
2150.000000	99.292322 
2149.000000	99.293137 
2148.000000	99.295177 
2147.000000	99.297324 
2146.000000	99.298335 
2145.000000	99.297681 
2144.000000	99.295922 
2143.000000	99.294308 
2142.000000	99.293537 
2141.000000	99.293306 
2140.000000	99.293051 
2139.000000	99.292627 
2138.000000	99.292174 
2137.000000	99.291674 
2136.000000	99.291007 
2135.000000	99.290258 
2134.000000	99.289649 
2133.000000	99.289221 
2132.000000	99.288742 
2131.000000	99.287927 
2130.000000	99.286685 
2129.000000	99.285187 
2128.000000	99.283749 
2127.000000	99.282564 
2126.000000	99.281562 
2125.000000	99.280476 
2124.000000	99.279143 
2123.000000	99.277770 
2122.000000	99.276712 
2121.000000	99.276023 
2120.000000	99.275355 
2119.000000	99.274363 
2118.000000	99.273057 
2117.000000	99.271681 
2116.000000	99.270362 
2115.000000	99.269037 
2114.000000	99.267691 
2113.000000	99.266440 
2112.000000	99.265346 
2111.000000	99.264235 
2110.000000	99.262839 
2109.000000	99.261142 
2108.000000	99.259480 
2107.000000	99.258126 
2106.000000	99.256821 
2105.000000	99.254906 
2104.000000	99.252048 
2103.000000	99.248854 
2102.000000	99.246662 
2101.000000	99.246412 
2100.000000	99.247838 
2099.000000	99.249435 
2098.000000	99.249715 
2097.000000	99.248734 
2096.000000	99.247855 
2095.000000	99.247795 
2094.000000	99.247393 
2093.000000	99.245079 
2092.000000	99.241273 
2091.000000	99.238406 
2090.000000	99.238367 
2089.000000	99.240714 
2088.000000	99.243355 
2087.000000	99.244421 
2086.000000	99.243467 
2085.000000	99.241485 
2084.000000	99.240150 
2083.000000	99.240452 
2082.000000	99.241916 
2081.000000	99.243335 
2080.000000	99.244213 
2079.000000	99.245002 
2078.000000	99.246076 
2077.000000	99.247436 
2076.000000	99.249405 
2075.000000	99.252502 
2074.000000	99.256258 
2073.000000	99.259017 
2072.000000	99.259610 
2071.000000	99.258652 
2070.000000	99.257819 
2069.000000	99.258157 
2068.000000	99.259466 
2067.000000	99.261000 
2066.000000	99.262187 
2065.000000	99.262828 
2064.000000	99.263059 
2063.000000	99.263248 
2062.000000	99.263776 
2061.000000	99.264934 
2060.000000	99.266860 
2059.000000	99.269287 
2058.000000	99.271410 
2057.000000	99.272441 
2056.000000	99.272257 
2055.000000	99.271283 
2054.000000	99.269985 
2053.000000	99.268724 
2052.000000	99.267983 
2051.000000	99.268158 
2050.000000	99.269067 
2049.000000	99.270012 
2048.000000	99.270426 
2047.000000	99.270360 
2046.000000	99.270209 
2045.000000	99.270302 
2044.000000	99.270682 
2043.000000	99.271175 
2042.000000	99.271596 
2041.000000	99.271877 
2040.000000	99.272049 
2039.000000	99.272170 
2038.000000	99.272266 
2037.000000	99.272325 
2036.000000	99.272322 
2035.000000	99.272244 
2034.000000	99.272110 
2033.000000	99.271963 
2032.000000	99.271838 
2031.000000	99.271734 
2030.000000	99.271616 
2029.000000	99.271455 
2028.000000	99.271253 
2027.000000	99.271030 
2026.000000	99.270809 
2025.000000	99.270615 
2024.000000	99.270456 
2023.000000	99.270311 
2022.000000	99.270136 
2021.000000	99.269904 
2020.000000	99.269620 
2019.000000	99.269328 
2018.000000	99.269070 
2017.000000	99.268841 
2016.000000	99.268583 
2015.000000	99.268254 
2014.000000	99.267885 
2013.000000	99.267558 
2012.000000	99.267352 
2011.000000	99.267311 
2010.000000	99.267461 
2009.000000	99.267882 
2008.000000	99.268640 
2007.000000	99.269504 
2006.000000	99.269942 
2005.000000	99.269607 
2004.000000	99.268761 
2003.000000	99.268079 
2002.000000	99.267833 
2001.000000	99.267724 
2000.000000	99.267351 
1999.000000	99.266649 
1998.000000	99.265859 
1997.000000	99.265313 
1996.000000	99.265296 
1995.000000	99.265928 
1994.000000	99.266970 
1993.000000	99.267832 
1992.000000	99.268019 
1991.000000	99.267500 
1990.000000	99.266603 
1989.000000	99.265746 
1988.000000	99.265327 
1987.000000	99.265605 
1986.000000	99.266395 
1985.000000	99.267048 
1984.000000	99.266999 
1983.000000	99.266220 
1982.000000	99.264987 
1981.000000	99.263419 
1980.000000	99.261564 
1979.000000	99.259867 
1978.000000	99.259075 
1977.000000	99.259424 
1976.000000	99.260207 
1975.000000	99.260500 
1974.000000	99.260408 
1973.000000	99.261287 
1972.000000	99.264467 
1971.000000	99.269523 
1970.000000	99.273779 
1969.000000	99.274489 
1968.000000	99.271287 
1967.000000	99.266579 
1966.000000	99.263259 
1965.000000	99.261968 
1964.000000	99.261598 
1963.000000	99.261251 
1962.000000	99.260993 
1961.000000	99.261087 
1960.000000	99.261279 
1959.000000	99.261147 
1958.000000	99.260707 
1957.000000	99.260299 
1956.000000	99.260005 
1955.000000	99.259511 
1954.000000	99.258567 
1953.000000	99.257282 
1952.000000	99.255706 
1951.000000	99.253438 
1950.000000	99.250211 
1949.000000	99.246939 
1948.000000	99.245356 
1947.000000	99.245995 
1946.000000	99.246923 
1945.000000	99.245327 
1944.000000	99.240596 
1943.000000	99.235390 
1942.000000	99.233181 
1941.000000	99.234853 
1940.000000	99.238287 
1939.000000	99.240936 
1938.000000	99.242318 
1937.000000	99.243924 
1936.000000	99.246940 
1935.000000	99.250370 
1934.000000	99.252049 
1933.000000	99.251544 
1932.000000	99.251058 
1931.000000	99.252676 
1930.000000	99.255352 
1929.000000	99.256096 
1928.000000	99.254039 
1927.000000	99.251456 
1926.000000	99.250818 
1925.000000	99.252178 
1924.000000	99.253895 
1923.000000	99.254837 
1922.000000	99.255058 
1921.000000	99.254908 
1920.000000	99.254263 
1919.000000	99.252458 
1918.000000	99.248860 
1917.000000	99.244192 
1916.000000	99.240586 
1915.000000	99.239368 
1914.000000	99.239871 
1913.000000	99.240671 
1912.000000	99.241289 
1911.000000	99.242136 
1910.000000	99.243014 
1909.000000	99.243164 
1908.000000	99.242944 
1907.000000	99.243755 
1906.000000	99.245972 
1905.000000	99.248170 
1904.000000	99.248907 
1903.000000	99.248286 
1902.000000	99.247237 
1901.000000	99.246341 
1900.000000	99.245657 
1899.000000	99.245133 
1898.000000	99.244769 
1897.000000	99.244570 
1896.000000	99.244574 
1895.000000	99.244724 
1894.000000	99.244739 
1893.000000	99.244432 
1892.000000	99.244024 
1891.000000	99.243845 
1890.000000	99.243880 
1889.000000	99.244029 
1888.000000	99.244485 
1887.000000	99.245314 
1886.000000	99.246087 
1885.000000	99.246390 
1884.000000	99.246443 
1883.000000	99.246779 
1882.000000	99.247353 
1881.000000	99.247588 
1880.000000	99.247339 
1879.000000	99.247233 
1878.000000	99.247902 
1877.000000	99.249279 
1876.000000	99.250767 
1875.000000	99.251827 
1874.000000	99.252164 
1873.000000	99.251670 
1872.000000	99.250646 
1871.000000	99.249789 
1870.000000	99.249483 
1869.000000	99.249338 
1868.000000	99.249035 
1867.000000	99.249143 
1866.000000	99.250156 
1865.000000	99.251561 
1864.000000	99.252260 
1863.000000	99.251600 
1862.000000	99.249905 
1861.000000	99.248328 
1860.000000	99.248095 
1859.000000	99.249701 
1858.000000	99.252498 
1857.000000	99.255013 
1856.000000	99.256317 
1855.000000	99.256734 
1854.000000	99.257107 
1853.000000	99.257740 
1852.000000	99.258315 
1851.000000	99.258593 
1850.000000	99.258859 
1849.000000	99.259661 
1848.000000	99.261237 
1847.000000	99.263267 
1846.000000	99.265189 
1845.000000	99.266620 
1844.000000	99.267622 
1843.000000	99.268506 
1842.000000	99.269101 
1841.000000	99.268964 
1840.000000	99.268160 
1839.000000	99.267094 
1838.000000	99.266017 
1837.000000	99.265048 
1836.000000	99.264488 
1835.000000	99.264600 
1834.000000	99.265107 
1833.000000	99.265470 
1832.000000	99.265502 
1831.000000	99.265379 
1830.000000	99.265284 
1829.000000	99.265423 
1828.000000	99.265828 
1827.000000	99.266169 
1826.000000	99.266179 
1825.000000	99.266020 
1824.000000	99.266171 
1823.000000	99.266623 
1822.000000	99.266427 
1821.000000	99.264899 
1820.000000	99.263044 
1819.000000	99.262871 
1818.000000	99.265013 
1817.000000	99.267699 
1816.000000	99.268834 
1815.000000	99.268652 
1814.000000	99.268766 
1813.000000	99.269725 
1812.000000	99.270692 
1811.000000	99.271303 
1810.000000	99.272215 
1809.000000	99.273436 
1808.000000	99.274061 
1807.000000	99.273551 
1806.000000	99.271972 
1805.000000	99.269552 
1804.000000	99.266803 
1803.000000	99.264533 
1802.000000	99.263039 
1801.000000	99.261706 
1800.000000	99.260317 
1799.000000	99.260014 
1798.000000	99.261681 
1797.000000	99.264527 
1796.000000	99.267082 
1795.000000	99.268754 
1794.000000	99.269747 
1793.000000	99.269977 
1792.000000	99.269322 
1791.000000	99.268822 
1790.000000	99.269314 
1789.000000	99.270111 
1788.000000	99.270586 
1787.000000	99.271281 
1786.000000	99.272917 
1785.000000	99.274956 
1784.000000	99.276083 
1783.000000	99.275737 
1782.000000	99.274234 
1781.000000	99.272163 
1780.000000	99.270160 
1779.000000	99.268827 
1778.000000	99.268442 
1777.000000	99.268870 
1776.000000	99.269825 
1775.000000	99.270886 
1774.000000	99.271721 
1773.000000	99.272185 
1772.000000	99.272232 
1771.000000	99.272290 
1770.000000	99.272716 
1769.000000	99.273227 
1768.000000	99.273537 
1767.000000	99.273805 
1766.000000	99.274305 
1765.000000	99.274954 
1764.000000	99.275469 
1763.000000	99.275689 
1762.000000	99.275675 
1761.000000	99.275673 
1760.000000	99.275746 
1759.000000	99.275960 
1758.000000	99.276825 
1757.000000	99.278912 
1756.000000	99.281845 
1755.000000	99.284266 
1754.000000	99.285411 
1753.000000	99.285843 
1752.000000	99.286418 
1751.000000	99.286807 
1750.000000	99.286234 
1749.000000	99.285094 
1748.000000	99.284395 
1747.000000	99.284467 
1746.000000	99.284955 
1745.000000	99.285525 
1744.000000	99.285978 
1743.000000	99.286160 
1742.000000	99.286252 
1741.000000	99.286712 
1740.000000	99.287729 
1739.000000	99.288994 
1738.000000	99.289982 
1737.000000	99.290279 
1736.000000	99.290116 
1735.000000	99.290177 
1734.000000	99.290165 
1733.000000	99.289906 
1732.000000	99.289844 
1731.000000	99.289610 
1730.000000	99.288893 
1729.000000	99.288089 
1728.000000	99.287681 
1727.000000	99.287698 
1726.000000	99.287863 
1725.000000	99.288068 
1724.000000	99.288309 
1723.000000	99.288551 
1722.000000	99.288619 
1721.000000	99.288377 
1720.000000	99.288166 
1719.000000	99.288819 
1718.000000	99.290295 
1717.000000	99.290789 
1716.000000	99.289627 
1715.000000	99.288374 
1714.000000	99.287990 
1713.000000	99.287721 
1712.000000	99.286805 
1711.000000	99.285495 
1710.000000	99.284488 
1709.000000	99.283913 
1708.000000	99.283404 
1707.000000	99.282845 
1706.000000	99.282274 
1705.000000	99.281259 
1704.000000	99.279556 
1703.000000	99.277604 
1702.000000	99.276313 
1701.000000	99.275926 
1700.000000	99.275371 
1699.000000	99.274764 
1698.000000	99.274812 
1697.000000	99.274855 
1696.000000	99.274242 
1695.000000	99.273346 
1694.000000	99.272757 
1693.000000	99.272332 
1692.000000	99.271831 
1691.000000	99.271356 
1690.000000	99.270960 
1689.000000	99.270518 
1688.000000	99.269994 
1687.000000	99.269546 
1686.000000	99.269451 
1685.000000	99.269593 
1684.000000	99.269269 
1683.000000	99.268474 
1682.000000	99.267657 
1681.000000	99.266922 
1680.000000	99.266286 
1679.000000	99.265717 
1678.000000	99.265138 
1677.000000	99.264565 
1676.000000	99.264087 
1675.000000	99.263705 
1674.000000	99.263360 
1673.000000	99.263021 
1672.000000	99.262676 
1671.000000	99.262320 
1670.000000	99.261941 
1669.000000	99.261545 
1668.000000	99.261156 
1667.000000	99.260782 
1666.000000	99.260405 
1665.000000	99.260018 
1664.000000	99.259638 
1663.000000	99.259294 
1662.000000	99.258976 
1661.000000	99.258661 
1660.000000	99.258400 
1659.000000	99.258281 
1658.000000	99.258242 
1657.000000	99.258059 
1656.000000	99.257540 
1655.000000	99.256923 
1654.000000	99.256574 
1653.000000	99.255955 
1652.000000	99.255428 
1651.000000	99.255712 
1650.000000	99.255978 
1649.000000	99.255863 
1648.000000	99.255663 
1647.000000	99.255212 
1646.000000	99.254516 
1645.000000	99.254299 
1644.000000	99.254854 
1643.000000	99.255778 
1642.000000	99.256557 
1641.000000	99.256661 
1640.000000	99.255906 
1639.000000	99.254519 
1638.000000	99.253015 
1637.000000	99.252262 
1636.000000	99.252622 
1635.000000	99.253636 
1634.000000	99.254736 
1633.000000	99.255084 
1632.000000	99.254140 
1631.000000	99.252310 
1630.000000	99.250294 
1629.000000	99.248808 
1628.000000	99.248567 
1627.000000	99.249512 
1626.000000	99.250516 
1625.000000	99.250854 
1624.000000	99.251103 
1623.000000	99.251710 
1622.000000	99.252167 
1621.000000	99.252190 
1620.000000	99.252234 
1619.000000	99.253025 
1618.000000	99.254840 
1617.000000	99.256876 
1616.000000	99.259189 
1615.000000	99.262329 
1614.000000	99.265334 
1613.000000	99.267714 
1612.000000	99.270408 
1611.000000	99.273459 
1610.000000	99.274971 
1609.000000	99.273879 
1608.000000	99.271864 
1607.000000	99.270898 
1606.000000	99.271043 
1605.000000	99.271892 
1604.000000	99.273722 
1603.000000	99.276251 
1602.000000	99.278359 
1601.000000	99.279792 
1600.000000	99.281340 
1599.000000	99.283199 
1598.000000	99.284741 
1597.000000	99.285758 
1596.000000	99.286584 
1595.000000	99.287039 
1594.000000	99.286567 
1593.000000	99.285706 
1592.000000	99.285951 
1591.000000	99.287723 
1590.000000	99.289769 
1589.000000	99.291043 
1588.000000	99.291994 
1587.000000	99.293325 
1586.000000	99.294727 
1585.000000	99.295620 
1584.000000	99.296199 
1583.000000	99.296712 
1582.000000	99.296806 
1581.000000	99.296316 
1580.000000	99.295584 
1579.000000	99.294913 
1578.000000	99.294412 
1577.000000	99.294244 
1576.000000	99.294547 
1575.000000	99.295138 
1574.000000	99.295588 
1573.000000	99.295737 
1572.000000	99.295787 
1571.000000	99.295932 
1570.000000	99.296023 
1569.000000	99.295955 
1568.000000	99.295892 
1567.000000	99.295805 
1566.000000	99.295564 
1565.000000	99.295194 
1564.000000	99.294765 
1563.000000	99.294244 
1562.000000	99.293642 
1561.000000	99.293108 
1560.000000	99.292840 
1559.000000	99.292560 
1558.000000	99.292011 
1557.000000	99.291455 
1556.000000	99.290942 
1555.000000	99.290365 
1554.000000	99.289671 
1553.000000	99.288851 
1552.000000	99.287947 
1551.000000	99.286991 
1550.000000	99.286006 
1549.000000	99.284998 
1548.000000	99.283948 
1547.000000	99.282829 
1546.000000	99.281632 
1545.000000	99.280375 
1544.000000	99.279093 
1543.000000	99.277808 
1542.000000	99.276520 
1541.000000	99.275214 
1540.000000	99.273857 
1539.000000	99.272437 
1538.000000	99.270966 
1537.000000	99.269454 
1536.000000	99.267901 
1535.000000	99.266311 
1534.000000	99.264669 
1533.000000	99.262954 
1532.000000	99.261189 
1531.000000	99.259418 
1530.000000	99.257634 
1529.000000	99.255807 
1528.000000	99.253925 
1527.000000	99.252017 
1526.000000	99.250112 
1525.000000	99.248207 
1524.000000	99.246283 
1523.000000	99.244358 
1522.000000	99.242447 
1521.000000	99.240471 
1520.000000	99.238367 
1519.000000	99.236157 
1518.000000	99.233885 
1517.000000	99.231595 
1516.000000	99.229338 
1515.000000	99.227154 
1514.000000	99.225020 
1513.000000	99.222897 
1512.000000	99.220740 
1511.000000	99.218519 
1510.000000	99.216244 
1509.000000	99.213964 
1508.000000	99.211762 
1507.000000	99.209664 
1506.000000	99.207660 
1505.000000	99.205687 
1504.000000	99.203652 
1503.000000	99.201564 
1502.000000	99.199494 
1501.000000	99.197430 
1500.000000	99.195227 
1499.000000	99.192822 
1498.000000	99.190410 
1497.000000	99.188124 
1496.000000	99.185864 
1495.000000	99.183705 
1494.000000	99.181927 
1493.000000	99.180593 
1492.000000	99.179431 
1491.000000	99.177951 
1490.000000	99.175711 
1489.000000	99.172634 
1488.000000	99.169199 
1487.000000	99.166209 
1486.000000	99.163854 
1485.000000	99.161545 
1484.000000	99.158913 
1483.000000	99.156309 
1482.000000	99.154367 
1481.000000	99.153104 
1480.000000	99.151814 
1479.000000	99.149989 
1478.000000	99.147625 
1477.000000	99.144630 
1476.000000	99.141115 
1475.000000	99.138467 
1474.000000	99.138246 
1473.000000	99.139444 
1472.000000	99.139395 
1471.000000	99.138184 
1470.000000	99.137212 
1469.000000	99.135940 
1468.000000	99.133507 
1467.000000	99.130857 
1466.000000	99.130005 
1465.000000	99.131184 
1464.000000	99.132909 
1463.000000	99.134268 
1462.000000	99.134716 
1461.000000	99.133093 
1460.000000	99.128644 
1459.000000	99.122095 
1458.000000	99.114552 
1457.000000	99.104892 
1456.000000	99.093754 
1455.000000	99.084884 
1454.000000	99.079739 
1453.000000	99.078236 
1452.000000	99.079969 
1451.000000	99.083474 
1450.000000	99.087224 
1449.000000	99.089794 
1448.000000	99.089800 
1447.000000	99.088070 
1446.000000	99.087318 
1445.000000	99.088838 
1444.000000	99.091886 
1443.000000	99.095265 
1442.000000	99.098420 
1441.000000	99.100630 
1440.000000	99.100344 
1439.000000	99.097150 
1438.000000	99.094197 
1437.000000	99.094005 
1436.000000	99.094150 
1435.000000	99.092458 
1434.000000	99.089965 
1433.000000	99.087534 
1432.000000	99.085094 
1431.000000	99.081674 
1430.000000	99.076843 
1429.000000	99.071468 
1428.000000	99.066146 
1427.000000	99.061130 
1426.000000	99.056792 
1425.000000	99.053556 
1424.000000	99.050002 
1423.000000	99.043279 
1422.000000	99.032675 
1421.000000	99.019969 
1420.000000	99.006713 
1419.000000	98.993157 
1418.000000	98.981279 
1417.000000	98.971989 
1416.000000	98.961907 
1415.000000	98.948535 
1414.000000	98.933070 
1413.000000	98.918427 
1412.000000	98.906391 
1411.000000	98.896762 
1410.000000	98.889071 
1409.000000	98.883158 
1408.000000	98.878747 
1407.000000	98.876012 
1406.000000	98.875650 
1405.000000	98.878397 
1404.000000	98.884236 
1403.000000	98.892388 
1402.000000	98.902382 
1401.000000	98.914032 
1400.000000	98.926024 
1399.000000	98.934703 
1398.000000	98.935647 
1397.000000	98.925756 
1396.000000	98.905235 
1395.000000	98.882352 
1394.000000	98.872225 
1393.000000	98.882998 
1392.000000	98.908125 
1391.000000	98.934257 
1390.000000	98.952295 
1389.000000	98.960519 
1388.000000	98.961344 
1387.000000	98.958084 
1386.000000	98.954272 
1385.000000	98.952804 
1384.000000	98.954421 
1383.000000	98.957733 
1382.000000	98.961055 
1381.000000	98.964234 
1380.000000	98.968667 
1379.000000	98.975553 
1378.000000	98.984731 
1377.000000	98.995251 
1376.000000	99.006195 
1375.000000	99.016710 
1374.000000	99.026569 
1373.000000	99.036957 
1372.000000	99.048852 
1371.000000	99.061193 
1370.000000	99.071922 
1369.000000	99.080563 
1368.000000	99.088469 
1367.000000	99.096660 
1366.000000	99.105002 
1365.000000	99.113462 
1364.000000	99.122699 
1363.000000	99.132801 
1362.000000	99.142559 
1361.000000	99.151012 
1360.000000	99.158663 
1359.000000	99.166599 
1358.000000	99.175446 
1357.000000	99.185267 
1356.000000	99.195453 
1355.000000	99.204599 
1354.000000	99.211743 
1353.000000	99.217667 
1352.000000	99.223907 
1351.000000	99.230289 
1350.000000	99.234804 
1349.000000	99.237293 
1348.000000	99.239567 
1347.000000	99.242434 
1346.000000	99.245289 
1345.000000	99.248157 
1344.000000	99.251938 
1343.000000	99.256256 
1342.000000	99.259375 
1341.000000	99.260864 
1340.000000	99.262274 
1339.000000	99.264395 
1338.000000	99.266374 
1337.000000	99.268375 
1336.000000	99.272196 
1335.000000	99.278185 
1334.000000	99.283750 
1333.000000	99.286167 
1332.000000	99.285457 
1331.000000	99.283494 
1330.000000	99.281766 
1329.000000	99.281205 
1328.000000	99.282593 
1327.000000	99.285480 
1326.000000	99.287813 
1325.000000	99.288344 
1324.000000	99.287955 
1323.000000	99.287863 
1322.000000	99.288120 
1321.000000	99.288648 
1320.000000	99.290312 
1319.000000	99.293679 
1318.000000	99.297547 
1317.000000	99.299847 
1316.000000	99.299665 
1315.000000	99.297780 
1314.000000	99.295777 
1313.000000	99.294847 
1312.000000	99.294946 
1311.000000	99.294972 
1310.000000	99.294216 
1309.000000	99.293362 
1308.000000	99.293365 
1307.000000	99.293686 
1306.000000	99.292837 
1305.000000	99.291014 
1304.000000	99.290332 
1303.000000	99.291904 
1302.000000	99.294104 
1301.000000	99.294578 
1300.000000	99.293077 
1299.000000	99.291529 
1298.000000	99.292033 
1297.000000	99.295171 
1296.000000	99.299630 
1295.000000	99.302912 
1294.000000	99.303172 
1293.000000	99.300820 
1292.000000	99.297861 
1291.000000	99.295714 
1290.000000	99.294352 
1289.000000	99.293567 
1288.000000	99.293660 
1287.000000	99.294308 
1286.000000	99.294100 
1285.000000	99.292037 
1284.000000	99.288556 
1283.000000	99.284724 
1282.000000	99.280808 
1281.000000	99.276417 
1280.000000	99.271875 
1279.000000	99.268098 
1278.000000	99.265355 
1277.000000	99.263131 
1276.000000	99.260925 
1275.000000	99.258469 
1274.000000	99.255391 
1273.000000	99.251333 
1272.000000	99.246315 
1271.000000	99.240629 
1270.000000	99.234537 
1269.000000	99.228323 
1268.000000	99.222281 
1267.000000	99.216283 
1266.000000	99.209729 
1265.000000	99.202317 
1264.000000	99.194549 
1263.000000	99.187095 
1262.000000	99.179944 
1261.000000	99.172786 
1260.000000	99.166050 
1259.000000	99.160729 
1258.000000	99.157135 
1257.000000	99.154543 
1256.000000	99.152318 
1255.000000	99.150674 
1254.000000	99.149750 
1253.000000	99.148532 
1252.000000	99.145702 
1251.000000	99.141614 
1250.000000	99.138585 
1249.000000	99.138779 
1248.000000	99.142225 
1247.000000	99.146897 
1246.000000	99.149908 
1245.000000	99.148278 
1244.000000	99.140073 
1243.000000	99.127085 
1242.000000	99.116157 
1241.000000	99.114662 
1240.000000	99.123461 
1239.000000	99.135137 
1238.000000	99.140850 
1237.000000	99.138371 
1236.000000	99.131603 
1235.000000	99.124318 
1234.000000	99.117012 
1233.000000	99.109361 
1232.000000	99.102122 
1231.000000	99.095462 
1230.000000	99.088151 
1229.000000	99.080158 
1228.000000	99.074174 
1227.000000	99.072718 
1226.000000	99.074805 
1225.000000	99.077023 
1224.000000	99.077137 
1223.000000	99.075369 
1222.000000	99.072993 
1221.000000	99.071109 
1220.000000	99.070316 
1219.000000	99.070299 
1218.000000	99.069793 
1217.000000	99.067621 
1216.000000	99.063449 
1215.000000	99.057225 
1214.000000	99.048623 
1213.000000	99.037619 
1212.000000	99.024957 
1211.000000	99.011649 
1210.000000	98.998681 
1209.000000	98.987397 
1208.000000	98.978887 
1207.000000	98.972172 
1206.000000	98.964167 
1205.000000	98.952604 
1204.000000	98.938140 
1203.000000	98.922808 
1202.000000	98.907501 
1201.000000	98.892064 
1200.000000	98.876818 
1199.000000	98.862378 
1198.000000	98.848507 
1197.000000	98.834273 
1196.000000	98.818727 
1195.000000	98.800861 
1194.000000	98.779924 
1193.000000	98.756694 
1192.000000	98.733733 
1191.000000	98.713101 
1190.000000	98.694028 
1189.000000	98.673973 
1188.000000	98.651695 
1187.000000	98.628400 
1186.000000	98.606285 
1185.000000	98.586705 
1184.000000	98.569139 
1183.000000	98.551073 
1182.000000	98.529671 
1181.000000	98.504693 
1180.000000	98.478975 
1179.000000	98.454836 
1178.000000	98.430994 
1177.000000	98.404593 
1176.000000	98.375297 
1175.000000	98.345242 
1174.000000	98.315350 
1173.000000	98.284095 
1172.000000	98.250393 
1171.000000	98.215888 
1170.000000	98.183476 
1169.000000	98.154539 
1168.000000	98.128188 
1167.000000	98.102803 
1166.000000	98.078609 
1165.000000	98.059215 
1164.000000	98.049636 
1163.000000	98.051627 
1162.000000	98.061608 
1161.000000	98.074307 
1160.000000	98.087207 
1159.000000	98.099254 
1158.000000	98.106636 
1157.000000	98.103323 
1156.000000	98.086389 
1155.000000	98.059180 
1154.000000	98.029070 
1153.000000	98.002765 
1152.000000	97.982906 
1151.000000	97.967114 
1150.000000	97.950002 
1149.000000	97.927756 
1148.000000	97.901262 
1147.000000	97.874184 
1146.000000	97.848657 
1145.000000	97.824146 
1144.000000	97.799512 
1143.000000	97.774112 
1142.000000	97.747476 
1141.000000	97.720124 
1140.000000	97.694376 
1139.000000	97.672142 
1138.000000	97.652032 
1137.000000	97.630708 
1136.000000	97.606722 
1135.000000	97.580957 
1134.000000	97.553801 
1133.000000	97.524477 
1132.000000	97.493222 
1131.000000	97.461791 
1130.000000	97.431537 
1129.000000	97.402765 
1128.000000	97.375494 
1127.000000	97.348617 
1126.000000	97.319137 
1125.000000	97.285228 
1124.000000	97.249740 
1123.000000	97.217509 
1122.000000	97.189036 
1121.000000	97.159933 
1120.000000	97.126958 
1119.000000	97.091312 
1118.000000	97.055463 
1117.000000	97.019961 
1116.000000	96.984440 
1115.000000	96.949000 
1114.000000	96.913479 
1113.000000	96.877483 
1112.000000	96.841634 
1111.000000	96.806501 
1110.000000	96.770136 
1109.000000	96.729710 
1108.000000	96.686148 
1107.000000	96.643962 
1106.000000	96.605838 
1105.000000	96.570372 
1104.000000	96.535081 
1103.000000	96.499243 
1102.000000	96.463369 
1101.000000	96.428059 
1100.000000	96.393631 
1099.000000	96.360104 
1098.000000	96.326893 
1097.000000	96.293623 
1096.000000	96.260830 
1095.000000	96.228456 
1094.000000	96.194246 
1093.000000	96.155249 
1092.000000	96.110823 
1091.000000	96.063064 
1090.000000	96.014643 
1089.000000	95.967326 
1088.000000	95.922233 
1087.000000	95.879749 
1086.000000	95.838878 
1085.000000	95.798090 
1084.000000	95.757134 
1083.000000	95.716742 
1082.000000	95.676573 
1081.000000	95.635290 
1080.000000	95.592980 
1079.000000	95.551567 
1078.000000	95.512424 
1077.000000	95.475799 
1076.000000	95.442959 
1075.000000	95.416083 
1074.000000	95.395167 
1073.000000	95.377328 
1072.000000	95.358951 
1071.000000	95.334972 
1070.000000	95.296756 
1069.000000	95.237235 
1068.000000	95.161478 
1067.000000	95.088561 
1066.000000	95.037432 
1065.000000	95.012012 
1064.000000	95.001578 
1063.000000	94.991109 
1062.000000	94.968714 
1061.000000	94.927296 
1060.000000	94.866552 
1059.000000	94.795523 
1058.000000	94.728980 
1057.000000	94.677649 
1056.000000	94.641733 
1055.000000	94.613198 
1054.000000	94.583294 
1053.000000	94.548694 
1052.000000	94.511589 
1051.000000	94.474648 
1050.000000	94.437191 
1049.000000	94.397189 
1048.000000	94.355138 
1047.000000	94.313661 
1046.000000	94.274702 
1045.000000	94.239333 
1044.000000	94.208495 
1043.000000	94.181135 
1042.000000	94.153240 
1041.000000	94.121984 
1040.000000	94.090047 
1039.000000	94.063278 
1038.000000	94.045471 
1037.000000	94.037634 
1036.000000	94.039585 
1035.000000	94.048615 
1034.000000	94.058937 
1033.000000	94.065958 
1032.000000	94.068172 
1031.000000	94.061992 
1030.000000	94.041071 
1029.000000	94.007973 
1028.000000	93.981474 
1027.000000	93.981436 
1026.000000	94.006737 
1025.000000	94.036123 
1024.000000	94.051280 
1023.000000	94.051282 
1022.000000	94.044601 
1021.000000	94.037401 
1020.000000	94.032677 
1019.000000	94.032265 
1018.000000	94.034534 
1017.000000	94.035218 
1016.000000	94.033862 
1015.000000	94.034957 
1014.000000	94.040672 
1013.000000	94.047322 
1012.000000	94.051007 
1011.000000	94.051994 
1010.000000	94.051959 
1009.000000	94.051825 
1008.000000	94.053995 
1007.000000	94.061821 
1006.000000	94.074910 
1005.000000	94.089098 
1004.000000	94.102351 
1003.000000	94.116524 
1002.000000	94.132549 
1001.000000	94.148624 
1000.000000	94.164008 
999.000000	 94.179779 
998.000000	 94.194978 
997.000000	 94.207071 
996.000000	 94.217313 
995.000000	 94.230520 
994.000000	 94.248140 
993.000000	 94.266461 
992.000000	 94.282962 
991.000000	 94.299392 
990.000000	 94.317024 
989.000000	 94.334116 
988.000000	 94.350271 
987.000000	 94.368824 
986.000000	 94.392643 
985.000000	 94.421386 
984.000000	 94.453921 
983.000000	 94.489396 
982.000000	 94.525818 
981.000000	 94.561225 
980.000000	 94.596772 
979.000000	 94.635666 
978.000000	 94.678745 
977.000000	 94.724585 
976.000000	 94.773270 
975.000000	 94.825373 
974.000000	 94.877902 
973.000000	 94.926929 
972.000000	 94.974388 
971.000000	 95.026625 
970.000000	 95.085553 
969.000000	 95.146490 
968.000000	 95.205410 
967.000000	 95.263105 
966.000000	 95.320986 
965.000000	 95.377798 
964.000000	 95.432210 
963.000000	 95.484767 
962.000000	 95.536176 
961.000000	 95.587028 
960.000000	 95.639288 
959.000000	 95.694042 
958.000000	 95.747682 
957.000000	 95.794798 
956.000000	 95.835243 
955.000000	 95.874322 
954.000000	 95.915784 
953.000000	 95.958715 
952.000000	 96.001494 
951.000000	 96.043918 
950.000000	 96.084510 
949.000000	 96.120280 
948.000000	 96.150533 
947.000000	 96.177473 
946.000000	 96.202337 
945.000000	 96.224368 
944.000000	 96.244229 
943.000000	 96.264890 
942.000000	 96.288410 
941.000000	 96.314618 
940.000000	 96.342608 
939.000000	 96.370198 
938.000000	 96.392957 
937.000000	 96.408443 
936.000000	 96.421270 
935.000000	 96.439386 
934.000000	 96.464885 
933.000000	 96.492961 
932.000000	 96.519927 
931.000000	 96.546936 
930.000000	 96.574823 
929.000000	 96.600413 
928.000000	 96.620187 
927.000000	 96.634262 
926.000000	 96.645470 
925.000000	 96.657538 
924.000000	 96.674749 
923.000000	 96.699469 
922.000000	 96.728499 
921.000000	 96.754798 
920.000000	 96.773891 
919.000000	 96.786395 
918.000000	 96.794788 
917.000000	 96.801137 
916.000000	 96.807888 
915.000000	 96.816973 
914.000000	 96.827395 
913.000000	 96.836885 
912.000000	 96.846405 
911.000000	 96.859981 
910.000000	 96.880082 
909.000000	 96.906263 
908.000000	 96.937772 
907.000000	 96.973618 
906.000000	 97.010361 
905.000000	 97.044093 
904.000000	 97.074928 
903.000000	 97.106420 
902.000000	 97.141022 
901.000000	 97.179180 
900.000000	 97.221394 
899.000000	 97.266942 
898.000000	 97.311368 
897.000000	 97.349941 
896.000000	 97.383129 
895.000000	 97.414891 
894.000000	 97.447062 
893.000000	 97.479989 
892.000000	 97.517193 
891.000000	 97.563300 
890.000000	 97.617003 
889.000000	 97.670989 
888.000000	 97.719254 
887.000000	 97.760190 
886.000000	 97.793267 
885.000000	 97.818499 
884.000000	 97.839503 
883.000000	 97.861219 
882.000000	 97.883305 
881.000000	 97.901431 
880.000000	 97.916605 
879.000000	 97.937123 
878.000000	 97.968649 
877.000000	 98.007695 
876.000000	 98.047159 
875.000000	 98.082887 
874.000000	 98.112696 
873.000000	 98.135352 
872.000000	 98.154205 
871.000000	 98.176923 
870.000000	 98.208189 
869.000000	 98.246507 
868.000000	 98.289632 
867.000000	 98.337381 
866.000000	 98.386489 
865.000000	 98.429312 
864.000000	 98.462764 
863.000000	 98.494101 
862.000000	 98.532374 
861.000000	 98.576696 
860.000000	 98.618134 
859.000000	 98.651448 
858.000000	 98.680064 
857.000000	 98.710278 
856.000000	 98.745031 
855.000000	 98.783687 
854.000000	 98.823952 
853.000000	 98.862389 
852.000000	 98.895337 
851.000000	 98.921432 
850.000000	 98.943099 
849.000000	 98.964621 
848.000000	 98.988441 
847.000000	 99.013372 
846.000000	 99.036429 
845.000000	 99.056152 
844.000000	 99.073399 
843.000000	 99.089130 
842.000000	 99.103011 
841.000000	 99.114295 
840.000000	 99.121759 
839.000000	 99.122341 
838.000000	 99.113337 
837.000000	 99.097919 
836.000000	 99.084978 
835.000000	 99.080108 
834.000000	 99.079557 
833.000000	 99.077175 
832.000000	 99.074188 
831.000000	 99.076057 
830.000000	 99.081560 
829.000000	 99.082913 
828.000000	 99.078056 
827.000000	 99.075618 
826.000000	 99.084057 
825.000000	 99.101082 
824.000000	 99.118016 
823.000000	 99.130410 
822.000000	 99.140296 
821.000000	 99.150898 
820.000000	 99.162425 
819.000000	 99.171859 
818.000000	 99.175778 
817.000000	 99.174196 
816.000000	 99.170507 
815.000000	 99.165709 
814.000000	 99.154752 
813.000000	 99.131806 
812.000000	 99.096737 
811.000000	 99.051600 
810.000000	 98.992542 
809.000000	 98.911780 
808.000000	 98.808191 
807.000000	 98.690205 
806.000000	 98.566584 
805.000000	 98.439832 
804.000000	 98.311467 
803.000000	 98.188201 
802.000000	 98.078477 
801.000000	 97.986257 
800.000000	 97.911672 
799.000000	 97.855149 
798.000000	 97.818453 
797.000000	 97.803480 
796.000000	 97.810072 
795.000000	 97.832164 
794.000000	 97.857458 
793.000000	 97.875796 
792.000000	 97.887286 
791.000000	 97.897679 
790.000000	 97.907548 
789.000000	 97.911884 
788.000000	 97.908698 
787.000000	 97.900367 
786.000000	 97.886069 
785.000000	 97.860363 
784.000000	 97.821350 
783.000000	 97.774587 
782.000000	 97.727246 
781.000000	 97.683478 
780.000000	 97.646445 
779.000000	 97.619256 
778.000000	 97.602631 
777.000000	 97.596982 
776.000000	 97.607003 
775.000000	 97.637539 
774.000000	 97.684005 
773.000000	 97.733793 
772.000000	 97.779074 
771.000000	 97.821959 
770.000000	 97.865595 
769.000000	 97.906904 
768.000000	 97.940658 
767.000000	 97.965427 
766.000000	 97.983217 
765.000000	 97.997600 
764.000000	 98.013351 
763.000000	 98.032967 
762.000000	 98.052092 
761.000000	 98.063304 
760.000000	 98.066193 
759.000000	 98.069651 
758.000000	 98.083009 
757.000000	 98.108116 
756.000000	 98.139367 
755.000000	 98.166914 
754.000000	 98.181540 
753.000000	 98.183088 
752.000000	 98.184331 
751.000000	 98.200654 
750.000000	 98.234766 
749.000000	 98.275541 
748.000000	 98.311165 
747.000000	 98.338299 
746.000000	 98.359432 
745.000000	 98.378249 
744.000000	 98.398603 
743.000000	 98.422412 
742.000000	 98.447712 
741.000000	 98.473228 
740.000000	 98.503550 
739.000000	 98.543442 
738.000000	 98.587911 
737.000000	 98.624978 
736.000000	 98.648549 
735.000000	 98.662332 
734.000000	 98.672212 
733.000000	 98.682122 
732.000000	 98.697534 
731.000000	 98.723861 
730.000000	 98.757949 
729.000000	 98.788708 
728.000000	 98.809589 
727.000000	 98.823887 
726.000000	 98.835548 
725.000000	 98.842548 
724.000000	 98.843631 
723.000000	 98.844197 
722.000000	 98.850180 
721.000000	 98.861841 
720.000000	 98.878295 
719.000000	 98.902233 
718.000000	 98.934268 
717.000000	 98.966965 
716.000000	 98.989771 
715.000000	 98.997308 
714.000000	 98.991700 
713.000000	 98.981666 
712.000000	 98.980888 
711.000000	 99.000143 
710.000000	 99.035645 
709.000000	 99.069833 
708.000000	 99.087832 
707.000000	 99.089048 
706.000000	 99.081162 
705.000000	 99.069310 
704.000000	 99.055580 
703.000000	 99.043149 
702.000000	 99.033308 
701.000000	 99.020443 
700.000000	 98.995736 
699.000000	 98.954974 
698.000000	 98.901740 
697.000000	 98.845978 
696.000000	 98.800411 
695.000000	 98.774209 
694.000000	 98.766975 
693.000000	 98.772017 
692.000000	 98.786049 
691.000000	 98.810634 
690.000000	 98.845125 
689.000000	 98.884811 
688.000000	 98.926082 
687.000000	 98.965864 
686.000000	 98.995634 
685.000000	 99.006997 
684.000000	 99.005351 
683.000000	 99.007432 
682.000000	 99.023047 
681.000000	 99.048059 
680.000000	 99.075443 
679.000000	 99.101475 
678.000000	 99.119451 
677.000000	 99.122732 
676.000000	 99.118719 
675.000000	 99.124774 
674.000000	 99.145564 
673.000000	 99.165565 
672.000000	 99.169703 
671.000000	 99.161901 
670.000000	 99.158853 
669.000000	 99.174813 
668.000000	 99.207576 
667.000000	 99.237115 
666.000000	 99.253059 
665.000000	 99.259460 
664.000000	 99.265392 
663.000000	 99.282918 
662.000000	 99.312623 
661.000000	 99.335137 
660.000000	 99.331714 
659.000000	 99.306233 
658.000000	 99.280353 
657.000000	 99.269176 
656.000000	 99.269695 
655.000000	 99.272874 
654.000000	 99.275898 
653.000000	 99.280242 
652.000000	 99.285729 
651.000000	 99.291177 
650.000000	 99.296124 

