4000.000000	101.017594 
3999.000000	101.015828 
3998.000000	101.013439 
3997.000000	101.011696 
3996.000000	101.011255 
3995.000000	101.011651 
3994.000000	101.011742 
3993.000000	101.010954 
3992.000000	101.009867 
3991.000000	101.009406 
3990.000000	101.009564 
3989.000000	101.009312 
3988.000000	101.007960 
3987.000000	101.006187 
3986.000000	101.005276 
3985.000000	101.005758 
3984.000000	101.007204 
3983.000000	101.009081 
3982.000000	101.011278 
3981.000000	101.013727 
3980.000000	101.016053 
3979.000000	101.017823 
3978.000000	101.018793 
3977.000000	101.018834 
3976.000000	101.017949 
3975.000000	101.016491 
3974.000000	101.014963 
3973.000000	101.013483 
3972.000000	101.011947 
3971.000000	101.010666 
3970.000000	101.010398 
3969.000000	101.011453 
3968.000000	101.013316 
3967.000000	101.015087 
3966.000000	101.016068 
3965.000000	101.015967 
3964.000000	101.014980 
3963.000000	101.013839 
3962.000000	101.013323 
3961.000000	101.013430 
3960.000000	101.013484 
3959.000000	101.012988 
3958.000000	101.012109 
3957.000000	101.011262 
3956.000000	101.010737 
3955.000000	101.010634 
3954.000000	101.010799 
3953.000000	101.010936 
3952.000000	101.010842 
3951.000000	101.010625 
3950.000000	101.010502 
3949.000000	101.010509 
3948.000000	101.010498 
3947.000000	101.010305 
3946.000000	101.009904 
3945.000000	101.009462 
3944.000000	101.009196 
3943.000000	101.009079 
3942.000000	101.008785 
3941.000000	101.008072 
3940.000000	101.007229 
3939.000000	101.006839 
3938.000000	101.007142 
3937.000000	101.007699 
3936.000000	101.007928 
3935.000000	101.007926 
3934.000000	101.008240 
3933.000000	101.009012 
3932.000000	101.009689 
3931.000000	101.009921 
3930.000000	101.010023 
3929.000000	101.010118 
3928.000000	101.009684 
3927.000000	101.008355 
3926.000000	101.006891 
3925.000000	101.006388 
3924.000000	101.006843 
3923.000000	101.007492 
3922.000000	101.008087 
3921.000000	101.008818 
3920.000000	101.009448 
3919.000000	101.009390 
3918.000000	101.008761 
3917.000000	101.008309 
3916.000000	101.008322 
3915.000000	101.008375 
3914.000000	101.008292 
3913.000000	101.008299 
3912.000000	101.008469 
3911.000000	101.008518 
3910.000000	101.008473 
3909.000000	101.008655 
3908.000000	101.009246 
3907.000000	101.010123 
3906.000000	101.011159 
3905.000000	101.012367 
3904.000000	101.013464 
3903.000000	101.013907 
3902.000000	101.013562 
3901.000000	101.012881 
3900.000000	101.012396 
3899.000000	101.012145 
3898.000000	101.011912 
3897.000000	101.011674 
3896.000000	101.011553 
3895.000000	101.011563 
3894.000000	101.011634 
3893.000000	101.011718 
3892.000000	101.011808 
3891.000000	101.011886 
3890.000000	101.011954 
3889.000000	101.012006 
3888.000000	101.012033 
3887.000000	101.012037 
3886.000000	101.012028 
3885.000000	101.012005 
3884.000000	101.011962 
3883.000000	101.011900 
3882.000000	101.011827 
3881.000000	101.011751 
3880.000000	101.011674 
3879.000000	101.011598 
3878.000000	101.011528 
3877.000000	101.011469 
3876.000000	101.011424 
3875.000000	101.011387 
3874.000000	101.011347 
3873.000000	101.011292 
3872.000000	101.011221 
3871.000000	101.011145 
3870.000000	101.011073 
3869.000000	101.010993 
3868.000000	101.010898 
3867.000000	101.010792 
3866.000000	101.010687 
3865.000000	101.010579 
3864.000000	101.010457 
3863.000000	101.010325 
3862.000000	101.010202 
3861.000000	101.010105 
3860.000000	101.010040 
3859.000000	101.010006 
3858.000000	101.010012 
3857.000000	101.010060 
3856.000000	101.010146 
3855.000000	101.010256 
3854.000000	101.010373 
3853.000000	101.010461 
3852.000000	101.010493 
3851.000000	101.010463 
3850.000000	101.010382 
3849.000000	101.010266 
3848.000000	101.010130 
3847.000000	101.009991 
3846.000000	101.009861 
3845.000000	101.009750 
3844.000000	101.009658 
3843.000000	101.009584 
3842.000000	101.009520 
3841.000000	101.009455 
3840.000000	101.009381 
3839.000000	101.009290 
3838.000000	101.009174 
3837.000000	101.009021 
3836.000000	101.008822 
3835.000000	101.008571 
3834.000000	101.008275 
3833.000000	101.007942 
3832.000000	101.007582 
3831.000000	101.007200 
3830.000000	101.006799 
3829.000000	101.006383 
3828.000000	101.005955 
3827.000000	101.005529 
3826.000000	101.005116 
3825.000000	101.004714 
3824.000000	101.004311 
3823.000000	101.003900 
3822.000000	101.003485 
3821.000000	101.003064 
3820.000000	101.002619 
3819.000000	101.002129 
3818.000000	101.001592 
3817.000000	101.001020 
3816.000000	101.000412 
3815.000000	100.999758 
3814.000000	100.999057 
3813.000000	100.998329 
3812.000000	100.997597 
3811.000000	100.996878 
3810.000000	100.996180 
3809.000000	100.995515 
3808.000000	100.994892 
3807.000000	100.994308 
3806.000000	100.993741 
3805.000000	100.993161 
3804.000000	100.992558 
3803.000000	100.991938 
3802.000000	100.991313 
3801.000000	100.990681 
3800.000000	100.990040 
3799.000000	100.989405 
3798.000000	100.988791 
3797.000000	100.988218 
3796.000000	100.987686 
3795.000000	100.987158 
3794.000000	100.986625 
3793.000000	100.986165 
3792.000000	100.985850 
3791.000000	100.985613 
3790.000000	100.985346 
3789.000000	100.985084 
3788.000000	100.984968 
3787.000000	100.985061 
3786.000000	100.985424 
3785.000000	100.986192 
3784.000000	100.987282 
3783.000000	100.988157 
3782.000000	100.988415 
3781.000000	100.988275 
3780.000000	100.988270 
3779.000000	100.988288 
3778.000000	100.987764 
3777.000000	100.986624 
3776.000000	100.985695 
3775.000000	100.985749 
3774.000000	100.986512 
3773.000000	100.986995 
3772.000000	100.987149 
3771.000000	100.988084 
3770.000000	100.990118 
3769.000000	100.991981 
3768.000000	100.992756 
3767.000000	100.993071 
3766.000000	100.993988 
3765.000000	100.995398 
3764.000000	100.996066 
3763.000000	100.995611 
3762.000000	100.995517 
3761.000000	100.997012 
3760.000000	100.999069 
3759.000000	100.999920 
3758.000000	101.000385 
3757.000000	101.002089 
3756.000000	101.004316 
3755.000000	101.005381 
3754.000000	101.005571 
3753.000000	101.006828 
3752.000000	101.009245 
3751.000000	101.010991 
3750.000000	101.012404 
3749.000000	101.014952 
3748.000000	101.016732 
3747.000000	101.014849 
3746.000000	101.010651 
3745.000000	101.008986 
3744.000000	101.008987 
3743.000000	101.006554 
3742.000000	101.002737 
3741.000000	101.001063 
3740.000000	101.002040 
3739.000000	101.002490 
3738.000000	101.000496 
3737.000000	100.998524 
3736.000000	100.998938 
3735.000000	100.999762 
3734.000000	100.998339 
3733.000000	100.996184 
3732.000000	100.995707 
3731.000000	100.995951 
3730.000000	100.994472 
3729.000000	100.990935 
3728.000000	100.987323 
3727.000000	100.985181 
3726.000000	100.983427 
3725.000000	100.980888 
3724.000000	100.978606 
3723.000000	100.977510 
3722.000000	100.976398 
3721.000000	100.973817 
3720.000000	100.970515 
3719.000000	100.967941 
3718.000000	100.966668 
3717.000000	100.965444 
3716.000000	100.962014 
3715.000000	100.955885 
3714.000000	100.948925 
3713.000000	100.943300 
3712.000000	100.939416 
3711.000000	100.936399 
3710.000000	100.933791 
3709.000000	100.931014 
3708.000000	100.927306 
3707.000000	100.922367 
3706.000000	100.916257 
3705.000000	100.909388 
3704.000000	100.902659 
3703.000000	100.897085 
3702.000000	100.893172 
3701.000000	100.890429 
3700.000000	100.887537 
3699.000000	100.883270 
3698.000000	100.877864 
3697.000000	100.872571 
3696.000000	100.867373 
3695.000000	100.861804 
3694.000000	100.857016 
3693.000000	100.854268 
3692.000000	100.852568 
3691.000000	100.849959 
3690.000000	100.847142 
3689.000000	100.845989 
3688.000000	100.845793 
3687.000000	100.844063 
3686.000000	100.840094 
3685.000000	100.836059 
3684.000000	100.833758 
3683.000000	100.831936 
3682.000000	100.828682 
3681.000000	100.825598 
3680.000000	100.824742 
3679.000000	100.823455 
3678.000000	100.816910 
3677.000000	100.807904 
3676.000000	100.805381 
3675.000000	100.810111 
3674.000000	100.815283 
3673.000000	100.817025 
3672.000000	100.817507 
3671.000000	100.819797 
3670.000000	100.821314 
3669.000000	100.817299 
3668.000000	100.809725 
3667.000000	100.803570 
3666.000000	100.799803 
3665.000000	100.796662 
3664.000000	100.793287 
3663.000000	100.790778 
3662.000000	100.790951 
3661.000000	100.794318 
3660.000000	100.798869 
3659.000000	100.802295 
3658.000000	100.804285 
3657.000000	100.807311 
3656.000000	100.812517 
3655.000000	100.818293 
3654.000000	100.823525 
3653.000000	100.829174 
3652.000000	100.836759 
3651.000000	100.844886 
3650.000000	100.848554 
3649.000000	100.845861 
3648.000000	100.841658 
3647.000000	100.840087 
3646.000000	100.840125 
3645.000000	100.839798 
3644.000000	100.839331 
3643.000000	100.839592 
3642.000000	100.840277 
3641.000000	100.840370 
3640.000000	100.840513 
3639.000000	100.843111 
3638.000000	100.848781 
3637.000000	100.854973 
3636.000000	100.859044 
3635.000000	100.861683 
3634.000000	100.864956 
3633.000000	100.868651 
3632.000000	100.871172 
3631.000000	100.873210 
3630.000000	100.877709 
3629.000000	100.883364 
3628.000000	100.885000 
3627.000000	100.882607 
3626.000000	100.880592 
3625.000000	100.881149 
3624.000000	100.882738 
3623.000000	100.882870 
3622.000000	100.881267 
3621.000000	100.880155 
3620.000000	100.881390 
3619.000000	100.884549 
3618.000000	100.888410 
3617.000000	100.892202 
3616.000000	100.895096 
3615.000000	100.896622 
3614.000000	100.897010 
3613.000000	100.896531 
3612.000000	100.895180 
3611.000000	100.893281 
3610.000000	100.891645 
3609.000000	100.890846 
3608.000000	100.890625 
3607.000000	100.890560 
3606.000000	100.890976 
3605.000000	100.892031 
3604.000000	100.892792 
3603.000000	100.892125 
3602.000000	100.890236 
3601.000000	100.889072 
3600.000000	100.889990 
3599.000000	100.892818 
3598.000000	100.896387 
3597.000000	100.899157 
3596.000000	100.899468 
3595.000000	100.897466 
3594.000000	100.895222 
3593.000000	100.895335 
3592.000000	100.898927 
3591.000000	100.904775 
3590.000000	100.910233 
3589.000000	100.913085 
3588.000000	100.912404 
3587.000000	100.908725 
3586.000000	100.904033 
3585.000000	100.900233 
3584.000000	100.897360 
3583.000000	100.894093 
3582.000000	100.889231 
3581.000000	100.883089 
3580.000000	100.876995 
3579.000000	100.872099 
3578.000000	100.868689 
3577.000000	100.866572 
3576.000000	100.865635 
3575.000000	100.866040 
3574.000000	100.868133 
3573.000000	100.871894 
3572.000000	100.876859 
3571.000000	100.881729 
3570.000000	100.884765 
3569.000000	100.884963 
3568.000000	100.882720 
3567.000000	100.879559 
3566.000000	100.877685 
3565.000000	100.878331 
3564.000000	100.880331 
3563.000000	100.881070 
3562.000000	100.878992 
3561.000000	100.874844 
3560.000000	100.870827 
3559.000000	100.868242 
3558.000000	100.866670 
3557.000000	100.865076 
3556.000000	100.863132 
3555.000000	100.861351 
3554.000000	100.860671 
3553.000000	100.861618 
3552.000000	100.863624 
3551.000000	100.865409 
3550.000000	100.866058 
3549.000000	100.865580 
3548.000000	100.864413 
3547.000000	100.862850 
3546.000000	100.861223 
3545.000000	100.860002 
3544.000000	100.859298 
3543.000000	100.858696 
3542.000000	100.857812 
3541.000000	100.856644 
3540.000000	100.855416 
3539.000000	100.854315 
3538.000000	100.853419 
3537.000000	100.852686 
3536.000000	100.851912 
3535.000000	100.851005 
3534.000000	100.850085 
3533.000000	100.849356 
3532.000000	100.848838 
3531.000000	100.848401 
3530.000000	100.847958 
3529.000000	100.847557 
3528.000000	100.847237 
3527.000000	100.846889 
3526.000000	100.846327 
3525.000000	100.845462 
3524.000000	100.844349 
3523.000000	100.843142 
3522.000000	100.842019 
3521.000000	100.841065 
3520.000000	100.840240 
3519.000000	100.839473 
3518.000000	100.838721 
3517.000000	100.837973 
3516.000000	100.837235 
3515.000000	100.836503 
3514.000000	100.835759 
3513.000000	100.834998 
3512.000000	100.834226 
3511.000000	100.833440 
3510.000000	100.832641 
3509.000000	100.831835 
3508.000000	100.831029 
3507.000000	100.830228 
3506.000000	100.829428 
3505.000000	100.828623 
3504.000000	100.827808 
3503.000000	100.826982 
3502.000000	100.826153 
3501.000000	100.825323 
3500.000000	100.824490 
3499.000000	100.823646 
3498.000000	100.822780 
3497.000000	100.821890 
3496.000000	100.820981 
3495.000000	100.820062 
3494.000000	100.819140 
3493.000000	100.818216 
3492.000000	100.817286 
3491.000000	100.816345 
3490.000000	100.815393 
3489.000000	100.814438 
3488.000000	100.813486 
3487.000000	100.812542 
3486.000000	100.811606 
3485.000000	100.810678 
3484.000000	100.809760 
3483.000000	100.808853 
3482.000000	100.807963 
3481.000000	100.807093 
3480.000000	100.806227 
3479.000000	100.805324 
3478.000000	100.804380 
3477.000000	100.803445 
3476.000000	100.802551 
3475.000000	100.801628 
3474.000000	100.800587 
3473.000000	100.799483 
3472.000000	100.798512 
3471.000000	100.797814 
3470.000000	100.797359 
3469.000000	100.797026 
3468.000000	100.796718 
3467.000000	100.796294 
3466.000000	100.795512 
3465.000000	100.794167 
3464.000000	100.792328 
3463.000000	100.790345 
3462.000000	100.788555 
3461.000000	100.787021 
3460.000000	100.785575 
3459.000000	100.784147 
3458.000000	100.782951 
3457.000000	100.782238 
3456.000000	100.781907 
3455.000000	100.781526 
3454.000000	100.780811 
3453.000000	100.780147 
3452.000000	100.780176 
3451.000000	100.780971 
3450.000000	100.782017 
3449.000000	100.782907 
3448.000000	100.783514 
3447.000000	100.783525 
3446.000000	100.782566 
3445.000000	100.780915 
3444.000000	100.779528 
3443.000000	100.779007 
3442.000000	100.778952 
3441.000000	100.778641 
3440.000000	100.778007 
3439.000000	100.777560 
3438.000000	100.777464 
3437.000000	100.777214 
3436.000000	100.776278 
3435.000000	100.774802 
3434.000000	100.773543 
3433.000000	100.773196 
3432.000000	100.773673 
3431.000000	100.774107 
3430.000000	100.773644 
3429.000000	100.772108 
3428.000000	100.769955 
3427.000000	100.767772 
3426.000000	100.765959 
3425.000000	100.764721 
3424.000000	100.764129 
3423.000000	100.764172 
3422.000000	100.764754 
3421.000000	100.765593 
3420.000000	100.766184 
3419.000000	100.766115 
3418.000000	100.765491 
3417.000000	100.764836 
3416.000000	100.764488 
3415.000000	100.764258 
3414.000000	100.763791 
3413.000000	100.763086 
3412.000000	100.762486 
3411.000000	100.762271 
3410.000000	100.762441 
3409.000000	100.762778 
3408.000000	100.762924 
3407.000000	100.762509 
3406.000000	100.761429 
3405.000000	100.760059 
3404.000000	100.759090 
3403.000000	100.759051 
3402.000000	100.759940 
3401.000000	100.761218 
3400.000000	100.762185 
3399.000000	100.762570 
3398.000000	100.762696 
3397.000000	100.763011 
3396.000000	100.763498 
3395.000000	100.763711 
3394.000000	100.763423 
3393.000000	100.762916 
3392.000000	100.762526 
3391.000000	100.762155 
3390.000000	100.761484 
3389.000000	100.760514 
3388.000000	100.759613 
3387.000000	100.759091 
3386.000000	100.758934 
3385.000000	100.758976 
3384.000000	100.759152 
3383.000000	100.759505 
3382.000000	100.759991 
3381.000000	100.760335 
3380.000000	100.760141 
3379.000000	100.759240 
3378.000000	100.758009 
3377.000000	100.757261 
3376.000000	100.757674 
3375.000000	100.759281 
3374.000000	100.761499 
3373.000000	100.763604 
3372.000000	100.765149 
3371.000000	100.765959 
3370.000000	100.765953 
3369.000000	100.765188 
3368.000000	100.763991 
3367.000000	100.762787 
3366.000000	100.761728 
3365.000000	100.760677 
3364.000000	100.759608 
3363.000000	100.758867 
3362.000000	100.758872 
3361.000000	100.759593 
3360.000000	100.760446 
3359.000000	100.760798 
3358.000000	100.760590 
3357.000000	100.760384 
3356.000000	100.760781 
3355.000000	100.761831 
3354.000000	100.763019 
3353.000000	100.763771 
3352.000000	100.763951 
3351.000000	100.763869 
3350.000000	100.763950 
3349.000000	100.764416 
3348.000000	100.765221 
3347.000000	100.766154 
3346.000000	100.766965 
3345.000000	100.767489 
3344.000000	100.767699 
3343.000000	100.767669 
3342.000000	100.767509 
3341.000000	100.767356 
3340.000000	100.767383 
3339.000000	100.767716 
3338.000000	100.768279 
3337.000000	100.768818 
3336.000000	100.769136 
3335.000000	100.769286 
3334.000000	100.769476 
3333.000000	100.769844 
3332.000000	100.770343 
3331.000000	100.770838 
3330.000000	100.771245 
3329.000000	100.771582 
3328.000000	100.771911 
3327.000000	100.772267 
3326.000000	100.772644 
3325.000000	100.773022 
3324.000000	100.773391 
3323.000000	100.773755 
3322.000000	100.774119 
3321.000000	100.774473 
3320.000000	100.774806 
3319.000000	100.775115 
3318.000000	100.775404 
3317.000000	100.775682 
3316.000000	100.775958 
3315.000000	100.776235 
3314.000000	100.776510 
3313.000000	100.776775 
3312.000000	100.777023 
3311.000000	100.777253 
3310.000000	100.777475 
3309.000000	100.777701 
3308.000000	100.777934 
3307.000000	100.778161 
3306.000000	100.778374 
3305.000000	100.778564 
3304.000000	100.778715 
3303.000000	100.778804 
3302.000000	100.778834 
3301.000000	100.778874 
3300.000000	100.779025 
3299.000000	100.779335 
3298.000000	100.779714 
3297.000000	100.779983 
3296.000000	100.780039 
3295.000000	100.779964 
3294.000000	100.779965 
3293.000000	100.780197 
3292.000000	100.780637 
3291.000000	100.781135 
3290.000000	100.781560 
3289.000000	100.781856 
3288.000000	100.782031 
3287.000000	100.782165 
3286.000000	100.782404 
3285.000000	100.782786 
3284.000000	100.783112 
3283.000000	100.783148 
3282.000000	100.782933 
3281.000000	100.782701 
3280.000000	100.782520 
3279.000000	100.782207 
3278.000000	100.781674 
3277.000000	100.781190 
3276.000000	100.781123 
3275.000000	100.781567 
3274.000000	100.782311 
3273.000000	100.783032 
3272.000000	100.783438 
3271.000000	100.783362 
3270.000000	100.782876 
3269.000000	100.782334 
3268.000000	100.782171 
3267.000000	100.782633 
3266.000000	100.783693 
3265.000000	100.785104 
3264.000000	100.786522 
3263.000000	100.787669 
3262.000000	100.788459 
3261.000000	100.788938 
3260.000000	100.789141 
3259.000000	100.789030 
3258.000000	100.788577 
3257.000000	100.787887 
3256.000000	100.787176 
3255.000000	100.786682 
3254.000000	100.786611 
3253.000000	100.787047 
3252.000000	100.787832 
3251.000000	100.788569 
3250.000000	100.788873 
3249.000000	100.788660 
3248.000000	100.788199 
3247.000000	100.787873 
3246.000000	100.787860 
3245.000000	100.788030 
3244.000000	100.788163 
3243.000000	100.788277 
3242.000000	100.788680 
3241.000000	100.789625 
3240.000000	100.790924 
3239.000000	100.791948 
3238.000000	100.792146 
3237.000000	100.791562 
3236.000000	100.790859 
3235.000000	100.790716 
3234.000000	100.791218 
3233.000000	100.791943 
3232.000000	100.792529 
3231.000000	100.793057 
3230.000000	100.793765 
3229.000000	100.794526 
3228.000000	100.794803 
3227.000000	100.794132 
3226.000000	100.792561 
3225.000000	100.790679 
3224.000000	100.789276 
3223.000000	100.788926 
3222.000000	100.789740 
3221.000000	100.791360 
3220.000000	100.793202 
3219.000000	100.794752 
3218.000000	100.795652 
3217.000000	100.795671 
3216.000000	100.794865 
3215.000000	100.793777 
3214.000000	100.793217 
3213.000000	100.793694 
3212.000000	100.795129 
3211.000000	100.797138 
3210.000000	100.799439 
3209.000000	100.801826 
3208.000000	100.803914 
3207.000000	100.805224 
3206.000000	100.805610 
3205.000000	100.805451 
3204.000000	100.805377 
3203.000000	100.805807 
3202.000000	100.806737 
3201.000000	100.807874 
3200.000000	100.808926 
3199.000000	100.809715 
3198.000000	100.810032 
3197.000000	100.809637 
3196.000000	100.808599 
3195.000000	100.807536 
3194.000000	100.807076 
3193.000000	100.807089 
3192.000000	100.806881 
3191.000000	100.806235 
3190.000000	100.805805 
3189.000000	100.806224 
3188.000000	100.807204 
3187.000000	100.807888 
3186.000000	100.807879 
3185.000000	100.807529 
3184.000000	100.807333 
3183.000000	100.807397 
3182.000000	100.807541 
3181.000000	100.807624 
3180.000000	100.807602 
3179.000000	100.807468 
3178.000000	100.807249 
3177.000000	100.806922 
3176.000000	100.806374 
3175.000000	100.805671 
3174.000000	100.805376 
3173.000000	100.806203 
3172.000000	100.808200 
3171.000000	100.810479 
3170.000000	100.811917 
3169.000000	100.812209 
3168.000000	100.811999 
3167.000000	100.812126 
3166.000000	100.812861 
3165.000000	100.813879 
3164.000000	100.814748 
3163.000000	100.815305 
3162.000000	100.815673 
3161.000000	100.816088 
3160.000000	100.816711 
3159.000000	100.817485 
3158.000000	100.818147 
3157.000000	100.818455 
3156.000000	100.818428 
3155.000000	100.818340 
3154.000000	100.818484 
3153.000000	100.818932 
3152.000000	100.819531 
3151.000000	100.820056 
3150.000000	100.820379 
3149.000000	100.820526 
3148.000000	100.820629 
3147.000000	100.820826 
3146.000000	100.821153 
3145.000000	100.821504 
3144.000000	100.821732 
3143.000000	100.821834 
3142.000000	100.822004 
3141.000000	100.822443 
3140.000000	100.823111 
3139.000000	100.823722 
3138.000000	100.823997 
3137.000000	100.823911 
3136.000000	100.823700 
3135.000000	100.823633 
3134.000000	100.823782 
3133.000000	100.824038 
3132.000000	100.824292 
3131.000000	100.824588 
3130.000000	100.825032 
3129.000000	100.825548 
3128.000000	100.825824 
3127.000000	100.825613 
3126.000000	100.825083 
3125.000000	100.824724 
3124.000000	100.824810 
3123.000000	100.825088 
3122.000000	100.825083 
3121.000000	100.824639 
3120.000000	100.824082 
3119.000000	100.823878 
3118.000000	100.824147 
3117.000000	100.824534 
3116.000000	100.824547 
3115.000000	100.824024 
3114.000000	100.823235 
3113.000000	100.822521 
3112.000000	100.821904 
3111.000000	100.821215 
3110.000000	100.820527 
3109.000000	100.820201 
3108.000000	100.820403 
3107.000000	100.820791 
3106.000000	100.820892 
3105.000000	100.820709 
3104.000000	100.820712 
3103.000000	100.821329 
3102.000000	100.822658 
3101.000000	100.824440 
3100.000000	100.826093 
3099.000000	100.826952 
3098.000000	100.826722 
3097.000000	100.825753 
3096.000000	100.824790 
3095.000000	100.824364 
3094.000000	100.824447 
3093.000000	100.824669 
3092.000000	100.824691 
3091.000000	100.824372 
3090.000000	100.823721 
3089.000000	100.822922 
3088.000000	100.822414 
3087.000000	100.822753 
3086.000000	100.824116 
3085.000000	100.825850 
3084.000000	100.826791 
3083.000000	100.826329 
3082.000000	100.825158 
3081.000000	100.824671 
3080.000000	100.825422 
3079.000000	100.826424 
3078.000000	100.826113 
3077.000000	100.823813 
3076.000000	100.820235 
3075.000000	100.816877 
3074.000000	100.815108 
3073.000000	100.815542 
3072.000000	100.817835 
3071.000000	100.821085 
3070.000000	100.824388 
3069.000000	100.826673 
3068.000000	100.826353 
3067.000000	100.822243 
3066.000000	100.815377 
3065.000000	100.809041 
3064.000000	100.806061 
3063.000000	100.806492 
3062.000000	100.808426 
3061.000000	100.810284 
3060.000000	100.811673 
3059.000000	100.812776 
3058.000000	100.813949 
3057.000000	100.815627 
3056.000000	100.817760 
3055.000000	100.819573 
3054.000000	100.820417 
3053.000000	100.820390 
3052.000000	100.819428 
3051.000000	100.816536 
3050.000000	100.811112 
3049.000000	100.804603 
3048.000000	100.799485 
3047.000000	100.796460 
3046.000000	100.793850 
3045.000000	100.790064 
3044.000000	100.785642 
3043.000000	100.782269 
3042.000000	100.780430 
3041.000000	100.778708 
3040.000000	100.775326 
3039.000000	100.769997 
3038.000000	100.764301 
3037.000000	100.760190 
3036.000000	100.757902 
3035.000000	100.755530 
3034.000000	100.751012 
3033.000000	100.744201 
3032.000000	100.736462 
3031.000000	100.728688 
3030.000000	100.720206 
3029.000000	100.709683 
3028.000000	100.696701 
3027.000000	100.682298 
3026.000000	100.668296 
3025.000000	100.656174 
3024.000000	100.646052 
3023.000000	100.636455 
3022.000000	100.625413 
3021.000000	100.612122 
3020.000000	100.597475 
3019.000000	100.583012 
3018.000000	100.569621 
3017.000000	100.557122 
3016.000000	100.544614 
3015.000000	100.531044 
3014.000000	100.515765 
3013.000000	100.498779 
3012.000000	100.480337 
3011.000000	100.460382 
3010.000000	100.438812 
3009.000000	100.416487 
3008.000000	100.395547 
3007.000000	100.378225 
3006.000000	100.365111 
3005.000000	100.354534 
3004.000000	100.343459 
3003.000000	100.329171 
3002.000000	100.310796 
3001.000000	100.289863 
3000.000000	100.269365 
2999.000000	100.251685 
2998.000000	100.237217 
2997.000000	100.225186 
2996.000000	100.215501 
2995.000000	100.208390 
2994.000000	100.201367 
2993.000000	100.188059 
2992.000000	100.162878 
2991.000000	100.127929 
2990.000000	100.093731 
2989.000000	100.071163 
2988.000000	100.063233 
2987.000000	100.065170 
2986.000000	100.070788 
2985.000000	100.077223 
2984.000000	100.083967 
2983.000000	100.090101 
2982.000000	100.094121 
2981.000000	100.095381 
2980.000000	100.094439 
2979.000000	100.092335 
2978.000000	100.090111 
2977.000000	100.088362 
2976.000000	100.086511 
2975.000000	100.083065 
2974.000000	100.077437 
2973.000000	100.071209 
2972.000000	100.066986 
2971.000000	100.066239 
2970.000000	100.068755 
2969.000000	100.073730 
2968.000000	100.080704 
2967.000000	100.089600 
2966.000000	100.100427 
2965.000000	100.112896 
2964.000000	100.126007 
2963.000000	100.138236 
2962.000000	100.148556 
2961.000000	100.157147 
2960.000000	100.164877 
2959.000000	100.172428 
2958.000000	100.180217 
2957.000000	100.188545 
2956.000000	100.197063 
2955.000000	100.204482 
2954.000000	100.209861 
2953.000000	100.214465 
2952.000000	100.221541 
2951.000000	100.233465 
2950.000000	100.248912 
2949.000000	100.263162 
2948.000000	100.271704 
2947.000000	100.273706 
2946.000000	100.272234 
2945.000000	100.271284 
2944.000000	100.272480 
2943.000000	100.274870 
2942.000000	100.277266 
2941.000000	100.279275 
2940.000000	100.280062 
2939.000000	100.277885 
2938.000000	100.272037 
2937.000000	100.264526 
2936.000000	100.258773 
2935.000000	100.256612 
2934.000000	100.256994 
2933.000000	100.257303 
2932.000000	100.255370 
2931.000000	100.250590 
2930.000000	100.243913 
2929.000000	100.236952 
2928.000000	100.230855 
2927.000000	100.226007 
2926.000000	100.222577 
2925.000000	100.220556 
2924.000000	100.219086 
2923.000000	100.216778 
2922.000000	100.213489 
2921.000000	100.211144 
2920.000000	100.211853 
2919.000000	100.215520 
2918.000000	100.219928 
2917.000000	100.222773 
2916.000000	100.222970 
2915.000000	100.220536 
2914.000000	100.216431 
2913.000000	100.212530 
2912.000000	100.210589 
2911.000000	100.210672 
2910.000000	100.211059 
2909.000000	100.210018 
2908.000000	100.207439 
2907.000000	100.204523 
2906.000000	100.201907 
2905.000000	100.198352 
2904.000000	100.191573 
2903.000000	100.181183 
2902.000000	100.170919 
2901.000000	100.167280 
2900.000000	100.174675 
2899.000000	100.191651 
2898.000000	100.211709 
2897.000000	100.227996 
2896.000000	100.237802 
2895.000000	100.243024 
2894.000000	100.247358 
2893.000000	100.253084 
2892.000000	100.259772 
2891.000000	100.265476 
2890.000000	100.269026 
2889.000000	100.271015 
2888.000000	100.272723 
2887.000000	100.274867 
2886.000000	100.277888 
2885.000000	100.282726 
2884.000000	100.290262 
2883.000000	100.300099 
2882.000000	100.310728 
2881.000000	100.321079 
2880.000000	100.331403 
2879.000000	100.342647 
2878.000000	100.355417 
2877.000000	100.369388 
2876.000000	100.383059 
2875.000000	100.394147 
2874.000000	100.401063 
2873.000000	100.404474 
2872.000000	100.407161 
2871.000000	100.412098 
2870.000000	100.420610 
2869.000000	100.431909 
2868.000000	100.443831 
2867.000000	100.454366 
2866.000000	100.463359 
2865.000000	100.472727 
2864.000000	100.484228 
2863.000000	100.496884 
2862.000000	100.507460 
2861.000000	100.513841 
2860.000000	100.517272 
2859.000000	100.520988 
2858.000000	100.527188 
2857.000000	100.535757 
2856.000000	100.545254 
2855.000000	100.554505 
2854.000000	100.563315 
2853.000000	100.572186 
2852.000000	100.581562 
2851.000000	100.591400 
2850.000000	100.601507 
2849.000000	100.611991 
2848.000000	100.622949 
2847.000000	100.633904 
2846.000000	100.644046 
2845.000000	100.652888 
2844.000000	100.660208 
2843.000000	100.665672 
2842.000000	100.669425 
2841.000000	100.672977 
2840.000000	100.678349 
2839.000000	100.685762 
2838.000000	100.692935 
2837.000000	100.697230 
2836.000000	100.698088 
2835.000000	100.697314 
2834.000000	100.697708 
2833.000000	100.701491 
2832.000000	100.708991 
2831.000000	100.718051 
2830.000000	100.725369 
2829.000000	100.729311 
2828.000000	100.731200 
2827.000000	100.733447 
2826.000000	100.736794 
2825.000000	100.740033 
2824.000000	100.742057 
2823.000000	100.743205 
2822.000000	100.744605 
2821.000000	100.746919 
2820.000000	100.749965 
2819.000000	100.753090 
2818.000000	100.755711 
2817.000000	100.757652 
2816.000000	100.759072 
2815.000000	100.760128 
2814.000000	100.760880 
2813.000000	100.761522 
2812.000000	100.762333 
2811.000000	100.763151 
2810.000000	100.763269 
2809.000000	100.762283 
2808.000000	100.760897 
2807.000000	100.760451 
2806.000000	100.761660 
2805.000000	100.764080 
2804.000000	100.766793 
2803.000000	100.769366 
2802.000000	100.772031 
2801.000000	100.774996 
2800.000000	100.777740 
2799.000000	100.779228 
2798.000000	100.778984 
2797.000000	100.777767 
2796.000000	100.776887 
2795.000000	100.776844 
2794.000000	100.777041 
2793.000000	100.776804 
2792.000000	100.776153 
2791.000000	100.775496 
2790.000000	100.775178 
2789.000000	100.775540 
2788.000000	100.776881 
2787.000000	100.778958 
2786.000000	100.780898 
2785.000000	100.782085 
2784.000000	100.782843 
2783.000000	100.783847 
2782.000000	100.785126 
2781.000000	100.786062 
2780.000000	100.786252 
2779.000000	100.785960 
2778.000000	100.785717 
2777.000000	100.785791 
2776.000000	100.786111 
2775.000000	100.786481 
2774.000000	100.786714 
2773.000000	100.786732 
2772.000000	100.786661 
2771.000000	100.786756 
2770.000000	100.787168 
2769.000000	100.787829 
2768.000000	100.788615 
2767.000000	100.789477 
2766.000000	100.790337 
2765.000000	100.790946 
2764.000000	100.791095 
2763.000000	100.790960 
2762.000000	100.791077 
2761.000000	100.791846 
2760.000000	100.793170 
2759.000000	100.794542 
2758.000000	100.795468 
2757.000000	100.795788 
2756.000000	100.795690 
2755.000000	100.795580 
2754.000000	100.795784 
2753.000000	100.796276 
2752.000000	100.796686 
2751.000000	100.796681 
2750.000000	100.796339 
2749.000000	100.796072 
2748.000000	100.796144 
2747.000000	100.796440 
2746.000000	100.796718 
2745.000000	100.796920 
2744.000000	100.797138 
2743.000000	100.797438 
2742.000000	100.797874 
2741.000000	100.798537 
2740.000000	100.799429 
2739.000000	100.800346 
2738.000000	100.801035 
2737.000000	100.801454 
2736.000000	100.801776 
2735.000000	100.802160 
2734.000000	100.802585 
2733.000000	100.802905 
2732.000000	100.803015 
2731.000000	100.802975 
2730.000000	100.803018 
2729.000000	100.803377 
2728.000000	100.804077 
2727.000000	100.804911 
2726.000000	100.805631 
2725.000000	100.806120 
2724.000000	100.806396 
2723.000000	100.806552 
2722.000000	100.806763 
2721.000000	100.807198 
2720.000000	100.807825 
2719.000000	100.808364 
2718.000000	100.808546 
2717.000000	100.808391 
2716.000000	100.808173 
2715.000000	100.808216 
2714.000000	100.808729 
2713.000000	100.809708 
2712.000000	100.810801 
2711.000000	100.811449 
2710.000000	100.811408 
2709.000000	100.811030 
2708.000000	100.810932 
2707.000000	100.811256 
2706.000000	100.811533 
2705.000000	100.811292 
2704.000000	100.810580 
2703.000000	100.809847 
2702.000000	100.809477 
2701.000000	100.809499 
2700.000000	100.809679 
2699.000000	100.809757 
2698.000000	100.809652 
2697.000000	100.809475 
2696.000000	100.809367 
2695.000000	100.809374 
2694.000000	100.809508 
2693.000000	100.809813 
2692.000000	100.810206 
2691.000000	100.810362 
2690.000000	100.810001 
2689.000000	100.809348 
2688.000000	100.809060 
2687.000000	100.809560 
2686.000000	100.810629 
2685.000000	100.811643 
2684.000000	100.812202 
2683.000000	100.812397 
2682.000000	100.812547 
2681.000000	100.812815 
2680.000000	100.813065 
2679.000000	100.813065 
2678.000000	100.812794 
2677.000000	100.812518 
2676.000000	100.812499 
2675.000000	100.812684 
2674.000000	100.812785 
2673.000000	100.812626 
2672.000000	100.812307 
2671.000000	100.812039 
2670.000000	100.811925 
2669.000000	100.811919 
2668.000000	100.811928 
2667.000000	100.811913 
2666.000000	100.811966 
2665.000000	100.812260 
2664.000000	100.812859 
2663.000000	100.813640 
2662.000000	100.814485 
2661.000000	100.815390 
2660.000000	100.816316 
2659.000000	100.817060 
2658.000000	100.817443 
2657.000000	100.817550 
2656.000000	100.817662 
2655.000000	100.817984 
2654.000000	100.818484 
2653.000000	100.818985 
2652.000000	100.819319 
2651.000000	100.819460 
2650.000000	100.819515 
2649.000000	100.819650 
2648.000000	100.819944 
2647.000000	100.820344 
2646.000000	100.820754 
2645.000000	100.821125 
2644.000000	100.821474 
2643.000000	100.821830 
2642.000000	100.822195 
2641.000000	100.822566 
2640.000000	100.822956 
2639.000000	100.823388 
2638.000000	100.823870 
2637.000000	100.824386 
2636.000000	100.824897 
2635.000000	100.825343 
2634.000000	100.825680 
2633.000000	100.825940 
2632.000000	100.826232 
2631.000000	100.826627 
2630.000000	100.827089 
2629.000000	100.827526 
2628.000000	100.827886 
2627.000000	100.828200 
2626.000000	100.828529 
2625.000000	100.828927 
2624.000000	100.829427 
2623.000000	100.829998 
2622.000000	100.830512 
2621.000000	100.830831 
2620.000000	100.830937 
2619.000000	100.830991 
2618.000000	100.831180 
2617.000000	100.831523 
2616.000000	100.831881 
2615.000000	100.832123 
2614.000000	100.832257 
2613.000000	100.832399 
2612.000000	100.832651 
2611.000000	100.833018 
2610.000000	100.833442 
2609.000000	100.833885 
2608.000000	100.834356 
2607.000000	100.834872 
2606.000000	100.835436 
2605.000000	100.836054 
2604.000000	100.836685 
2603.000000	100.837134 
2602.000000	100.837143 
2601.000000	100.836695 
2600.000000	100.836150 
2599.000000	100.835926 
2598.000000	100.836095 
2597.000000	100.836384 
2596.000000	100.836499 
2595.000000	100.836343 
2594.000000	100.835975 
2593.000000	100.835495 
2592.000000	100.835068 
2591.000000	100.834874 
2590.000000	100.834966 
2589.000000	100.835209 
2588.000000	100.835399 
2587.000000	100.835438 
2586.000000	100.835334 
2585.000000	100.835089 
2584.000000	100.834704 
2583.000000	100.834257 
2582.000000	100.833913 
2581.000000	100.833776 
2580.000000	100.833798 
2579.000000	100.833826 
2578.000000	100.833746 
2577.000000	100.833572 
2576.000000	100.833377 
2575.000000	100.833227 
2574.000000	100.833143 
2573.000000	100.833110 
2572.000000	100.833068 
2571.000000	100.832949 
2570.000000	100.832732 
2569.000000	100.832458 
2568.000000	100.832193 
2567.000000	100.831970 
2566.000000	100.831789 
2565.000000	100.831646 
2564.000000	100.831536 
2563.000000	100.831440 
2562.000000	100.831333 
2561.000000	100.831221 
2560.000000	100.831150 
2559.000000	100.831190 
2558.000000	100.831374 
2557.000000	100.831627 
2556.000000	100.831774 
2555.000000	100.831697 
2554.000000	100.831512 
2553.000000	100.831511 
2552.000000	100.831832 
2551.000000	100.832262 
2550.000000	100.832465 
2549.000000	100.832417 
2548.000000	100.832372 
2547.000000	100.832428 
2546.000000	100.832399 
2545.000000	100.832192 
2544.000000	100.832014 
2543.000000	100.832092 
2542.000000	100.832387 
2541.000000	100.832693 
2540.000000	100.832894 
2539.000000	100.832940 
2538.000000	100.832701 
2537.000000	100.832007 
2536.000000	100.830800 
2535.000000	100.829300 
2534.000000	100.828063 
2533.000000	100.827717 
2532.000000	100.828445 
2531.000000	100.829652 
2530.000000	100.830406 
2529.000000	100.830395 
2528.000000	100.830125 
2527.000000	100.830203 
2526.000000	100.830694 
2525.000000	100.831344 
2524.000000	100.832076 
2523.000000	100.832889 
2522.000000	100.833493 
2521.000000	100.833467 
2520.000000	100.832786 
2519.000000	100.831892 
2518.000000	100.831206 
2517.000000	100.830745 
2516.000000	100.830249 
2515.000000	100.829585 
2514.000000	100.828971 
2513.000000	100.828740 
2512.000000	100.828796 
2511.000000	100.828465 
2510.000000	100.827237 
2509.000000	100.825650 
2508.000000	100.824936 
2507.000000	100.825562 
2506.000000	100.826525 
2505.000000	100.826401 
2504.000000	100.824909 
2503.000000	100.823033 
2502.000000	100.821862 
2501.000000	100.821750 
2500.000000	100.822574 
2499.000000	100.824228 
2498.000000	100.826613 
2497.000000	100.829342 
2496.000000	100.831689 
2495.000000	100.832877 
2494.000000	100.832399 
2493.000000	100.830272 
2492.000000	100.827147 
2491.000000	100.824040 
2490.000000	100.821804 
2489.000000	100.820725 
2488.000000	100.820526 
2487.000000	100.820754 
2486.000000	100.821213 
2485.000000	100.822049 
2484.000000	100.823347 
2483.000000	100.824770 
2482.000000	100.825768 
2481.000000	100.826110 
2480.000000	100.825974 
2479.000000	100.825574 
2478.000000	100.824936 
2477.000000	100.824107 
2476.000000	100.823357 
2475.000000	100.823022 
2474.000000	100.823278 
2473.000000	100.824140 
2472.000000	100.825529 
2471.000000	100.827197 
2470.000000	100.828682 
2469.000000	100.829491 
2468.000000	100.829318 
2467.000000	100.828121 
2466.000000	100.826206 
2465.000000	100.824262 
2464.000000	100.823010 
2463.000000	100.822650 
2462.000000	100.822750 
2461.000000	100.822718 
2460.000000	100.822402 
2459.000000	100.822142 
2458.000000	100.822331 
2457.000000	100.823032 
2456.000000	100.823881 
2455.000000	100.824273 
2454.000000	100.823801 
2453.000000	100.822574 
2452.000000	100.821163 
2451.000000	100.820172 
2450.000000	100.819797 
2449.000000	100.819835 
2448.000000	100.819989 
2447.000000	100.820098 
2446.000000	100.820119 
2445.000000	100.820023 
2444.000000	100.819767 
2443.000000	100.819353 
2442.000000	100.818868 
2441.000000	100.818452 
2440.000000	100.818211 
2439.000000	100.818137 
2438.000000	100.818105 
2437.000000	100.817957 
2436.000000	100.817574 
2435.000000	100.816876 
2434.000000	100.815813 
2433.000000	100.814446 
2432.000000	100.813012 
2431.000000	100.811829 
2430.000000	100.811076 
2429.000000	100.810705 
2428.000000	100.810554 
2427.000000	100.810514 
2426.000000	100.810519 
2425.000000	100.810384 
2424.000000	100.809820 
2423.000000	100.808685 
2422.000000	100.807192 
2421.000000	100.805882 
2420.000000	100.805139 
2419.000000	100.804933 
2418.000000	100.804977 
2417.000000	100.805010 
2416.000000	100.804910 
2415.000000	100.804587 
2414.000000	100.803986 
2413.000000	100.803244 
2412.000000	100.802632 
2411.000000	100.802265 
2410.000000	100.801980 
2409.000000	100.801592 
2408.000000	100.801170 
2407.000000	100.800912 
2406.000000	100.800857 
2405.000000	100.800870 
2404.000000	100.800863 
2403.000000	100.800839 
2402.000000	100.800752 
2401.000000	100.800470 
2400.000000	100.799895 
2399.000000	100.799081 
2398.000000	100.798257 
2397.000000	100.797702 
2396.000000	100.797562 
2395.000000	100.797777 
2394.000000	100.798178 
2393.000000	100.798632 
2392.000000	100.799053 
2391.000000	100.799380 
2390.000000	100.799630 
2389.000000	100.799944 
2388.000000	100.800445 
2387.000000	100.801046 
2386.000000	100.801529 
2385.000000	100.801822 
2384.000000	100.802104 
2383.000000	100.802573 
2382.000000	100.803208 
2381.000000	100.803809 
2380.000000	100.804215 
2379.000000	100.804389 
2378.000000	100.804353 
2377.000000	100.804208 
2376.000000	100.804219 
2375.000000	100.804705 
2374.000000	100.805759 
2373.000000	100.807149 
2372.000000	100.808576 
2371.000000	100.809954 
2370.000000	100.811299 
2369.000000	100.812468 
2368.000000	100.813167 
2367.000000	100.813273 
2366.000000	100.812997 
2365.000000	100.812792 
2364.000000	100.813025 
2363.000000	100.813723 
2362.000000	100.814688 
2361.000000	100.815626 
2360.000000	100.816371 
2359.000000	100.816949 
2358.000000	100.817453 
2357.000000	100.817968 
2356.000000	100.818545 
2355.000000	100.819181 
2354.000000	100.819815 
2353.000000	100.820389 
2352.000000	100.820917 
2351.000000	100.821466 
2350.000000	100.822081 
2349.000000	100.822729 
2348.000000	100.823325 
2347.000000	100.823845 
2346.000000	100.824341 
2345.000000	100.824858 
2344.000000	100.825383 
2343.000000	100.825932 
2342.000000	100.826576 
2341.000000	100.827322 
2340.000000	100.828033 
2339.000000	100.828497 
2338.000000	100.828615 
2337.000000	100.828539 
2336.000000	100.828553 
2335.000000	100.828772 
2334.000000	100.829079 
2333.000000	100.829329 
2332.000000	100.829475 
2331.000000	100.829435 
2330.000000	100.829152 
2329.000000	100.828825 
2328.000000	100.828826 
2327.000000	100.829355 
2326.000000	100.830221 
2325.000000	100.831052 
2324.000000	100.831496 
2323.000000	100.831526 
2322.000000	100.831647 
2321.000000	100.832503 
2320.000000	100.834000 
2319.000000	100.835071 
2318.000000	100.834928 
2317.000000	100.833930 
2316.000000	100.833118 
2315.000000	100.832853 
2314.000000	100.832802 
2313.000000	100.832758 
2312.000000	100.832860 
2311.000000	100.833235 
2310.000000	100.833938 
2309.000000	100.834969 
2308.000000	100.835832 
2307.000000	100.835572 
2306.000000	100.833838 
2305.000000	100.831554 
2304.000000	100.829935 
2303.000000	100.829122 
2302.000000	100.828491 
2301.000000	100.827862 
2300.000000	100.827558 
2299.000000	100.827494 
2298.000000	100.827182 
2297.000000	100.826779 
2296.000000	100.827163 
2295.000000	100.828665 
2294.000000	100.830379 
2293.000000	100.831119 
2292.000000	100.830696 
2291.000000	100.829936 
2290.000000	100.829776 
2289.000000	100.830526 
2288.000000	100.831762 
2287.000000	100.832679 
2286.000000	100.832783 
2285.000000	100.832380 
2284.000000	100.832236 
2283.000000	100.832642 
2282.000000	100.833042 
2281.000000	100.832689 
2280.000000	100.831578 
2279.000000	100.830732 
2278.000000	100.831518 
2277.000000	100.834489 
2276.000000	100.838687 
2275.000000	100.842058 
2274.000000	100.843349 
2273.000000	100.843266 
2272.000000	100.843461 
2271.000000	100.844321 
2270.000000	100.844729 
2269.000000	100.844297 
2268.000000	100.844501 
2267.000000	100.846791 
2266.000000	100.850719 
2265.000000	100.854641 
2264.000000	100.857383 
2263.000000	100.858617 
2262.000000	100.858780 
2261.000000	100.859393 
2260.000000	100.862211 
2259.000000	100.866961 
2258.000000	100.870860 
2257.000000	100.871654 
2256.000000	100.870169 
2255.000000	100.868983 
2254.000000	100.869291 
2253.000000	100.870444 
2252.000000	100.872053 
2251.000000	100.874797 
2250.000000	100.879021 
2249.000000	100.883736 
2248.000000	100.887269 
2247.000000	100.888567 
2246.000000	100.887858 
2245.000000	100.886211 
2244.000000	100.884394 
2243.000000	100.882354 
2242.000000	100.880269 
2241.000000	100.879351 
2240.000000	100.880399 
2239.000000	100.881959 
2238.000000	100.881645 
2237.000000	100.879267 
2236.000000	100.876948 
2235.000000	100.876101 
2234.000000	100.876255 
2233.000000	100.877157 
2232.000000	100.879758 
2231.000000	100.884301 
2230.000000	100.889638 
2229.000000	100.895283 
2228.000000	100.902117 
2227.000000	100.910081 
2226.000000	100.916769 
2225.000000	100.919646 
2224.000000	100.918623 
2223.000000	100.915732 
2222.000000	100.913435 
2221.000000	100.913591 
2220.000000	100.916742 
2219.000000	100.921525 
2218.000000	100.925674 
2217.000000	100.928553 
2216.000000	100.931784 
2215.000000	100.936612 
2214.000000	100.941589 
2213.000000	100.943995 
2212.000000	100.942947 
2211.000000	100.940204 
2210.000000	100.938567 
2209.000000	100.939643 
2208.000000	100.942923 
2207.000000	100.946364 
2206.000000	100.948105 
2205.000000	100.947951 
2204.000000	100.947037 
2203.000000	100.946303 
2202.000000	100.945939 
2201.000000	100.946264 
2200.000000	100.947954 
2199.000000	100.950879 
2198.000000	100.953438 
2197.000000	100.954247 
2196.000000	100.954071 
2195.000000	100.955023 
2194.000000	100.958253 
2193.000000	100.963316 
2192.000000	100.968952 
2191.000000	100.973578 
2190.000000	100.975695 
2189.000000	100.975098 
2188.000000	100.973740 
2187.000000	100.974247 
2186.000000	100.977422 
2185.000000	100.981961 
2184.000000	100.985983 
2183.000000	100.988070 
2182.000000	100.987581 
2181.000000	100.985611 
2180.000000	100.985089 
2179.000000	100.988010 
2178.000000	100.992829 
2177.000000	100.996026 
2176.000000	100.996170 
2175.000000	100.994827 
2174.000000	100.993711 
2173.000000	100.992823 
2172.000000	100.991700 
2171.000000	100.990763 
2170.000000	100.990867 
2169.000000	100.992606 
2168.000000	100.996261 
2167.000000	101.001316 
2166.000000	101.005885 
2165.000000	101.008079 
2164.000000	101.008539 
2163.000000	101.010508 
2162.000000	101.016533 
2161.000000	101.025081 
2160.000000	101.030639 
2159.000000	101.027880 
2158.000000	101.016604 
2157.000000	101.003088 
2156.000000	100.994774 
2155.000000	100.992894 
2154.000000	100.992159 
2153.000000	100.987079 
2152.000000	100.977335 
2151.000000	100.967033 
2150.000000	100.960446 
2149.000000	100.959415 
2148.000000	100.963147 
2147.000000	100.968258 
2146.000000	100.969874 
2145.000000	100.965045 
2144.000000	100.955381 
2143.000000	100.945432 
2142.000000	100.938219 
2141.000000	100.933428 
2140.000000	100.929636 
2139.000000	100.926370 
2138.000000	100.923249 
2137.000000	100.918637 
2136.000000	100.910988 
2135.000000	100.901501 
2134.000000	100.894028 
2133.000000	100.891357 
2132.000000	100.891980 
2131.000000	100.891177 
2130.000000	100.885401 
2129.000000	100.875361 
2128.000000	100.864916 
2127.000000	100.857371 
2126.000000	100.853235 
2125.000000	100.851301 
2124.000000	100.851013 
2123.000000	100.853076 
2122.000000	100.857589 
2121.000000	100.862286 
2120.000000	100.863744 
2119.000000	100.860825 
2118.000000	100.856186 
2117.000000	100.853625 
2116.000000	100.854173 
2115.000000	100.855743 
2114.000000	100.856485 
2113.000000	100.856849 
2112.000000	100.857695 
2111.000000	100.858025 
2110.000000	100.856213 
2109.000000	100.852620 
2108.000000	100.849222 
2107.000000	100.846872 
2106.000000	100.844395 
2105.000000	100.840388 
2104.000000	100.834981 
2103.000000	100.830027 
2102.000000	100.828155 
2101.000000	100.830842 
2100.000000	100.836492 
2099.000000	100.841146 
2098.000000	100.842590 
2097.000000	100.842926 
2096.000000	100.845319 
2095.000000	100.848917 
2094.000000	100.849326 
2093.000000	100.844154 
2092.000000	100.836118 
2091.000000	100.830394 
2090.000000	100.830077 
2089.000000	100.834470 
2088.000000	100.840198 
2087.000000	100.843850 
2086.000000	100.844824 
2085.000000	100.845646 
2084.000000	100.848836 
2083.000000	100.854154 
2082.000000	100.859863 
2081.000000	100.865647 
2080.000000	100.872330 
2079.000000	100.879242 
2078.000000	100.884326 
2077.000000	100.887371 
2076.000000	100.890959 
2075.000000	100.896977 
2074.000000	100.903798 
2073.000000	100.908116 
2072.000000	100.908498 
2071.000000	100.906211 
2070.000000	100.903622 
2069.000000	100.902593 
2068.000000	100.903684 
2067.000000	100.906191 
2066.000000	100.909114 
2065.000000	100.912191 
2064.000000	100.915531 
2063.000000	100.918770 
2062.000000	100.921938 
2061.000000	100.926377 
2060.000000	100.933026 
2059.000000	100.940488 
2058.000000	100.946356 
2057.000000	100.950009 
2056.000000	100.952621 
2055.000000	100.954968 
2054.000000	100.957217 
2053.000000	100.960335 
2052.000000	100.965485 
2051.000000	100.971974 
2050.000000	100.977461 
2049.000000	100.980567 
2048.000000	100.981879 
2047.000000	100.982273 
2046.000000	100.981949 
2045.000000	100.981663 
2044.000000	100.983084 
2043.000000	100.987020 
2042.000000	100.992419 
2041.000000	100.997656 
2040.000000	101.002023 
2039.000000	101.005511 
2038.000000	101.008162 
2037.000000	101.010209 
2036.000000	101.011979 
2035.000000	101.013262 
2034.000000	101.013701 
2033.000000	101.013870 
2032.000000	101.014751 
2031.000000	101.016083 
2030.000000	101.016584 
2029.000000	101.015779 
2028.000000	101.014361 
2027.000000	101.012924 
2026.000000	101.011718 
2025.000000	101.011455 
2024.000000	101.012792 
2023.000000	101.014935 
2022.000000	101.015862 
2021.000000	101.014520 
2020.000000	101.012014 
2019.000000	101.010565 
2018.000000	101.011299 
2017.000000	101.013603 
2016.000000	101.015795 
2015.000000	101.016471 
2014.000000	101.015464 
2013.000000	101.013891 
2012.000000	101.013192 
2011.000000	101.013778 
2010.000000	101.015003 
2009.000000	101.016378 
2008.000000	101.018015 
2007.000000	101.019501 
2006.000000	101.019620 
2005.000000	101.018023 
2004.000000	101.016023 
2003.000000	101.014794 
2002.000000	101.013710 
2001.000000	101.011564 
2000.000000	101.008347 
1999.000000	101.004940 
1998.000000	101.002111 
1997.000000	101.000615 
1996.000000	101.001310 
1995.000000	101.004082 
1994.000000	101.007248 
1993.000000	101.008889 
1992.000000	101.008558 
1991.000000	101.006889 
1990.000000	101.004253 
1989.000000	101.001050 
1988.000000	100.998735 
1987.000000	100.998964 
1986.000000	101.001750 
1985.000000	101.005453 
1984.000000	101.008662 
1983.000000	101.011427 
1982.000000	101.014450 
1981.000000	101.017626 
1980.000000	101.019292 
1979.000000	101.017220 
1978.000000	101.011430 
1977.000000	101.005391 
1976.000000	101.002518 
1975.000000	101.002088 
1974.000000	101.001147 
1973.000000	100.999827 
1972.000000	101.001534 
1971.000000	101.007103 
1970.000000	101.011742 
1969.000000	101.009956 
1968.000000	101.001765 
1967.000000	100.992582 
1966.000000	100.987387 
1965.000000	100.986442 
1964.000000	100.986722 
1963.000000	100.985322 
1962.000000	100.981213 
1961.000000	100.975080 
1960.000000	100.968404 
1959.000000	100.962679 
1958.000000	100.958956 
1957.000000	100.957226 
1956.000000	100.956006 
1955.000000	100.953332 
1954.000000	100.948796 
1953.000000	100.943765 
1952.000000	100.939198 
1951.000000	100.934178 
1950.000000	100.927670 
1949.000000	100.921113 
1948.000000	100.917010 
1947.000000	100.915113 
1946.000000	100.912028 
1945.000000	100.905074 
1944.000000	100.895562 
1943.000000	100.887846 
1942.000000	100.885261 
1941.000000	100.887104 
1940.000000	100.889164 
1939.000000	100.887771 
1938.000000	100.883621 
1937.000000	100.880773 
1936.000000	100.881456 
1935.000000	100.883225 
1934.000000	100.882558 
1933.000000	100.879738 
1932.000000	100.878150 
1931.000000	100.879266 
1930.000000	100.880794 
1929.000000	100.880328 
1928.000000	100.877932 
1927.000000	100.874927 
1926.000000	100.871861 
1925.000000	100.868793 
1924.000000	100.866443 
1923.000000	100.865400 
1922.000000	100.865338 
1921.000000	100.865530 
1920.000000	100.865230 
1919.000000	100.863510 
1918.000000	100.859756 
1917.000000	100.854930 
1916.000000	100.851068 
1915.000000	100.848889 
1914.000000	100.847851 
1913.000000	100.847764 
1912.000000	100.848809 
1911.000000	100.850223 
1910.000000	100.850486 
1909.000000	100.849482 
1908.000000	100.848786 
1907.000000	100.849597 
1906.000000	100.851321 
1905.000000	100.852567 
1904.000000	100.852727 
1903.000000	100.851726 
1902.000000	100.849762 
1901.000000	100.847619 
1900.000000	100.845941 
1899.000000	100.844510 
1898.000000	100.842903 
1897.000000	100.841722 
1896.000000	100.842217 
1895.000000	100.844112 
1894.000000	100.845284 
1893.000000	100.844318 
1892.000000	100.841981 
1891.000000	100.839859 
1890.000000	100.838550 
1889.000000	100.837805 
1888.000000	100.837534 
1887.000000	100.837591 
1886.000000	100.837674 
1885.000000	100.838175 
1884.000000	100.839860 
1883.000000	100.842208 
1882.000000	100.843568 
1881.000000	100.843693 
1880.000000	100.844239 
1879.000000	100.846435 
1878.000000	100.849523 
1877.000000	100.851922 
1876.000000	100.853034 
1875.000000	100.852841 
1874.000000	100.850837 
1873.000000	100.846996 
1872.000000	100.842667 
1871.000000	100.839429 
1870.000000	100.837710 
1869.000000	100.836965 
1868.000000	100.836838 
1867.000000	100.837226 
1866.000000	100.837682 
1865.000000	100.837860 
1864.000000	100.837547 
1863.000000	100.835940 
1862.000000	100.832470 
1861.000000	100.828718 
1860.000000	100.827648 
1859.000000	100.830290 
1858.000000	100.834727 
1857.000000	100.838393 
1856.000000	100.840437 
1855.000000	100.841254 
1854.000000	100.841304 
1853.000000	100.841327 
1852.000000	100.841704 
1851.000000	100.841943 
1850.000000	100.841920 
1849.000000	100.842441 
1848.000000	100.844134 
1847.000000	100.846008 
1846.000000	100.846584 
1845.000000	100.845877 
1844.000000	100.845202 
1843.000000	100.845267 
1842.000000	100.845554 
1841.000000	100.845484 
1840.000000	100.845005 
1839.000000	100.844355 
1838.000000	100.843629 
1837.000000	100.842994 
1836.000000	100.842747 
1835.000000	100.842784 
1834.000000	100.842803 
1833.000000	100.842705 
1832.000000	100.842454 
1831.000000	100.842124 
1830.000000	100.841971 
1829.000000	100.842218 
1828.000000	100.842823 
1827.000000	100.843383 
1826.000000	100.843614 
1825.000000	100.843699 
1824.000000	100.843953 
1823.000000	100.844313 
1822.000000	100.844415 
1821.000000	100.844183 
1820.000000	100.843983 
1819.000000	100.844157 
1818.000000	100.844606 
1817.000000	100.845018 
1816.000000	100.845254 
1815.000000	100.845393 
1814.000000	100.845536 
1813.000000	100.845712 
1812.000000	100.845975 
1811.000000	100.846390 
1810.000000	100.846793 
1809.000000	100.846982 
1808.000000	100.847020 
1807.000000	100.847005 
1806.000000	100.846839 
1805.000000	100.846500 
1804.000000	100.846275 
1803.000000	100.846399 
1802.000000	100.846766 
1801.000000	100.847081 
1800.000000	100.847302 
1799.000000	100.847628 
1798.000000	100.848046 
1797.000000	100.848483 
1796.000000	100.849031 
1795.000000	100.849684 
1794.000000	100.850232 
1793.000000	100.850521 
1792.000000	100.850753 
1791.000000	100.851241 
1790.000000	100.851798 
1789.000000	100.852102 
1788.000000	100.852239 
1787.000000	100.852480 
1786.000000	100.852798 
1785.000000	100.853028 
1784.000000	100.853253 
1783.000000	100.853453 
1782.000000	100.853495 
1781.000000	100.853353 
1780.000000	100.853124 
1779.000000	100.852949 
1778.000000	100.852798 
1777.000000	100.852778 
1776.000000	100.853051 
1775.000000	100.853475 
1774.000000	100.853791 
1773.000000	100.853916 
1772.000000	100.853988 
1771.000000	100.854282 
1770.000000	100.854755 
1769.000000	100.855045 
1768.000000	100.855050 
1767.000000	100.854977 
1766.000000	100.855016 
1765.000000	100.855124 
1764.000000	100.855194 
1763.000000	100.855250 
1762.000000	100.855355 
1761.000000	100.855454 
1760.000000	100.855493 
1759.000000	100.855494 
1758.000000	100.855490 
1757.000000	100.855551 
1756.000000	100.855678 
1755.000000	100.855858 
1754.000000	100.856025 
1753.000000	100.856036 
1752.000000	100.855814 
1751.000000	100.855455 
1750.000000	100.855154 
1749.000000	100.854978 
1748.000000	100.854888 
1747.000000	100.854851 
1746.000000	100.854891 
1745.000000	100.854944 
1744.000000	100.854906 
1743.000000	100.854821 
1742.000000	100.854801 
1741.000000	100.854838 
1740.000000	100.854883 
1739.000000	100.854951 
1738.000000	100.855049 
1737.000000	100.855133 
1736.000000	100.855183 
1735.000000	100.855221 
1734.000000	100.855259 
1733.000000	100.855300 
1732.000000	100.855342 
1731.000000	100.855382 
1730.000000	100.855420 
1729.000000	100.855457 
1728.000000	100.855498 
1727.000000	100.855547 
1726.000000	100.855610 
1725.000000	100.855690 
1724.000000	100.855789 
1723.000000	100.855906 
1722.000000	100.856038 
1721.000000	100.856186 
1720.000000	100.856349 
1719.000000	100.856530 
1718.000000	100.856724 
1717.000000	100.856920 
1716.000000	100.857109 
1715.000000	100.857294 
1714.000000	100.857475 
1713.000000	100.857651 
1712.000000	100.857828 
1711.000000	100.858010 
1710.000000	100.858201 
1709.000000	100.858403 
1708.000000	100.858616 
1707.000000	100.858833 
1706.000000	100.859045 
1705.000000	100.859246 
1704.000000	100.859438 
1703.000000	100.859623 
1702.000000	100.859802 
1701.000000	100.859977 
1700.000000	100.860157 
1699.000000	100.860350 
1698.000000	100.860549 
1697.000000	100.860731 
1696.000000	100.860886 
1695.000000	100.861021 
1694.000000	100.861143 
1693.000000	100.861257 
1692.000000	100.861365 
1691.000000	100.861468 
1690.000000	100.861565 
1689.000000	100.861654 
1688.000000	100.861736 
1687.000000	100.861810 
1686.000000	100.861875 
1685.000000	100.861929 
1684.000000	100.861973 
1683.000000	100.862004 
1682.000000	100.862021 
1681.000000	100.862020 
1680.000000	100.861999 
1679.000000	100.861965 
1678.000000	100.861926 
1677.000000	100.861886 
1676.000000	100.861846 
1675.000000	100.861809 
1674.000000	100.861782 
1673.000000	100.861763 
1672.000000	100.861740 
1671.000000	100.861704 
1670.000000	100.861654 
1669.000000	100.861593 
1668.000000	100.861523 
1667.000000	100.861441 
1666.000000	100.861348 
1665.000000	100.861244 
1664.000000	100.861133 
1663.000000	100.861022 
1662.000000	100.860919 
1661.000000	100.860825 
1660.000000	100.860737 
1659.000000	100.860652 
1658.000000	100.860571 
1657.000000	100.860493 
1656.000000	100.860425 
1655.000000	100.860366 
1654.000000	100.860359 
1653.000000	100.860384 
1652.000000	100.860416 
1651.000000	100.860549 
1650.000000	100.860759 
1649.000000	100.860890 
1648.000000	100.860970 
1647.000000	100.861040 
1646.000000	100.861114 
1645.000000	100.861195 
1644.000000	100.861445 
1643.000000	100.861775 
1642.000000	100.862000 
1641.000000	100.862057 
1640.000000	100.862075 
1639.000000	100.862276 
1638.000000	100.862689 
1637.000000	100.863413 
1636.000000	100.864411 
1635.000000	100.865096 
1634.000000	100.865394 
1633.000000	100.865533 
1632.000000	100.865403 
1631.000000	100.864926 
1630.000000	100.864367 
1629.000000	100.864362 
1628.000000	100.865263 
1627.000000	100.866541 
1626.000000	100.867499 
1625.000000	100.868011 
1624.000000	100.868315 
1623.000000	100.868491 
1622.000000	100.868882 
1621.000000	100.870284 
1620.000000	100.872280 
1619.000000	100.873607 
1618.000000	100.874023 
1617.000000	100.874742 
1616.000000	100.876641 
1615.000000	100.879240 
1614.000000	100.881854 
1613.000000	100.884097 
1612.000000	100.885960 
1611.000000	100.887085 
1610.000000	100.887362 
1609.000000	100.887497 
1608.000000	100.887912 
1607.000000	100.888134 
1606.000000	100.888160 
1605.000000	100.888666 
1604.000000	100.889523 
1603.000000	100.890463 
1602.000000	100.891845 
1601.000000	100.893986 
1600.000000	100.896260 
1599.000000	100.897834 
1598.000000	100.898955 
1597.000000	100.900312 
1596.000000	100.901866 
1595.000000	100.902975 
1594.000000	100.903514 
1593.000000	100.904222 
1592.000000	100.905663 
1591.000000	100.907570 
1590.000000	100.909400 
1589.000000	100.910935 
1588.000000	100.912147 
1587.000000	100.913028 
1586.000000	100.913737 
1585.000000	100.914662 
1584.000000	100.915696 
1583.000000	100.916413 
1582.000000	100.916883 
1581.000000	100.917428 
1580.000000	100.918057 
1579.000000	100.918662 
1578.000000	100.919297 
1577.000000	100.920015 
1576.000000	100.920755 
1575.000000	100.921483 
1574.000000	100.922203 
1573.000000	100.922903 
1572.000000	100.923588 
1571.000000	100.924263 
1570.000000	100.924930 
1569.000000	100.925592 
1568.000000	100.926242 
1567.000000	100.926871 
1566.000000	100.927476 
1565.000000	100.928061 
1564.000000	100.928632 
1563.000000	100.929190 
1562.000000	100.929734 
1561.000000	100.930270 
1560.000000	100.930800 
1559.000000	100.931321 
1558.000000	100.931825 
1557.000000	100.932320 
1556.000000	100.932803 
1555.000000	100.933256 
1554.000000	100.933672 
1553.000000	100.934049 
1552.000000	100.934393 
1551.000000	100.934709 
1550.000000	100.935001 
1549.000000	100.935275 
1548.000000	100.935530 
1547.000000	100.935762 
1546.000000	100.935973 
1545.000000	100.936176 
1544.000000	100.936393 
1543.000000	100.936640 
1542.000000	100.936915 
1541.000000	100.937203 
1540.000000	100.937487 
1539.000000	100.937752 
1538.000000	100.937999 
1537.000000	100.938226 
1536.000000	100.938426 
1535.000000	100.938589 
1534.000000	100.938709 
1533.000000	100.938786 
1532.000000	100.938823 
1531.000000	100.938823 
1530.000000	100.938781 
1529.000000	100.938694 
1528.000000	100.938564 
1527.000000	100.938393 
1526.000000	100.938187 
1525.000000	100.937950 
1524.000000	100.937690 
1523.000000	100.937434 
1522.000000	100.937171 
1521.000000	100.936817 
1520.000000	100.936335 
1519.000000	100.935796 
1518.000000	100.935162 
1517.000000	100.934383 
1516.000000	100.933637 
1515.000000	100.933161 
1514.000000	100.932847 
1513.000000	100.932225 
1512.000000	100.931191 
1511.000000	100.930227 
1510.000000	100.929568 
1509.000000	100.928791 
1508.000000	100.928181 
1507.000000	100.928693 
1506.000000	100.928688 
1505.000000	100.927532 
1504.000000	100.927144 
1503.000000	100.927570 
1502.000000	100.928223 
1501.000000	100.928127 
1500.000000	100.927004 
1499.000000	100.925682 
1498.000000	100.924784 
1497.000000	100.922483 
1496.000000	100.917981 
1495.000000	100.913749 
1494.000000	100.911366 
1493.000000	100.909877 
1492.000000	100.908229 
1491.000000	100.906591 
1490.000000	100.905036 
1489.000000	100.902877 
1488.000000	100.900565 
1487.000000	100.898925 
1486.000000	100.897077 
1485.000000	100.894895 
1484.000000	100.892929 
1483.000000	100.891344 
1482.000000	100.890227 
1481.000000	100.889512 
1480.000000	100.889205 
1479.000000	100.888726 
1478.000000	100.887252 
1477.000000	100.884779 
1476.000000	100.882971 
1475.000000	100.882966 
1474.000000	100.883824 
1473.000000	100.883456 
1472.000000	100.880875 
1471.000000	100.877962 
1470.000000	100.876012 
1469.000000	100.874163 
1468.000000	100.872020 
1467.000000	100.870424 
1466.000000	100.870117 
1465.000000	100.870965 
1464.000000	100.871734 
1463.000000	100.872285 
1462.000000	100.872354 
1461.000000	100.871100 
1460.000000	100.868853 
1459.000000	100.867263 
1458.000000	100.867206 
1457.000000	100.863245 
1456.000000	100.852900 
1455.000000	100.843894 
1454.000000	100.840241 
1453.000000	100.838128 
1452.000000	100.835625 
1451.000000	100.833564 
1450.000000	100.832585 
1449.000000	100.830306 
1448.000000	100.826559 
1447.000000	100.824663 
1446.000000	100.826947 
1445.000000	100.831244 
1444.000000	100.833638 
1443.000000	100.834926 
1442.000000	100.837239 
1441.000000	100.839902 
1440.000000	100.840641 
1439.000000	100.839760 
1438.000000	100.839266 
1437.000000	100.837865 
1436.000000	100.833550 
1435.000000	100.830205 
1434.000000	100.830306 
1433.000000	100.829300 
1432.000000	100.824314 
1431.000000	100.817859 
1430.000000	100.813664 
1429.000000	100.810944 
1428.000000	100.807914 
1427.000000	100.804863 
1426.000000	100.802665 
1425.000000	100.800818 
1424.000000	100.797311 
1423.000000	100.793101 
1422.000000	100.789207 
1421.000000	100.782468 
1420.000000	100.769156 
1419.000000	100.753230 
1418.000000	100.743114 
1417.000000	100.738188 
1416.000000	100.731814 
1415.000000	100.721858 
1414.000000	100.711340 
1413.000000	100.702094 
1412.000000	100.693210 
1411.000000	100.684708 
1410.000000	100.677949 
1409.000000	100.672386 
1408.000000	100.667357 
1407.000000	100.664289 
1406.000000	100.664985 
1405.000000	100.668854 
1404.000000	100.673480 
1403.000000	100.679369 
1402.000000	100.688057 
1401.000000	100.698123 
1400.000000	100.706415 
1399.000000	100.711130 
1398.000000	100.711555 
1397.000000	100.705082 
1396.000000	100.689645 
1395.000000	100.671038 
1394.000000	100.662907 
1393.000000	100.672388 
1392.000000	100.693289 
1391.000000	100.714832 
1390.000000	100.730390 
1389.000000	100.738357 
1388.000000	100.739617 
1387.000000	100.736473 
1386.000000	100.732318 
1385.000000	100.729710 
1384.000000	100.728775 
1383.000000	100.729016 
1382.000000	100.730617 
1381.000000	100.733834 
1380.000000	100.738658 
1379.000000	100.744816 
1378.000000	100.752147 
1377.000000	100.760395 
1376.000000	100.769055 
1375.000000	100.777722 
1374.000000	100.786784 
1373.000000	100.796828 
1372.000000	100.807458 
1371.000000	100.817207 
1370.000000	100.825075 
1369.000000	100.831776 
1368.000000	100.838298 
1367.000000	100.845228 
1366.000000	100.852670 
1365.000000	100.860395 
1364.000000	100.868169 
1363.000000	100.875828 
1362.000000	100.882976 
1361.000000	100.889420 
1360.000000	100.895577 
1359.000000	100.902117 
1358.000000	100.909776 
1357.000000	100.918877 
1356.000000	100.928535 
1355.000000	100.937250 
1354.000000	100.944251 
1353.000000	100.949733 
1352.000000	100.954482 
1351.000000	100.958365 
1350.000000	100.961102 
1349.000000	100.964251 
1348.000000	100.968109 
1347.000000	100.971026 
1346.000000	100.971641 
1345.000000	100.971076 
1344.000000	100.971194 
1343.000000	100.972134 
1342.000000	100.972749 
1341.000000	100.973272 
1340.000000	100.975541 
1339.000000	100.980329 
1338.000000	100.986216 
1337.000000	100.991493 
1336.000000	100.995746 
1335.000000	100.999242 
1334.000000	101.001700 
1333.000000	101.002526 
1332.000000	101.001998 
1331.000000	101.001268 
1330.000000	101.001279 
1329.000000	101.002173 
1328.000000	101.003619 
1327.000000	101.004929 
1326.000000	101.005226 
1325.000000	101.004253 
1324.000000	101.002665 
1323.000000	101.002029 
1322.000000	101.003460 
1321.000000	101.006521 
1320.000000	101.010004 
1319.000000	101.013531 
1318.000000	101.017134 
1317.000000	101.019621 
1316.000000	101.019213 
1315.000000	101.016035 
1314.000000	101.012510 
1313.000000	101.010484 
1312.000000	101.009357 
1311.000000	101.007898 
1310.000000	101.006489 
1309.000000	101.006249 
1308.000000	101.007155 
1307.000000	101.007996 
1306.000000	101.007950 
1305.000000	101.007440 
1304.000000	101.007289 
1303.000000	101.008288 
1302.000000	101.010733 
1301.000000	101.013858 
1300.000000	101.016077 
1299.000000	101.016691 
1298.000000	101.016719 
1297.000000	101.017549 
1296.000000	101.019236 
1295.000000	101.020610 
1294.000000	101.020620 
1293.000000	101.018845 
1292.000000	101.015462 
1291.000000	101.011593 
1290.000000	101.009069 
1289.000000	101.008935 
1288.000000	101.010339 
1287.000000	101.011259 
1286.000000	101.010207 
1285.000000	101.006968 
1284.000000	101.002188 
1283.000000	100.996943 
1282.000000	100.991942 
1281.000000	100.987037 
1280.000000	100.982076 
1279.000000	100.977704 
1278.000000	100.974690 
1277.000000	100.972717 
1276.000000	100.970658 
1275.000000	100.967740 
1274.000000	100.963848 
1273.000000	100.958896 
1272.000000	100.952947 
1271.000000	100.946829 
1270.000000	100.941575 
1269.000000	100.937074 
1268.000000	100.932137 
1267.000000	100.926035 
1266.000000	100.919110 
1265.000000	100.911768 
1264.000000	100.903991 
1263.000000	100.895977 
1262.000000	100.888143 
1261.000000	100.880520 
1260.000000	100.873122 
1259.000000	100.866829 
1258.000000	100.862692 
1257.000000	100.860271 
1256.000000	100.858150 
1255.000000	100.856098 
1254.000000	100.855051 
1253.000000	100.854720 
1252.000000	100.853261 
1251.000000	100.850281 
1250.000000	100.848372 
1249.000000	100.850174 
1248.000000	100.855089 
1247.000000	100.860062 
1246.000000	100.862379 
1245.000000	100.860338 
1244.000000	100.852938 
1243.000000	100.841723 
1242.000000	100.832357 
1241.000000	100.831011 
1240.000000	100.838299 
1239.000000	100.848026 
1238.000000	100.853003 
1237.000000	100.851350 
1236.000000	100.846070 
1235.000000	100.840371 
1234.000000	100.834911 
1233.000000	100.828906 
1232.000000	100.821925 
1231.000000	100.814128 
1230.000000	100.805992 
1229.000000	100.798633 
1228.000000	100.793845 
1227.000000	100.792749 
1226.000000	100.794110 
1225.000000	100.794794 
1224.000000	100.792611 
1223.000000	100.788499 
1222.000000	100.785254 
1221.000000	100.784280 
1220.000000	100.784386 
1219.000000	100.783717 
1218.000000	100.781690 
1217.000000	100.778472 
1216.000000	100.773714 
1215.000000	100.766896 
1214.000000	100.758325 
1213.000000	100.748681 
1212.000000	100.738065 
1211.000000	100.726601 
1210.000000	100.715510 
1209.000000	100.706291 
1208.000000	100.698737 
1207.000000	100.690788 
1206.000000	100.680644 
1205.000000	100.668452 
1204.000000	100.655772 
1203.000000	100.644052 
1202.000000	100.633838 
1201.000000	100.624776 
1200.000000	100.615892 
1199.000000	100.606134 
1198.000000	100.595009 
1197.000000	100.582484 
1196.000000	100.568175 
1195.000000	100.551453 
1194.000000	100.532871 
1193.000000	100.514770 
1192.000000	100.499618 
1191.000000	100.487645 
1190.000000	100.476616 
1189.000000	100.464207 
1188.000000	100.450157 
1187.000000	100.435868 
1186.000000	100.422609 
1185.000000	100.410658 
1184.000000	100.399541 
1183.000000	100.388096 
1182.000000	100.374716 
1181.000000	100.358764 
1180.000000	100.341656 
1179.000000	100.325312 
1178.000000	100.309677 
1177.000000	100.293091 
1176.000000	100.275083 
1175.000000	100.256889 
1174.000000	100.238695 
1173.000000	100.218445 
1172.000000	100.194801 
1171.000000	100.169847 
1170.000000	100.147102 
1169.000000	100.127655 
1168.000000	100.109817 
1167.000000	100.092113 
1166.000000	100.075335 
1165.000000	100.061997 
1164.000000	100.054899 
1163.000000	100.055727 
1162.000000	100.063690 
1161.000000	100.075522 
1160.000000	100.087349 
1159.000000	100.096125 
1158.000000	100.099067 
1157.000000	100.093226 
1156.000000	100.077464 
1155.000000	100.054874 
1154.000000	100.031821 
1153.000000	100.013487 
1152.000000	100.000294 
1151.000000	99.988374  
1150.000000	99.973052  
1149.000000	99.952478  
1148.000000	99.928800  
1147.000000	99.905853  
1146.000000	99.885355  
1145.000000	99.865711  
1144.000000	99.844589  
1143.000000	99.821632  
1142.000000	99.798291  
1141.000000	99.776263  
1140.000000	99.756917  
1139.000000	99.740892  
1138.000000	99.726759  
1137.000000	99.710892  
1136.000000	99.690249  
1135.000000	99.665106  
1134.000000	99.638071  
1133.000000	99.610804  
1132.000000	99.582968  
1131.000000	99.554341  
1130.000000	99.526459  
1129.000000	99.501332  
1128.000000	99.478743  
1127.000000	99.455488  
1126.000000	99.428136  
1125.000000	99.397001  
1124.000000	99.366518  
1123.000000	99.340388  
1122.000000	99.316938  
1121.000000	99.291143  
1120.000000	99.260921  
1119.000000	99.228983  
1118.000000	99.198278  
1117.000000	99.168436  
1116.000000	99.137989  
1115.000000	99.107511  
1114.000000	99.078496  
1113.000000	99.050738  
1112.000000	99.022704  
1111.000000	98.993390  
1110.000000	98.962491  
1109.000000	98.930044  
1108.000000	98.897266  
1107.000000	98.866445  
1106.000000	98.838698  
1105.000000	98.812838  
1104.000000	98.786983  
1103.000000	98.760524  
1102.000000	98.734115  
1101.000000	98.708447  
1100.000000	98.683748  
1099.000000	98.659953  
1098.000000	98.636544  
1097.000000	98.612939  
1096.000000	98.588956  
1095.000000	98.564549  
1094.000000	98.538993  
1093.000000	98.510975  
1092.000000	98.479758  
1091.000000	98.445855  
1090.000000	98.410516  
1089.000000	98.375083  
1088.000000	98.340911  
1087.000000	98.309086  
1086.000000	98.279580  
1085.000000	98.251208  
1084.000000	98.222834  
1083.000000	98.194041  
1082.000000	98.164385  
1081.000000	98.133172  
1080.000000	98.100730  
1079.000000	98.068892  
1078.000000	98.039412  
1077.000000	98.013002  
1076.000000	97.990553  
1075.000000	97.973554  
1074.000000	97.962103  
1073.000000	97.953701  
1072.000000	97.944407  
1071.000000	97.929093  
1070.000000	97.900656  
1069.000000	97.853664  
1068.000000	97.792317  
1067.000000	97.732739  
1066.000000	97.692190  
1065.000000	97.675467  
1064.000000	97.673421  
1063.000000	97.671980  
1062.000000	97.660161  
1061.000000	97.631778  
1060.000000	97.586308  
1059.000000	97.531612  
1058.000000	97.481974  
1057.000000	97.448398  
1056.000000	97.430326  
1055.000000	97.417717  
1054.000000	97.400893  
1053.000000	97.377805  
1052.000000	97.352371  
1051.000000	97.328040  
1050.000000	97.304649  
1049.000000	97.280500  
1048.000000	97.254973  
1047.000000	97.228689  
1046.000000	97.203203  
1045.000000	97.181061  
1044.000000	97.163997  
1043.000000	97.150083  
1042.000000	97.134790  
1041.000000	97.116398  
1040.000000	97.098511  
1039.000000	97.085954  
1038.000000	97.080664  
1037.000000	97.083201  
1036.000000	97.094890  
1035.000000	97.115149  
1034.000000	97.138961  
1033.000000	97.160075  
1032.000000	97.174440  
1031.000000	97.178342  
1030.000000	97.168312  
1029.000000	97.148776  
1028.000000	97.136225  
1027.000000	97.147234  
1026.000000	97.181436  
1025.000000	97.221397  
1024.000000	97.250032  
1023.000000	97.263640  
1022.000000	97.268353  
1021.000000	97.271023  
1020.000000	97.275900  
1019.000000	97.284780  
1018.000000	97.296458  
1017.000000	97.308290  
1016.000000	97.319901  
1015.000000	97.333145  
1014.000000	97.348122  
1013.000000	97.362474  
1012.000000	97.375044  
1011.000000	97.386831  
1010.000000	97.398201  
1009.000000	97.409034  
1008.000000	97.421964  
1007.000000	97.441058  
1006.000000	97.465964  
1005.000000	97.491133  
1004.000000	97.512342  
1003.000000	97.530920  
1002.000000	97.550497  
1001.000000	97.572829  
1000.000000	97.597852  
999.000000	 97.624481  
998.000000	 97.650124  
997.000000	 97.672539  
996.000000	 97.693411  
995.000000	 97.717182  
994.000000	 97.745356  
993.000000	 97.774899  
992.000000	 97.802921  
991.000000	 97.829464  
990.000000	 97.854618  
989.000000	 97.876891  
988.000000	 97.896785  
987.000000	 97.918956  
986.000000	 97.948251  
985.000000	 97.985386  
984.000000	 98.027445  
983.000000	 98.070449  
982.000000	 98.111207  
981.000000	 98.148901  
980.000000	 98.185953  
979.000000	 98.225926  
978.000000	 98.270011  
977.000000	 98.317159  
976.000000	 98.367079  
975.000000	 98.420040  
974.000000	 98.473829  
973.000000	 98.524647  
972.000000	 98.571928  
971.000000	 98.619097  
970.000000	 98.668580  
969.000000	 98.718887  
968.000000	 98.767603  
967.000000	 98.814417  
966.000000	 98.859981  
965.000000	 98.904156  
964.000000	 98.946632  
963.000000	 98.987493  
962.000000	 99.026553  
961.000000	 99.063904  
960.000000	 99.101138  
959.000000	 99.139560  
958.000000	 99.177112  
957.000000	 99.210006  
956.000000	 99.238006  
955.000000	 99.265350  
954.000000	 99.295517  
953.000000	 99.327500  
952.000000	 99.358171  
951.000000	 99.385629  
950.000000	 99.409064  
949.000000	 99.427908  
948.000000	 99.442771  
947.000000	 99.455558  
946.000000	 99.467569  
945.000000	 99.479126  
944.000000	 99.491682  
943.000000	 99.507990  
942.000000	 99.528859  
941.000000	 99.551386  
940.000000	 99.571375  
939.000000	 99.586162  
938.000000	 99.595243  
937.000000	 99.600672  
936.000000	 99.607402  
935.000000	 99.620419  
934.000000	 99.639942  
933.000000	 99.661437  
932.000000	 99.681339  
931.000000	 99.700447  
930.000000	 99.720419  
929.000000	 99.739322  
928.000000	 99.752809  
927.000000	 99.758646  
926.000000	 99.758859  
925.000000	 99.758455  
924.000000	 99.762779  
923.000000	 99.774516  
922.000000	 99.791746  
921.000000	 99.809491  
920.000000	 99.823703  
919.000000	 99.833092  
918.000000	 99.837741  
917.000000	 99.838305  
916.000000	 99.837037  
915.000000	 99.837242  
914.000000	 99.840414  
913.000000	 99.845507  
912.000000	 99.851972  
911.000000	 99.861736  
910.000000	 99.877005  
909.000000	 99.897702  
908.000000	 99.922104  
907.000000	 99.948372  
906.000000	 99.974339  
905.000000	 99.997529  
904.000000	 100.017064 
903.000000	 100.034945 
902.000000	 100.054424 
901.000000	 100.077250 
900.000000	 100.102766 
899.000000	 100.128798 
898.000000	 100.152876 
897.000000	 100.173374 
896.000000	 100.189956 
895.000000	 100.203181 
894.000000	 100.214419 
893.000000	 100.226633 
892.000000	 100.243986 
891.000000	 100.268825 
890.000000	 100.299061 
889.000000	 100.329647 
888.000000	 100.356477 
887.000000	 100.377978 
886.000000	 100.394346 
885.000000	 100.407577 
884.000000	 100.421303 
883.000000	 100.437566 
882.000000	 100.453843 
881.000000	 100.466510 
880.000000	 100.477412 
879.000000	 100.493181 
878.000000	 100.516689 
877.000000	 100.542821 
876.000000	 100.564685 
875.000000	 100.580666 
874.000000	 100.593040 
873.000000	 100.603027 
872.000000	 100.610652 
871.000000	 100.617557 
870.000000	 100.626768 
869.000000	 100.640695 
868.000000	 100.661135 
867.000000	 100.688989 
866.000000	 100.721291 
865.000000	 100.750796 
864.000000	 100.772253 
863.000000	 100.788211 
862.000000	 100.805449 
861.000000	 100.825997 
860.000000	 100.845315 
859.000000	 100.859705 
858.000000	 100.871369 
857.000000	 100.884217 
856.000000	 100.898018 
855.000000	 100.910040 
854.000000	 100.920564 
853.000000	 100.932896 
852.000000	 100.948061 
851.000000	 100.962916 
850.000000	 100.974695 
849.000000	 100.984712 
848.000000	 100.995530 
847.000000	 101.006213 
846.000000	 101.012988 
845.000000	 101.014103 
844.000000	 101.011820 
843.000000	 101.009873 
842.000000	 101.011000 
841.000000	 101.016388 
840.000000	 101.024338 
839.000000	 101.029135 
838.000000	 101.025046 
837.000000	 101.013385 
836.000000	 101.002386 
835.000000	 100.997438 
834.000000	 100.994422 
833.000000	 100.986469 
832.000000	 100.974616 
831.000000	 100.966458 
830.000000	 100.965093 
829.000000	 100.965512 
828.000000	 100.963515 
827.000000	 100.962496 
826.000000	 100.967802 
825.000000	 100.978380 
824.000000	 100.988538 
823.000000	 100.995382 
822.000000	 101.000039 
821.000000	 101.002929 
820.000000	 101.002076 
819.000000	 100.996533 
818.000000	 100.989250 
817.000000	 100.985370 
816.000000	 100.987196 
815.000000	 100.990452 
814.000000	 100.986281 
813.000000	 100.968073 
812.000000	 100.935677 
811.000000	 100.891914 
810.000000	 100.836534 
809.000000	 100.766468 
808.000000	 100.681887 
807.000000	 100.588708 
806.000000	 100.493673 
805.000000	 100.399450 
804.000000	 100.306576 
803.000000	 100.218101 
802.000000	 100.139829 
801.000000	 100.076895 
800.000000	 100.031751 
799.000000	 100.004607 
798.000000	 99.994536  
797.000000	 100.000194 
796.000000	 100.019050 
795.000000	 100.045680 
794.000000	 100.073161 
793.000000	 100.098157 
792.000000	 100.122633 
791.000000	 100.148250 
790.000000	 100.171166 
789.000000	 100.185039 
788.000000	 100.186722 
787.000000	 100.175779 
786.000000	 100.151302 
785.000000	 100.114117 
784.000000	 100.070779 
783.000000	 100.030275 
782.000000	 99.996668  
781.000000	 99.968713  
780.000000	 99.946016  
779.000000	 99.931130  
778.000000	 99.926068  
777.000000	 99.931663  
776.000000	 99.950304  
775.000000	 99.984252  
774.000000	 100.030515 
773.000000	 100.081473 
772.000000	 100.131074 
771.000000	 100.177081 
770.000000	 100.218058 
769.000000	 100.252394 
768.000000	 100.279978 
767.000000	 100.301251 
766.000000	 100.315642 
765.000000	 100.324748 
764.000000	 100.335160 
763.000000	 100.352434 
762.000000	 100.372588 
761.000000	 100.385402 
760.000000	 100.386966 
759.000000	 100.384460 
758.000000	 100.388089 
757.000000	 100.402132 
756.000000	 100.423370 
755.000000	 100.443321 
754.000000	 100.452683 
753.000000	 100.449633 
752.000000	 100.444632 
751.000000	 100.452129 
750.000000	 100.475911 
749.000000	 100.506152 
748.000000	 100.530980 
747.000000	 100.546804 
746.000000	 100.557230 
745.000000	 100.567503 
744.000000	 100.581838 
743.000000	 100.601651 
742.000000	 100.624062 
741.000000	 100.645119 
740.000000	 100.665026 
739.000000	 100.686509 
738.000000	 100.707894 
737.000000	 100.722674 
736.000000	 100.727313 
735.000000	 100.725646 
734.000000	 100.724617 
733.000000	 100.728800 
732.000000	 100.740208 
731.000000	 100.759224 
730.000000	 100.782497 
729.000000	 100.803058 
728.000000	 100.815724 
727.000000	 100.821153 
726.000000	 100.823011 
725.000000	 100.822785 
724.000000	 100.819710 
723.000000	 100.814470 
722.000000	 100.810974 
721.000000	 100.814859 
720.000000	 100.829851 
719.000000	 100.853474 
718.000000	 100.876755 
717.000000	 100.890864 
716.000000	 100.893932 
715.000000	 100.889942 
714.000000	 100.883377 
713.000000	 100.878595 
712.000000	 100.882384 
711.000000	 100.899899 
710.000000	 100.926100 
709.000000	 100.947209 
708.000000	 100.953206 
707.000000	 100.945260 
706.000000	 100.930607 
705.000000	 100.914304 
704.000000	 100.898371 
703.000000	 100.884561 
702.000000	 100.873509 
701.000000	 100.862912 
700.000000	 100.848687 
699.000000	 100.826421 
698.000000	 100.793737 
697.000000	 100.754904 
696.000000	 100.722113 
695.000000	 100.707090 
694.000000	 100.710577 
693.000000	 100.724701 
692.000000	 100.744324 
691.000000	 100.769193 
690.000000	 100.796354 
689.000000	 100.819151 
688.000000	 100.835813 
687.000000	 100.850529 
686.000000	 100.862864 
685.000000	 100.866208 
684.000000	 100.859958 
683.000000	 100.853567 
682.000000	 100.855182 
681.000000	 100.863744 
680.000000	 100.874719 
679.000000	 100.885626 
678.000000	 100.893728 
677.000000	 100.897446 
676.000000	 100.901704 
675.000000	 100.912836 
674.000000	 100.928315 
673.000000	 100.937360 
672.000000	 100.932995 
671.000000	 100.918305 
670.000000	 100.900836 
669.000000	 100.891650 
668.000000	 100.902155 
667.000000	 100.927009 
666.000000	 100.951149 
665.000000	 100.968855 
664.000000	 100.979832 
663.000000	 100.990788 
662.000000	 101.006214 
661.000000	 101.019858 
660.000000	 101.022201 
659.000000	 101.013836 
658.000000	 101.004200 
657.000000	 100.999265 
656.000000	 100.996762 
655.000000	 100.993871 
654.000000	 100.992780 
653.000000	 100.995868 
652.000000	 101.002240 
651.000000	 101.011413 
650.000000	 101.024138 

