4000.000000	99.218914 
3999.000000	99.217004 
3998.000000	99.215269 
3997.000000	99.214569 
3996.000000	99.214931 
3995.000000	99.215634 
3994.000000	99.216048 
3993.000000	99.216141 
3992.000000	99.216069 
3991.000000	99.215695 
3990.000000	99.214727 
3989.000000	99.213153 
3988.000000	99.211358 
3987.000000	99.209884 
3986.000000	99.209187 
3985.000000	99.209464 
3984.000000	99.210562 
3983.000000	99.212117 
3982.000000	99.213848 
3981.000000	99.215714 
3980.000000	99.217678 
3979.000000	99.219437 
3978.000000	99.220504 
3977.000000	99.220557 
3976.000000	99.219610 
3975.000000	99.217933 
3974.000000	99.215910 
3973.000000	99.213950 
3972.000000	99.212389 
3971.000000	99.211431 
3970.000000	99.211214 
3969.000000	99.211763 
3968.000000	99.212845 
3967.000000	99.213944 
3966.000000	99.214516 
3965.000000	99.214307 
3964.000000	99.213437 
3963.000000	99.212339 
3962.000000	99.211552 
3961.000000	99.211361 
3960.000000	99.211529 
3959.000000	99.211483 
3958.000000	99.210952 
3957.000000	99.210246 
3956.000000	99.209890 
3955.000000	99.210035 
3954.000000	99.210410 
3953.000000	99.210688 
3952.000000	99.210737 
3951.000000	99.210584 
3950.000000	99.210272 
3949.000000	99.209846 
3948.000000	99.209426 
3947.000000	99.209169 
3946.000000	99.209108 
3945.000000	99.209084 
3944.000000	99.208908 
3943.000000	99.208536 
3942.000000	99.208080 
3941.000000	99.207690 
3940.000000	99.207395 
3939.000000	99.207120 
3938.000000	99.206811 
3937.000000	99.206484 
3936.000000	99.206181 
3935.000000	99.205902 
3934.000000	99.205632 
3933.000000	99.205393 
3932.000000	99.205224 
3931.000000	99.205125 
3930.000000	99.205031 
3929.000000	99.204877 
3928.000000	99.204665 
3927.000000	99.204401 
3926.000000	99.204066 
3925.000000	99.203687 
3924.000000	99.203377 
3923.000000	99.203193 
3922.000000	99.202991 
3921.000000	99.202628 
3920.000000	99.202192 
3919.000000	99.201861 
3918.000000	99.201667 
3917.000000	99.201522 
3916.000000	99.201412 
3915.000000	99.201374 
3914.000000	99.201370 
3913.000000	99.201307 
3912.000000	99.201155 
3911.000000	99.200939 
3910.000000	99.200713 
3909.000000	99.200516 
3908.000000	99.200364 
3907.000000	99.200245 
3906.000000	99.200136 
3905.000000	99.200022 
3904.000000	99.199905 
3903.000000	99.199788 
3902.000000	99.199669 
3901.000000	99.199544 
3900.000000	99.199408 
3899.000000	99.199255 
3898.000000	99.199084 
3897.000000	99.198902 
3896.000000	99.198719 
3895.000000	99.198537 
3894.000000	99.198358 
3893.000000	99.198180 
3892.000000	99.198005 
3891.000000	99.197828 
3890.000000	99.197651 
3889.000000	99.197478 
3888.000000	99.197309 
3887.000000	99.197139 
3886.000000	99.196968 
3885.000000	99.196801 
3884.000000	99.196645 
3883.000000	99.196501 
3882.000000	99.196361 
3881.000000	99.196219 
3880.000000	99.196078 
3879.000000	99.195959 
3878.000000	99.195879 
3877.000000	99.195830 
3876.000000	99.195772 
3875.000000	99.195669 
3874.000000	99.195520 
3873.000000	99.195372 
3872.000000	99.195249 
3871.000000	99.195076 
3870.000000	99.194790 
3869.000000	99.194538 
3868.000000	99.194552 
3867.000000	99.194770 
3866.000000	99.194858 
3865.000000	99.194761 
3864.000000	99.194726 
3863.000000	99.194854 
3862.000000	99.194963 
3861.000000	99.194870 
3860.000000	99.194627 
3859.000000	99.194223 
3858.000000	99.193514 
3857.000000	99.192544 
3856.000000	99.191917 
3855.000000	99.192329 
3854.000000	99.193301 
3853.000000	99.193331 
3852.000000	99.193131 
3851.000000	99.193984 
3850.000000	99.195166 
3849.000000	99.195854 
3848.000000	99.196282 
3847.000000	99.196808 
3846.000000	99.197372 
3845.000000	99.197742 
3844.000000	99.197866 
3843.000000	99.197867 
3842.000000	99.197909 
3841.000000	99.197972 
3840.000000	99.197968 
3839.000000	99.197883 
3838.000000	99.197757 
3837.000000	99.197603 
3836.000000	99.197462 
3835.000000	99.197340 
3834.000000	99.197203 
3833.000000	99.197062 
3832.000000	99.196978 
3831.000000	99.197001 
3830.000000	99.197122 
3829.000000	99.197246 
3828.000000	99.197262 
3827.000000	99.197146 
3826.000000	99.196991 
3825.000000	99.196912 
3824.000000	99.196920 
3823.000000	99.196947 
3822.000000	99.196918 
3821.000000	99.196812 
3820.000000	99.196687 
3819.000000	99.196586 
3818.000000	99.196480 
3817.000000	99.196366 
3816.000000	99.196250 
3815.000000	99.196140 
3814.000000	99.196039 
3813.000000	99.195935 
3812.000000	99.195815 
3811.000000	99.195685 
3810.000000	99.195558 
3809.000000	99.195440 
3808.000000	99.195323 
3807.000000	99.195205 
3806.000000	99.195091 
3805.000000	99.194988 
3804.000000	99.194895 
3803.000000	99.194809 
3802.000000	99.194732 
3801.000000	99.194677 
3800.000000	99.194655 
3799.000000	99.194667 
3798.000000	99.194701 
3797.000000	99.194753 
3796.000000	99.194827 
3795.000000	99.194932 
3794.000000	99.195067 
3793.000000	99.195241 
3792.000000	99.195443 
3791.000000	99.195662 
3790.000000	99.195884 
3789.000000	99.196089 
3788.000000	99.196270 
3787.000000	99.196447 
3786.000000	99.196631 
3785.000000	99.196805 
3784.000000	99.196968 
3783.000000	99.197174 
3782.000000	99.197421 
3781.000000	99.197575 
3780.000000	99.197523 
3779.000000	99.197297 
3778.000000	99.197080 
3777.000000	99.196968 
3776.000000	99.196850 
3775.000000	99.196654 
3774.000000	99.196548 
3773.000000	99.196710 
3772.000000	99.197029 
3771.000000	99.197189 
3770.000000	99.197063 
3769.000000	99.196881 
3768.000000	99.196911 
3767.000000	99.197014 
3766.000000	99.196883 
3765.000000	99.196573 
3764.000000	99.196525 
3763.000000	99.197018 
3762.000000	99.197757 
3761.000000	99.198349 
3760.000000	99.198807 
3759.000000	99.199085 
3758.000000	99.198876 
3757.000000	99.198106 
3756.000000	99.197249 
3755.000000	99.196713 
3754.000000	99.196523 
3753.000000	99.196769 
3752.000000	99.197449 
3751.000000	99.197458 
3750.000000	99.195464 
3749.000000	99.192333 
3748.000000	99.190211 
3747.000000	99.189432 
3746.000000	99.188967 
3745.000000	99.187835 
3744.000000	99.185812 
3743.000000	99.185649 
3742.000000	99.188508 
3741.000000	99.190568 
3740.000000	99.189972 
3739.000000	99.188918 
3738.000000	99.189371 
3737.000000	99.190606 
3736.000000	99.191057 
3735.000000	99.190761 
3734.000000	99.190369 
3733.000000	99.189320 
3732.000000	99.187397 
3731.000000	99.186418 
3730.000000	99.187614 
3729.000000	99.189291 
3728.000000	99.189231 
3727.000000	99.187958 
3726.000000	99.187820 
3725.000000	99.189622 
3724.000000	99.191089 
3723.000000	99.189899 
3722.000000	99.186522 
3721.000000	99.183255 
3720.000000	99.181606 
3719.000000	99.180841 
3718.000000	99.179391 
3717.000000	99.176537 
3716.000000	99.172686 
3715.000000	99.168271 
3714.000000	99.163795 
3713.000000	99.160413 
3712.000000	99.158406 
3711.000000	99.156492 
3710.000000	99.154220 
3709.000000	99.152062 
3708.000000	99.149913 
3707.000000	99.147370 
3706.000000	99.144423 
3705.000000	99.141301 
3704.000000	99.138227 
3703.000000	99.135445 
3702.000000	99.132893 
3701.000000	99.130480 
3700.000000	99.128750 
3699.000000	99.127348 
3698.000000	99.124420 
3697.000000	99.119207 
3696.000000	99.113496 
3695.000000	99.109472 
3694.000000	99.107168 
3693.000000	99.105211 
3692.000000	99.102942 
3691.000000	99.100168 
3690.000000	99.095947 
3689.000000	99.089624 
3688.000000	99.083906 
3687.000000	99.082667 
3686.000000	99.085176 
3685.000000	99.086949 
3684.000000	99.085895 
3683.000000	99.083777 
3682.000000	99.082417 
3681.000000	99.081018 
3680.000000	99.077862 
3679.000000	99.073553 
3678.000000	99.069829 
3677.000000	99.067145 
3676.000000	99.063841 
3675.000000	99.059859 
3674.000000	99.060016 
3673.000000	99.064826 
3672.000000	99.068158 
3671.000000	99.068066 
3670.000000	99.066916 
3669.000000	99.066137 
3668.000000	99.066302 
3667.000000	99.066326 
3666.000000	99.065289 
3665.000000	99.064411 
3664.000000	99.065090 
3663.000000	99.067136 
3662.000000	99.069341 
3661.000000	99.070893 
3660.000000	99.072000 
3659.000000	99.073319 
3658.000000	99.074874 
3657.000000	99.076080 
3656.000000	99.076707 
3655.000000	99.078255 
3654.000000	99.081592 
3653.000000	99.085367 
3652.000000	99.088754 
3651.000000	99.092476 
3650.000000	99.095830 
3649.000000	99.096446 
3648.000000	99.094389 
3647.000000	99.092577 
3646.000000	99.093063 
3645.000000	99.095448 
3644.000000	99.098361 
3643.000000	99.100878 
3642.000000	99.102974 
3641.000000	99.104970 
3640.000000	99.107117 
3639.000000	99.109570 
3638.000000	99.112512 
3637.000000	99.115891 
3636.000000	99.118928 
3635.000000	99.120616 
3634.000000	99.120826 
3633.000000	99.120558 
3632.000000	99.120847 
3631.000000	99.122016 
3630.000000	99.123907 
3629.000000	99.125681 
3628.000000	99.126955 
3627.000000	99.128782 
3626.000000	99.131135 
3625.000000	99.132998 
3624.000000	99.134375 
3623.000000	99.135821 
3622.000000	99.137442 
3621.000000	99.138937 
3620.000000	99.140112 
3619.000000	99.141026 
3618.000000	99.142075 
3617.000000	99.143684 
3616.000000	99.145584 
3615.000000	99.147023 
3614.000000	99.147506 
3613.000000	99.147105 
3612.000000	99.146364 
3611.000000	99.145855 
3610.000000	99.145856 
3609.000000	99.146515 
3608.000000	99.147762 
3607.000000	99.149190 
3606.000000	99.150252 
3605.000000	99.150624 
3604.000000	99.150631 
3603.000000	99.151030 
3602.000000	99.152156 
3601.000000	99.153810 
3600.000000	99.155860 
3599.000000	99.158325 
3598.000000	99.160843 
3597.000000	99.162856 
3596.000000	99.163825 
3595.000000	99.163406 
3594.000000	99.161748 
3593.000000	99.159972 
3592.000000	99.159484 
3591.000000	99.160960 
3590.000000	99.163928 
3589.000000	99.166833 
3588.000000	99.167619 
3587.000000	99.165578 
3586.000000	99.162416 
3585.000000	99.160137 
3584.000000	99.158876 
3583.000000	99.158030 
3582.000000	99.157406 
3581.000000	99.157052 
3580.000000	99.156813 
3579.000000	99.156418 
3578.000000	99.155649 
3577.000000	99.154610 
3576.000000	99.153670 
3575.000000	99.153161 
3574.000000	99.153134 
3573.000000	99.153375 
3572.000000	99.153672 
3571.000000	99.153928 
3570.000000	99.154206 
3569.000000	99.154644 
3568.000000	99.155207 
3567.000000	99.155590 
3566.000000	99.155897 
3565.000000	99.156563 
3564.000000	99.157239 
3563.000000	99.157256 
3562.000000	99.156613 
3561.000000	99.155781 
3560.000000	99.155058 
3559.000000	99.154413 
3558.000000	99.153763 
3557.000000	99.153253 
3556.000000	99.153279 
3555.000000	99.154001 
3554.000000	99.154945 
3553.000000	99.155265 
3552.000000	99.154626 
3551.000000	99.153516 
3550.000000	99.152486 
3549.000000	99.151535 
3548.000000	99.150640 
3547.000000	99.150206 
3546.000000	99.150574 
3545.000000	99.151549 
3544.000000	99.152520 
3543.000000	99.152990 
3542.000000	99.152989 
3541.000000	99.152971 
3540.000000	99.153508 
3539.000000	99.154774 
3538.000000	99.156394 
3537.000000	99.157682 
3536.000000	99.158185 
3535.000000	99.157963 
3534.000000	99.157390 
3533.000000	99.156976 
3532.000000	99.157058 
3531.000000	99.157609 
3530.000000	99.158165 
3529.000000	99.158235 
3528.000000	99.157749 
3527.000000	99.157030 
3526.000000	99.156339 
3525.000000	99.155667 
3524.000000	99.154994 
3523.000000	99.154480 
3522.000000	99.154295 
3521.000000	99.154380 
3520.000000	99.154500 
3519.000000	99.154485 
3518.000000	99.154363 
3517.000000	99.154281 
3516.000000	99.154350 
3515.000000	99.154592 
3514.000000	99.154970 
3513.000000	99.155399 
3512.000000	99.155732 
3511.000000	99.155837 
3510.000000	99.155700 
3509.000000	99.155439 
3508.000000	99.155193 
3507.000000	99.154991 
3506.000000	99.154777 
3505.000000	99.154529 
3504.000000	99.154280 
3503.000000	99.154071 
3502.000000	99.153907 
3501.000000	99.153755 
3500.000000	99.153588 
3499.000000	99.153403 
3498.000000	99.153200 
3497.000000	99.152980 
3496.000000	99.152755 
3495.000000	99.152538 
3494.000000	99.152336 
3493.000000	99.152148 
3492.000000	99.151969 
3491.000000	99.151794 
3490.000000	99.151625 
3489.000000	99.151467 
3488.000000	99.151323 
3487.000000	99.151191 
3486.000000	99.151069 
3485.000000	99.150953 
3484.000000	99.150840 
3483.000000	99.150729 
3482.000000	99.150620 
3481.000000	99.150509 
3480.000000	99.150392 
3479.000000	99.150267 
3478.000000	99.150134 
3477.000000	99.149993 
3476.000000	99.149846 
3475.000000	99.149693 
3474.000000	99.149537 
3473.000000	99.149384 
3472.000000	99.149241 
3471.000000	99.149109 
3470.000000	99.148994 
3469.000000	99.148894 
3468.000000	99.148804 
3467.000000	99.148708 
3466.000000	99.148582 
3465.000000	99.148412 
3464.000000	99.148217 
3463.000000	99.148040 
3462.000000	99.147895 
3461.000000	99.147712 
3460.000000	99.147398 
3459.000000	99.146979 
3458.000000	99.146639 
3457.000000	99.146540 
3456.000000	99.146637 
3455.000000	99.146713 
3454.000000	99.146651 
3453.000000	99.146609 
3452.000000	99.146823 
3451.000000	99.147322 
3450.000000	99.147867 
3449.000000	99.148147 
3448.000000	99.148003 
3447.000000	99.147513 
3446.000000	99.146912 
3445.000000	99.146473 
3444.000000	99.146350 
3443.000000	99.146500 
3442.000000	99.146735 
3441.000000	99.146866 
3440.000000	99.146854 
3439.000000	99.146786 
3438.000000	99.146730 
3437.000000	99.146640 
3436.000000	99.146445 
3435.000000	99.146195 
3434.000000	99.146068 
3433.000000	99.146199 
3432.000000	99.146531 
3431.000000	99.146838 
3430.000000	99.146897 
3429.000000	99.146632 
3428.000000	99.146138 
3427.000000	99.145577 
3426.000000	99.145089 
3425.000000	99.144769 
3424.000000	99.144673 
3423.000000	99.144781 
3422.000000	99.144976 
3421.000000	99.145089 
3420.000000	99.145008 
3419.000000	99.144763 
3418.000000	99.144520 
3417.000000	99.144464 
3416.000000	99.144624 
3415.000000	99.144834 
3414.000000	99.144864 
3413.000000	99.144643 
3412.000000	99.144335 
3411.000000	99.144196 
3410.000000	99.144360 
3409.000000	99.144768 
3408.000000	99.145217 
3407.000000	99.145477 
3406.000000	99.145412 
3405.000000	99.145097 
3404.000000	99.144823 
3403.000000	99.144889 
3402.000000	99.145359 
3401.000000	99.146025 
3400.000000	99.146579 
3399.000000	99.146854 
3398.000000	99.146929 
3397.000000	99.147041 
3396.000000	99.147288 
3395.000000	99.147428 
3394.000000	99.147153 
3393.000000	99.146568 
3392.000000	99.146204 
3391.000000	99.146384 
3390.000000	99.146763 
3389.000000	99.146729 
3388.000000	99.146144 
3387.000000	99.145450 
3386.000000	99.145124 
3385.000000	99.145239 
3384.000000	99.145552 
3383.000000	99.145773 
3382.000000	99.145669 
3381.000000	99.145142 
3380.000000	99.144291 
3379.000000	99.143367 
3378.000000	99.142625 
3377.000000	99.142337 
3376.000000	99.142773 
3375.000000	99.143964 
3374.000000	99.145593 
3373.000000	99.147258 
3372.000000	99.148791 
3371.000000	99.150164 
3370.000000	99.151239 
3369.000000	99.151844 
3368.000000	99.152014 
3367.000000	99.151919 
3366.000000	99.151589 
3365.000000	99.150935 
3364.000000	99.150049 
3363.000000	99.149277 
3362.000000	99.148885 
3361.000000	99.148780 
3360.000000	99.148560 
3359.000000	99.147841 
3358.000000	99.146687 
3357.000000	99.145791 
3356.000000	99.145990 
3355.000000	99.147425 
3354.000000	99.149319 
3353.000000	99.150744 
3352.000000	99.151517 
3351.000000	99.152110 
3350.000000	99.152877 
3349.000000	99.153722 
3348.000000	99.154464 
3347.000000	99.155125 
3346.000000	99.155707 
3345.000000	99.155998 
3344.000000	99.155786 
3343.000000	99.155146 
3342.000000	99.154414 
3341.000000	99.153922 
3340.000000	99.153788 
3339.000000	99.153851 
3338.000000	99.153721 
3337.000000	99.153038 
3336.000000	99.151832 
3335.000000	99.150653 
3334.000000	99.150205 
3333.000000	99.150790 
3332.000000	99.152097 
3331.000000	99.153413 
3330.000000	99.154163 
3329.000000	99.154328 
3328.000000	99.154332 
3327.000000	99.154568 
3326.000000	99.155015 
3325.000000	99.155344 
3324.000000	99.155355 
3323.000000	99.155208 
3322.000000	99.155215 
3321.000000	99.155463 
3320.000000	99.155715 
3319.000000	99.155687 
3318.000000	99.155386 
3317.000000	99.155119 
3316.000000	99.155183 
3315.000000	99.155564 
3314.000000	99.155983 
3313.000000	99.156202 
3312.000000	99.156272 
3311.000000	99.156436 
3310.000000	99.156866 
3309.000000	99.157494 
3308.000000	99.158076 
3307.000000	99.158403 
3306.000000	99.158437 
3305.000000	99.158233 
3304.000000	99.157800 
3303.000000	99.157116 
3302.000000	99.156333 
3301.000000	99.155857 
3300.000000	99.156065 
3299.000000	99.156916 
3298.000000	99.157863 
3297.000000	99.158280 
3296.000000	99.158000 
3295.000000	99.157412 
3294.000000	99.157128 
3293.000000	99.157532 
3292.000000	99.158527 
3291.000000	99.159616 
3290.000000	99.160304 
3289.000000	99.160492 
3288.000000	99.160455 
3287.000000	99.160441 
3286.000000	99.160428 
3285.000000	99.160268 
3284.000000	99.159951 
3283.000000	99.159584 
3282.000000	99.159223 
3281.000000	99.158784 
3280.000000	99.158121 
3279.000000	99.157144 
3278.000000	99.155985 
3277.000000	99.155041 
3276.000000	99.154706 
3275.000000	99.154984 
3274.000000	99.155458 
3273.000000	99.155610 
3272.000000	99.155068 
3271.000000	99.153645 
3270.000000	99.151450 
3269.000000	99.149116 
3268.000000	99.147677 
3267.000000	99.147947 
3266.000000	99.149986 
3265.000000	99.153105 
3264.000000	99.156290 
3263.000000	99.158734 
3262.000000	99.160233 
3261.000000	99.161139 
3260.000000	99.161800 
3259.000000	99.162034 
3258.000000	99.161368 
3257.000000	99.159779 
3256.000000	99.157923 
3255.000000	99.156585 
3254.000000	99.156085 
3253.000000	99.156295 
3252.000000	99.156926 
3251.000000	99.157602 
3250.000000	99.157913 
3249.000000	99.157677 
3248.000000	99.157101 
3247.000000	99.156537 
3246.000000	99.156138 
3245.000000	99.155821 
3244.000000	99.155540 
3243.000000	99.155468 
3242.000000	99.155911 
3241.000000	99.157027 
3240.000000	99.158520 
3239.000000	99.159647 
3238.000000	99.159776 
3237.000000	99.158999 
3236.000000	99.158117 
3235.000000	99.157896 
3234.000000	99.158407 
3233.000000	99.159242 
3232.000000	99.160117 
3231.000000	99.161035 
3230.000000	99.161897 
3229.000000	99.162300 
3228.000000	99.161873 
3227.000000	99.160662 
3226.000000	99.159138 
3225.000000	99.157919 
3224.000000	99.157416 
3223.000000	99.157626 
3222.000000	99.158149 
3221.000000	99.158535 
3220.000000	99.158686 
3219.000000	99.158832 
3218.000000	99.159102 
3217.000000	99.159250 
3216.000000	99.158902 
3215.000000	99.158051 
3214.000000	99.157234 
3213.000000	99.157144 
3212.000000	99.158067 
3211.000000	99.159674 
3210.000000	99.161299 
3209.000000	99.162431 
3208.000000	99.162952 
3207.000000	99.163043 
3206.000000	99.163017 
3205.000000	99.163178 
3204.000000	99.163661 
3203.000000	99.164348 
3202.000000	99.165050 
3201.000000	99.165784 
3200.000000	99.166672 
3199.000000	99.167506 
3198.000000	99.167762 
3197.000000	99.167304 
3196.000000	99.166816 
3195.000000	99.167090 
3194.000000	99.167905 
3193.000000	99.168130 
3192.000000	99.167075 
3191.000000	99.165329 
3190.000000	99.164154 
3189.000000	99.164170 
3188.000000	99.164977 
3187.000000	99.165774 
3186.000000	99.166076 
3185.000000	99.165867 
3184.000000	99.165377 
3183.000000	99.164921 
3182.000000	99.164768 
3181.000000	99.164960 
3180.000000	99.165291 
3179.000000	99.165562 
3178.000000	99.165798 
3177.000000	99.166080 
3176.000000	99.166300 
3175.000000	99.166274 
3174.000000	99.166119 
3173.000000	99.166302 
3172.000000	99.167132 
3171.000000	99.168355 
3170.000000	99.169355 
3169.000000	99.169805 
3168.000000	99.169989 
3167.000000	99.170454 
3166.000000	99.171398 
3165.000000	99.172474 
3164.000000	99.173165 
3163.000000	99.173305 
3162.000000	99.173189 
3161.000000	99.173272 
3160.000000	99.173774 
3159.000000	99.174583 
3158.000000	99.175407 
3157.000000	99.175981 
3156.000000	99.176196 
3155.000000	99.176132 
3154.000000	99.176025 
3153.000000	99.176128 
3152.000000	99.176535 
3151.000000	99.177124 
3150.000000	99.177668 
3149.000000	99.178041 
3148.000000	99.178332 
3147.000000	99.178755 
3146.000000	99.179423 
3145.000000	99.180174 
3144.000000	99.180687 
3143.000000	99.180828 
3142.000000	99.180859 
3141.000000	99.181219 
3140.000000	99.182022 
3139.000000	99.182915 
3138.000000	99.183496 
3137.000000	99.183756 
3136.000000	99.184010 
3135.000000	99.184443 
3134.000000	99.184885 
3133.000000	99.185076 
3132.000000	99.184989 
3131.000000	99.184804 
3130.000000	99.184637 
3129.000000	99.184412 
3128.000000	99.184034 
3127.000000	99.183606 
3126.000000	99.183409 
3125.000000	99.183621 
3124.000000	99.184128 
3123.000000	99.184625 
3122.000000	99.184916 
3121.000000	99.185092 
3120.000000	99.185383 
3119.000000	99.185875 
3118.000000	99.186394 
3117.000000	99.186659 
3116.000000	99.186546 
3115.000000	99.186196 
3114.000000	99.185857 
3113.000000	99.185642 
3112.000000	99.185480 
3111.000000	99.185345 
3110.000000	99.185395 
3109.000000	99.185751 
3108.000000	99.186212 
3107.000000	99.186364 
3106.000000	99.186020 
3105.000000	99.185434 
3104.000000	99.185059 
3103.000000	99.185147 
3102.000000	99.185667 
3101.000000	99.186447 
3100.000000	99.187245 
3099.000000	99.187762 
3098.000000	99.187796 
3097.000000	99.187420 
3096.000000	99.186984 
3095.000000	99.186819 
3094.000000	99.187000 
3093.000000	99.187409 
3092.000000	99.187897 
3091.000000	99.188317 
3090.000000	99.188514 
3089.000000	99.188478 
3088.000000	99.188541 
3087.000000	99.189174 
3086.000000	99.190431 
3085.000000	99.191750 
3084.000000	99.192491 
3083.000000	99.192535 
3082.000000	99.192316 
3081.000000	99.192357 
3080.000000	99.192817 
3079.000000	99.193364 
3078.000000	99.193329 
3077.000000	99.192101 
3076.000000	99.189646 
3075.000000	99.186814 
3074.000000	99.184934 
3073.000000	99.184831 
3072.000000	99.186235 
3071.000000	99.188256 
3070.000000	99.190255 
3069.000000	99.191832 
3068.000000	99.192067 
3067.000000	99.189636 
3066.000000	99.184365 
3065.000000	99.178244 
3064.000000	99.174071 
3063.000000	99.173022 
3062.000000	99.174152 
3061.000000	99.176109 
3060.000000	99.178497 
3059.000000	99.181365 
3058.000000	99.184177 
3057.000000	99.185982 
3056.000000	99.186463 
3055.000000	99.186463 
3054.000000	99.187287 
3053.000000	99.189401 
3052.000000	99.191698 
3051.000000	99.192288 
3050.000000	99.190291 
3049.000000	99.186660 
3048.000000	99.182839 
3047.000000	99.178992 
3046.000000	99.174420 
3045.000000	99.169442 
3044.000000	99.165665 
3043.000000	99.164006 
3042.000000	99.163378 
3041.000000	99.161867 
3040.000000	99.158665 
3039.000000	99.154438 
3038.000000	99.150426 
3037.000000	99.147685 
3036.000000	99.146646 
3035.000000	99.146666 
3034.000000	99.146195 
3033.000000	99.143844 
3032.000000	99.139179 
3031.000000	99.132558 
3030.000000	99.124472 
3029.000000	99.115136 
3028.000000	99.104727 
3027.000000	99.093916 
3026.000000	99.084050 
3025.000000	99.076477 
3024.000000	99.071253 
3023.000000	99.066557 
3022.000000	99.059937 
3021.000000	99.050355 
3020.000000	99.038932 
3019.000000	99.027865 
3018.000000	99.018994 
3017.000000	99.013042 
3016.000000	99.009219 
3015.000000	99.005288 
3014.000000	98.998799 
3013.000000	98.988719 
3012.000000	98.975503 
3011.000000	98.959731 
3010.000000	98.941750 
3009.000000	98.922966 
3008.000000	98.906204 
3007.000000	98.893698 
3006.000000	98.885144 
3005.000000	98.878342 
3004.000000	98.871099 
3003.000000	98.861811 
3002.000000	98.849227 
3001.000000	98.833439 
3000.000000	98.817052 
2999.000000	98.803605 
2998.000000	98.794237 
2997.000000	98.787040 
2996.000000	98.780129 
2995.000000	98.773766 
2994.000000	98.768007 
2993.000000	98.759539 
2992.000000	98.743656 
2991.000000	98.720307 
2990.000000	98.696469 
2989.000000	98.680703 
2988.000000	98.675889 
2987.000000	98.678319 
2986.000000	98.682898 
2985.000000	98.687742 
2984.000000	98.693336 
2983.000000	98.699239 
2982.000000	98.703528 
2981.000000	98.704931 
2980.000000	98.704052 
2979.000000	98.702313 
2978.000000	98.700695 
2977.000000	98.699659 
2976.000000	98.699360 
2975.000000	98.699425 
2974.000000	98.699041 
2973.000000	98.697776 
2972.000000	98.696169 
2971.000000	98.695389 
2970.000000	98.696548 
2969.000000	98.700345 
2968.000000	98.706954 
2967.000000	98.716024 
2966.000000	98.726975 
2965.000000	98.739280 
2964.000000	98.752273 
2963.000000	98.764866 
2962.000000	98.775852 
2961.000000	98.784497 
2960.000000	98.790669 
2959.000000	98.794861 
2958.000000	98.798565 
2957.000000	98.804000 
2956.000000	98.812157 
2955.000000	98.821073 
2954.000000	98.827340 
2953.000000	98.830050 
2952.000000	98.832356 
2951.000000	98.838333 
2950.000000	98.848678 
2949.000000	98.860207 
2948.000000	98.869231 
2947.000000	98.874512 
2946.000000	98.877056 
2945.000000	98.878214 
2944.000000	98.878523 
2943.000000	98.878080 
2942.000000	98.877420 
2941.000000	98.877413 
2940.000000	98.878261 
2939.000000	98.879028 
2938.000000	98.878678 
2937.000000	98.877631 
2936.000000	98.877949 
2935.000000	98.881734 
2934.000000	98.889314 
2933.000000	98.898884 
2932.000000	98.907548 
2931.000000	98.912748 
2930.000000	98.913270 
2929.000000	98.909634 
2928.000000	98.903796 
2927.000000	98.898193 
2926.000000	98.894563 
2925.000000	98.893131 
2924.000000	98.892794 
2923.000000	98.892321 
2922.000000	98.891553 
2921.000000	98.891212 
2920.000000	98.891432 
2919.000000	98.891065 
2918.000000	98.888887 
2917.000000	98.885020 
2916.000000	98.880457 
2915.000000	98.875519 
2914.000000	98.869733 
2913.000000	98.863336 
2912.000000	98.857878 
2911.000000	98.854732 
2910.000000	98.853460 
2909.000000	98.852146 
2908.000000	98.849128 
2907.000000	98.844039 
2906.000000	98.837362 
2905.000000	98.829399 
2904.000000	98.820011 
2903.000000	98.809645 
2902.000000	98.800708 
2901.000000	98.797090 
2900.000000	98.801440 
2899.000000	98.812609 
2898.000000	98.825862 
2897.000000	98.836365 
2896.000000	98.842466 
2895.000000	98.845718 
2894.000000	98.848451 
2893.000000	98.851771 
2892.000000	98.855422 
2891.000000	98.858726 
2890.000000	98.861314 
2889.000000	98.863159 
2888.000000	98.864281 
2887.000000	98.864788 
2886.000000	98.865254 
2885.000000	98.866797 
2884.000000	98.870416 
2883.000000	98.876273 
2882.000000	98.883720 
2881.000000	98.891903 
2880.000000	98.900224 
2879.000000	98.908575 
2878.000000	98.917502 
2877.000000	98.927690 
2876.000000	98.938587 
2875.000000	98.947734 
2874.000000	98.952405 
2873.000000	98.952396 
2872.000000	98.950784 
2871.000000	98.951556 
2870.000000	98.956591 
2869.000000	98.964918 
2868.000000	98.974361 
2867.000000	98.983621 
2866.000000	98.993044 
2865.000000	99.003717 
2864.000000	99.015871 
2863.000000	99.028243 
2862.000000	99.039106 
2861.000000	99.047811 
2860.000000	99.055133 
2859.000000	99.062283 
2858.000000	99.069832 
2857.000000	99.077440 
2856.000000	99.084263 
2855.000000	99.089734 
2854.000000	99.094215 
2853.000000	99.098643 
2852.000000	99.103184 
2851.000000	99.106731 
2850.000000	99.108454 
2849.000000	99.109404 
2848.000000	99.111718 
2847.000000	99.116321 
2846.000000	99.122122 
2845.000000	99.127286 
2844.000000	99.130505 
2843.000000	99.131370 
2842.000000	99.130753 
2841.000000	99.130854 
2840.000000	99.133509 
2839.000000	99.137917 
2838.000000	99.141110 
2837.000000	99.141236 
2836.000000	99.139507 
2835.000000	99.138476 
2834.000000	99.139363 
2833.000000	99.141864 
2832.000000	99.145552 
2831.000000	99.150101 
2830.000000	99.154548 
2829.000000	99.157736 
2828.000000	99.159684 
2827.000000	99.161631 
2826.000000	99.164390 
2825.000000	99.167205 
2824.000000	99.168633 
2823.000000	99.168229 
2822.000000	99.167092 
2821.000000	99.166840 
2820.000000	99.168160 
2819.000000	99.170425 
2818.000000	99.172647 
2817.000000	99.174504 
2816.000000	99.176202 
2815.000000	99.177615 
2814.000000	99.178187 
2813.000000	99.177753 
2812.000000	99.176901 
2811.000000	99.176302 
2810.000000	99.176089 
2809.000000	99.176136 
2808.000000	99.176541 
2807.000000	99.177531 
2806.000000	99.179129 
2805.000000	99.181164 
2804.000000	99.183396 
2803.000000	99.185503 
2802.000000	99.187189 
2801.000000	99.188435 
2800.000000	99.189435 
2799.000000	99.190116 
2798.000000	99.190065 
2797.000000	99.189114 
2796.000000	99.187749 
2795.000000	99.186678 
2794.000000	99.186199 
2793.000000	99.186153 
2792.000000	99.186259 
2791.000000	99.186324 
2790.000000	99.186353 
2789.000000	99.186664 
2788.000000	99.187675 
2787.000000	99.189378 
2786.000000	99.191177 
2785.000000	99.192461 
2784.000000	99.193173 
2783.000000	99.193599 
2782.000000	99.193827 
2781.000000	99.193719 
2780.000000	99.193355 
2779.000000	99.193143 
2778.000000	99.193420 
2777.000000	99.194153 
2776.000000	99.195036 
2775.000000	99.195692 
2774.000000	99.195769 
2773.000000	99.195121 
2772.000000	99.194066 
2771.000000	99.193305 
2770.000000	99.193398 
2769.000000	99.194381 
2768.000000	99.195917 
2767.000000	99.197630 
2766.000000	99.199218 
2765.000000	99.200378 
2764.000000	99.200880 
2763.000000	99.200765 
2762.000000	99.200388 
2761.000000	99.200220 
2760.000000	99.200625 
2759.000000	99.201690 
2758.000000	99.203103 
2757.000000	99.204270 
2756.000000	99.204827 
2755.000000	99.205101 
2754.000000	99.205797 
2753.000000	99.207022 
2752.000000	99.207911 
2751.000000	99.207538 
2750.000000	99.205981 
2749.000000	99.204260 
2748.000000	99.203206 
2747.000000	99.202712 
2746.000000	99.202213 
2745.000000	99.201522 
2744.000000	99.200977 
2743.000000	99.200972 
2742.000000	99.201618 
2741.000000	99.202715 
2740.000000	99.203906 
2739.000000	99.204978 
2738.000000	99.206109 
2737.000000	99.207628 
2736.000000	99.209439 
2735.000000	99.210934 
2734.000000	99.211623 
2733.000000	99.211580 
2732.000000	99.211161 
2731.000000	99.210537 
2730.000000	99.209804 
2729.000000	99.209268 
2728.000000	99.209258 
2727.000000	99.209794 
2726.000000	99.210635 
2725.000000	99.211584 
2724.000000	99.212540 
2723.000000	99.213391 
2722.000000	99.214092 
2721.000000	99.214720 
2720.000000	99.215298 
2719.000000	99.215668 
2718.000000	99.215697 
2717.000000	99.215484 
2716.000000	99.215250 
2715.000000	99.215143 
2714.000000	99.215247 
2713.000000	99.215604 
2712.000000	99.216121 
2711.000000	99.216565 
2710.000000	99.216809 
2709.000000	99.216954 
2708.000000	99.217140 
2707.000000	99.217335 
2706.000000	99.217429 
2705.000000	99.217426 
2704.000000	99.217429 
2703.000000	99.217497 
2702.000000	99.217602 
2701.000000	99.217698 
2700.000000	99.217768 
2699.000000	99.217810 
2698.000000	99.217828 
2697.000000	99.217830 
2696.000000	99.217822 
2695.000000	99.217812 
2694.000000	99.217808 
2693.000000	99.217810 
2692.000000	99.217815 
2691.000000	99.217816 
2690.000000	99.217810 
2689.000000	99.217799 
2688.000000	99.217785 
2687.000000	99.217769 
2686.000000	99.217747 
2685.000000	99.217710 
2684.000000	99.217656 
2683.000000	99.217586 
2682.000000	99.217507 
2681.000000	99.217421 
2680.000000	99.217332 
2679.000000	99.217241 
2678.000000	99.217150 
2677.000000	99.217058 
2676.000000	99.216964 
2675.000000	99.216867 
2674.000000	99.216765 
2673.000000	99.216656 
2672.000000	99.216538 
2671.000000	99.216408 
2670.000000	99.216264 
2669.000000	99.216105 
2668.000000	99.215939 
2667.000000	99.215774 
2666.000000	99.215618 
2665.000000	99.215477 
2664.000000	99.215353 
2663.000000	99.215246 
2662.000000	99.215153 
2661.000000	99.215069 
2660.000000	99.214986 
2659.000000	99.214895 
2658.000000	99.214794 
2657.000000	99.214690 
2656.000000	99.214606 
2655.000000	99.214562 
2654.000000	99.214558 
2653.000000	99.214563 
2652.000000	99.214535 
2651.000000	99.214449 
2650.000000	99.214326 
2649.000000	99.214234 
2648.000000	99.214219 
2647.000000	99.214253 
2646.000000	99.214269 
2645.000000	99.214255 
2644.000000	99.214258 
2643.000000	99.214297 
2642.000000	99.214338 
2641.000000	99.214384 
2640.000000	99.214493 
2639.000000	99.214703 
2638.000000	99.214972 
2637.000000	99.215223 
2636.000000	99.215366 
2635.000000	99.215283 
2634.000000	99.214910 
2633.000000	99.214403 
2632.000000	99.214086 
2631.000000	99.214111 
2630.000000	99.214331 
2629.000000	99.214475 
2628.000000	99.214469 
2627.000000	99.214448 
2626.000000	99.214518 
2625.000000	99.214678 
2624.000000	99.214930 
2623.000000	99.215302 
2622.000000	99.215769 
2621.000000	99.216211 
2620.000000	99.216486 
2619.000000	99.216527 
2618.000000	99.216390 
2617.000000	99.216230 
2616.000000	99.216177 
2615.000000	99.216213 
2614.000000	99.216234 
2613.000000	99.216198 
2612.000000	99.216160 
2611.000000	99.216157 
2610.000000	99.216165 
2609.000000	99.216179 
2608.000000	99.216230 
2607.000000	99.216322 
2606.000000	99.216392 
2605.000000	99.216380 
2604.000000	99.216289 
2603.000000	99.216143 
2602.000000	99.215947 
2601.000000	99.215721 
2600.000000	99.215537 
2599.000000	99.215453 
2598.000000	99.215446 
2597.000000	99.215435 
2596.000000	99.215336 
2595.000000	99.215113 
2594.000000	99.214788 
2593.000000	99.214427 
2592.000000	99.214121 
2591.000000	99.213919 
2590.000000	99.213800 
2589.000000	99.213708 
2588.000000	99.213590 
2587.000000	99.213424 
2586.000000	99.213184 
2585.000000	99.212853 
2584.000000	99.212452 
2583.000000	99.212049 
2582.000000	99.211718 
2581.000000	99.211491 
2580.000000	99.211350 
2579.000000	99.211222 
2578.000000	99.211032 
2577.000000	99.210749 
2576.000000	99.210392 
2575.000000	99.210030 
2574.000000	99.209734 
2573.000000	99.209528 
2572.000000	99.209354 
2571.000000	99.209099 
2570.000000	99.208651 
2569.000000	99.207990 
2568.000000	99.207286 
2567.000000	99.206799 
2566.000000	99.206632 
2565.000000	99.206655 
2564.000000	99.206712 
2563.000000	99.206791 
2562.000000	99.206950 
2561.000000	99.207182 
2560.000000	99.207435 
2559.000000	99.207686 
2558.000000	99.207840 
2557.000000	99.207649 
2556.000000	99.206952 
2555.000000	99.206080 
2554.000000	99.205831 
2553.000000	99.206817 
2552.000000	99.208831 
2551.000000	99.210878 
2550.000000	99.212057 
2549.000000	99.212245 
2548.000000	99.211766 
2547.000000	99.210702 
2546.000000	99.209017 
2545.000000	99.207258 
2544.000000	99.206433 
2543.000000	99.206968 
2542.000000	99.208253 
2541.000000	99.209459 
2540.000000	99.210316 
2539.000000	99.210643 
2538.000000	99.209767 
2537.000000	99.207210 
2536.000000	99.203723 
2535.000000	99.200949 
2534.000000	99.199992 
2533.000000	99.200861 
2532.000000	99.203037 
2531.000000	99.205871 
2530.000000	99.208524 
2529.000000	99.210280 
2528.000000	99.211186 
2527.000000	99.211917 
2526.000000	99.212980 
2525.000000	99.214470 
2524.000000	99.216476 
2523.000000	99.218996 
2522.000000	99.221258 
2521.000000	99.221876 
2520.000000	99.220182 
2519.000000	99.217086 
2518.000000	99.214391 
2517.000000	99.213298 
2516.000000	99.213702 
2515.000000	99.214556 
2514.000000	99.214704 
2513.000000	99.213612 
2512.000000	99.211526 
2511.000000	99.209023 
2510.000000	99.206540 
2509.000000	99.204502 
2508.000000	99.203637 
2507.000000	99.204542 
2506.000000	99.206716 
2505.000000	99.208451 
2504.000000	99.208228 
2503.000000	99.206101 
2502.000000	99.203587 
2501.000000	99.202282 
2500.000000	99.202734 
2499.000000	99.204587 
2498.000000	99.207324 
2497.000000	99.210463 
2496.000000	99.213246 
2495.000000	99.214746 
2494.000000	99.214614 
2493.000000	99.213372 
2492.000000	99.211615 
2491.000000	99.209220 
2490.000000	99.205865 
2489.000000	99.202137 
2488.000000	99.199411 
2487.000000	99.198436 
2486.000000	99.198694 
2485.000000	99.199399 
2484.000000	99.200543 
2483.000000	99.202386 
2482.000000	99.204393 
2481.000000	99.205493 
2480.000000	99.205299 
2479.000000	99.204478 
2478.000000	99.203898 
2477.000000	99.203727 
2476.000000	99.203522 
2475.000000	99.202984 
2474.000000	99.202414 
2473.000000	99.202462 
2472.000000	99.203483 
2471.000000	99.205215 
2470.000000	99.206970 
2469.000000	99.208103 
2468.000000	99.208247 
2467.000000	99.207261 
2466.000000	99.205370 
2465.000000	99.203416 
2464.000000	99.202431 
2463.000000	99.202717 
2462.000000	99.203517 
2461.000000	99.203720 
2460.000000	99.202970 
2459.000000	99.201833 
2458.000000	99.201080 
2457.000000	99.200981 
2456.000000	99.201244 
2455.000000	99.201381 
2454.000000	99.201066 
2453.000000	99.200327 
2452.000000	99.199469 
2451.000000	99.198800 
2450.000000	99.198421 
2449.000000	99.198277 
2448.000000	99.198296 
2447.000000	99.198421 
2446.000000	99.198618 
2445.000000	99.198942 
2444.000000	99.199496 
2443.000000	99.200219 
2442.000000	99.200802 
2441.000000	99.200952 
2440.000000	99.200678 
2439.000000	99.200220 
2438.000000	99.199766 
2437.000000	99.199387 
2436.000000	99.199127 
2435.000000	99.198906 
2434.000000	99.198431 
2433.000000	99.197461 
2432.000000	99.196184 
2431.000000	99.195116 
2430.000000	99.194568 
2429.000000	99.194433 
2428.000000	99.194539 
2427.000000	99.194952 
2426.000000	99.195714 
2425.000000	99.196472 
2424.000000	99.196639 
2423.000000	99.195920 
2422.000000	99.194574 
2421.000000	99.193360 
2420.000000	99.192979 
2419.000000	99.193586 
2418.000000	99.194823 
2417.000000	99.196105 
2416.000000	99.197041 
2415.000000	99.197547 
2414.000000	99.197673 
2413.000000	99.197538 
2412.000000	99.197373 
2411.000000	99.197430 
2410.000000	99.197783 
2409.000000	99.198277 
2408.000000	99.198757 
2407.000000	99.199299 
2406.000000	99.200074 
2405.000000	99.201024 
2404.000000	99.201869 
2403.000000	99.202395 
2402.000000	99.202632 
2401.000000	99.202767 
2400.000000	99.202942 
2399.000000	99.203215 
2398.000000	99.203643 
2397.000000	99.204284 
2396.000000	99.205110 
2395.000000	99.205983 
2394.000000	99.206788 
2393.000000	99.207561 
2392.000000	99.208437 
2391.000000	99.209505 
2390.000000	99.210761 
2389.000000	99.212121 
2388.000000	99.213453 
2387.000000	99.214616 
2386.000000	99.215569 
2385.000000	99.216412 
2384.000000	99.217305 
2383.000000	99.218324 
2382.000000	99.219431 
2381.000000	99.220557 
2380.000000	99.221652 
2379.000000	99.222659 
2378.000000	99.223525 
2377.000000	99.224274 
2376.000000	99.225016 
2375.000000	99.225847 
2374.000000	99.226762 
2373.000000	99.227685 
2372.000000	99.228573 
2371.000000	99.229456 
2370.000000	99.230365 
2369.000000	99.231253 
2368.000000	99.232022 
2367.000000	99.232627 
2366.000000	99.233105 
2365.000000	99.233540 
2364.000000	99.234028 
2363.000000	99.234599 
2362.000000	99.235242 
2361.000000	99.235901 
2360.000000	99.236512 
2359.000000	99.237056 
2358.000000	99.237536 
2357.000000	99.237964 
2356.000000	99.238355 
2355.000000	99.238707 
2354.000000	99.238997 
2353.000000	99.239209 
2352.000000	99.239374 
2351.000000	99.239550 
2350.000000	99.239749 
2349.000000	99.239934 
2348.000000	99.240069 
2347.000000	99.240166 
2346.000000	99.240249 
2345.000000	99.240242 
2344.000000	99.240078 
2343.000000	99.239841 
2342.000000	99.239719 
2341.000000	99.239772 
2340.000000	99.239841 
2339.000000	99.239777 
2338.000000	99.239547 
2337.000000	99.239195 
2336.000000	99.238807 
2335.000000	99.238518 
2334.000000	99.238382 
2333.000000	99.238249 
2332.000000	99.237847 
2331.000000	99.236990 
2330.000000	99.235519 
2329.000000	99.233671 
2328.000000	99.232108 
2327.000000	99.231380 
2326.000000	99.231258 
2325.000000	99.230640 
2324.000000	99.228937 
2323.000000	99.226850 
2322.000000	99.226003 
2321.000000	99.227240 
2320.000000	99.229607 
2319.000000	99.231274 
2318.000000	99.231208 
2317.000000	99.229732 
2316.000000	99.227680 
2315.000000	99.225675 
2314.000000	99.223990 
2313.000000	99.222915 
2312.000000	99.222685 
2311.000000	99.223317 
2310.000000	99.224631 
2309.000000	99.226171 
2308.000000	99.226920 
2307.000000	99.225475 
2306.000000	99.221431 
2305.000000	99.216096 
2304.000000	99.211345 
2303.000000	99.207844 
2302.000000	99.205125 
2301.000000	99.202792 
2300.000000	99.200831 
2299.000000	99.198877 
2298.000000	99.196320 
2297.000000	99.193477 
2296.000000	99.191654 
2295.000000	99.191442 
2294.000000	99.191700 
2293.000000	99.190820 
2292.000000	99.188708 
2291.000000	99.186678 
2290.000000	99.185712 
2289.000000	99.185493 
2288.000000	99.185130 
2287.000000	99.184162 
2286.000000	99.182685 
2285.000000	99.180938 
2284.000000	99.179044 
2283.000000	99.176949 
2282.000000	99.174456 
2281.000000	99.171510 
2280.000000	99.168548 
2279.000000	99.166410 
2278.000000	99.165674 
2277.000000	99.166081 
2276.000000	99.166613 
2275.000000	99.166236 
2274.000000	99.164693 
2273.000000	99.162514 
2272.000000	99.160195 
2271.000000	99.157544 
2270.000000	99.154320 
2269.000000	99.151435 
2268.000000	99.150644 
2267.000000	99.152756 
2266.000000	99.156693 
2265.000000	99.160208 
2264.000000	99.161554 
2263.000000	99.160366 
2262.000000	99.157715 
2261.000000	99.155709 
2260.000000	99.155938 
2259.000000	99.157727 
2258.000000	99.158487 
2257.000000	99.156536 
2256.000000	99.152931 
2255.000000	99.150007 
2254.000000	99.148558 
2253.000000	99.147624 
2252.000000	99.146611 
2251.000000	99.146151 
2250.000000	99.146788 
2249.000000	99.148070 
2248.000000	99.149276 
2247.000000	99.149978 
2246.000000	99.149614 
2245.000000	99.147463 
2244.000000	99.143550 
2243.000000	99.139046 
2242.000000	99.135436 
2241.000000	99.133557 
2240.000000	99.133273 
2239.000000	99.133428 
2238.000000	99.132344 
2237.000000	99.129139 
2236.000000	99.124629 
2235.000000	99.120396 
2234.000000	99.117191 
2233.000000	99.114991 
2232.000000	99.114238 
2231.000000	99.115948 
2230.000000	99.120487 
2229.000000	99.126886 
2228.000000	99.133285 
2227.000000	99.137627 
2226.000000	99.138377 
2225.000000	99.135432 
2224.000000	99.130387 
2223.000000	99.125219 
2222.000000	99.120942 
2221.000000	99.118128 
2220.000000	99.117750 
2219.000000	99.120318 
2218.000000	99.124646 
2217.000000	99.128658 
2216.000000	99.131459 
2215.000000	99.133513 
2214.000000	99.134942 
2213.000000	99.134895 
2212.000000	99.132685 
2211.000000	99.128792 
2210.000000	99.124730 
2209.000000	99.122342 
2208.000000	99.122732 
2207.000000	99.125083 
2206.000000	99.126815 
2205.000000	99.125872 
2204.000000	99.122584 
2203.000000	99.118819 
2202.000000	99.115913 
2201.000000	99.114054 
2200.000000	99.112859 
2199.000000	99.111373 
2198.000000	99.108249 
2197.000000	99.103382 
2196.000000	99.099097 
2195.000000	99.098192 
2194.000000	99.101028 
2193.000000	99.105502 
2192.000000	99.109229 
2191.000000	99.110980 
2190.000000	99.110479 
2189.000000	99.108348 
2188.000000	99.106251 
2187.000000	99.105560 
2186.000000	99.105835 
2185.000000	99.105836 
2184.000000	99.105695 
2183.000000	99.106589 
2182.000000	99.108476 
2181.000000	99.109923 
2180.000000	99.110282 
2179.000000	99.110326 
2178.000000	99.110473 
2177.000000	99.109918 
2176.000000	99.108055 
2175.000000	99.105543 
2174.000000	99.103501 
2173.000000	99.102465 
2172.000000	99.102451 
2171.000000	99.103240 
2170.000000	99.104311 
2169.000000	99.105132 
2168.000000	99.105805 
2167.000000	99.106829 
2166.000000	99.108147 
2165.000000	99.109129 
2164.000000	99.109580 
2163.000000	99.110022 
2162.000000	99.110848 
2161.000000	99.111874 
2160.000000	99.112871 
2159.000000	99.113892 
2158.000000	99.114919 
2157.000000	99.115789 
2156.000000	99.116614 
2155.000000	99.117694 
2154.000000	99.118989 
2153.000000	99.120116 
2152.000000	99.120871 
2151.000000	99.121469 
2150.000000	99.122303 
2149.000000	99.123548 
2148.000000	99.125115 
2147.000000	99.126716 
2146.000000	99.127996 
2145.000000	99.128730 
2144.000000	99.128961 
2143.000000	99.129072 
2142.000000	99.129447 
2141.000000	99.130134 
2140.000000	99.130969 
2139.000000	99.131868 
2138.000000	99.132894 
2137.000000	99.133971 
2136.000000	99.134822 
2135.000000	99.135327 
2134.000000	99.135746 
2133.000000	99.136388 
2132.000000	99.137145 
2131.000000	99.137550 
2130.000000	99.137281 
2129.000000	99.136467 
2128.000000	99.135627 
2127.000000	99.135206 
2126.000000	99.135227 
2125.000000	99.135326 
2124.000000	99.135205 
2123.000000	99.135042 
2122.000000	99.135195 
2121.000000	99.135572 
2120.000000	99.135619 
2119.000000	99.135046 
2118.000000	99.134272 
2117.000000	99.133927 
2116.000000	99.134063 
2115.000000	99.134171 
2114.000000	99.133956 
2113.000000	99.133777 
2112.000000	99.134118 
2111.000000	99.134744 
2110.000000	99.134730 
2109.000000	99.133499 
2108.000000	99.131608 
2107.000000	99.130174 
2106.000000	99.129500 
2105.000000	99.128591 
2104.000000	99.126285 
2103.000000	99.122693 
2102.000000	99.119351 
2101.000000	99.117770 
2100.000000	99.118190 
2099.000000	99.119646 
2098.000000	99.120852 
2097.000000	99.121288 
2096.000000	99.121359 
2095.000000	99.121440 
2094.000000	99.120843 
2093.000000	99.118237 
2092.000000	99.113474 
2091.000000	99.108705 
2090.000000	99.106830 
2089.000000	99.108601 
2088.000000	99.111785 
2087.000000	99.113292 
2086.000000	99.112358 
2085.000000	99.110982 
2084.000000	99.111384 
2083.000000	99.113632 
2082.000000	99.116047 
2081.000000	99.117412 
2080.000000	99.118143 
2079.000000	99.119186 
2078.000000	99.120571 
2077.000000	99.121694 
2076.000000	99.122534 
2075.000000	99.123631 
2074.000000	99.124821 
2073.000000	99.125033 
2072.000000	99.123656 
2071.000000	99.121372 
2070.000000	99.119292 
2069.000000	99.117822 
2068.000000	99.116812 
2067.000000	99.116266 
2066.000000	99.116261 
2065.000000	99.116312 
2064.000000	99.115496 
2063.000000	99.113469 
2062.000000	99.110966 
2061.000000	99.109256 
2060.000000	99.109126 
2059.000000	99.110277 
2058.000000	99.111534 
2057.000000	99.111696 
2056.000000	99.110243 
2055.000000	99.107332 
2054.000000	99.103607 
2053.000000	99.100096 
2052.000000	99.097857 
2051.000000	99.097385 
2050.000000	99.098143 
2049.000000	99.098748 
2048.000000	99.097882 
2047.000000	99.095138 
2046.000000	99.091167 
2045.000000	99.087185 
2044.000000	99.084166 
2043.000000	99.082178 
2042.000000	99.080562 
2041.000000	99.078963 
2040.000000	99.077933 
2039.000000	99.078214 
2038.000000	99.079652 
2037.000000	99.081159 
2036.000000	99.081743 
2035.000000	99.081120 
2034.000000	99.079376 
2033.000000	99.076677 
2032.000000	99.073474 
2031.000000	99.070554 
2030.000000	99.068508 
2029.000000	99.067226 
2028.000000	99.066080 
2027.000000	99.064647 
2026.000000	99.063227 
2025.000000	99.062658 
2024.000000	99.063386 
2023.000000	99.064702 
2022.000000	99.065118 
2021.000000	99.063842 
2020.000000	99.061731 
2019.000000	99.060520 
2018.000000	99.061008 
2017.000000	99.062301 
2016.000000	99.062685 
2015.000000	99.061275 
2014.000000	99.058706 
2013.000000	99.056652 
2012.000000	99.056564 
2011.000000	99.058574 
2010.000000	99.061486 
2009.000000	99.064073 
2008.000000	99.066092 
2007.000000	99.067919 
2006.000000	99.069476 
2005.000000	99.070095 
2004.000000	99.069480 
2003.000000	99.068251 
2002.000000	99.067426 
2001.000000	99.067513 
2000.000000	99.068225 
1999.000000	99.068839 
1998.000000	99.068889 
1997.000000	99.068652 
1996.000000	99.068909 
1995.000000	99.070124 
1994.000000	99.071956 
1993.000000	99.073571 
1992.000000	99.074385 
1991.000000	99.074401 
1990.000000	99.073978 
1989.000000	99.073615 
1988.000000	99.073816 
1987.000000	99.074749 
1986.000000	99.075964 
1985.000000	99.076724 
1984.000000	99.076756 
1983.000000	99.076450 
1982.000000	99.076289 
1981.000000	99.076218 
1980.000000	99.075738 
1979.000000	99.074526 
1978.000000	99.072956 
1977.000000	99.071909 
1976.000000	99.071898 
1975.000000	99.072539 
1974.000000	99.073166 
1973.000000	99.073915 
1972.000000	99.075507 
1971.000000	99.078012 
1970.000000	99.080268 
1969.000000	99.080952 
1968.000000	99.079876 
1967.000000	99.078127 
1966.000000	99.077062 
1965.000000	99.076915 
1964.000000	99.077138 
1963.000000	99.077429 
1962.000000	99.077956 
1961.000000	99.078754 
1960.000000	99.079458 
1959.000000	99.079793 
1958.000000	99.079970 
1957.000000	99.080413 
1956.000000	99.081231 
1955.000000	99.082099 
1954.000000	99.082641 
1953.000000	99.082846 
1952.000000	99.083036 
1951.000000	99.083434 
1950.000000	99.083922 
1949.000000	99.084294 
1948.000000	99.084646 
1947.000000	99.085092 
1946.000000	99.085144 
1945.000000	99.083870 
1944.000000	99.081016 
1943.000000	99.077883 
1942.000000	99.076545 
1941.000000	99.077871 
1940.000000	99.080674 
1939.000000	99.083034 
1938.000000	99.084441 
1937.000000	99.086294 
1936.000000	99.089947 
1935.000000	99.094542 
1934.000000	99.097652 
1933.000000	99.098379 
1932.000000	99.098717 
1931.000000	99.101220 
1930.000000	99.105716 
1929.000000	99.109472 
1928.000000	99.110714 
1927.000000	99.110189 
1926.000000	99.109351 
1925.000000	99.108577 
1924.000000	99.107761 
1923.000000	99.107602 
1922.000000	99.108876 
1921.000000	99.110972 
1920.000000	99.112225 
1919.000000	99.111429 
1918.000000	99.108749 
1917.000000	99.105803 
1916.000000	99.104498 
1915.000000	99.105389 
1914.000000	99.107568 
1913.000000	99.109733 
1912.000000	99.111283 
1911.000000	99.112388 
1910.000000	99.113123 
1909.000000	99.113426 
1908.000000	99.113816 
1907.000000	99.115046 
1906.000000	99.117055 
1905.000000	99.118800 
1904.000000	99.119445 
1903.000000	99.119249 
1902.000000	99.118979 
1901.000000	99.119117 
1900.000000	99.119740 
1899.000000	99.120674 
1898.000000	99.121549 
1897.000000	99.122004 
1896.000000	99.122070 
1895.000000	99.122176 
1894.000000	99.122510 
1893.000000	99.122754 
1892.000000	99.122728 
1891.000000	99.122757 
1890.000000	99.123022 
1889.000000	99.123066 
1888.000000	99.122574 
1887.000000	99.122020 
1886.000000	99.122010 
1885.000000	99.122627 
1884.000000	99.123652 
1883.000000	99.125017 
1882.000000	99.126430 
1881.000000	99.127161 
1880.000000	99.127040 
1879.000000	99.127143 
1878.000000	99.128775 
1877.000000	99.131928 
1876.000000	99.135167 
1875.000000	99.137122 
1874.000000	99.137365 
1873.000000	99.136060 
1872.000000	99.133938 
1871.000000	99.132167 
1870.000000	99.131340 
1869.000000	99.130601 
1868.000000	99.129102 
1867.000000	99.127796 
1866.000000	99.127893 
1865.000000	99.128926 
1864.000000	99.129406 
1863.000000	99.128546 
1862.000000	99.126908 
1861.000000	99.125656 
1860.000000	99.125833 
1859.000000	99.128060 
1858.000000	99.131878 
1857.000000	99.135510 
1856.000000	99.137431 
1855.000000	99.137925 
1854.000000	99.138300 
1853.000000	99.139071 
1852.000000	99.139855 
1851.000000	99.140348 
1850.000000	99.140880 
1849.000000	99.142047 
1848.000000	99.143941 
1847.000000	99.145911 
1846.000000	99.146919 
1845.000000	99.146422 
1844.000000	99.145200 
1843.000000	99.144949 
1842.000000	99.146123 
1841.000000	99.147588 
1840.000000	99.148350 
1839.000000	99.148235 
1838.000000	99.147591 
1837.000000	99.146854 
1836.000000	99.146435 
1835.000000	99.146633 
1834.000000	99.147280 
1833.000000	99.147877 
1832.000000	99.148094 
1831.000000	99.147861 
1830.000000	99.147361 
1829.000000	99.147098 
1828.000000	99.147451 
1827.000000	99.148253 
1826.000000	99.149044 
1825.000000	99.149467 
1824.000000	99.149521 
1823.000000	99.149492 
1822.000000	99.149510 
1821.000000	99.149521 
1820.000000	99.149610 
1819.000000	99.150010 
1818.000000	99.150775 
1817.000000	99.151586 
1816.000000	99.152074 
1815.000000	99.152275 
1814.000000	99.152462 
1813.000000	99.152777 
1812.000000	99.153114 
1811.000000	99.153403 
1810.000000	99.153734 
1809.000000	99.154102 
1808.000000	99.154351 
1807.000000	99.154410 
1806.000000	99.154360 
1805.000000	99.154318 
1804.000000	99.154347 
1803.000000	99.154459 
1802.000000	99.154598 
1801.000000	99.154664 
1800.000000	99.154620 
1799.000000	99.154600 
1798.000000	99.154753 
1797.000000	99.155075 
1796.000000	99.155445 
1795.000000	99.155764 
1794.000000	99.156016 
1793.000000	99.156195 
1792.000000	99.156252 
1791.000000	99.156282 
1790.000000	99.156451 
1789.000000	99.156706 
1788.000000	99.156935 
1787.000000	99.157248 
1786.000000	99.157853 
1785.000000	99.158631 
1784.000000	99.159157 
1783.000000	99.159258 
1782.000000	99.159052 
1781.000000	99.158761 
1780.000000	99.158476 
1779.000000	99.158275 
1778.000000	99.158347 
1777.000000	99.158776 
1776.000000	99.159456 
1775.000000	99.160052 
1774.000000	99.160281 
1773.000000	99.160223 
1772.000000	99.160117 
1771.000000	99.160126 
1770.000000	99.160335 
1769.000000	99.160658 
1768.000000	99.160938 
1767.000000	99.161049 
1766.000000	99.161047 
1765.000000	99.161138 
1764.000000	99.161376 
1763.000000	99.161663 
1762.000000	99.162001 
1761.000000	99.162672 
1760.000000	99.163671 
1759.000000	99.164684 
1758.000000	99.165704 
1757.000000	99.167082 
1756.000000	99.168807 
1755.000000	99.170141 
1754.000000	99.170675 
1753.000000	99.170959 
1752.000000	99.171678 
1751.000000	99.172351 
1750.000000	99.172105 
1749.000000	99.171157 
1748.000000	99.170536 
1747.000000	99.170740 
1746.000000	99.171448 
1745.000000	99.172292 
1744.000000	99.173040 
1743.000000	99.173454 
1742.000000	99.173476 
1741.000000	99.173365 
1740.000000	99.173472 
1739.000000	99.173927 
1738.000000	99.174541 
1737.000000	99.175051 
1736.000000	99.175466 
1735.000000	99.176078 
1734.000000	99.176662 
1733.000000	99.176793 
1732.000000	99.176596 
1731.000000	99.176293 
1730.000000	99.176044 
1729.000000	99.175950 
1728.000000	99.176016 
1727.000000	99.176198 
1726.000000	99.176443 
1725.000000	99.176730 
1724.000000	99.176980 
1723.000000	99.177125 
1722.000000	99.177176 
1721.000000	99.177169 
1720.000000	99.177143 
1719.000000	99.177154 
1718.000000	99.177168 
1717.000000	99.177017 
1716.000000	99.176683 
1715.000000	99.176337 
1714.000000	99.176098 
1713.000000	99.175914 
1712.000000	99.175710 
1711.000000	99.175494 
1710.000000	99.175311 
1709.000000	99.175164 
1708.000000	99.175017 
1707.000000	99.174853 
1706.000000	99.174690 
1705.000000	99.174530 
1704.000000	99.174364 
1703.000000	99.174215 
1702.000000	99.174115 
1701.000000	99.174063 
1700.000000	99.173987 
1699.000000	99.173872 
1698.000000	99.173754 
1697.000000	99.173630 
1696.000000	99.173485 
1695.000000	99.173328 
1694.000000	99.173172 
1693.000000	99.173019 
1692.000000	99.172874 
1691.000000	99.172742 
1690.000000	99.172627 
1689.000000	99.172529 
1688.000000	99.172441 
1687.000000	99.172362 
1686.000000	99.172291 
1685.000000	99.172230 
1684.000000	99.172176 
1683.000000	99.172131 
1682.000000	99.172098 
1681.000000	99.172077 
1680.000000	99.172071 
1679.000000	99.172081 
1678.000000	99.172105 
1677.000000	99.172145 
1676.000000	99.172204 
1675.000000	99.172287 
1674.000000	99.172392 
1673.000000	99.172514 
1672.000000	99.172645 
1671.000000	99.172776 
1670.000000	99.172902 
1669.000000	99.173020 
1668.000000	99.173133 
1667.000000	99.173242 
1666.000000	99.173344 
1665.000000	99.173438 
1664.000000	99.173536 
1663.000000	99.173663 
1662.000000	99.173784 
1661.000000	99.173820 
1660.000000	99.173834 
1659.000000	99.174002 
1658.000000	99.174339 
1657.000000	99.174605 
1656.000000	99.174648 
1655.000000	99.174507 
1654.000000	99.174532 
1653.000000	99.174284 
1652.000000	99.174115 
1651.000000	99.174771 
1650.000000	99.175324 
1649.000000	99.175519 
1648.000000	99.175778 
1647.000000	99.175897 
1646.000000	99.175910 
1645.000000	99.176457 
1644.000000	99.177586 
1643.000000	99.178886 
1642.000000	99.179896 
1641.000000	99.180220 
1640.000000	99.179813 
1639.000000	99.178985 
1638.000000	99.178251 
1637.000000	99.178273 
1636.000000	99.179126 
1635.000000	99.179837 
1634.000000	99.179939 
1633.000000	99.179363 
1632.000000	99.178088 
1631.000000	99.176684 
1630.000000	99.175522 
1629.000000	99.174731 
1628.000000	99.174717 
1627.000000	99.175653 
1626.000000	99.176644 
1625.000000	99.176817 
1624.000000	99.176721 
1623.000000	99.177429 
1622.000000	99.178859 
1621.000000	99.180170 
1620.000000	99.181051 
1619.000000	99.181585 
1618.000000	99.181854 
1617.000000	99.181705 
1616.000000	99.182280 
1615.000000	99.184572 
1614.000000	99.187072 
1613.000000	99.188448 
1612.000000	99.189516 
1611.000000	99.191138 
1610.000000	99.192259 
1609.000000	99.191781 
1608.000000	99.190747 
1607.000000	99.190622 
1606.000000	99.190912 
1605.000000	99.190936 
1604.000000	99.191478 
1603.000000	99.192994 
1602.000000	99.194575 
1601.000000	99.195600 
1600.000000	99.196846 
1599.000000	99.198874 
1598.000000	99.200877 
1597.000000	99.201984 
1596.000000	99.202332 
1595.000000	99.202270 
1594.000000	99.201526 
1593.000000	99.200244 
1592.000000	99.199714 
1591.000000	99.200849 
1590.000000	99.202813 
1589.000000	99.204304 
1588.000000	99.205377 
1587.000000	99.206774 
1586.000000	99.208248 
1585.000000	99.208977 
1584.000000	99.209342 
1583.000000	99.209830 
1582.000000	99.209728 
1581.000000	99.208594 
1580.000000	99.207242 
1579.000000	99.206313 
1578.000000	99.205531 
1577.000000	99.204713 
1576.000000	99.204217 
1575.000000	99.204420 
1574.000000	99.204684 
1573.000000	99.204487 
1572.000000	99.204327 
1571.000000	99.204833 
1570.000000	99.205484 
1569.000000	99.205574 
1568.000000	99.205617 
1567.000000	99.205787 
1566.000000	99.205694 
1565.000000	99.205298 
1564.000000	99.204979 
1563.000000	99.204580 
1562.000000	99.203869 
1561.000000	99.202834 
1560.000000	99.202732 
1559.000000	99.203119 
1558.000000	99.203155 
1557.000000	99.203488 
1556.000000	99.203966 
1555.000000	99.204379 
1554.000000	99.204613 
1553.000000	99.204590 
1552.000000	99.204429 
1551.000000	99.204254 
1550.000000	99.204154 
1549.000000	99.204112 
1548.000000	99.204072 
1547.000000	99.203978 
1546.000000	99.203793 
1545.000000	99.203530 
1544.000000	99.203268 
1543.000000	99.203093 
1542.000000	99.203015 
1541.000000	99.202979 
1540.000000	99.202897 
1539.000000	99.202776 
1538.000000	99.202665 
1537.000000	99.202558 
1536.000000	99.202445 
1535.000000	99.202345 
1534.000000	99.202241 
1533.000000	99.202069 
1532.000000	99.201831 
1531.000000	99.201601 
1530.000000	99.201419 
1529.000000	99.201246 
1528.000000	99.201021 
1527.000000	99.200750 
1526.000000	99.200495 
1525.000000	99.200278 
1524.000000	99.200067 
1523.000000	99.199881 
1522.000000	99.199762 
1521.000000	99.199593 
1520.000000	99.199220 
1519.000000	99.198631 
1518.000000	99.197929 
1517.000000	99.197261 
1516.000000	99.196701 
1515.000000	99.196234 
1514.000000	99.195820 
1513.000000	99.195461 
1512.000000	99.195120 
1511.000000	99.194696 
1510.000000	99.194188 
1509.000000	99.193672 
1508.000000	99.193257 
1507.000000	99.192860 
1506.000000	99.192432 
1505.000000	99.191998 
1504.000000	99.191496 
1503.000000	99.190952 
1502.000000	99.190484 
1501.000000	99.190076 
1500.000000	99.189522 
1499.000000	99.188668 
1498.000000	99.187746 
1497.000000	99.187093 
1496.000000	99.186642 
1495.000000	99.186315 
1494.000000	99.186259 
1493.000000	99.186507 
1492.000000	99.186831 
1491.000000	99.186835 
1490.000000	99.186202 
1489.000000	99.184948 
1488.000000	99.183375 
1487.000000	99.182065 
1486.000000	99.181331 
1485.000000	99.180774 
1484.000000	99.180032 
1483.000000	99.179197 
1482.000000	99.178650 
1481.000000	99.178490 
1480.000000	99.178389 
1479.000000	99.178177 
1478.000000	99.177976 
1477.000000	99.177663 
1476.000000	99.176890 
1475.000000	99.176296 
1474.000000	99.176911 
1473.000000	99.178049 
1472.000000	99.177781 
1471.000000	99.176386 
1470.000000	99.175657 
1469.000000	99.175720 
1468.000000	99.175465 
1467.000000	99.174499 
1466.000000	99.173677 
1465.000000	99.173873 
1464.000000	99.175143 
1463.000000	99.176655 
1462.000000	99.177644 
1461.000000	99.177550 
1460.000000	99.176271 
1459.000000	99.173848 
1458.000000	99.170500 
1457.000000	99.165399 
1456.000000	99.158728 
1455.000000	99.152272 
1454.000000	99.147411 
1453.000000	99.145892 
1452.000000	99.147898 
1451.000000	99.150851 
1450.000000	99.152577 
1449.000000	99.153102 
1448.000000	99.152903 
1447.000000	99.152857 
1446.000000	99.153860 
1445.000000	99.156619 
1444.000000	99.160463 
1443.000000	99.162952 
1442.000000	99.162859 
1441.000000	99.161497 
1440.000000	99.160854 
1439.000000	99.161278 
1438.000000	99.163288 
1437.000000	99.165983 
1436.000000	99.165646 
1435.000000	99.160960 
1434.000000	99.154849 
1433.000000	99.149875 
1432.000000	99.146505 
1431.000000	99.143472 
1430.000000	99.140258 
1429.000000	99.137855 
1428.000000	99.135839 
1427.000000	99.132863 
1426.000000	99.128445 
1425.000000	99.124291 
1424.000000	99.121575 
1423.000000	99.118392 
1422.000000	99.113191 
1421.000000	99.107167 
1420.000000	99.102132 
1419.000000	99.096810 
1418.000000	99.090127 
1417.000000	99.083170 
1416.000000	99.075656 
1415.000000	99.066762 
1414.000000	99.057020 
1413.000000	99.048183 
1412.000000	99.041479 
1411.000000	99.036109 
1410.000000	99.030919 
1409.000000	99.025859 
1408.000000	99.021257 
1407.000000	99.017804 
1406.000000	99.016358 
1405.000000	99.017799 
1404.000000	99.021982 
1403.000000	99.027252 
1402.000000	99.032681 
1401.000000	99.038872 
1400.000000	99.045972 
1399.000000	99.051482 
1398.000000	99.051808 
1397.000000	99.045046 
1396.000000	99.032028 
1395.000000	99.018006 
1394.000000	99.011349 
1393.000000	99.016519 
1392.000000	99.029944 
1391.000000	99.043954 
1390.000000	99.053289 
1389.000000	99.057296 
1388.000000	99.057749 
1387.000000	99.056304 
1386.000000	99.054222 
1385.000000	99.052934 
1384.000000	99.053276 
1383.000000	99.054513 
1382.000000	99.055396 
1381.000000	99.055937 
1380.000000	99.057542 
1379.000000	99.061119 
1378.000000	99.065893 
1377.000000	99.070597 
1376.000000	99.074998 
1375.000000	99.079702 
1374.000000	99.085181 
1373.000000	99.091654 
1372.000000	99.098799 
1371.000000	99.105659 
1370.000000	99.111147 
1369.000000	99.115237 
1368.000000	99.118945 
1367.000000	99.122798 
1366.000000	99.126591 
1365.000000	99.130557 
1364.000000	99.135546 
1363.000000	99.141523 
1362.000000	99.146922 
1361.000000	99.150562 
1360.000000	99.153270 
1359.000000	99.156744 
1358.000000	99.161656 
1357.000000	99.167396 
1356.000000	99.172901 
1355.000000	99.177297 
1354.000000	99.180556 
1353.000000	99.183686 
1352.000000	99.187364 
1351.000000	99.190789 
1350.000000	99.192229 
1349.000000	99.192072 
1348.000000	99.192674 
1347.000000	99.194921 
1346.000000	99.197179 
1345.000000	99.197899 
1344.000000	99.197573 
1343.000000	99.197309 
1342.000000	99.197365 
1341.000000	99.198026 
1340.000000	99.200237 
1339.000000	99.203943 
1338.000000	99.207421 
1337.000000	99.209502 
1336.000000	99.210727 
1335.000000	99.211627 
1334.000000	99.211715 
1333.000000	99.210988 
1332.000000	99.210827 
1331.000000	99.212127 
1330.000000	99.213694 
1329.000000	99.213959 
1328.000000	99.213126 
1327.000000	99.212372 
1326.000000	99.211778 
1325.000000	99.210827 
1324.000000	99.209880 
1323.000000	99.209753 
1322.000000	99.210690 
1321.000000	99.212625 
1320.000000	99.215727 
1319.000000	99.219615 
1318.000000	99.222683 
1317.000000	99.223267 
1316.000000	99.221209 
1315.000000	99.217802 
1314.000000	99.214655 
1313.000000	99.212821 
1312.000000	99.212457 
1311.000000	99.212881 
1310.000000	99.213237 
1309.000000	99.213330 
1308.000000	99.213424 
1307.000000	99.213412 
1306.000000	99.212805 
1305.000000	99.211926 
1304.000000	99.211947 
1303.000000	99.213234 
1302.000000	99.214654 
1301.000000	99.215016 
1300.000000	99.214457 
1299.000000	99.213971 
1298.000000	99.214383 
1297.000000	99.216042 
1296.000000	99.218677 
1295.000000	99.221082 
1294.000000	99.221847 
1293.000000	99.220805 
1292.000000	99.218958 
1291.000000	99.216939 
1290.000000	99.214683 
1289.000000	99.212733 
1288.000000	99.212264 
1287.000000	99.213089 
1286.000000	99.213227 
1285.000000	99.211399 
1284.000000	99.208403 
1283.000000	99.205452 
1282.000000	99.202404 
1281.000000	99.198589 
1280.000000	99.194527 
1279.000000	99.191326 
1278.000000	99.189126 
1277.000000	99.187380 
1276.000000	99.185915 
1275.000000	99.184597 
1274.000000	99.182653 
1273.000000	99.179497 
1272.000000	99.175738 
1271.000000	99.172335 
1270.000000	99.169100 
1269.000000	99.165046 
1268.000000	99.159918 
1267.000000	99.154419 
1266.000000	99.149145 
1265.000000	99.144121 
1264.000000	99.139259 
1263.000000	99.134547 
1262.000000	99.129826 
1261.000000	99.125059 
1260.000000	99.120873 
1259.000000	99.118097 
1258.000000	99.116695 
1257.000000	99.115746 
1256.000000	99.114530 
1255.000000	99.113180 
1254.000000	99.112124 
1253.000000	99.111380 
1252.000000	99.110709 
1251.000000	99.110168 
1250.000000	99.110133 
1249.000000	99.110848 
1248.000000	99.112197 
1247.000000	99.113747 
1246.000000	99.114683 
1245.000000	99.113707 
1244.000000	99.109676 
1243.000000	99.103136 
1242.000000	99.097136 
1241.000000	99.095152 
1240.000000	99.097899 
1239.000000	99.102518 
1238.000000	99.105182 
1237.000000	99.104721 
1236.000000	99.102677 
1235.000000	99.100649 
1234.000000	99.098769 
1233.000000	99.096672 
1232.000000	99.094462 
1231.000000	99.092164 
1230.000000	99.089422 
1229.000000	99.086535 
1228.000000	99.084873 
1227.000000	99.085370 
1226.000000	99.087183 
1225.000000	99.088598 
1224.000000	99.088869 
1223.000000	99.088542 
1222.000000	99.088486 
1221.000000	99.089300 
1220.000000	99.091289 
1219.000000	99.094234 
1218.000000	99.097326 
1217.000000	99.099707 
1216.000000	99.100941 
1215.000000	99.100922 
1214.000000	99.099813 
1213.000000	99.098106 
1212.000000	99.096069 
1211.000000	99.093241 
1210.000000	99.089462 
1209.000000	99.086343 
1208.000000	99.086225 
1207.000000	99.089112 
1206.000000	99.092046 
1205.000000	99.092391 
1204.000000	99.090376 
1203.000000	99.087536 
1202.000000	99.084151 
1201.000000	99.079685 
1200.000000	99.074751 
1199.000000	99.070821 
1198.000000	99.068362 
1197.000000	99.066472 
1196.000000	99.063940 
1195.000000	99.059837 
1194.000000	99.053852 
1193.000000	99.046770 
1192.000000	99.040093 
1191.000000	99.034495 
1190.000000	99.029062 
1189.000000	99.022716 
1188.000000	99.015827 
1187.000000	99.009741 
1186.000000	99.005262 
1185.000000	99.002146 
1184.000000	98.999442 
1183.000000	98.995826 
1182.000000	98.990426 
1181.000000	98.983972 
1180.000000	98.978325 
1179.000000	98.974137 
1178.000000	98.969848 
1177.000000	98.963818 
1176.000000	98.956460 
1175.000000	98.949182 
1174.000000	98.942023 
1173.000000	98.933791 
1172.000000	98.924260 
1171.000000	98.914923 
1170.000000	98.907337 
1169.000000	98.901515 
1168.000000	98.896047 
1167.000000	98.889419 
1166.000000	98.881529 
1165.000000	98.874253 
1164.000000	98.870090 
1163.000000	98.869921 
1162.000000	98.872458 
1161.000000	98.876035 
1160.000000	98.880076 
1159.000000	98.884060 
1158.000000	98.886091 
1157.000000	98.883805 
1156.000000	98.876405 
1155.000000	98.865280 
1154.000000	98.853223 
1153.000000	98.843324 
1152.000000	98.837480 
1151.000000	98.834784 
1150.000000	98.831908 
1149.000000	98.826351 
1148.000000	98.818939 
1147.000000	98.812100 
1146.000000	98.806242 
1145.000000	98.799264 
1144.000000	98.789461 
1143.000000	98.777549 
1142.000000	98.765878 
1141.000000	98.756716 
1140.000000	98.751229 
1139.000000	98.748760 
1138.000000	98.746687 
1137.000000	98.742096 
1136.000000	98.734174 
1135.000000	98.724585 
1134.000000	98.715326 
1133.000000	98.706555 
1132.000000	98.696782 
1131.000000	98.684971 
1130.000000	98.672402 
1129.000000	98.662183 
1128.000000	98.656092 
1127.000000	98.651821 
1126.000000	98.644707 
1125.000000	98.632938 
1124.000000	98.619746 
1123.000000	98.609378 
1122.000000	98.601984 
1121.000000	98.594189 
1120.000000	98.583759 
1119.000000	98.571608 
1118.000000	98.559589 
1117.000000	98.548316 
1116.000000	98.537310 
1115.000000	98.525741 
1114.000000	98.512856 
1113.000000	98.498919 
1112.000000	98.485540 
1111.000000	98.473675 
1110.000000	98.461527 
1109.000000	98.446351 
1108.000000	98.428338 
1107.000000	98.410857 
1106.000000	98.396390 
1105.000000	98.383933 
1104.000000	98.370789 
1103.000000	98.355784 
1102.000000	98.340235 
1101.000000	98.326515 
1100.000000	98.315772 
1099.000000	98.307135 
1098.000000	98.298906 
1097.000000	98.290602 
1096.000000	98.282945 
1095.000000	98.275287 
1094.000000	98.264524 
1093.000000	98.247803 
1092.000000	98.225365 
1091.000000	98.199583 
1090.000000	98.172245 
1089.000000	98.144349 
1088.000000	98.117696 
1087.000000	98.094302 
1086.000000	98.074053 
1085.000000	98.054808 
1084.000000	98.035190 
1083.000000	98.015739 
1082.000000	97.997117 
1081.000000	97.978851 
1080.000000	97.960385 
1079.000000	97.941975 
1078.000000	97.924070 
1077.000000	97.907102 
1076.000000	97.892264 
1075.000000	97.881290 
1074.000000	97.875018 
1073.000000	97.872850 
1072.000000	97.872871 
1071.000000	97.870812 
1070.000000	97.859893 
1069.000000	97.835371 
1068.000000	97.800942 
1067.000000	97.768883 
1066.000000	97.750999 
1065.000000	97.749628 
1064.000000	97.757649 
1063.000000	97.765042 
1062.000000	97.764705 
1061.000000	97.753749 
1060.000000	97.732925 
1059.000000	97.706740 
1058.000000	97.682413 
1057.000000	97.665952 
1056.000000	97.658195 
1055.000000	97.654917 
1054.000000	97.651180 
1053.000000	97.645592 
1052.000000	97.639978 
1051.000000	97.635584 
1050.000000	97.631112 
1049.000000	97.624641 
1048.000000	97.615909 
1047.000000	97.606306 
1046.000000	97.598099 
1045.000000	97.593830 
1044.000000	97.594560 
1043.000000	97.598073 
1042.000000	97.600602 
1041.000000	97.601134 
1040.000000	97.602207 
1039.000000	97.605997 
1038.000000	97.612103 
1037.000000	97.620172 
1036.000000	97.631825 
1035.000000	97.647927 
1034.000000	97.666014 
1033.000000	97.682211 
1032.000000	97.693642 
1031.000000	97.697750 
1030.000000	97.692957 
1029.000000	97.683314 
1028.000000	97.679495 
1027.000000	97.690114 
1026.000000	97.712481 
1025.000000	97.735064 
1024.000000	97.749069 
1023.000000	97.754551 
1022.000000	97.756325 
1021.000000	97.758254 
1020.000000	97.762100 
1019.000000	97.768283 
1018.000000	97.775653 
1017.000000	97.782313 
1016.000000	97.787882 
1015.000000	97.793828 
1014.000000	97.801373 
1013.000000	97.810374 
1012.000000	97.820188 
1011.000000	97.830125 
1010.000000	97.839162 
1009.000000	97.846844 
1008.000000	97.854429 
1007.000000	97.863694 
1006.000000	97.874644 
1005.000000	97.885720 
1004.000000	97.896113 
1003.000000	97.906533 
1002.000000	97.917795 
1001.000000	97.929836 
1000.000000	97.942023 
999.000000	 97.953371 
998.000000	 97.962722 
997.000000	 97.969981 
996.000000	 97.977180 
995.000000	 97.987022 
994.000000	 97.999991 
993.000000	 98.013811 
992.000000	 98.025982 
991.000000	 98.035903 
990.000000	 98.044324 
989.000000	 98.051994 
988.000000	 98.059386 
987.000000	 98.066880 
986.000000	 98.074945 
985.000000	 98.084623 
984.000000	 98.097042 
983.000000	 98.111422 
982.000000	 98.124877 
981.000000	 98.135338 
980.000000	 98.144053 
979.000000	 98.154246 
978.000000	 98.168081 
977.000000	 98.185813 
976.000000	 98.206300 
975.000000	 98.226698 
974.000000	 98.243469 
973.000000	 98.256218 
972.000000	 98.269252 
971.000000	 98.286852 
970.000000	 98.307954 
969.000000	 98.327905 
968.000000	 98.344506 
967.000000	 98.359422 
966.000000	 98.374439 
965.000000	 98.389503 
964.000000	 98.404432 
963.000000	 98.419812 
962.000000	 98.435813 
961.000000	 98.452087 
960.000000	 98.468722 
959.000000	 98.485326 
958.000000	 98.499714 
957.000000	 98.509942 
956.000000	 98.517473 
955.000000	 98.526070 
954.000000	 98.537476 
953.000000	 98.550219 
952.000000	 98.562520 
951.000000	 98.573853 
950.000000	 98.583530 
949.000000	 98.590320 
948.000000	 98.594215 
947.000000	 98.596791 
946.000000	 98.599195 
945.000000	 98.601156 
944.000000	 98.602462 
943.000000	 98.604141 
942.000000	 98.607839 
941.000000	 98.614577 
940.000000	 98.623636 
939.000000	 98.631962 
938.000000	 98.636063 
937.000000	 98.636046 
936.000000	 98.636611 
935.000000	 98.642015 
934.000000	 98.651011 
933.000000	 98.659057 
932.000000	 98.664631 
931.000000	 98.670516 
930.000000	 98.678937 
929.000000	 98.688070 
928.000000	 98.694108 
927.000000	 98.695083 
926.000000	 98.692329 
925.000000	 98.689672 
924.000000	 98.691176 
923.000000	 98.698159 
922.000000	 98.707945 
921.000000	 98.716302 
920.000000	 98.721073 
919.000000	 98.722807 
918.000000	 98.722869 
917.000000	 98.722449 
916.000000	 98.722753 
915.000000	 98.724351 
914.000000	 98.726328 
913.000000	 98.727398 
912.000000	 98.727809 
911.000000	 98.729147 
910.000000	 98.732636 
909.000000	 98.738699 
908.000000	 98.747462 
907.000000	 98.758176 
906.000000	 98.768520 
905.000000	 98.776187 
904.000000	 98.781225 
903.000000	 98.785826 
902.000000	 98.792102 
901.000000	 98.800812 
900.000000	 98.811408 
899.000000	 98.821961 
898.000000	 98.829675 
897.000000	 98.833189 
896.000000	 98.834242 
895.000000	 98.836007 
894.000000	 98.839962 
893.000000	 98.845757 
892.000000	 98.853502 
891.000000	 98.864081 
890.000000	 98.877063 
889.000000	 98.890045 
888.000000	 98.900700 
887.000000	 98.908363 
886.000000	 98.913639 
885.000000	 98.917985 
884.000000	 98.923651 
883.000000	 98.932075 
882.000000	 98.941731 
881.000000	 98.949316 
880.000000	 98.953922 
879.000000	 98.958395 
878.000000	 98.965735 
877.000000	 98.975895 
876.000000	 98.986989 
875.000000	 98.997617 
874.000000	 99.006795 
873.000000	 99.013571 
872.000000	 99.018233 
871.000000	 99.022479 
870.000000	 99.027326 
869.000000	 99.032553 
868.000000	 99.039056 
867.000000	 99.049275 
866.000000	 99.063495 
865.000000	 99.077927 
864.000000	 99.088932 
863.000000	 99.097516 
862.000000	 99.107074 
861.000000	 99.117771 
860.000000	 99.126312 
859.000000	 99.131170 
858.000000	 99.134880 
857.000000	 99.140206 
856.000000	 99.146583 
855.000000	 99.152330 
854.000000	 99.158463 
853.000000	 99.167467 
852.000000	 99.178674 
851.000000	 99.187810 
850.000000	 99.192290 
849.000000	 99.194714 
848.000000	 99.199304 
847.000000	 99.206315 
846.000000	 99.212312 
845.000000	 99.215158 
844.000000	 99.215976 
843.000000	 99.216423 
842.000000	 99.216939 
841.000000	 99.218079 
840.000000	 99.220523 
839.000000	 99.222746 
838.000000	 99.221601 
837.000000	 99.216815 
836.000000	 99.212359 
835.000000	 99.211542 
834.000000	 99.213026 
833.000000	 99.213607 
832.000000	 99.212342 
831.000000	 99.209523 
830.000000	 99.204386 
829.000000	 99.197564 
828.000000	 99.194014 
827.000000	 99.199105 
826.000000	 99.211721 
825.000000	 99.224432 
824.000000	 99.230358 
823.000000	 99.227587 
822.000000	 99.218677 
821.000000	 99.209158 
820.000000	 99.205029 
819.000000	 99.208429 
818.000000	 99.216249 
817.000000	 99.224437 
816.000000	 99.231397 
815.000000	 99.235339 
814.000000	 99.232066 
813.000000	 99.219561 
812.000000	 99.202499 
811.000000	 99.187506 
810.000000	 99.174524 
809.000000	 99.157277 
808.000000	 99.131761 
807.000000	 99.100135 
806.000000	 99.066647 
805.000000	 99.033942 
804.000000	 99.004138 
803.000000	 98.979548 
802.000000	 98.960629 
801.000000	 98.945747 
800.000000	 98.933834 
799.000000	 98.925523 
798.000000	 98.921736 
797.000000	 98.922867 
796.000000	 98.928585 
795.000000	 98.936685 
794.000000	 98.943508 
793.000000	 98.947771 
792.000000	 98.952358 
791.000000	 98.959716 
790.000000	 98.967416 
789.000000	 98.971186 
788.000000	 98.970115 
787.000000	 98.965256 
786.000000	 98.955279 
785.000000	 98.938069 
784.000000	 98.915958 
783.000000	 98.895595 
782.000000	 98.882614 
781.000000	 98.878626 
780.000000	 98.881525 
779.000000	 98.885686 
778.000000	 98.884438 
777.000000	 98.876900 
776.000000	 98.870682 
775.000000	 98.873599 
774.000000	 98.884484 
773.000000	 98.896129 
772.000000	 98.905532 
771.000000	 98.915882 
770.000000	 98.929411 
769.000000	 98.943838 
768.000000	 98.955760 
767.000000	 98.963511 
766.000000	 98.967184 
765.000000	 98.969546 
764.000000	 98.975801 
763.000000	 98.988049 
762.000000	 99.000658 
761.000000	 99.005733 
760.000000	 99.002948 
759.000000	 98.999958 
758.000000	 99.003202 
757.000000	 99.011859 
756.000000	 99.020798 
755.000000	 99.025609 
754.000000	 99.024765 
753.000000	 99.020431 
752.000000	 99.018075 
751.000000	 99.022582 
750.000000	 99.033903 
749.000000	 99.047699 
748.000000	 99.059911 
747.000000	 99.069245 
746.000000	 99.075852 
745.000000	 99.080370 
744.000000	 99.084413 
743.000000	 99.089614 
742.000000	 99.095808 
741.000000	 99.101797 
740.000000	 99.107605 
739.000000	 99.114181 
738.000000	 99.121262 
737.000000	 99.127327 
736.000000	 99.131448 
735.000000	 99.133916 
734.000000	 99.135496 
733.000000	 99.137366 
732.000000	 99.141315 
731.000000	 99.148368 
730.000000	 99.156855 
729.000000	 99.163446 
728.000000	 99.166915 
727.000000	 99.169171 
726.000000	 99.172030 
725.000000	 99.174616 
724.000000	 99.175407 
723.000000	 99.175019 
722.000000	 99.175460 
721.000000	 99.178025 
720.000000	 99.183178 
719.000000	 99.190917 
718.000000	 99.199605 
717.000000	 99.205966 
716.000000	 99.207944 
715.000000	 99.206569 
714.000000	 99.204633 
713.000000	 99.204146 
712.000000	 99.206267 
711.000000	 99.211635 
710.000000	 99.218808 
709.000000	 99.224141 
708.000000	 99.225025 
707.000000	 99.222278 
706.000000	 99.218345 
705.000000	 99.214460 
704.000000	 99.210939 
703.000000	 99.208761 
702.000000	 99.209056 
701.000000	 99.211269 
700.000000	 99.213145 
699.000000	 99.212589 
698.000000	 99.209430 
697.000000	 99.205522 
696.000000	 99.203087 
695.000000	 99.202670 
694.000000	 99.202953 
693.000000	 99.202927 
692.000000	 99.203491 
691.000000	 99.205834 
690.000000	 99.209270 
689.000000	 99.211862 
688.000000	 99.212802 
687.000000	 99.212845 
686.000000	 99.212668 
685.000000	 99.212203 
684.000000	 99.211486 
683.000000	 99.210969 
682.000000	 99.210886 
681.000000	 99.211058 
680.000000	 99.211347 
679.000000	 99.211724 
678.000000	 99.212028 
677.000000	 99.212163 
676.000000	 99.212334 
675.000000	 99.212660 
674.000000	 99.212937 
673.000000	 99.212970 
672.000000	 99.212854 
671.000000	 99.212735 
670.000000	 99.212714 
669.000000	 99.212796 
668.000000	 99.212954 
667.000000	 99.213168 
666.000000	 99.213417 
665.000000	 99.213687 
664.000000	 99.213970 
663.000000	 99.214269 
662.000000	 99.214585 
661.000000	 99.214858 
660.000000	 99.215025 
659.000000	 99.215103 
658.000000	 99.215164 
657.000000	 99.215258 
656.000000	 99.215395 
655.000000	 99.215565 
654.000000	 99.215738 
653.000000	 99.215889 
652.000000	 99.216011 
651.000000	 99.216121 
650.000000	 99.216234 

