4000.000000	100.088444 
3999.000000	100.088757 
3998.000000	100.088000 
3997.000000	100.087204 
3996.000000	100.086671 
3995.000000	100.086126 
3994.000000	100.085543 
3993.000000	100.085439 
3992.000000	100.086207 
3991.000000	100.087270 
3990.000000	100.087120 
3989.000000	100.084542 
3988.000000	100.080157 
3987.000000	100.076551 
3986.000000	100.076345 
3985.000000	100.079948 
3984.000000	100.085342 
3983.000000	100.090198 
3982.000000	100.093849 
3981.000000	100.097066 
3980.000000	100.100382 
3979.000000	100.103129 
3978.000000	100.104113 
3977.000000	100.102955 
3976.000000	100.100593 
3975.000000	100.098407 
3974.000000	100.096854 
3973.000000	100.095158 
3972.000000	100.092663 
3971.000000	100.090225 
3970.000000	100.089857 
3969.000000	100.092801 
3968.000000	100.098171 
3967.000000	100.103545 
3966.000000	100.106506 
3965.000000	100.105885 
3964.000000	100.102362 
3963.000000	100.098202 
3962.000000	100.095698 
3961.000000	100.095180 
3960.000000	100.094851 
3959.000000	100.092887 
3958.000000	100.089613 
3957.000000	100.087198 
3956.000000	100.087372 
3955.000000	100.089787 
3954.000000	100.092393 
3953.000000	100.093364 
3952.000000	100.092592 
3951.000000	100.091481 
3950.000000	100.091349 
3949.000000	100.092004 
3948.000000	100.092281 
3947.000000	100.091791 
3946.000000	100.091419 
3945.000000	100.092024 
3944.000000	100.093170 
3943.000000	100.093446 
3942.000000	100.091691 
3941.000000	100.088178 
3940.000000	100.084639 
3939.000000	100.082829 
3938.000000	100.083062 
3937.000000	100.084126 
3936.000000	100.084546 
3935.000000	100.084106 
3934.000000	100.083845 
3933.000000	100.084989 
3932.000000	100.088047 
3931.000000	100.092895 
3930.000000	100.098857 
3929.000000	100.103944 
3928.000000	100.105199 
3927.000000	100.101064 
3926.000000	100.093842 
3925.000000	100.088707 
3924.000000	100.088978 
3923.000000	100.093406 
3922.000000	100.098477 
3921.000000	100.101537 
3920.000000	100.101814 
3919.000000	100.099915 
3918.000000	100.097109 
3917.000000	100.094386 
3916.000000	100.091868 
3915.000000	100.089429 
3914.000000	100.087536 
3913.000000	100.086575 
3912.000000	100.085741 
3911.000000	100.083514 
3910.000000	100.079974 
3909.000000	100.077636 
3908.000000	100.079353 
3907.000000	100.086120 
3906.000000	100.096442 
3905.000000	100.107874 
3904.000000	100.117933 
3903.000000	100.124269 
3902.000000	100.125751 
3901.000000	100.123227 
3900.000000	100.118342 
3899.000000	100.111762 
3898.000000	100.103083 
3897.000000	100.093072 
3896.000000	100.084699 
3895.000000	100.080911 
3894.000000	100.082645 
3893.000000	100.088879 
3892.000000	100.098102 
3891.000000	100.108686 
3890.000000	100.118486 
3889.000000	100.125746 
3888.000000	100.129082 
3887.000000	100.127616 
3886.000000	100.122202 
3885.000000	100.115532 
3884.000000	100.110542 
3883.000000	100.108849 
3882.000000	100.109411 
3881.000000	100.109408 
3880.000000	100.106977 
3879.000000	100.103481 
3878.000000	100.101783 
3877.000000	100.102210 
3876.000000	100.101940 
3875.000000	100.099916 
3874.000000	100.098903 
3873.000000	100.100988 
3872.000000	100.104203 
3871.000000	100.105584 
3870.000000	100.105171 
3869.000000	100.104598 
3868.000000	100.105262 
3867.000000	100.108171 
3866.000000	100.112803 
3865.000000	100.116459 
3864.000000	100.116508 
3863.000000	100.113391 
3862.000000	100.110038 
3861.000000	100.106867 
3860.000000	100.101422 
3859.000000	100.092890 
3858.000000	100.084455 
3857.000000	100.080830 
3856.000000	100.084340 
3855.000000	100.093023 
3854.000000	100.104707 
3853.000000	100.115807 
3852.000000	100.121488 
3851.000000	100.122697 
3850.000000	100.123746 
3849.000000	100.125261 
3848.000000	100.125221 
3847.000000	100.121928 
3846.000000	100.116295 
3845.000000	100.110929 
3844.000000	100.107941 
3843.000000	100.107914 
3842.000000	100.110201 
3841.000000	100.113518 
3840.000000	100.117431 
3839.000000	100.122337 
3838.000000	100.127840 
3837.000000	100.132415 
3836.000000	100.134127 
3835.000000	100.131784 
3834.000000	100.125945 
3833.000000	100.118847 
3832.000000	100.113107 
3831.000000	100.109659 
3830.000000	100.107227 
3829.000000	100.103742 
3828.000000	100.098301 
3827.000000	100.092843 
3826.000000	100.091605 
3825.000000	100.097318 
3824.000000	100.108453 
3823.000000	100.119383 
3822.000000	100.125425 
3821.000000	100.127602 
3820.000000	100.128695 
3819.000000	100.129635 
3818.000000	100.129794 
3817.000000	100.127728 
3816.000000	100.123085 
3815.000000	100.117310 
3814.000000	100.112548 
3813.000000	100.109651 
3812.000000	100.107196 
3811.000000	100.102949 
3810.000000	100.096810 
3809.000000	100.091729 
3808.000000	100.091637 
3807.000000	100.097151 
3806.000000	100.104244 
3805.000000	100.108525 
3804.000000	100.108842 
3803.000000	100.105835 
3802.000000	100.101537 
3801.000000	100.097786 
3800.000000	100.094497 
3799.000000	100.092041 
3798.000000	100.090868 
3797.000000	100.090042 
3796.000000	100.088537 
3795.000000	100.087064 
3794.000000	100.087928 
3793.000000	100.092040 
3792.000000	100.096851 
3791.000000	100.098388 
3790.000000	100.095521 
3789.000000	100.091090 
3788.000000	100.088813 
3787.000000	100.090390 
3786.000000	100.095574 
3785.000000	100.103391 
3784.000000	100.112390 
3783.000000	100.120348 
3782.000000	100.124916 
3781.000000	100.124719 
3780.000000	100.120457 
3779.000000	100.114207 
3778.000000	100.107526 
3777.000000	100.100950 
3776.000000	100.095067 
3775.000000	100.091180 
3774.000000	100.090822 
3773.000000	100.094344 
3772.000000	100.100067 
3771.000000	100.105392 
3770.000000	100.108954 
3769.000000	100.111376 
3768.000000	100.114048 
3767.000000	100.117303 
3766.000000	100.119549 
3765.000000	100.119051 
3764.000000	100.116203 
3763.000000	100.113587 
3762.000000	100.113739 
3761.000000	100.116693 
3760.000000	100.120228 
3759.000000	100.122300 
3758.000000	100.123528 
3757.000000	100.125862 
3756.000000	100.129371 
3755.000000	100.132585 
3754.000000	100.135039 
3753.000000	100.137896 
3752.000000	100.141660 
3751.000000	100.144891 
3750.000000	100.146293 
3749.000000	100.147482 
3748.000000	100.150224 
3747.000000	100.153051 
3746.000000	100.152257 
3745.000000	100.146464 
3744.000000	100.136824 
3743.000000	100.126149 
3742.000000	100.118950 
3741.000000	100.117463 
3740.000000	100.119251 
3739.000000	100.119804 
3738.000000	100.117051 
3737.000000	100.114798 
3736.000000	100.118972 
3735.000000	100.129572 
3734.000000	100.139636 
3733.000000	100.143585 
3732.000000	100.141750 
3731.000000	100.137198 
3730.000000	100.132320 
3729.000000	100.127880 
3728.000000	100.123644 
3727.000000	100.120372 
3726.000000	100.120295 
3725.000000	100.124708 
3724.000000	100.131309 
3723.000000	100.134995 
3722.000000	100.132665 
3721.000000	100.126451 
3720.000000	100.121661 
3719.000000	100.121045 
3718.000000	100.122718 
3717.000000	100.123128 
3716.000000	100.119885 
3715.000000	100.112842 
3714.000000	100.103387 
3713.000000	100.094013 
3712.000000	100.088737 
3711.000000	100.090082 
3710.000000	100.095793 
3709.000000	100.100858 
3708.000000	100.101694 
3707.000000	100.097732 
3706.000000	100.090061 
3705.000000	100.080079 
3704.000000	100.069504 
3703.000000	100.060915 
3702.000000	100.057132 
3701.000000	100.058337 
3700.000000	100.061068 
3699.000000	100.061104 
3698.000000	100.056534 
3697.000000	100.048877 
3696.000000	100.041726 
3695.000000	100.038235 
3694.000000	100.039246 
3693.000000	100.042800 
3692.000000	100.045804 
3691.000000	100.046873 
3690.000000	100.047623 
3689.000000	100.048965 
3688.000000	100.048753 
3687.000000	100.045762 
3686.000000	100.041344 
3685.000000	100.036937 
3684.000000	100.032640 
3683.000000	100.027513 
3682.000000	100.021122 
3681.000000	100.015281 
3680.000000	100.012532 
3679.000000	100.012574 
3678.000000	100.011662 
3677.000000	100.007340 
3676.000000	100.004716 
3675.000000	100.009759 
3674.000000	100.020373 
3673.000000	100.031516 
3672.000000	100.040060 
3671.000000	100.043206 
3670.000000	100.040503 
3669.000000	100.033872 
3668.000000	100.025642 
3667.000000	100.017650 
3666.000000	100.010246 
3665.000000	100.003454 
3664.000000	99.998449  
3663.000000	99.996565  
3662.000000	99.997890  
3661.000000	100.001537 
3660.000000	100.006512 
3659.000000	100.012245 
3658.000000	100.017936 
3657.000000	100.022987 
3656.000000	100.027710 
3655.000000	100.033315 
3654.000000	100.041693 
3653.000000	100.053123 
3652.000000	100.064629 
3651.000000	100.071494 
3650.000000	100.071839 
3649.000000	100.068089 
3648.000000	100.063615 
3647.000000	100.060438 
3646.000000	100.059085 
3645.000000	100.059235 
3644.000000	100.060011 
3643.000000	100.060081 
3642.000000	100.058603 
3641.000000	100.056592 
3640.000000	100.056830 
3639.000000	100.062248 
3638.000000	100.073231 
3637.000000	100.086348 
3636.000000	100.096324 
3635.000000	100.099968 
3634.000000	100.098643 
3633.000000	100.096530 
3632.000000	100.096838 
3631.000000	100.099579 
3630.000000	100.102500 
3629.000000	100.104077 
3628.000000	100.102926 
3627.000000	100.099127 
3626.000000	100.095663 
3625.000000	100.094124 
3624.000000	100.093233 
3623.000000	100.091237 
3622.000000	100.087614 
3621.000000	100.083292 
3620.000000	100.080541 
3619.000000	100.082013 
3618.000000	100.088584 
3617.000000	100.098452 
3616.000000	100.107760 
3615.000000	100.112391 
3614.000000	100.110990 
3613.000000	100.106038 
3612.000000	100.101226 
3611.000000	100.098721 
3610.000000	100.098540 
3609.000000	100.099442 
3608.000000	100.100141 
3607.000000	100.099713 
3606.000000	100.098179 
3605.000000	100.096413 
3604.000000	100.094789 
3603.000000	100.092883 
3602.000000	100.090882 
3601.000000	100.090654 
3600.000000	100.094156 
3599.000000	100.100989 
3598.000000	100.108224 
3597.000000	100.112670 
3596.000000	100.112805 
3595.000000	100.109763 
3594.000000	100.106676 
3593.000000	100.107036 
3592.000000	100.113235 
3591.000000	100.124932 
3590.000000	100.137837 
3589.000000	100.145567 
3588.000000	100.144736 
3587.000000	100.137473 
3586.000000	100.128308 
3585.000000	100.120709 
3584.000000	100.115657 
3583.000000	100.112169 
3582.000000	100.108691 
3581.000000	100.104647 
3580.000000	100.100479 
3579.000000	100.096525 
3578.000000	100.092430 
3577.000000	100.087989 
3576.000000	100.084364 
3575.000000	100.083686 
3574.000000	100.087548 
3573.000000	100.095756 
3572.000000	100.106412 
3571.000000	100.116320 
3570.000000	100.121306 
3569.000000	100.118061 
3568.000000	100.108163 
3567.000000	100.098951 
3566.000000	100.096970 
3565.000000	100.102013 
3564.000000	100.108933 
3563.000000	100.112423 
3562.000000	100.110594 
3561.000000	100.105618 
3560.000000	100.101248 
3559.000000	100.099375 
3558.000000	100.099155 
3557.000000	100.099020 
3556.000000	100.098623 
3555.000000	100.098621 
3554.000000	100.099397 
3553.000000	100.100566 
3552.000000	100.101178 
3551.000000	100.100361 
3550.000000	100.097996 
3549.000000	100.095070 
3548.000000	100.093426 
3547.000000	100.094875 
3546.000000	100.099618 
3545.000000	100.105542 
3544.000000	100.109719 
3543.000000	100.110730 
3542.000000	100.109402 
3541.000000	100.107510 
3540.000000	100.106248 
3539.000000	100.105924 
3538.000000	100.106462 
3537.000000	100.107630 
3536.000000	100.108476 
3535.000000	100.107353 
3534.000000	100.103258 
3533.000000	100.097345 
3532.000000	100.092654 
3531.000000	100.091818 
3530.000000	100.094839 
3529.000000	100.099265 
3528.000000	100.102741 
3527.000000	100.105048 
3526.000000	100.107309 
3525.000000	100.109727 
3524.000000	100.111063 
3523.000000	100.110402 
3522.000000	100.108447 
3521.000000	100.106638 
3520.000000	100.105549 
3519.000000	100.104934 
3518.000000	100.104673 
3517.000000	100.104995 
3516.000000	100.105848 
3515.000000	100.106784 
3514.000000	100.107410 
3513.000000	100.107421 
3512.000000	100.106302 
3511.000000	100.103738 
3510.000000	100.100660 
3509.000000	100.099174 
3508.000000	100.100773 
3507.000000	100.104581 
3506.000000	100.107487 
3505.000000	100.106181 
3504.000000	100.099845 
3503.000000	100.091713 
3502.000000	100.087519 
3501.000000	100.091218 
3500.000000	100.101212 
3499.000000	100.110826 
3498.000000	100.113208 
3497.000000	100.106879 
3496.000000	100.096980 
3495.000000	100.090648 
3494.000000	100.090861 
3493.000000	100.094540 
3492.000000	100.096307 
3491.000000	100.093745 
3490.000000	100.089176 
3489.000000	100.086791 
3488.000000	100.088503 
3487.000000	100.092660 
3486.000000	100.096262 
3485.000000	100.097827 
3484.000000	100.098089 
3483.000000	100.098596 
3482.000000	100.099871 
3481.000000	100.100786 
3480.000000	100.099856 
3479.000000	100.097190 
3478.000000	100.094703 
3477.000000	100.094028 
3476.000000	100.094589 
3475.000000	100.094341 
3474.000000	100.092497 
3473.000000	100.090682 
3472.000000	100.091050 
3471.000000	100.093891 
3470.000000	100.097612 
3469.000000	100.100511 
3468.000000	100.101891 
3467.000000	100.101724 
3466.000000	100.100125 
3465.000000	100.097550 
3464.000000	100.095038 
3463.000000	100.093694 
3462.000000	100.093713 
3461.000000	100.094009 
3460.000000	100.092982 
3459.000000	100.089901 
3458.000000	100.085675 
3457.000000	100.082260 
3456.000000	100.081115 
3455.000000	100.082367 
3454.000000	100.085299 
3453.000000	100.089095 
3452.000000	100.092820 
3451.000000	100.095313 
3450.000000	100.096122 
3449.000000	100.096259 
3448.000000	100.097030 
3447.000000	100.097940 
3446.000000	100.096997 
3445.000000	100.093734 
3444.000000	100.090624 
3443.000000	100.090591 
3442.000000	100.093794 
3441.000000	100.097768 
3440.000000	100.100322 
3439.000000	100.101251 
3438.000000	100.101316 
3437.000000	100.100740 
3436.000000	100.099313 
3435.000000	100.097480 
3434.000000	100.096577 
3433.000000	100.097788 
3432.000000	100.100961 
3431.000000	100.104456 
3430.000000	100.106254 
3429.000000	100.105232 
3428.000000	100.101630 
3427.000000	100.096635 
3426.000000	100.091787 
3425.000000	100.088535 
3424.000000	100.087756 
3423.000000	100.089288 
3422.000000	100.091826 
3421.000000	100.093452 
3420.000000	100.092718 
3419.000000	100.089862 
3418.000000	100.087057 
3417.000000	100.086850 
3416.000000	100.089791 
3415.000000	100.093692 
3414.000000	100.095548 
3413.000000	100.094214 
3412.000000	100.091073 
3411.000000	100.088545 
3410.000000	100.088455 
3409.000000	100.091291 
3408.000000	100.095874 
3407.000000	100.099555 
3406.000000	100.099738 
3405.000000	100.096070 
3404.000000	100.091030 
3403.000000	100.087976 
3402.000000	100.088415 
3401.000000	100.091089 
3400.000000	100.093553 
3399.000000	100.094481 
3398.000000	100.094580 
3397.000000	100.095399 
3396.000000	100.097501 
3395.000000	100.100071 
3394.000000	100.102253 
3393.000000	100.104168 
3392.000000	100.106117 
3391.000000	100.107307 
3390.000000	100.106301 
3389.000000	100.102894 
3388.000000	100.098788 
3387.000000	100.096043 
3386.000000	100.095137 
3385.000000	100.094822 
3384.000000	100.093667 
3383.000000	100.091560 
3382.000000	100.089791 
3381.000000	100.089704 
3380.000000	100.091147 
3379.000000	100.092339 
3378.000000	100.091765 
3377.000000	100.090231 
3376.000000	100.090534 
3375.000000	100.094765 
3374.000000	100.102233 
3373.000000	100.110072 
3372.000000	100.115401 
3371.000000	100.116785 
3370.000000	100.114548 
3369.000000	100.110599 
3368.000000	100.107522 
3367.000000	100.106733 
3366.000000	100.107287 
3365.000000	100.107111 
3364.000000	100.105421 
3363.000000	100.103263 
3362.000000	100.101636 
3361.000000	100.099987 
3360.000000	100.097112 
3359.000000	100.093143 
3358.000000	100.090013 
3357.000000	100.089847 
3356.000000	100.093022 
3355.000000	100.097691 
3354.000000	100.101220 
3353.000000	100.102313 
3352.000000	100.101964 
3351.000000	100.102344 
3350.000000	100.104762 
3349.000000	100.108738 
3348.000000	100.112688 
3347.000000	100.115122 
3346.000000	100.115278 
3345.000000	100.113302 
3344.000000	100.110134 
3343.000000	100.106870 
3342.000000	100.104046 
3341.000000	100.101825 
3340.000000	100.100791 
3339.000000	100.101687 
3338.000000	100.103938 
3337.000000	100.105217 
3336.000000	100.103568 
3335.000000	100.099853 
3334.000000	100.097259 
3333.000000	100.098199 
3332.000000	100.102140 
3331.000000	100.106454 
3330.000000	100.108925 
3329.000000	100.109389 
3328.000000	100.109410 
3327.000000	100.110504 
3326.000000	100.112419 
3325.000000	100.113328 
3324.000000	100.112193 
3323.000000	100.110656 
3322.000000	100.111515 
3321.000000	100.115054 
3320.000000	100.117932 
3319.000000	100.116556 
3318.000000	100.111059 
3317.000000	100.105127 
3316.000000	100.102278 
3315.000000	100.103102 
3314.000000	100.105853 
3313.000000	100.108720 
3312.000000	100.111281 
3311.000000	100.114418 
3310.000000	100.119113 
3309.000000	100.125012 
3308.000000	100.130184 
3307.000000	100.132690 
3306.000000	100.132245 
3305.000000	100.129824 
3304.000000	100.125933 
3303.000000	100.120387 
3302.000000	100.114010 
3301.000000	100.109431 
3300.000000	100.109132 
3299.000000	100.112946 
3298.000000	100.118023 
3297.000000	100.121166 
3296.000000	100.121040 
3295.000000	100.118628 
3294.000000	100.116238 
3293.000000	100.115890 
3292.000000	100.117961 
3291.000000	100.121054 
3290.000000	100.123240 
3289.000000	100.123430 
3288.000000	100.121743 
3287.000000	100.119150 
3286.000000	100.117050 
3285.000000	100.116595 
3284.000000	100.117805 
3283.000000	100.119513 
3282.000000	100.120529 
3281.000000	100.120622 
3280.000000	100.120060 
3279.000000	100.118809 
3278.000000	100.116882 
3277.000000	100.115168 
3276.000000	100.115042 
3275.000000	100.117010 
3274.000000	100.120188 
3273.000000	100.123043 
3272.000000	100.124129 
3271.000000	100.122366 
3270.000000	100.117612 
3269.000000	100.111451 
3268.000000	100.106862 
3267.000000	100.106459 
3266.000000	100.110771 
3265.000000	100.117928 
3264.000000	100.124873 
3263.000000	100.129347 
3262.000000	100.131404 
3261.000000	100.132942 
3260.000000	100.135164 
3259.000000	100.136618 
3258.000000	100.134489 
3257.000000	100.128054 
3256.000000	100.120124 
3255.000000	100.114764 
3254.000000	100.114053 
3253.000000	100.117198 
3252.000000	100.121820 
3251.000000	100.125452 
3250.000000	100.126590 
3249.000000	100.125488 
3248.000000	100.123911 
3247.000000	100.123333 
3246.000000	100.123308 
3245.000000	100.122270 
3244.000000	100.120085 
3243.000000	100.119141 
3242.000000	100.122321 
3241.000000	100.129910 
3240.000000	100.138656 
3239.000000	100.144001 
3238.000000	100.143595 
3237.000000	100.138972 
3236.000000	100.133855 
3235.000000	100.130820 
3234.000000	100.129817 
3233.000000	100.129804 
3232.000000	100.130849 
3231.000000	100.133730 
3230.000000	100.137868 
3229.000000	100.140813 
3228.000000	100.140203 
3227.000000	100.135708 
3226.000000	100.128877 
3225.000000	100.121747 
3224.000000	100.116025 
3223.000000	100.112960 
3222.000000	100.113114 
3221.000000	100.116027 
3220.000000	100.120397 
3219.000000	100.124635 
3218.000000	100.127274 
3217.000000	100.127365 
3216.000000	100.125095 
3215.000000	100.122071 
3214.000000	100.120450 
3213.000000	100.121415 
3212.000000	100.124497 
3211.000000	100.128378 
3210.000000	100.132184 
3209.000000	100.135866 
3208.000000	100.139406 
3207.000000	100.142037 
3206.000000	100.142684 
3205.000000	100.141286 
3204.000000	100.139302 
3203.000000	100.138512 
3202.000000	100.139559 
3201.000000	100.142064 
3200.000000	100.145770 
3199.000000	100.150548 
3198.000000	100.155159 
3197.000000	100.157321 
3196.000000	100.155980 
3195.000000	100.152815 
3194.000000	100.150325 
3193.000000	100.148781 
3192.000000	100.146319 
3191.000000	100.142158 
3190.000000	100.138397 
3189.000000	100.137819 
3188.000000	100.140710 
3187.000000	100.144682 
3186.000000	100.147187 
3185.000000	100.147403 
3184.000000	100.145994 
3183.000000	100.144060 
3182.000000	100.142533 
3181.000000	100.141882 
3180.000000	100.141841 
3179.000000	100.141591 
3178.000000	100.140404 
3177.000000	100.137990 
3176.000000	100.134369 
3175.000000	100.130061 
3174.000000	100.126655 
3173.000000	100.126415 
3172.000000	100.130294 
3171.000000	100.136298 
3170.000000	100.140650 
3169.000000	100.141165 
3168.000000	100.139314 
3167.000000	100.138636 
3166.000000	100.141286 
3165.000000	100.146373 
3164.000000	100.151387 
3163.000000	100.154606 
3162.000000	100.156011 
3161.000000	100.156545 
3160.000000	100.157142 
3159.000000	100.158375 
3158.000000	100.160373 
3157.000000	100.162549 
3156.000000	100.163560 
3155.000000	100.162107 
3154.000000	100.158241 
3153.000000	100.153877 
3152.000000	100.151484 
3151.000000	100.151840 
3150.000000	100.153188 
3149.000000	100.153136 
3148.000000	100.151481 
3147.000000	100.150570 
3146.000000	100.152452 
3145.000000	100.156103 
3144.000000	100.158383 
3143.000000	100.157838 
3142.000000	100.156625 
3141.000000	100.157960 
3140.000000	100.162165 
3139.000000	100.166151 
3138.000000	100.166859 
3137.000000	100.164450 
3136.000000	100.161714 
3135.000000	100.160845 
3134.000000	100.161456 
3133.000000	100.161701 
3132.000000	100.160646 
3131.000000	100.158930 
3130.000000	100.157256 
3129.000000	100.155100 
3128.000000	100.151607 
3127.000000	100.147517 
3126.000000	100.145430 
3125.000000	100.147613 
3124.000000	100.153561 
3123.000000	100.159979 
3122.000000	100.163421 
3121.000000	100.163164 
3120.000000	100.161651 
3119.000000	100.161993 
3118.000000	100.164785 
3117.000000	100.167489 
3116.000000	100.167325 
3115.000000	100.164493 
3114.000000	100.161681 
3113.000000	100.160511 
3112.000000	100.159780 
3111.000000	100.157897 
3110.000000	100.155756 
3109.000000	100.155560 
3108.000000	100.157273 
3107.000000	100.158058 
3106.000000	100.155750 
3105.000000	100.151477 
3104.000000	100.148201 
3103.000000	100.147882 
3102.000000	100.150868 
3101.000000	100.156669 
3100.000000	100.163708 
3099.000000	100.169023 
3098.000000	100.170069 
3097.000000	100.167277 
3096.000000	100.163908 
3095.000000	100.163008 
3094.000000	100.165041 
3093.000000	100.168446 
3092.000000	100.171442 
3091.000000	100.172856 
3090.000000	100.172190 
3089.000000	100.169933 
3088.000000	100.167717 
3087.000000	100.167364 
3086.000000	100.169330 
3085.000000	100.172187 
3084.000000	100.173905 
3083.000000	100.173694 
3082.000000	100.172563 
3081.000000	100.172067 
3080.000000	100.172622 
3079.000000	100.173115 
3078.000000	100.171938 
3077.000000	100.168283 
3076.000000	100.162801 
3075.000000	100.157471 
3074.000000	100.154644 
3073.000000	100.155472 
3072.000000	100.159065 
3071.000000	100.163487 
3070.000000	100.167446 
3069.000000	100.170298 
3068.000000	100.170734 
3067.000000	100.167069 
3066.000000	100.159686 
3065.000000	100.152078 
3064.000000	100.148119 
3063.000000	100.148541 
3062.000000	100.150932 
3061.000000	100.152749 
3060.000000	100.153476 
3059.000000	100.154233 
3058.000000	100.156276 
3057.000000	100.159971 
3056.000000	100.164490 
3055.000000	100.168370 
3054.000000	100.170703 
3053.000000	100.171607 
3052.000000	100.171383 
3051.000000	100.169856 
3050.000000	100.167147 
3049.000000	100.164283 
3048.000000	100.161956 
3047.000000	100.159133 
3046.000000	100.154313 
3045.000000	100.148200 
3044.000000	100.143884 
3043.000000	100.143814 
3042.000000	100.147234 
3041.000000	100.150885 
3040.000000	100.151692 
3039.000000	100.148774 
3038.000000	100.143684 
3037.000000	100.139123 
3036.000000	100.136856 
3035.000000	100.136353 
3034.000000	100.135624 
3033.000000	100.133324 
3032.000000	100.129625 
3031.000000	100.125082 
3030.000000	100.119501 
3029.000000	100.112352 
3028.000000	100.103822 
3027.000000	100.095070 
3026.000000	100.087546 
3025.000000	100.081979 
3024.000000	100.077525 
3023.000000	100.071932 
3022.000000	100.063216 
3021.000000	100.051486 
3020.000000	100.038891 
3019.000000	100.027833 
3018.000000	100.019635 
3017.000000	100.014459 
3016.000000	100.011308 
3015.000000	100.007927 
3014.000000	100.001769 
3013.000000	99.991713  
3012.000000	99.978350  
3011.000000	99.962523  
3010.000000	99.944699  
3009.000000	99.926285  
3008.000000	99.910364  
3007.000000	99.899826  
3006.000000	99.894807  
3005.000000	99.892418  
3004.000000	99.888643  
3003.000000	99.880315  
3002.000000	99.866451  
3001.000000	99.849111  
3000.000000	99.832693  
2999.000000	99.820907  
2998.000000	99.813983  
2997.000000	99.809483  
2996.000000	99.805650  
2995.000000	99.802456  
2994.000000	99.798712  
2993.000000	99.789932  
2992.000000	99.771551  
2991.000000	99.744766  
2990.000000	99.717757  
2989.000000	99.699785  
2988.000000	99.694031  
2987.000000	99.696605  
2986.000000	99.701836  
2985.000000	99.707394  
2984.000000	99.714103  
2983.000000	99.722235  
2982.000000	99.729515  
2981.000000	99.732938  
2980.000000	99.731788  
2979.000000	99.728253  
2978.000000	99.725251  
2977.000000	99.723979  
2976.000000	99.723446  
2975.000000	99.721982  
2974.000000	99.718891  
2973.000000	99.714803  
2972.000000	99.710876  
2971.000000	99.708007  
2970.000000	99.706709  
2969.000000	99.707297  
2968.000000	99.709915  
2967.000000	99.714464  
2966.000000	99.720589  
2965.000000	99.727724  
2964.000000	99.735234  
2963.000000	99.742754  
2962.000000	99.750302  
2961.000000	99.757740  
2960.000000	99.764254  
2959.000000	99.769057  
2958.000000	99.772813  
2957.000000	99.777491  
2956.000000	99.783937  
2955.000000	99.790102  
2954.000000	99.792958  
2953.000000	99.792648  
2952.000000	99.793737  
2951.000000	99.801283  
2950.000000	99.815463  
2949.000000	99.830583  
2948.000000	99.839729  
2947.000000	99.840408  
2946.000000	99.835829  
2945.000000	99.831129  
2944.000000	99.828867  
2943.000000	99.827948  
2942.000000	99.825839  
2941.000000	99.820960  
2940.000000	99.813280  
2939.000000	99.803791  
2938.000000	99.793912  
2937.000000	99.784939  
2936.000000	99.777650  
2935.000000	99.772491  
2934.000000	99.769813  
2933.000000	99.769129  
2932.000000	99.768118  
2931.000000	99.763574  
2930.000000	99.754155  
2929.000000	99.741740  
2928.000000	99.729571  
2927.000000	99.719598  
2926.000000	99.712123  
2925.000000	99.707145  
2924.000000	99.704976  
2923.000000	99.705852  
2922.000000	99.709782  
2921.000000	99.716530  
2920.000000	99.725053  
2919.000000	99.733340  
2918.000000	99.739696  
2917.000000	99.744047  
2916.000000	99.747416  
2915.000000	99.750530  
2914.000000	99.753757  
2913.000000	99.757928  
2912.000000	99.763802  
2911.000000	99.770525  
2910.000000	99.775757  
2909.000000	99.777916  
2908.000000	99.777696  
2907.000000	99.776916  
2906.000000	99.776217  
2905.000000	99.774204  
2904.000000	99.768690  
2903.000000	99.759218  
2902.000000	99.748764  
2901.000000	99.743165  
2900.000000	99.747306  
2899.000000	99.760952  
2898.000000	99.778649  
2897.000000	99.793973  
2896.000000	99.804112  
2895.000000	99.810614  
2894.000000	99.816477  
2893.000000	99.822946  
2892.000000	99.828908  
2891.000000	99.832831  
2890.000000	99.834927  
2889.000000	99.837153  
2888.000000	99.841076  
2887.000000	99.846244  
2886.000000	99.851081  
2885.000000	99.854980  
2884.000000	99.858767  
2883.000000	99.863314  
2882.000000	99.868568  
2881.000000	99.874175  
2880.000000	99.880402  
2879.000000	99.888106  
2878.000000	99.898048  
2877.000000	99.910096  
2876.000000	99.922485  
2875.000000	99.931899  
2874.000000	99.935287  
2873.000000	99.932470  
2872.000000	99.926854  
2871.000000	99.923235  
2870.000000	99.924742  
2869.000000	99.931367  
2868.000000	99.940721  
2867.000000	99.950067  
2866.000000	99.958309  
2865.000000	99.966319  
2864.000000	99.974967  
2863.000000	99.982831  
2862.000000	99.986643  
2861.000000	99.984476  
2860.000000	99.978116  
2859.000000	99.971835  
2858.000000	99.969059  
2857.000000	99.970411  
2856.000000	99.974432  
2855.000000	99.979607  
2854.000000	99.985652  
2853.000000	99.993193  
2852.000000	100.002546 
2851.000000	100.013132 
2850.000000	100.024201 
2849.000000	100.035693 
2848.000000	100.047878 
2847.000000	100.060333 
2846.000000	100.071777 
2845.000000	100.080881 
2844.000000	100.086968 
2843.000000	100.090335 
2842.000000	100.092621 
2841.000000	100.096487 
2840.000000	100.103687 
2839.000000	100.113011 
2838.000000	100.120870 
2837.000000	100.124444 
2836.000000	100.123985 
2835.000000	100.122151 
2834.000000	100.121830 
2833.000000	100.124679 
2832.000000	100.130552 
2831.000000	100.137523 
2830.000000	100.143004 
2829.000000	100.145774 
2828.000000	100.146934 
2827.000000	100.148529 
2826.000000	100.151385 
2825.000000	100.154509 
2824.000000	100.156396 
2823.000000	100.156675 
2822.000000	100.156578 
2821.000000	100.157858 
2820.000000	100.161066 
2819.000000	100.165050 
2818.000000	100.168418 
2817.000000	100.171137 
2816.000000	100.173962 
2815.000000	100.176646 
2814.000000	100.177949 
2813.000000	100.177623 
2812.000000	100.177090 
2811.000000	100.177453 
2810.000000	100.177906 
2809.000000	100.177153 
2808.000000	100.175690 
2807.000000	100.175462 
2806.000000	100.177466 
2805.000000	100.180719 
2804.000000	100.183638 
2803.000000	100.185587 
2802.000000	100.186811 
2801.000000	100.187464 
2800.000000	100.187243 
2799.000000	100.185923 
2798.000000	100.184084 
2797.000000	100.183040 
2796.000000	100.183714 
2795.000000	100.185545 
2794.000000	100.186865 
2793.000000	100.186506 
2792.000000	100.184717 
2791.000000	100.182526 
2790.000000	100.180879 
2789.000000	100.180628 
2788.000000	100.182450 
2787.000000	100.186020 
2786.000000	100.189775 
2785.000000	100.192315 
2784.000000	100.193785 
2783.000000	100.195123 
2782.000000	100.196280 
2781.000000	100.196152 
2780.000000	100.194349 
2779.000000	100.192153 
2778.000000	100.191341 
2777.000000	100.192553 
2776.000000	100.194965 
2775.000000	100.197062 
2774.000000	100.197484 
2773.000000	100.195708 
2772.000000	100.192416 
2771.000000	100.189088 
2770.000000	100.187027 
2769.000000	100.186862 
2768.000000	100.188882 
2767.000000	100.193152 
2766.000000	100.198853 
2765.000000	100.204030 
2764.000000	100.206809 
2763.000000	100.206982 
2762.000000	100.205984 
2761.000000	100.205356 
2760.000000	100.205717 
2759.000000	100.207157 
2758.000000	100.209741 
2757.000000	100.213052 
2756.000000	100.215834 
2755.000000	100.216985 
2754.000000	100.216775 
2753.000000	100.216367 
2752.000000	100.216176 
2751.000000	100.215473 
2750.000000	100.213759 
2749.000000	100.211572 
2748.000000	100.209438 
2747.000000	100.206869 
2746.000000	100.203292 
2745.000000	100.199582 
2744.000000	100.197679 
2743.000000	100.198660 
2742.000000	100.201829 
2741.000000	100.205766 
2740.000000	100.209615 
2739.000000	100.213165 
2738.000000	100.216207 
2737.000000	100.218232 
2736.000000	100.218665 
2735.000000	100.217293 
2734.000000	100.214521 
2733.000000	100.211122 
2732.000000	100.207599 
2731.000000	100.203992 
2730.000000	100.200567 
2729.000000	100.198434 
2728.000000	100.198976 
2727.000000	100.202618 
2726.000000	100.208377 
2725.000000	100.214470 
2724.000000	100.219231 
2723.000000	100.221829 
2722.000000	100.222671 
2721.000000	100.222971 
2720.000000	100.223465 
2719.000000	100.223601 
2718.000000	100.222329 
2717.000000	100.219570 
2716.000000	100.216611 
2715.000000	100.215273 
2714.000000	100.216846 
2713.000000	100.221209 
2712.000000	100.226376 
2711.000000	100.229522 
2710.000000	100.229489 
2709.000000	100.228047 
2708.000000	100.227764 
2707.000000	100.228799 
2706.000000	100.228831 
2705.000000	100.226195 
2704.000000	100.222031 
2703.000000	100.219008 
2702.000000	100.218767 
2701.000000	100.220855 
2700.000000	100.223383 
2699.000000	100.224282 
2698.000000	100.222581 
2697.000000	100.219014 
2696.000000	100.215350 
2695.000000	100.213134 
2694.000000	100.213202 
2693.000000	100.215675 
2692.000000	100.219415 
2691.000000	100.221914 
2690.000000	100.221314 
2689.000000	100.218864 
2688.000000	100.218056 
2687.000000	100.220730 
2686.000000	100.225066 
2685.000000	100.228055 
2684.000000	100.228882 
2683.000000	100.229028 
2682.000000	100.229909 
2681.000000	100.231503 
2680.000000	100.232814 
2679.000000	100.232663 
2678.000000	100.230245 
2677.000000	100.225871 
2676.000000	100.221273 
2675.000000	100.218639 
2674.000000	100.219121 
2673.000000	100.222157 
2672.000000	100.225789 
2671.000000	100.227522 
2670.000000	100.225576 
2669.000000	100.220172 
2668.000000	100.213597 
2667.000000	100.208727 
2666.000000	100.207389 
2665.000000	100.209810 
2664.000000	100.214898 
2663.000000	100.220809 
2662.000000	100.225878 
2661.000000	100.229482 
2660.000000	100.231755 
2659.000000	100.232515 
2658.000000	100.231226 
2657.000000	100.228325 
2656.000000	100.225709 
2655.000000	100.225194 
2654.000000	100.226763 
2653.000000	100.228687 
2652.000000	100.228936 
2651.000000	100.226361 
2650.000000	100.221411 
2649.000000	100.216364 
2648.000000	100.214163 
2647.000000	100.216157 
2646.000000	100.221033 
2645.000000	100.226181 
2644.000000	100.229676 
2643.000000	100.230918 
2642.000000	100.230403 
2641.000000	100.229485 
2640.000000	100.229594 
2639.000000	100.231052 
2638.000000	100.233181 
2637.000000	100.235665 
2636.000000	100.238556 
2635.000000	100.240572 
2634.000000	100.239227 
2633.000000	100.234063 
2632.000000	100.228346 
2631.000000	100.225759 
2630.000000	100.226272 
2629.000000	100.226977 
2628.000000	100.226233 
2627.000000	100.225052 
2626.000000	100.224865 
2625.000000	100.225965 
2624.000000	100.228143 
2623.000000	100.230988 
2622.000000	100.233372 
2621.000000	100.234288 
2620.000000	100.234408 
2619.000000	100.235152 
2618.000000	100.236036 
2617.000000	100.234818 
2616.000000	100.230957 
2615.000000	100.227200 
2614.000000	100.226587 
2613.000000	100.229000 
2612.000000	100.231736 
2611.000000	100.232770 
2610.000000	100.232476 
2609.000000	100.232589 
2608.000000	100.234255 
2607.000000	100.237163 
2606.000000	100.240358 
2605.000000	100.243674 
2604.000000	100.247578 
2603.000000	100.251160 
2602.000000	100.251655 
2601.000000	100.247747 
2600.000000	100.242630 
2599.000000	100.241428 
2598.000000	100.245414 
2597.000000	100.250862 
2596.000000	100.253770 
2595.000000	100.253218 
2594.000000	100.249614 
2593.000000	100.243027 
2592.000000	100.235422 
2591.000000	100.231761 
2590.000000	100.235491 
2589.000000	100.243980 
2588.000000	100.251242 
2587.000000	100.254435 
2586.000000	100.254880 
2585.000000	100.253426 
2584.000000	100.248618 
2583.000000	100.240362 
2582.000000	100.232131 
2581.000000	100.227396 
2580.000000	100.225675 
2579.000000	100.224015 
2578.000000	100.221196 
2577.000000	100.218761 
2576.000000	100.218792 
2575.000000	100.222277 
2574.000000	100.228948 
2573.000000	100.236917 
2572.000000	100.242673 
2571.000000	100.243206 
2570.000000	100.238643 
2569.000000	100.231991 
2568.000000	100.226278 
2567.000000	100.222825 
2566.000000	100.222045 
2565.000000	100.224253 
2564.000000	100.228838 
2563.000000	100.233578 
2562.000000	100.235916 
2561.000000	100.235171 
2560.000000	100.233327 
2559.000000	100.233408 
2558.000000	100.236445 
2557.000000	100.239682 
2556.000000	100.238741 
2555.000000	100.232833 
2554.000000	100.227111 
2553.000000	100.227940 
2552.000000	100.235789 
2551.000000	100.244815 
2550.000000	100.249900 
2549.000000	100.251647 
2548.000000	100.253014 
2547.000000	100.253540 
2546.000000	100.250084 
2545.000000	100.242585 
2544.000000	100.235876 
2543.000000	100.234826 
2542.000000	100.239476 
2541.000000	100.245833 
2540.000000	100.250047 
2539.000000	100.250829 
2538.000000	100.248798 
2537.000000	100.244868 
2536.000000	100.239558 
2535.000000	100.233563 
2534.000000	100.228674 
2533.000000	100.227424 
2532.000000	100.231105 
2531.000000	100.238374 
2530.000000	100.246409 
2529.000000	100.253109 
2528.000000	100.257548 
2527.000000	100.259088 
2526.000000	100.257587 
2525.000000	100.254529 
2524.000000	100.252561 
2523.000000	100.253438 
2522.000000	100.257067 
2521.000000	100.262248 
2520.000000	100.267197 
2519.000000	100.269641 
2518.000000	100.268113 
2517.000000	100.263603 
2516.000000	100.258647 
2515.000000	100.254560 
2514.000000	100.251018 
2513.000000	100.248341 
2512.000000	100.247830 
2511.000000	100.248887 
2510.000000	100.248173 
2509.000000	100.243774 
2508.000000	100.238696 
2507.000000	100.237735 
2506.000000	100.241321 
2505.000000	100.244667 
2504.000000	100.243193 
2503.000000	100.237079 
2502.000000	100.230183 
2501.000000	100.226310 
2500.000000	100.227495 
2499.000000	100.234469 
2498.000000	100.246757 
2497.000000	100.261772 
2496.000000	100.274781 
2495.000000	100.280913 
2494.000000	100.278008 
2493.000000	100.267835 
2492.000000	100.254580 
2491.000000	100.242178 
2490.000000	100.232896 
2489.000000	100.227518 
2488.000000	100.225682 
2487.000000	100.226049 
2486.000000	100.227340 
2485.000000	100.229810 
2484.000000	100.234906 
2483.000000	100.242803 
2482.000000	100.250923 
2481.000000	100.255776 
2480.000000	100.256043 
2479.000000	100.253288 
2478.000000	100.249966 
2477.000000	100.247440 
2476.000000	100.245696 
2475.000000	100.244219 
2474.000000	100.242951 
2473.000000	100.242753 
2472.000000	100.244938 
2471.000000	100.249995 
2470.000000	100.256567 
2469.000000	100.261669 
2468.000000	100.262124 
2467.000000	100.256592 
2466.000000	100.247254 
2465.000000	100.239512 
2464.000000	100.238535 
2463.000000	100.244794 
2462.000000	100.253149 
2461.000000	100.257126 
2460.000000	100.254398 
2459.000000	100.248156 
2458.000000	100.243771 
2457.000000	100.244515 
2456.000000	100.249646 
2455.000000	100.255300 
2454.000000	100.257118 
2453.000000	100.253150 
2452.000000	100.245278 
2451.000000	100.237939 
2450.000000	100.234956 
2449.000000	100.236910 
2448.000000	100.241058 
2447.000000	100.243857 
2446.000000	100.244034 
2445.000000	100.243433 
2444.000000	100.244732 
2443.000000	100.248378 
2442.000000	100.252159 
2441.000000	100.253689 
2440.000000	100.252703 
2439.000000	100.250791 
2438.000000	100.249600 
2437.000000	100.249607 
2436.000000	100.249906 
2435.000000	100.248634 
2434.000000	100.244336 
2433.000000	100.237814 
2432.000000	100.232287 
2431.000000	100.230741 
2430.000000	100.233136 
2429.000000	100.237033 
2428.000000	100.241033 
2427.000000	100.246341 
2426.000000	100.253990 
2425.000000	100.261231 
2424.000000	100.262495 
2423.000000	100.254931 
2422.000000	100.242330 
2421.000000	100.232455 
2420.000000	100.230359 
2419.000000	100.234934 
2418.000000	100.241586 
2417.000000	100.246713 
2416.000000	100.249125 
2415.000000	100.248931 
2414.000000	100.247055 
2413.000000	100.245372 
2412.000000	100.245473 
2411.000000	100.246889 
2410.000000	100.247652 
2409.000000	100.246799 
2408.000000	100.245309 
2407.000000	100.244474 
2406.000000	100.244630 
2405.000000	100.245795 
2404.000000	100.248098 
2403.000000	100.250697 
2402.000000	100.251479 
2401.000000	100.249064 
2400.000000	100.244629 
2399.000000	100.240789 
2398.000000	100.239012 
2397.000000	100.238938 
2396.000000	100.239818 
2395.000000	100.241603 
2394.000000	100.244467 
2393.000000	100.247902 
2392.000000	100.250661 
2391.000000	100.251628 
2390.000000	100.250957 
2389.000000	100.250357 
2388.000000	100.251668 
2387.000000	100.254768 
2386.000000	100.257304 
2385.000000	100.257050 
2384.000000	100.254381 
2383.000000	100.252073 
2382.000000	100.252802 
2381.000000	100.256784 
2380.000000	100.261116 
2379.000000	100.261018 
2378.000000	100.252894 
2377.000000	100.238103 
2376.000000	100.223918 
2375.000000	100.218881 
2374.000000	100.225856 
2373.000000	100.240249 
2372.000000	100.255622 
2371.000000	100.269611 
2370.000000	100.282878 
2369.000000	100.293862 
2368.000000	100.297568 
2367.000000	100.290314 
2366.000000	100.274620 
2365.000000	100.258942 
2364.000000	100.251857 
2363.000000	100.255377 
2362.000000	100.263790 
2361.000000	100.269186 
2360.000000	100.269017 
2359.000000	100.267062 
2358.000000	100.267635 
2357.000000	100.271366 
2356.000000	100.276517 
2355.000000	100.280889 
2354.000000	100.282032 
2353.000000	100.279207 
2352.000000	100.274870 
2351.000000	100.272775 
2350.000000	100.274426 
2349.000000	100.277652 
2348.000000	100.278875 
2347.000000	100.276422 
2346.000000	100.271731 
2345.000000	100.267058 
2344.000000	100.263836 
2343.000000	100.263420 
2342.000000	100.266763 
2341.000000	100.272908 
2340.000000	100.279214 
2339.000000	100.283715 
2338.000000	100.285895 
2337.000000	100.286106 
2336.000000	100.284017 
2335.000000	100.278762 
2334.000000	100.270908 
2333.000000	100.264377 
2332.000000	100.263381 
2331.000000	100.267283 
2330.000000	100.270803 
2329.000000	100.270228 
2328.000000	100.267393 
2327.000000	100.266564 
2326.000000	100.269349 
2325.000000	100.273203 
2324.000000	100.274344 
2323.000000	100.272227 
2322.000000	100.271257 
2321.000000	100.276638 
2320.000000	100.287739 
2319.000000	100.298030 
2318.000000	100.301938 
2317.000000	100.299909 
2316.000000	100.295724 
2315.000000	100.291813 
2314.000000	100.288921 
2313.000000	100.287998 
2312.000000	100.289794 
2311.000000	100.293562 
2310.000000	100.298393 
2309.000000	100.304232 
2308.000000	100.309653 
2307.000000	100.310620 
2306.000000	100.304707 
2305.000000	100.295124 
2304.000000	100.287099 
2303.000000	100.281281 
2302.000000	100.274513 
2301.000000	100.266517 
2300.000000	100.261177 
2299.000000	100.260447 
2298.000000	100.261267 
2297.000000	100.260619 
2296.000000	100.260274 
2295.000000	100.263474 
2294.000000	100.269256 
2293.000000	100.273123 
2292.000000	100.272728 
2291.000000	100.270127 
2290.000000	100.268690 
2289.000000	100.269480 
2288.000000	100.271058 
2287.000000	100.271588 
2286.000000	100.270685 
2285.000000	100.269357 
2284.000000	100.268285 
2283.000000	100.266577 
2282.000000	100.262742 
2281.000000	100.256589 
2280.000000	100.249614 
2279.000000	100.244315 
2278.000000	100.243781 
2277.000000	100.250305 
2276.000000	100.262310 
2275.000000	100.273747 
2274.000000	100.278916 
2273.000000	100.277190 
2272.000000	100.270965 
2271.000000	100.261015 
2270.000000	100.248267 
2269.000000	100.239016 
2268.000000	100.242137 
2267.000000	100.258956 
2266.000000	100.279926 
2265.000000	100.293551 
2264.000000	100.295813 
2263.000000	100.290014 
2262.000000	100.282107 
2261.000000	100.278493 
2260.000000	100.283486 
2259.000000	100.294466 
2258.000000	100.302140 
2257.000000	100.299645 
2256.000000	100.289989 
2255.000000	100.281557 
2254.000000	100.278124 
2253.000000	100.276789 
2252.000000	100.274467 
2251.000000	100.272589 
2250.000000	100.274840 
2249.000000	100.282495 
2248.000000	100.292429 
2247.000000	100.299207 
2246.000000	100.299461 
2245.000000	100.294336 
2244.000000	100.287313 
2243.000000	100.280694 
2242.000000	100.276151 
2241.000000	100.276821 
2240.000000	100.284205 
2239.000000	100.292886 
2238.000000	100.293345 
2237.000000	100.281844 
2236.000000	100.263559 
2235.000000	100.244622 
2234.000000	100.226420 
2233.000000	100.210597 
2232.000000	100.203907 
2231.000000	100.212570 
2230.000000	100.234437 
2229.000000	100.261028 
2228.000000	100.285475 
2227.000000	100.304835 
2226.000000	100.316942 
2225.000000	100.320012 
2224.000000	100.315094 
2223.000000	100.305677 
2222.000000	100.295305 
2221.000000	100.287151 
2220.000000	100.283692 
2219.000000	100.284470 
2218.000000	100.286543 
2217.000000	100.289620 
2216.000000	100.298000 
2215.000000	100.314038 
2214.000000	100.331852 
2213.000000	100.341292 
2212.000000	100.337632 
2211.000000	100.325474 
2210.000000	100.314942 
2209.000000	100.315514 
2208.000000	100.329696 
2207.000000	100.349285 
2206.000000	100.360356 
2205.000000	100.355383 
2204.000000	100.339072 
2203.000000	100.320793 
2202.000000	100.305457 
2201.000000	100.294317 
2200.000000	100.288924 
2199.000000	100.288647 
2198.000000	100.287900 
2197.000000	100.282059 
2196.000000	100.274526 
2195.000000	100.272880 
2194.000000	100.279388 
2193.000000	100.289525 
2192.000000	100.298096 
2191.000000	100.302689 
2190.000000	100.303027 
2189.000000	100.301490 
2188.000000	100.302645 
2187.000000	100.308356 
2186.000000	100.315552 
2185.000000	100.322359 
2184.000000	100.332444 
2183.000000	100.347874 
2182.000000	100.361881 
2181.000000	100.366432 
2180.000000	100.364281 
2179.000000	100.364865 
2178.000000	100.369667 
2177.000000	100.369846 
2176.000000	100.358405 
2175.000000	100.338101 
2174.000000	100.317143 
2173.000000	100.302916 
2172.000000	100.299537 
2171.000000	100.305519 
2170.000000	100.313703 
2169.000000	100.318581 
2168.000000	100.322972 
2167.000000	100.331866 
2166.000000	100.341604 
2165.000000	100.343673 
2164.000000	100.339483 
2163.000000	100.341838 
2162.000000	100.358823 
2161.000000	100.383642 
2160.000000	100.402834 
2159.000000	100.407634 
2158.000000	100.395637 
2157.000000	100.370971 
2156.000000	100.346430 
2155.000000	100.336227 
2154.000000	100.341822 
2153.000000	100.349837 
2152.000000	100.347389 
2151.000000	100.335844 
2150.000000	100.327097 
2149.000000	100.330543 
2148.000000	100.345737 
2147.000000	100.363446 
2146.000000	100.371323 
2145.000000	100.362929 
2144.000000	100.344681 
2143.000000	100.330644 
2142.000000	100.328140 
2141.000000	100.331623 
2140.000000	100.332406 
2139.000000	100.329879 
2138.000000	100.328927 
2137.000000	100.329854 
2136.000000	100.327125 
2135.000000	100.318312 
2134.000000	100.309470 
2133.000000	100.308753 
2132.000000	100.315992 
2131.000000	100.321047 
2130.000000	100.313617 
2129.000000	100.294634 
2128.000000	100.276355 
2127.000000	100.269528 
2126.000000	100.272220 
2125.000000	100.274554 
2124.000000	100.273327 
2123.000000	100.276231 
2122.000000	100.289288 
2121.000000	100.305507 
2120.000000	100.311688 
2119.000000	100.304429 
2118.000000	100.293462 
2117.000000	100.288936 
2116.000000	100.290705 
2115.000000	100.292382 
2114.000000	100.291616 
2113.000000	100.291670 
2112.000000	100.294200 
2111.000000	100.295399 
2110.000000	100.291253 
2109.000000	100.283889 
2108.000000	100.279593 
2107.000000	100.280835 
2106.000000	100.282863 
2105.000000	100.279291 
2104.000000	100.269588 
2103.000000	100.259488 
2102.000000	100.254791 
2101.000000	100.256417 
2100.000000	100.261193 
2099.000000	100.265507 
2098.000000	100.267534 
2097.000000	100.267549 
2096.000000	100.267221 
2095.000000	100.267419 
2094.000000	100.265901 
2093.000000	100.258922 
2092.000000	100.246952 
2091.000000	100.237373 
2090.000000	100.238497 
2089.000000	100.250169 
2088.000000	100.262662 
2087.000000	100.266676 
2086.000000	100.262852 
2085.000000	100.259590 
2084.000000	100.262704 
2083.000000	100.269988 
2082.000000	100.276025 
2081.000000	100.279068 
2080.000000	100.281108 
2079.000000	100.283356 
2078.000000	100.285208 
2077.000000	100.287736 
2076.000000	100.294752 
2075.000000	100.308351 
2074.000000	100.325079 
2073.000000	100.338549 
2072.000000	100.345271 
2071.000000	100.346163 
2070.000000	100.343136 
2069.000000	100.337081 
2068.000000	100.329796 
2067.000000	100.325032 
2066.000000	100.325131 
2065.000000	100.327352 
2064.000000	100.326412 
2063.000000	100.321543 
2062.000000	100.318777 
2061.000000	100.324341 
2060.000000	100.336798 
2059.000000	100.348002 
2058.000000	100.351897 
2057.000000	100.349950 
2056.000000	100.346980 
2055.000000	100.344288 
2054.000000	100.339977 
2053.000000	100.335114 
2052.000000	100.335831 
2051.000000	100.347661 
2050.000000	100.368708 
2049.000000	100.388924 
2048.000000	100.397007 
2047.000000	100.389276 
2046.000000	100.372252 
2045.000000	100.356846 
2044.000000	100.349470 
2043.000000	100.348432 
2042.000000	100.348723 
2041.000000	100.348567 
2040.000000	100.349737 
2039.000000	100.353060 
2038.000000	100.356920 
2037.000000	100.360140 
2036.000000	100.363282 
2035.000000	100.366486 
2034.000000	100.368629 
2033.000000	100.369442 
2032.000000	100.369942 
2031.000000	100.370093 
2030.000000	100.368619 
2029.000000	100.365461 
2028.000000	100.361396 
2027.000000	100.355353 
2026.000000	100.346515 
2025.000000	100.339776 
2024.000000	100.343131 
2023.000000	100.356335 
2022.000000	100.366782 
2021.000000	100.361930 
2020.000000	100.344124 
2019.000000	100.328301 
2018.000000	100.325765 
2017.000000	100.333803 
2016.000000	100.341432 
2015.000000	100.342142 
2014.000000	100.338593 
2013.000000	100.336901 
2012.000000	100.339166 
2011.000000	100.342841 
2010.000000	100.347362 
2009.000000	100.358570 
2008.000000	100.381920 
2007.000000	100.410719 
2006.000000	100.426785 
2005.000000	100.417543 
2004.000000	100.390035 
2003.000000	100.363859 
2002.000000	100.352577 
2001.000000	100.354557 
2000.000000	100.358379 
1999.000000	100.353605 
1998.000000	100.338121 
1997.000000	100.319814 
1996.000000	100.311895 
1995.000000	100.323177 
1994.000000	100.350325 
1993.000000	100.378872 
1992.000000	100.393521 
1991.000000	100.389361 
1990.000000	100.373616 
1989.000000	100.358796 
1988.000000	100.354936 
1987.000000	100.364419 
1986.000000	100.380865 
1985.000000	100.394270 
1984.000000	100.399588 
1983.000000	100.399967 
1982.000000	100.400731 
1981.000000	100.401933 
1980.000000	100.399274 
1979.000000	100.391775 
1978.000000	100.384751 
1977.000000	100.382478 
1976.000000	100.380868 
1975.000000	100.372766 
1974.000000	100.359919 
1973.000000	100.354544 
1972.000000	100.366706 
1971.000000	100.391917 
1970.000000	100.412880 
1969.000000	100.413397 
1968.000000	100.391948 
1967.000000	100.363246 
1966.000000	100.345264 
1965.000000	100.343892 
1964.000000	100.350965 
1963.000000	100.355645 
1962.000000	100.354306 
1961.000000	100.349528 
1960.000000	100.343980 
1959.000000	100.339052 
1958.000000	100.337042 
1957.000000	100.339371 
1956.000000	100.343188 
1955.000000	100.344549 
1954.000000	100.344704 
1953.000000	100.348072 
1952.000000	100.353281 
1951.000000	100.351844 
1950.000000	100.338743 
1949.000000	100.320511 
1948.000000	100.308790 
1947.000000	100.307661 
1946.000000	100.310492 
1945.000000	100.307855 
1944.000000	100.296472 
1943.000000	100.282389 
1942.000000	100.276400 
1941.000000	100.282949 
1940.000000	100.293722 
1939.000000	100.296262 
1938.000000	100.288824 
1937.000000	100.282967 
1936.000000	100.288779 
1935.000000	100.301670 
1934.000000	100.309326 
1933.000000	100.308463 
1932.000000	100.307825 
1931.000000	100.314639 
1930.000000	100.324965 
1929.000000	100.330042 
1928.000000	100.327213 
1927.000000	100.321201 
1926.000000	100.317317 
1925.000000	100.316675 
1924.000000	100.317079 
1923.000000	100.316635 
1922.000000	100.316335 
1921.000000	100.318399 
1920.000000	100.321380 
1919.000000	100.318804 
1918.000000	100.305962 
1917.000000	100.288161 
1916.000000	100.276007 
1915.000000	100.272875 
1914.000000	100.274014 
1913.000000	100.275336 
1912.000000	100.277420 
1911.000000	100.281157 
1910.000000	100.284178 
1909.000000	100.284647 
1908.000000	100.284975 
1907.000000	100.288358 
1906.000000	100.294149 
1905.000000	100.299258 
1904.000000	100.301888 
1903.000000	100.301637 
1902.000000	100.298326 
1901.000000	100.293040 
1900.000000	100.288057 
1899.000000	100.284472 
1898.000000	100.281978 
1897.000000	100.281357 
1896.000000	100.284324 
1895.000000	100.289392 
1894.000000	100.291426 
1893.000000	100.288060 
1892.000000	100.282976 
1891.000000	100.280589 
1890.000000	100.280477 
1889.000000	100.279699 
1888.000000	100.278694 
1887.000000	100.280479 
1886.000000	100.285635 
1885.000000	100.291699 
1884.000000	100.296245 
1883.000000	100.298485 
1882.000000	100.298595 
1881.000000	100.297438 
1880.000000	100.296365 
1879.000000	100.296328 
1878.000000	100.297864 
1877.000000	100.301917 
1876.000000	100.309027 
1875.000000	100.316773 
1874.000000	100.319851 
1873.000000	100.315031 
1872.000000	100.304909 
1871.000000	100.295164 
1870.000000	100.289400 
1869.000000	100.287795 
1868.000000	100.289971 
1867.000000	100.295816 
1866.000000	100.302905 
1865.000000	100.306378 
1864.000000	100.301739 
1863.000000	100.287836 
1862.000000	100.268877 
1861.000000	100.253616 
1860.000000	100.250011 
1859.000000	100.258699 
1858.000000	100.272484 
1857.000000	100.282891 
1856.000000	100.286685 
1855.000000	100.286072 
1854.000000	100.284838 
1853.000000	100.285357 
1852.000000	100.287349 
1851.000000	100.288988 
1850.000000	100.289899 
1849.000000	100.292178 
1848.000000	100.297352 
1847.000000	100.303330 
1846.000000	100.306377 
1845.000000	100.305608 
1844.000000	100.304129 
1843.000000	100.304387 
1842.000000	100.304946 
1841.000000	100.303712 
1840.000000	100.300675 
1839.000000	100.297167 
1838.000000	100.294205 
1837.000000	100.291781 
1836.000000	100.289254 
1835.000000	100.286281 
1834.000000	100.284077 
1833.000000	100.284347 
1832.000000	100.286046 
1831.000000	100.285346 
1830.000000	100.280751 
1829.000000	100.276579 
1828.000000	100.277328 
1827.000000	100.281410 
1826.000000	100.284359 
1825.000000	100.285096 
1824.000000	100.285697 
1823.000000	100.285513 
1822.000000	100.280368 
1821.000000	100.269869 
1820.000000	100.261171 
1819.000000	100.261987 
1818.000000	100.270992 
1817.000000	100.279341 
1816.000000	100.281624 
1815.000000	100.280482 
1814.000000	100.280679 
1813.000000	100.283305 
1812.000000	100.286726 
1811.000000	100.290154 
1810.000000	100.293760 
1809.000000	100.297286 
1808.000000	100.300041 
1807.000000	100.300394 
1806.000000	100.296292 
1805.000000	100.288421 
1804.000000	100.280885 
1803.000000	100.276558 
1802.000000	100.273360 
1801.000000	100.267324 
1800.000000	100.259286 
1799.000000	100.254701 
1798.000000	100.256680 
1797.000000	100.263977 
1796.000000	100.273919 
1795.000000	100.283464 
1794.000000	100.289230 
1793.000000	100.289029 
1792.000000	100.285207 
1791.000000	100.282943 
1790.000000	100.283244 
1789.000000	100.283636 
1788.000000	100.283739 
1787.000000	100.285511 
1786.000000	100.289648 
1785.000000	100.293977 
1784.000000	100.295352 
1783.000000	100.292078 
1782.000000	100.285302 
1781.000000	100.278625 
1780.000000	100.275199 
1779.000000	100.274604 
1778.000000	100.274242 
1777.000000	100.273893 
1776.000000	100.275436 
1775.000000	100.278172 
1774.000000	100.278438 
1773.000000	100.274718 
1772.000000	100.271661 
1771.000000	100.274913 
1770.000000	100.282476 
1769.000000	100.287232 
1768.000000	100.285803 
1767.000000	100.281466 
1766.000000	100.278749 
1765.000000	100.278035 
1764.000000	100.277097 
1763.000000	100.274863 
1762.000000	100.272331 
1761.000000	100.270822 
1760.000000	100.270729 
1759.000000	100.271679 
1758.000000	100.273277 
1757.000000	100.275756 
1756.000000	100.278835 
1755.000000	100.281578 
1754.000000	100.283294 
1753.000000	100.283842 
1752.000000	100.283087 
1751.000000	100.279725 
1750.000000	100.272358 
1749.000000	100.262642 
1748.000000	100.255084 
1747.000000	100.252604 
1746.000000	100.253365 
1745.000000	100.252319 
1744.000000	100.246863 
1743.000000	100.240240 
1742.000000	100.237259 
1741.000000	100.238405 
1740.000000	100.241252 
1739.000000	100.245457 
1738.000000	100.252856 
1737.000000	100.262282 
1736.000000	100.269972 
1735.000000	100.272565 
1734.000000	100.269825 
1733.000000	100.266587 
1732.000000	100.265833 
1731.000000	100.264561 
1730.000000	100.260448 
1729.000000	100.256049 
1728.000000	100.254144 
1727.000000	100.254749 
1726.000000	100.256315 
1725.000000	100.258188 
1724.000000	100.260080 
1723.000000	100.261052 
1722.000000	100.259927 
1721.000000	100.257342 
1720.000000	100.255909 
1719.000000	100.258921 
1718.000000	100.266218 
1717.000000	100.271974 
1716.000000	100.273865 
1715.000000	100.274166 
1714.000000	100.272201 
1713.000000	100.267819 
1712.000000	100.263879 
1711.000000	100.261865 
1710.000000	100.260629 
1709.000000	100.259601 
1708.000000	100.260235 
1707.000000	100.263533 
1706.000000	100.267128 
1705.000000	100.267572 
1704.000000	100.266104 
1703.000000	100.264359 
1702.000000	100.260652 
1701.000000	100.253307 
1700.000000	100.248800 
1699.000000	100.256681 
1698.000000	100.271605 
1697.000000	100.281110 
1696.000000	100.281060 
1695.000000	100.277271 
1694.000000	100.274964 
1693.000000	100.272881 
1692.000000	100.269658 
1691.000000	100.266889 
1690.000000	100.266629 
1689.000000	100.269206 
1688.000000	100.274008 
1687.000000	100.280488 
1686.000000	100.288221 
1685.000000	100.294843 
1684.000000	100.296551 
1683.000000	100.294444 
1682.000000	100.292386 
1681.000000	100.290565 
1680.000000	100.287156 
1679.000000	100.283173 
1678.000000	100.279393 
1677.000000	100.275285 
1676.000000	100.269710 
1675.000000	100.264674 
1674.000000	100.264513 
1673.000000	100.269368 
1672.000000	100.274842 
1671.000000	100.277399 
1670.000000	100.276372 
1669.000000	100.274361 
1668.000000	100.274079 
1667.000000	100.275090 
1666.000000	100.275724 
1665.000000	100.275063 
1664.000000	100.273531 
1663.000000	100.272142 
1662.000000	100.271561 
1661.000000	100.272629 
1660.000000	100.275090 
1659.000000	100.278045 
1658.000000	100.280153 
1657.000000	100.281180 
1656.000000	100.280192 
1655.000000	100.278013 
1654.000000	100.277361 
1653.000000	100.279139 
1652.000000	100.283406 
1651.000000	100.289071 
1650.000000	100.293161 
1649.000000	100.292855 
1648.000000	100.290728 
1647.000000	100.288597 
1646.000000	100.287403 
1645.000000	100.287156 
1644.000000	100.288935 
1643.000000	100.291423 
1642.000000	100.292214 
1641.000000	100.289732 
1640.000000	100.285656 
1639.000000	100.283310 
1638.000000	100.284023 
1637.000000	100.287052 
1636.000000	100.290749 
1635.000000	100.293149 
1634.000000	100.294162 
1633.000000	100.293845 
1632.000000	100.291051 
1631.000000	100.285573 
1630.000000	100.278581 
1629.000000	100.272932 
1628.000000	100.271046 
1627.000000	100.272217 
1626.000000	100.273673 
1625.000000	100.273776 
1624.000000	100.272880 
1623.000000	100.271676 
1622.000000	100.270818 
1621.000000	100.271460 
1620.000000	100.273326 
1619.000000	100.274820 
1618.000000	100.275227 
1617.000000	100.276385 
1616.000000	100.280756 
1615.000000	100.286836 
1614.000000	100.291295 
1613.000000	100.293160 
1612.000000	100.293615 
1611.000000	100.293345 
1610.000000	100.291749 
1609.000000	100.288616 
1608.000000	100.284511 
1607.000000	100.279810 
1606.000000	100.275644 
1605.000000	100.273999 
1604.000000	100.275450 
1603.000000	100.278523 
1602.000000	100.281739 
1601.000000	100.285083 
1600.000000	100.288572 
1599.000000	100.290957 
1598.000000	100.291337 
1597.000000	100.290598 
1596.000000	100.290212 
1595.000000	100.290270 
1594.000000	100.290051 
1593.000000	100.290234 
1592.000000	100.292370 
1591.000000	100.296231 
1590.000000	100.299742 
1589.000000	100.301602 
1588.000000	100.302158 
1587.000000	100.301874 
1586.000000	100.301310 
1585.000000	100.302016 
1584.000000	100.304483 
1583.000000	100.306214 
1582.000000	100.304442 
1581.000000	100.299870 
1580.000000	100.295635 
1579.000000	100.293452 
1578.000000	100.292908 
1577.000000	100.293213 
1576.000000	100.293641 
1575.000000	100.293513 
1574.000000	100.293707 
1573.000000	100.294725 
1572.000000	100.295324 
1571.000000	100.295239 
1570.000000	100.295967 
1569.000000	100.299836 
1568.000000	100.305491 
1567.000000	100.308687 
1566.000000	100.306998 
1565.000000	100.302249 
1564.000000	100.297052 
1563.000000	100.292992 
1562.000000	100.290160 
1561.000000	100.289983 
1560.000000	100.295387 
1559.000000	100.300304 
1558.000000	100.298088 
1557.000000	100.298450 
1556.000000	100.304728 
1555.000000	100.308114 
1554.000000	100.308352 
1553.000000	100.306734 
1552.000000	100.305315 
1551.000000	100.302994 
1550.000000	100.300727 
1549.000000	100.300845 
1548.000000	100.303592 
1547.000000	100.305022 
1546.000000	100.301006 
1545.000000	100.291836 
1544.000000	100.283667 
1543.000000	100.283650 
1542.000000	100.293578 
1541.000000	100.308168 
1540.000000	100.318250 
1539.000000	100.319519 
1538.000000	100.317239 
1537.000000	100.316578 
1536.000000	100.317143 
1535.000000	100.317754 
1534.000000	100.316477 
1533.000000	100.312591 
1532.000000	100.308788 
1531.000000	100.308058 
1530.000000	100.308588 
1529.000000	100.307591 
1528.000000	100.305255 
1527.000000	100.303613 
1526.000000	100.303887 
1525.000000	100.306010 
1524.000000	100.310358 
1523.000000	100.317856 
1522.000000	100.326148 
1521.000000	100.328804 
1520.000000	100.323879 
1519.000000	100.315014 
1518.000000	100.304598 
1517.000000	100.294969 
1516.000000	100.290516 
1515.000000	100.292734 
1514.000000	100.297845 
1513.000000	100.300845 
1512.000000	100.300316 
1511.000000	100.298222 
1510.000000	100.296167 
1509.000000	100.294312 
1508.000000	100.295339 
1507.000000	100.303208 
1506.000000	100.311019 
1505.000000	100.310931 
1504.000000	100.307064 
1503.000000	100.304017 
1502.000000	100.303466 
1501.000000	100.304087 
1500.000000	100.304181 
1499.000000	100.303740 
1498.000000	100.303304 
1497.000000	100.300066 
1496.000000	100.292638 
1495.000000	100.286285 
1494.000000	100.284952 
1493.000000	100.286391 
1492.000000	100.287349 
1491.000000	100.287348 
1490.000000	100.287277 
1489.000000	100.286174 
1488.000000	100.283519 
1487.000000	100.280320 
1486.000000	100.275972 
1485.000000	100.270764 
1484.000000	100.266710 
1483.000000	100.265137 
1482.000000	100.265755 
1481.000000	100.267101 
1480.000000	100.268156 
1479.000000	100.268336 
1478.000000	100.266691 
1477.000000	100.263285 
1476.000000	100.261600 
1475.000000	100.265450 
1474.000000	100.273048 
1473.000000	100.276697 
1472.000000	100.271904 
1471.000000	100.263936 
1470.000000	100.257813 
1469.000000	100.252344 
1468.000000	100.245927 
1467.000000	100.239861 
1466.000000	100.236535 
1465.000000	100.236610 
1464.000000	100.239012 
1463.000000	100.242861 
1462.000000	100.246655 
1461.000000	100.248474 
1460.000000	100.247923 
1459.000000	100.246030 
1458.000000	100.242581 
1457.000000	100.233537 
1456.000000	100.219582 
1455.000000	100.209416 
1454.000000	100.206850 
1453.000000	100.208588 
1452.000000	100.211995 
1451.000000	100.215667 
1450.000000	100.218030 
1449.000000	100.216316 
1448.000000	100.210819 
1447.000000	100.206422 
1446.000000	100.207016 
1445.000000	100.210942 
1444.000000	100.214850 
1443.000000	100.218346 
1442.000000	100.222443 
1441.000000	100.226644 
1440.000000	100.229536 
1439.000000	100.231111 
1438.000000	100.232567 
1437.000000	100.233601 
1436.000000	100.233311 
1435.000000	100.233707 
1434.000000	100.235838 
1433.000000	100.236588 
1432.000000	100.233761 
1431.000000	100.229134 
1430.000000	100.225942 
1429.000000	100.224358 
1428.000000	100.222625 
1427.000000	100.220645 
1426.000000	100.219342 
1425.000000	100.218363 
1424.000000	100.215854 
1423.000000	100.211474 
1422.000000	100.206004 
1421.000000	100.198166 
1420.000000	100.186006 
1419.000000	100.172996 
1418.000000	100.165995 
1417.000000	100.163446 
1416.000000	100.157857 
1415.000000	100.146806 
1414.000000	100.133795 
1413.000000	100.122175 
1412.000000	100.112457 
1411.000000	100.104734 
1410.000000	100.099651 
1409.000000	100.095904 
1408.000000	100.091554 
1407.000000	100.087465 
1406.000000	100.086374 
1405.000000	100.088876 
1404.000000	100.092942 
1403.000000	100.098723 
1402.000000	100.108740 
1401.000000	100.123117 
1400.000000	100.138209 
1399.000000	100.149061 
1398.000000	100.151740 
1397.000000	100.142196 
1396.000000	100.117971 
1395.000000	100.087269 
1394.000000	100.070492 
1393.000000	100.080407 
1392.000000	100.108297 
1391.000000	100.136978 
1390.000000	100.155943 
1389.000000	100.163449 
1388.000000	100.161760 
1387.000000	100.153863 
1386.000000	100.143810 
1385.000000	100.135593 
1384.000000	100.130496 
1383.000000	100.127583 
1382.000000	100.126033 
1381.000000	100.126281 
1380.000000	100.129556 
1379.000000	100.136223 
1378.000000	100.145061 
1377.000000	100.154144 
1376.000000	100.162056 
1375.000000	100.168477 
1374.000000	100.174657 
1373.000000	100.182561 
1372.000000	100.192462 
1371.000000	100.202085 
1370.000000	100.208836 
1369.000000	100.212537 
1368.000000	100.214884 
1367.000000	100.217464 
1366.000000	100.220926 
1365.000000	100.225497 
1364.000000	100.231398 
1363.000000	100.238011 
1362.000000	100.243359 
1361.000000	100.246197 
1360.000000	100.247810 
1359.000000	100.250652 
1358.000000	100.256158 
1357.000000	100.263695 
1356.000000	100.270915 
1355.000000	100.275680 
1354.000000	100.277957 
1353.000000	100.279343 
1352.000000	100.281079 
1351.000000	100.282607 
1350.000000	100.282662 
1349.000000	100.281761 
1348.000000	100.281418 
1347.000000	100.281808 
1346.000000	100.281870 
1345.000000	100.281574 
1344.000000	100.282214 
1343.000000	100.284269 
1342.000000	100.286636 
1341.000000	100.288582 
1340.000000	100.290874 
1339.000000	100.293942 
1338.000000	100.296588 
1337.000000	100.297806 
1336.000000	100.298377 
1335.000000	100.299503 
1334.000000	100.300791 
1333.000000	100.300833 
1332.000000	100.299405 
1331.000000	100.297782 
1330.000000	100.297066 
1329.000000	100.297310 
1328.000000	100.298154 
1327.000000	100.299165 
1326.000000	100.299712 
1325.000000	100.299520 
1324.000000	100.299000 
1323.000000	100.298838 
1322.000000	100.299389 
1321.000000	100.300801 
1320.000000	100.303424 
1319.000000	100.307185 
1318.000000	100.310484 
1317.000000	100.310892 
1316.000000	100.307703 
1315.000000	100.303108 
1314.000000	100.300154 
1313.000000	100.299731 
1312.000000	100.300242 
1311.000000	100.299977 
1310.000000	100.298850 
1309.000000	100.297709 
1308.000000	100.297037 
1307.000000	100.296600 
1306.000000	100.295895 
1305.000000	100.294819 
1304.000000	100.293874 
1303.000000	100.293934 
1302.000000	100.295311 
1301.000000	100.296991 
1300.000000	100.297408 
1299.000000	100.296361 
1298.000000	100.295653 
1297.000000	100.297266 
1296.000000	100.301023 
1295.000000	100.304352 
1294.000000	100.304411 
1293.000000	100.300396 
1292.000000	100.294182 
1291.000000	100.289096 
1290.000000	100.287662 
1289.000000	100.289768 
1288.000000	100.292759 
1287.000000	100.293552 
1286.000000	100.291100 
1285.000000	100.286977 
1284.000000	100.283599 
1283.000000	100.281888 
1282.000000	100.280519 
1281.000000	100.277498 
1280.000000	100.272362 
1279.000000	100.266577 
1278.000000	100.262024 
1277.000000	100.259539 
1276.000000	100.258837 
1275.000000	100.258870 
1274.000000	100.257950 
1273.000000	100.254434 
1272.000000	100.248260 
1271.000000	100.241469 
1270.000000	100.236335 
1269.000000	100.233031 
1268.000000	100.229669 
1267.000000	100.224395 
1266.000000	100.216884 
1265.000000	100.208086 
1264.000000	100.199395 
1263.000000	100.191923 
1262.000000	100.185677 
1261.000000	100.179646 
1260.000000	100.173453 
1259.000000	100.168483 
1258.000000	100.166297 
1257.000000	100.166273 
1256.000000	100.166256 
1255.000000	100.165304 
1254.000000	100.164118 
1253.000000	100.162719 
1252.000000	100.159891 
1251.000000	100.155973 
1250.000000	100.154372 
1249.000000	100.158482 
1248.000000	100.167772 
1247.000000	100.177994 
1246.000000	100.184285 
1245.000000	100.183138 
1244.000000	100.173458 
1243.000000	100.158662 
1242.000000	100.146901 
1241.000000	100.145516 
1240.000000	100.154016 
1239.000000	100.164312 
1238.000000	100.168772 
1237.000000	100.166655 
1236.000000	100.162053 
1235.000000	100.157955 
1234.000000	100.154293 
1233.000000	100.150182 
1232.000000	100.145277 
1231.000000	100.139106 
1230.000000	100.131512 
1229.000000	100.124452 
1228.000000	100.121571 
1227.000000	100.124550 
1226.000000	100.130580 
1225.000000	100.134766 
1224.000000	100.134880 
1223.000000	100.132856 
1222.000000	100.131843 
1221.000000	100.132957 
1220.000000	100.135273 
1219.000000	100.137864 
1218.000000	100.140626 
1217.000000	100.143203 
1216.000000	100.144293 
1215.000000	100.142801 
1214.000000	100.139208 
1213.000000	100.134966 
1212.000000	100.130667 
1211.000000	100.125799 
1210.000000	100.120417 
1209.000000	100.115917 
1208.000000	100.113309 
1207.000000	100.111442 
1206.000000	100.108177 
1205.000000	100.103246 
1204.000000	100.098782 
1203.000000	100.096667 
1202.000000	100.096317 
1201.000000	100.095662 
1200.000000	100.093470 
1199.000000	100.089897 
1198.000000	100.085456 
1197.000000	100.080343 
1196.000000	100.074522 
1195.000000	100.067722 
1194.000000	100.059591 
1193.000000	100.050603 
1192.000000	100.042400 
1191.000000	100.036260 
1190.000000	100.031381 
1189.000000	100.025742 
1188.000000	100.018663 
1187.000000	100.011517 
1186.000000	100.005860 
1185.000000	100.001863 
1184.000000	99.998745  
1183.000000	99.995558  
1182.000000	99.991264  
1181.000000	99.985209  
1180.000000	99.978102  
1179.000000	99.971600  
1178.000000	99.966552  
1177.000000	99.962511  
1176.000000	99.958975  
1175.000000	99.955513  
1174.000000	99.950265  
1173.000000	99.940436  
1172.000000	99.925849  
1171.000000	99.910655  
1170.000000	99.899570  
1169.000000	99.892888  
1168.000000	99.886872  
1167.000000	99.878799  
1166.000000	99.870139  
1165.000000	99.864654  
1164.000000	99.864595  
1163.000000	99.869060  
1162.000000	99.875277  
1161.000000	99.881262  
1160.000000	99.887385  
1159.000000	99.894828  
1158.000000	99.902160  
1157.000000	99.904419  
1156.000000	99.897078  
1155.000000	99.881138  
1154.000000	99.863406  
1153.000000	99.851168  
1152.000000	99.846639  
1151.000000	99.846101  
1150.000000	99.843761  
1149.000000	99.836747  
1148.000000	99.827087  
1147.000000	99.818982  
1146.000000	99.813955  
1145.000000	99.809069  
1144.000000	99.800197  
1143.000000	99.786408  
1142.000000	99.770782  
1141.000000	99.757788  
1140.000000	99.750503  
1139.000000	99.749022  
1138.000000	99.749778  
1137.000000	99.747079  
1136.000000	99.737368  
1135.000000	99.722437  
1134.000000	99.707236  
1133.000000	99.694318  
1132.000000	99.681937  
1131.000000	99.668010  
1130.000000	99.654123  
1129.000000	99.643909  
1128.000000	99.637896  
1127.000000	99.631530  
1126.000000	99.619189  
1125.000000	99.600005  
1124.000000	99.579101  
1123.000000	99.562767  
1122.000000	99.552608  
1121.000000	99.544824  
1120.000000	99.534821  
1119.000000	99.521338  
1118.000000	99.505934  
1117.000000	99.490088  
1116.000000	99.474173  
1115.000000	99.458527  
1114.000000	99.443917  
1113.000000	99.430796  
1112.000000	99.418789  
1111.000000	99.406633  
1110.000000	99.392209  
1109.000000	99.373598  
1108.000000	99.351396  
1107.000000	99.329559  
1106.000000	99.312074  
1105.000000	99.298568  
1104.000000	99.284861  
1103.000000	99.268266  
1102.000000	99.251189  
1101.000000	99.238390  
1100.000000	99.231619  
1099.000000	99.228202  
1098.000000	99.223879  
1097.000000	99.216835  
1096.000000	99.208237  
1095.000000	99.199537  
1094.000000	99.189681  
1093.000000	99.175181  
1092.000000	99.152842  
1091.000000	99.122623  
1090.000000	99.088288  
1089.000000	99.055323  
1088.000000	99.027598  
1087.000000	99.005201  
1086.000000	98.985350  
1085.000000	98.965843  
1084.000000	98.947291  
1083.000000	98.931219  
1082.000000	98.916553  
1081.000000	98.899657  
1080.000000	98.878237  
1079.000000	98.853979  
1078.000000	98.830980  
1077.000000	98.812870  
1076.000000	98.801957  
1075.000000	98.799457  
1074.000000	98.804878  
1073.000000	98.815424  
1072.000000	98.826191  
1071.000000	98.830167  
1070.000000	98.819076  
1069.000000	98.788149  
1068.000000	98.743047  
1067.000000	98.700624  
1066.000000	98.678484  
1065.000000	98.681548  
1064.000000	98.699542  
1063.000000	98.716848  
1062.000000	98.722725  
1061.000000	98.713204  
1060.000000	98.688669  
1059.000000	98.654339  
1058.000000	98.621310  
1057.000000	98.601107  
1056.000000	98.596362  
1055.000000	98.598695  
1054.000000	98.597528  
1053.000000	98.589933  
1052.000000	98.580529  
1051.000000	98.573740  
1050.000000	98.569328  
1049.000000	98.564844  
1048.000000	98.558771  
1047.000000	98.550804  
1046.000000	98.542089  
1045.000000	98.535466  
1044.000000	98.532764  
1043.000000	98.531688  
1042.000000	98.528219  
1041.000000	98.522486  
1040.000000	98.519206  
1039.000000	98.521784  
1038.000000	98.529452  
1037.000000	98.541214  
1036.000000	98.558330  
1035.000000	98.580514  
1034.000000	98.603299  
1033.000000	98.621915  
1032.000000	98.634617  
1031.000000	98.640100  
1030.000000	98.636484  
1029.000000	98.627301  
1028.000000	98.624461  
1027.000000	98.638467  
1026.000000	98.666085  
1025.000000	98.692789  
1024.000000	98.707388  
1023.000000	98.710300  
1022.000000	98.708616  
1021.000000	98.708338  
1020.000000	98.712258  
1019.000000	98.720574  
1018.000000	98.730808  
1017.000000	98.739383  
1016.000000	98.745077  
1015.000000	98.749739  
1014.000000	98.755331  
1013.000000	98.761918  
1012.000000	98.768581  
1011.000000	98.774404  
1010.000000	98.778615  
1009.000000	98.781684  
1008.000000	98.786119  
1007.000000	98.794236  
1006.000000	98.805408  
1005.000000	98.817475  
1004.000000	98.830116  
1003.000000	98.844275  
1002.000000	98.858943  
1001.000000	98.871646  
1000.000000	98.882094  
999.000000	 98.892292  
998.000000	 98.902848  
997.000000	 98.912456  
996.000000	 98.921758  
995.000000	 98.934320  
994.000000	 98.951866  
993.000000	 98.970859  
992.000000	 98.985818  
991.000000	 98.994669  
990.000000	 98.999552  
989.000000	 99.003730  
988.000000	 99.009303  
987.000000	 99.017246  
986.000000	 99.028200  
985.000000	 99.042743  
984.000000	 99.060705  
983.000000	 99.079982  
982.000000	 99.097008  
981.000000	 99.109785  
980.000000	 99.120142  
979.000000	 99.131852  
978.000000	 99.147014  
977.000000	 99.165387  
976.000000	 99.186071  
975.000000	 99.207642  
974.000000	 99.227395  
973.000000	 99.243329  
972.000000	 99.257234  
971.000000	 99.273534  
970.000000	 99.294428  
969.000000	 99.317807  
968.000000	 99.340171  
967.000000	 99.359656  
966.000000	 99.375990  
965.000000	 99.389728  
964.000000	 99.402521  
963.000000	 99.416493  
962.000000	 99.432344  
961.000000	 99.449066  
960.000000	 99.465762  
959.000000	 99.482142  
958.000000	 99.496929  
957.000000	 99.507922  
956.000000	 99.514839  
955.000000	 99.520744  
954.000000	 99.529323  
953.000000	 99.541465  
952.000000	 99.555107  
951.000000	 99.567319  
950.000000	 99.575825  
949.000000	 99.579809  
948.000000	 99.580486  
947.000000	 99.580264  
946.000000	 99.580461  
945.000000	 99.580429  
944.000000	 99.579688  
943.000000	 99.580079  
942.000000	 99.584554  
941.000000	 99.593808  
940.000000	 99.604694  
939.000000	 99.612123  
938.000000	 99.612908  
937.000000	 99.608632  
936.000000	 99.605005  
935.000000	 99.607679  
934.000000	 99.617927  
933.000000	 99.632326  
932.000000	 99.646240  
931.000000	 99.656900  
930.000000	 99.663559  
929.000000	 99.666329  
928.000000	 99.665698  
927.000000	 99.662503  
926.000000	 99.657699  
925.000000	 99.652584  
924.000000	 99.649600  
923.000000	 99.651955  
922.000000	 99.661059  
921.000000	 99.674071  
920.000000	 99.684746  
919.000000	 99.687640  
918.000000	 99.682205  
917.000000	 99.672970  
916.000000	 99.665495  
915.000000	 99.661964  
914.000000	 99.660492  
913.000000	 99.658203  
912.000000	 99.654438  
911.000000	 99.651380  
910.000000	 99.652711  
909.000000	 99.661519  
908.000000	 99.677600  
907.000000	 99.695731  
906.000000	 99.708094  
905.000000	 99.710436  
904.000000	 99.705932  
903.000000	 99.702433  
902.000000	 99.706284  
901.000000	 99.718651  
900.000000	 99.736031  
899.000000	 99.752630  
898.000000	 99.763072  
897.000000	 99.765029  
896.000000	 99.760019  
895.000000	 99.752005  
894.000000	 99.745683  
893.000000	 99.745270  
892.000000	 99.752577  
891.000000	 99.765253  
890.000000	 99.778716  
889.000000	 99.790934  
888.000000	 99.803502  
887.000000	 99.817270  
886.000000	 99.829897  
885.000000	 99.839758  
884.000000	 99.849024  
883.000000	 99.859227  
882.000000	 99.866108  
881.000000	 99.863840  
880.000000	 99.854203  
879.000000	 99.847267  
878.000000	 99.851684  
877.000000	 99.866837  
876.000000	 99.884852  
875.000000	 99.897308  
874.000000	 99.900043  
873.000000	 99.895189  
872.000000	 99.889858  
871.000000	 99.890435  
870.000000	 99.897219  
869.000000	 99.906585  
868.000000	 99.917746  
867.000000	 99.933304  
866.000000	 99.952515  
865.000000	 99.968990  
864.000000	 99.978279  
863.000000	 99.984324  
862.000000	 99.994061  
861.000000	 100.007291 
860.000000	 100.016744 
859.000000	 100.018197 
858.000000	 100.015862 
857.000000	 100.016027 
856.000000	 100.019471 
855.000000	 100.023433 
854.000000	 100.027897 
853.000000	 100.035234 
852.000000	 100.044703 
851.000000	 100.052255 
850.000000	 100.056511 
849.000000	 100.060413 
848.000000	 100.065218 
847.000000	 100.067349 
846.000000	 100.064327 
845.000000	 100.060025 
844.000000	 100.059811 
843.000000	 100.063379 
842.000000	 100.067079 
841.000000	 100.070667 
840.000000	 100.075518 
839.000000	 100.077636 
838.000000	 100.070202 
837.000000	 100.054390 
836.000000	 100.040657 
835.000000	 100.036218 
834.000000	 100.036887 
833.000000	 100.035187 
832.000000	 100.031113 
831.000000	 100.029255 
830.000000	 100.029172 
829.000000	 100.025863 
828.000000	 100.019056 
827.000000	 100.015390 
826.000000	 100.019570 
825.000000	 100.027648 
824.000000	 100.031456 
823.000000	 100.027651 
822.000000	 100.021058 
821.000000	 100.019933 
820.000000	 100.028095 
819.000000	 100.041360 
818.000000	 100.052286 
817.000000	 100.057980 
816.000000	 100.060650 
815.000000	 100.060658 
814.000000	 100.053891 
813.000000	 100.038538 
812.000000	 100.019929 
811.000000	 100.004077 
810.000000	 99.989069  
809.000000	 99.967565  
808.000000	 99.936063  
807.000000	 99.897172  
806.000000	 99.854105  
805.000000	 99.808194  
804.000000	 99.762383  
803.000000	 99.722785  
802.000000	 99.694715  
801.000000	 99.678857  
800.000000	 99.671843  
799.000000	 99.669443  
798.000000	 99.670079  
797.000000	 99.676318  
796.000000	 99.690852  
795.000000	 99.709943  
794.000000	 99.724668  
793.000000	 99.731446  
792.000000	 99.737262  
791.000000	 99.750409  
790.000000	 99.769525  
789.000000	 99.786097  
788.000000	 99.794092  
787.000000	 99.791576  
786.000000	 99.776369  
785.000000	 99.747681  
784.000000	 99.711654  
783.000000	 99.679233  
782.000000	 99.657501  
781.000000	 99.646435  
780.000000	 99.642715  
779.000000	 99.642006  
778.000000	 99.639498  
777.000000	 99.634535  
776.000000	 99.634277  
775.000000	 99.646880  
774.000000	 99.670884  
773.000000	 99.696688  
772.000000	 99.718211  
771.000000	 99.737203  
770.000000	 99.755878  
769.000000	 99.771498  
768.000000	 99.780151  
767.000000	 99.781720  
766.000000	 99.780039  
765.000000	 99.781442  
764.000000	 99.792484  
763.000000	 99.813821  
762.000000	 99.835614  
761.000000	 99.844279  
760.000000	 99.835974  
759.000000	 99.820625  
758.000000	 99.812052  
757.000000	 99.816277  
756.000000	 99.827995  
755.000000	 99.834473  
754.000000	 99.825034  
753.000000	 99.802708  
752.000000	 99.785902  
751.000000	 99.792424  
750.000000	 99.820748  
749.000000	 99.851676  
748.000000	 99.868504  
747.000000	 99.870370  
746.000000	 99.866492  
745.000000	 99.864595  
744.000000	 99.867261  
743.000000	 99.873593  
742.000000	 99.880870  
741.000000	 99.887902  
740.000000	 99.898204  
739.000000	 99.916146  
738.000000	 99.938951  
737.000000	 99.956361  
736.000000	 99.959263  
735.000000	 99.946141  
734.000000	 99.922561  
733.000000	 99.898998  
732.000000	 99.887976  
731.000000	 99.896261  
730.000000	 99.917882  
729.000000	 99.939838  
728.000000	 99.955004  
727.000000	 99.964926  
726.000000	 99.971313  
725.000000	 99.971255  
724.000000	 99.962180  
723.000000	 99.946175  
722.000000	 99.928104  
721.000000	 99.914169  
720.000000	 99.912246  
719.000000	 99.926798  
718.000000	 99.951704  
717.000000	 99.973527  
716.000000	 99.983118  
715.000000	 99.980410  
714.000000	 99.969680  
713.000000	 99.956896  
712.000000	 99.951306  
711.000000	 99.960689  
710.000000	 99.981130  
709.000000	 99.997653  
708.000000	 99.997976  
707.000000	 99.981330  
706.000000	 99.953795  
705.000000	 99.921605  
704.000000	 99.892035  
703.000000	 99.874674  
702.000000	 99.875049  
701.000000	 99.888590  
700.000000	 99.903216  
699.000000	 99.905888  
698.000000	 99.890005  
697.000000	 99.861640  
696.000000	 99.837491  
695.000000	 99.831116  
694.000000	 99.839970  
693.000000	 99.851668  
692.000000	 99.860496  
691.000000	 99.868909  
690.000000	 99.877207  
689.000000	 99.883637  
688.000000	 99.894076  
687.000000	 99.916703  
686.000000	 99.943119  
685.000000	 99.951644  
684.000000	 99.935237  
683.000000	 99.911989  
682.000000	 99.903481  
681.000000	 99.913971  
680.000000	 99.933353  
679.000000	 99.947421  
678.000000	 99.942837  
677.000000	 99.918797  
676.000000	 99.896649  
675.000000	 99.900228  
674.000000	 99.924707  
673.000000	 99.938167  
672.000000	 99.917836  
671.000000	 99.872616  
670.000000	 99.827987  
669.000000	 99.813495  
668.000000	 99.848704  
667.000000	 99.902758  
666.000000	 99.929256  
665.000000	 99.925199  
664.000000	 99.909146  
663.000000	 99.911630  
662.000000	 99.948109  
661.000000	 99.994638  
660.000000	 100.010565 
659.000000	 99.982681  
658.000000	 99.933107  
657.000000	 99.890845  
656.000000	 99.868913  
655.000000	 99.866951  
654.000000	 99.880207  
653.000000	 99.899289  
652.000000	 99.912749  
651.000000	 99.916683  
650.000000	 99.915588  

