4000.000000	100.397790 
3999.000000	100.397290 
3998.000000	100.396686 
3997.000000	100.396321 
3996.000000	100.396121 
3995.000000	100.395808 
3994.000000	100.395316 
3993.000000	100.394902 
3992.000000	100.394834 
3991.000000	100.395025 
3990.000000	100.395012 
3989.000000	100.394329 
3988.000000	100.393017 
3987.000000	100.391730 
3986.000000	100.391192 
3985.000000	100.391620 
3984.000000	100.392691 
3983.000000	100.393981 
3982.000000	100.395293 
3981.000000	100.396595 
3980.000000	100.397824 
3979.000000	100.398836 
3978.000000	100.399424 
3977.000000	100.399349 
3976.000000	100.398477 
3975.000000	100.396932 
3974.000000	100.395087 
3973.000000	100.393393 
3972.000000	100.392263 
3971.000000	100.392015 
3970.000000	100.392738 
3969.000000	100.394126 
3968.000000	100.395587 
3967.000000	100.396588 
3966.000000	100.396850 
3965.000000	100.396345 
3964.000000	100.395310 
3963.000000	100.394289 
3962.000000	100.393828 
3961.000000	100.393961 
3960.000000	100.394156 
3959.000000	100.393835 
3958.000000	100.392937 
3957.000000	100.391896 
3956.000000	100.391204 
3955.000000	100.390999 
3954.000000	100.391035 
3953.000000	100.390972 
3952.000000	100.390676 
3951.000000	100.390260 
3950.000000	100.389895 
3949.000000	100.389626 
3948.000000	100.389407 
3947.000000	100.389227 
3946.000000	100.389122 
3945.000000	100.389073 
3944.000000	100.388986 
3943.000000	100.388770 
3942.000000	100.388398 
3941.000000	100.387928 
3940.000000	100.387498 
3939.000000	100.387232 
3938.000000	100.387148 
3937.000000	100.387126 
3936.000000	100.386992 
3935.000000	100.386702 
3934.000000	100.386365 
3933.000000	100.386149 
3932.000000	100.386172 
3931.000000	100.386527 
3930.000000	100.387204 
3929.000000	100.387834 
3928.000000	100.387783 
3927.000000	100.386723 
3926.000000	100.385140 
3925.000000	100.384070 
3924.000000	100.384042 
3923.000000	100.384698 
3922.000000	100.385371 
3921.000000	100.385627 
3920.000000	100.385314 
3919.000000	100.384494 
3918.000000	100.383542 
3917.000000	100.382962 
3916.000000	100.382930 
3915.000000	100.383201 
3914.000000	100.383445 
3913.000000	100.383360 
3912.000000	100.382627 
3911.000000	100.381095 
3910.000000	100.379299 
3909.000000	100.378314 
3908.000000	100.378857 
3907.000000	100.380855 
3906.000000	100.383625 
3905.000000	100.386602 
3904.000000	100.389500 
3903.000000	100.391922 
3902.000000	100.393343 
3901.000000	100.393451 
3900.000000	100.392278 
3899.000000	100.390055 
3898.000000	100.387057 
3897.000000	100.383820 
3896.000000	100.381236 
3895.000000	100.379995 
3894.000000	100.380235 
3893.000000	100.381629 
3892.000000	100.383814 
3891.000000	100.386493 
3890.000000	100.389129 
3889.000000	100.391072 
3888.000000	100.391767 
3887.000000	100.391023 
3886.000000	100.389177 
3885.000000	100.386998 
3884.000000	100.385395 
3883.000000	100.385009 
3882.000000	100.385672 
3881.000000	100.386426 
3880.000000	100.386424 
3879.000000	100.385964 
3878.000000	100.385907 
3877.000000	100.386345 
3876.000000	100.386481 
3875.000000	100.385944 
3874.000000	100.385333 
3873.000000	100.385207 
3872.000000	100.385294 
3871.000000	100.385151 
3870.000000	100.384922 
3869.000000	100.384871 
3868.000000	100.385122 
3867.000000	100.385812 
3866.000000	100.386843 
3865.000000	100.387583 
3864.000000	100.387391 
3863.000000	100.386548 
3862.000000	100.386022 
3861.000000	100.385822 
3860.000000	100.384939 
3859.000000	100.382833 
3858.000000	100.380208 
3857.000000	100.378358 
3856.000000	100.378059 
3855.000000	100.379287 
3854.000000	100.381814 
3853.000000	100.384543 
3852.000000	100.386257 
3851.000000	100.387232 
3850.000000	100.388287 
3849.000000	100.389258 
3848.000000	100.389413 
3847.000000	100.388347 
3846.000000	100.386605 
3845.000000	100.385153 
3844.000000	100.384407 
3843.000000	100.384110 
3842.000000	100.383967 
3841.000000	100.383980 
3840.000000	100.384509 
3839.000000	100.385729 
3838.000000	100.387131 
3837.000000	100.388025 
3836.000000	100.388107 
3835.000000	100.387500 
3834.000000	100.386522 
3833.000000	100.385456 
3832.000000	100.384517 
3831.000000	100.383783 
3830.000000	100.383183 
3829.000000	100.382551 
3828.000000	100.381676 
3827.000000	100.380617 
3826.000000	100.379957 
3825.000000	100.380277 
3824.000000	100.381588 
3823.000000	100.383132 
3822.000000	100.384050 
3821.000000	100.384262 
3820.000000	100.384230 
3819.000000	100.384435 
3818.000000	100.384855 
3817.000000	100.384861 
3816.000000	100.383883 
3815.000000	100.382102 
3814.000000	100.380419 
3813.000000	100.379509 
3812.000000	100.379139 
3811.000000	100.378487 
3810.000000	100.377136 
3809.000000	100.375582 
3808.000000	100.374783 
3807.000000	100.375077 
3806.000000	100.375904 
3805.000000	100.376574 
3804.000000	100.376854 
3803.000000	100.376541 
3802.000000	100.375554 
3801.000000	100.374194 
3800.000000	100.373009 
3799.000000	100.372596 
3798.000000	100.372939 
3797.000000	100.373217 
3796.000000	100.372615 
3795.000000	100.371283 
3794.000000	100.370275 
3793.000000	100.370337 
3792.000000	100.371113 
3791.000000	100.371571 
3790.000000	100.371230 
3789.000000	100.370629 
3788.000000	100.370576 
3787.000000	100.371392 
3786.000000	100.372921 
3785.000000	100.374814 
3784.000000	100.376642 
3783.000000	100.377920 
3782.000000	100.378369 
3781.000000	100.378085 
3780.000000	100.377469 
3779.000000	100.376803 
3778.000000	100.376101 
3777.000000	100.375306 
3776.000000	100.374506 
3775.000000	100.373894 
3774.000000	100.373628 
3773.000000	100.373679 
3772.000000	100.373800 
3771.000000	100.373781 
3770.000000	100.373751 
3769.000000	100.374132 
3768.000000	100.375330 
3767.000000	100.377313 
3766.000000	100.379281 
3765.000000	100.380255 
3764.000000	100.379986 
3763.000000	100.379290 
3762.000000	100.379447 
3761.000000	100.380979 
3760.000000	100.383104 
3759.000000	100.384475 
3758.000000	100.384937 
3757.000000	100.385306 
3756.000000	100.385547 
3755.000000	100.384951 
3754.000000	100.383764 
3753.000000	100.383543 
3752.000000	100.385015 
3751.000000	100.386651 
3750.000000	100.386972 
3749.000000	100.386893 
3748.000000	100.387587 
3747.000000	100.388749 
3746.000000	100.389501 
3745.000000	100.389826 
3744.000000	100.388775 
3743.000000	100.385472 
3742.000000	100.381839 
3741.000000	100.380131 
3740.000000	100.380023 
3739.000000	100.379346 
3738.000000	100.376859 
3737.000000	100.374159 
3736.000000	100.373350 
3735.000000	100.373977 
3734.000000	100.373984 
3733.000000	100.372844 
3732.000000	100.371488 
3731.000000	100.370422 
3730.000000	100.369609 
3729.000000	100.369014 
3728.000000	100.368371 
3727.000000	100.367331 
3726.000000	100.366001 
3725.000000	100.365093 
3724.000000	100.364974 
3723.000000	100.364725 
3722.000000	100.363106 
3721.000000	100.360058 
3720.000000	100.356899 
3719.000000	100.354500 
3718.000000	100.352381 
3717.000000	100.349658 
3716.000000	100.345702 
3715.000000	100.340475 
3714.000000	100.334401 
3713.000000	100.328318 
3712.000000	100.323750 
3711.000000	100.321893 
3710.000000	100.322294 
3709.000000	100.322893 
3708.000000	100.321610 
3707.000000	100.317777 
3706.000000	100.311955 
3705.000000	100.305164 
3704.000000	100.298435 
3703.000000	100.292789 
3702.000000	100.289238 
3701.000000	100.288014 
3700.000000	100.287956 
3699.000000	100.287067 
3698.000000	100.283779 
3697.000000	100.278025 
3696.000000	100.271161 
3695.000000	100.265010 
3694.000000	100.260803 
3693.000000	100.258507 
3692.000000	100.257072 
3691.000000	100.255543 
3690.000000	100.254142 
3689.000000	100.253228 
3688.000000	100.252172 
3687.000000	100.250400 
3686.000000	100.248096 
3685.000000	100.245628 
3684.000000	100.242931 
3683.000000	100.239413 
3682.000000	100.234671 
3681.000000	100.229479 
3680.000000	100.224944 
3679.000000	100.220880 
3678.000000	100.215902 
3677.000000	100.210073 
3676.000000	100.206978 
3675.000000	100.209289 
3674.000000	100.215363 
3673.000000	100.221986 
3672.000000	100.226833 
3671.000000	100.228073 
3670.000000	100.225488 
3669.000000	100.220859 
3668.000000	100.216387 
3667.000000	100.212868 
3666.000000	100.209492 
3665.000000	100.205729 
3664.000000	100.202418 
3663.000000	100.200593 
3662.000000	100.200380 
3661.000000	100.201420 
3660.000000	100.203466 
3659.000000	100.206479 
3658.000000	100.209926 
3657.000000	100.213061 
3656.000000	100.215714 
3655.000000	100.218637 
3654.000000	100.223219 
3653.000000	100.229990 
3652.000000	100.237639 
3651.000000	100.243148 
3650.000000	100.243848 
3649.000000	100.240036 
3648.000000	100.235080 
3647.000000	100.232162 
3646.000000	100.231849 
3645.000000	100.233196 
3644.000000	100.235286 
3643.000000	100.237511 
3642.000000	100.239485 
3641.000000	100.241261 
3640.000000	100.243424 
3639.000000	100.246824 
3638.000000	100.251623 
3637.000000	100.256790 
3636.000000	100.260798 
3635.000000	100.262929 
3634.000000	100.263804 
3633.000000	100.264589 
3632.000000	100.266035 
3631.000000	100.268179 
3630.000000	100.270535 
3629.000000	100.272428 
3628.000000	100.273248 
3627.000000	100.273365 
3626.000000	100.273814 
3625.000000	100.274740 
3624.000000	100.275449 
3623.000000	100.275432 
3622.000000	100.274877 
3621.000000	100.274462 
3620.000000	100.274930 
3619.000000	100.276746 
3618.000000	100.279990 
3617.000000	100.284323 
3616.000000	100.288806 
3615.000000	100.292152 
3614.000000	100.293520 
3613.000000	100.293001 
3612.000000	100.291375 
3611.000000	100.289557 
3610.000000	100.288157 
3609.000000	100.287452 
3608.000000	100.287620 
3607.000000	100.288745 
3606.000000	100.290732 
3605.000000	100.293131 
3604.000000	100.295004 
3603.000000	100.295422 
3602.000000	100.294354 
3601.000000	100.293092 
3600.000000	100.293348 
3599.000000	100.295827 
3598.000000	100.299723 
3597.000000	100.303429 
3596.000000	100.305572 
3595.000000	100.305886 
3594.000000	100.305255 
3593.000000	100.305010 
3592.000000	100.306123 
3591.000000	100.308688 
3590.000000	100.311711 
3589.000000	100.313654 
3588.000000	100.313685 
3587.000000	100.312327 
3586.000000	100.310769 
3585.000000	100.309785 
3584.000000	100.309224 
3583.000000	100.308408 
3582.000000	100.306757 
3581.000000	100.304307 
3580.000000	100.301618 
3579.000000	100.299290 
3578.000000	100.297590 
3577.000000	100.296523 
3576.000000	100.296105 
3575.000000	100.296332 
3574.000000	100.297091 
3573.000000	100.298147 
3572.000000	100.299267 
3571.000000	100.300123 
3570.000000	100.300137 
3569.000000	100.298807 
3568.000000	100.296574 
3567.000000	100.295047 
3566.000000	100.295541 
3565.000000	100.297736 
3564.000000	100.300023 
3563.000000	100.300856 
3562.000000	100.299877 
3561.000000	100.297928 
3560.000000	100.296216 
3559.000000	100.295221 
3558.000000	100.294543 
3557.000000	100.293659 
3556.000000	100.292547 
3555.000000	100.291572 
3554.000000	100.291033 
3553.000000	100.290958 
3552.000000	100.291109 
3551.000000	100.291158 
3550.000000	100.290874 
3549.000000	100.290254 
3548.000000	100.289554 
3547.000000	100.289164 
3546.000000	100.289320 
3545.000000	100.289909 
3544.000000	100.290581 
3543.000000	100.291040 
3542.000000	100.291222 
3541.000000	100.291190 
3540.000000	100.290980 
3539.000000	100.290613 
3538.000000	100.290114 
3537.000000	100.289471 
3536.000000	100.288600 
3535.000000	100.287452 
3534.000000	100.286158 
3533.000000	100.285013 
3532.000000	100.284269 
3531.000000	100.283968 
3530.000000	100.283980 
3529.000000	100.284157 
3528.000000	100.284433 
3527.000000	100.284779 
3526.000000	100.285082 
3525.000000	100.285131 
3524.000000	100.284747 
3523.000000	100.283966 
3522.000000	100.283066 
3521.000000	100.282305 
3520.000000	100.281722 
3519.000000	100.281214 
3518.000000	100.280703 
3517.000000	100.280202 
3516.000000	100.279760 
3515.000000	100.279407 
3514.000000	100.279133 
3513.000000	100.278878 
3512.000000	100.278553 
3511.000000	100.278100 
3510.000000	100.277548 
3509.000000	100.276983 
3508.000000	100.276470 
3507.000000	100.276013 
3506.000000	100.275566 
3505.000000	100.275087 
3504.000000	100.274565 
3503.000000	100.274022 
3502.000000	100.273489 
3501.000000	100.272976 
3500.000000	100.272476 
3499.000000	100.271965 
3498.000000	100.271423 
3497.000000	100.270845 
3496.000000	100.270234 
3495.000000	100.269621 
3494.000000	100.269033 
3493.000000	100.268486 
3492.000000	100.267966 
3491.000000	100.267462 
3490.000000	100.266986 
3489.000000	100.266552 
3488.000000	100.266152 
3487.000000	100.265757 
3486.000000	100.265333 
3485.000000	100.264865 
3484.000000	100.264376 
3483.000000	100.263910 
3482.000000	100.263489 
3481.000000	100.263085 
3480.000000	100.262653 
3479.000000	100.262203 
3478.000000	100.261811 
3477.000000	100.261524 
3476.000000	100.261264 
3475.000000	100.260869 
3474.000000	100.260283 
3473.000000	100.259660 
3472.000000	100.259246 
3471.000000	100.259133 
3470.000000	100.259175 
3469.000000	100.259134 
3468.000000	100.258869 
3467.000000	100.258355 
3466.000000	100.257585 
3465.000000	100.256553 
3464.000000	100.255367 
3463.000000	100.254278 
3462.000000	100.253482 
3461.000000	100.252926 
3460.000000	100.252372 
3459.000000	100.251707 
3458.000000	100.251083 
3457.000000	100.250707 
3456.000000	100.250572 
3455.000000	100.250517 
3454.000000	100.250447 
3453.000000	100.250479 
3452.000000	100.250769 
3451.000000	100.251229 
3450.000000	100.251607 
3449.000000	100.251751 
3448.000000	100.251637 
3447.000000	100.251225 
3446.000000	100.250478 
3445.000000	100.249563 
3444.000000	100.248828 
3443.000000	100.248463 
3442.000000	100.248294 
3441.000000	100.248034 
3440.000000	100.247615 
3439.000000	100.247155 
3438.000000	100.246676 
3437.000000	100.246040 
3436.000000	100.245181 
3435.000000	100.244280 
3434.000000	100.243662 
3433.000000	100.243513 
3432.000000	100.243737 
3431.000000	100.243996 
3430.000000	100.243944 
3429.000000	100.243440 
3428.000000	100.242579 
3427.000000	100.241588 
3426.000000	100.240700 
3425.000000	100.240081 
3424.000000	100.239816 
3423.000000	100.239903 
3422.000000	100.240220 
3421.000000	100.240526 
3420.000000	100.240550 
3419.000000	100.240168 
3418.000000	100.239516 
3417.000000	100.238884 
3416.000000	100.238442 
3415.000000	100.238112 
3414.000000	100.237745 
3413.000000	100.237356 
3412.000000	100.237089 
3411.000000	100.237000 
3410.000000	100.237014 
3409.000000	100.237042 
3408.000000	100.237030 
3407.000000	100.236877 
3406.000000	100.236467 
3405.000000	100.235843 
3404.000000	100.235294 
3403.000000	100.235179 
3402.000000	100.235668 
3401.000000	100.236582 
3400.000000	100.237452 
3399.000000	100.237818 
3398.000000	100.237588 
3397.000000	100.237127 
3396.000000	100.236956 
3395.000000	100.237308 
3394.000000	100.238029 
3393.000000	100.238775 
3392.000000	100.239221 
3391.000000	100.239106 
3390.000000	100.238303 
3389.000000	100.236935 
3388.000000	100.235350 
3387.000000	100.233940 
3386.000000	100.232977 
3385.000000	100.232576 
3384.000000	100.232681 
3383.000000	100.233055 
3382.000000	100.233390 
3381.000000	100.233503 
3380.000000	100.233374 
3379.000000	100.233053 
3378.000000	100.232680 
3377.000000	100.232606 
3376.000000	100.233260 
3375.000000	100.234718 
3374.000000	100.236489 
3373.000000	100.237846 
3372.000000	100.238388 
3371.000000	100.238221 
3370.000000	100.237735 
3369.000000	100.237385 
3368.000000	100.237528 
3367.000000	100.238171 
3366.000000	100.238791 
3365.000000	100.238701 
3364.000000	100.237775 
3363.000000	100.236693 
3362.000000	100.236298 
3361.000000	100.236696 
3360.000000	100.237160 
3359.000000	100.236904 
3358.000000	100.235867 
3357.000000	100.234712 
3356.000000	100.234145 
3355.000000	100.234271 
3354.000000	100.234621 
3353.000000	100.234769 
3352.000000	100.234850 
3351.000000	100.235387 
3350.000000	100.236634 
3349.000000	100.238234 
3348.000000	100.239543 
3347.000000	100.240232 
3346.000000	100.240463 
3345.000000	100.240548 
3344.000000	100.240565 
3343.000000	100.240310 
3342.000000	100.239589 
3341.000000	100.238465 
3340.000000	100.237293 
3339.000000	100.236491 
3338.000000	100.236161 
3337.000000	100.235982 
3336.000000	100.235567 
3335.000000	100.234975 
3334.000000	100.234710 
3333.000000	100.235167 
3332.000000	100.236186 
3331.000000	100.237190 
3330.000000	100.237748 
3329.000000	100.237918 
3328.000000	100.238059 
3327.000000	100.238404 
3326.000000	100.238847 
3325.000000	100.239149 
3324.000000	100.239308 
3323.000000	100.239625 
3322.000000	100.240323 
3321.000000	100.241139 
3320.000000	100.241467 
3319.000000	100.240965 
3318.000000	100.239928 
3317.000000	100.239068 
3316.000000	100.238877 
3315.000000	100.239321 
3314.000000	100.240049 
3313.000000	100.240739 
3312.000000	100.241276 
3311.000000	100.241686 
3310.000000	100.242031 
3309.000000	100.242350 
3308.000000	100.242648 
3307.000000	100.242914 
3306.000000	100.243109 
3305.000000	100.243132 
3304.000000	100.242831 
3303.000000	100.242158 
3302.000000	100.241338 
3301.000000	100.240833 
3300.000000	100.240987 
3299.000000	100.241767 
3298.000000	100.242785 
3297.000000	100.243623 
3296.000000	100.244135 
3295.000000	100.244456 
3294.000000	100.244824 
3293.000000	100.245373 
3292.000000	100.245999 
3291.000000	100.246443 
3290.000000	100.246545 
3289.000000	100.246381 
3288.000000	100.246142 
3287.000000	100.245925 
3286.000000	100.245722 
3285.000000	100.245541 
3284.000000	100.245451 
3283.000000	100.245501 
3282.000000	100.245668 
3281.000000	100.245870 
3280.000000	100.245961 
3279.000000	100.245801 
3278.000000	100.245409 
3277.000000	100.245052 
3276.000000	100.245056 
3275.000000	100.245509 
3274.000000	100.246195 
3273.000000	100.246781 
3272.000000	100.246988 
3271.000000	100.246630 
3270.000000	100.245676 
3269.000000	100.244402 
3268.000000	100.243404 
3267.000000	100.243268 
3266.000000	100.244168 
3265.000000	100.245764 
3264.000000	100.247430 
3263.000000	100.248704 
3262.000000	100.249532 
3261.000000	100.250093 
3260.000000	100.250452 
3259.000000	100.250434 
3258.000000	100.249861 
3257.000000	100.248812 
3256.000000	100.247600 
3255.000000	100.246573 
3254.000000	100.245996 
3253.000000	100.246021 
3252.000000	100.246604 
3251.000000	100.247451 
3250.000000	100.248174 
3249.000000	100.248569 
3248.000000	100.248691 
3247.000000	100.248677 
3246.000000	100.248589 
3245.000000	100.248438 
3244.000000	100.248308 
3243.000000	100.248383 
3242.000000	100.248871 
3241.000000	100.249858 
3240.000000	100.251129 
3239.000000	100.252145 
3238.000000	100.252392 
3237.000000	100.251818 
3236.000000	100.250929 
3235.000000	100.250354 
3234.000000	100.250323 
3233.000000	100.250668 
3232.000000	100.251185 
3231.000000	100.251828 
3230.000000	100.252553 
3229.000000	100.253136 
3228.000000	100.253273 
3227.000000	100.252837 
3226.000000	100.251981 
3225.000000	100.251056 
3224.000000	100.250445 
3223.000000	100.250359 
3222.000000	100.250738 
3221.000000	100.251366 
3220.000000	100.252090 
3219.000000	100.252881 
3218.000000	100.253655 
3217.000000	100.254154 
3216.000000	100.254138 
3215.000000	100.253733 
3214.000000	100.253469 
3213.000000	100.253821 
3212.000000	100.254743 
3211.000000	100.255754 
3210.000000	100.256499 
3209.000000	100.257049 
3208.000000	100.257591 
3207.000000	100.258054 
3206.000000	100.258253 
3205.000000	100.258338 
3204.000000	100.258787 
3203.000000	100.259858 
3202.000000	100.261232 
3201.000000	100.262358 
3200.000000	100.263000 
3199.000000	100.263236 
3198.000000	100.263088 
3197.000000	100.262547 
3196.000000	100.261964 
3195.000000	100.261981 
3194.000000	100.262786 
3193.000000	100.263658 
3192.000000	100.263617 
3191.000000	100.262519 
3190.000000	100.261294 
3189.000000	100.261023 
3188.000000	100.261931 
3187.000000	100.263382 
3186.000000	100.264592 
3185.000000	100.265231 
3184.000000	100.265388 
3183.000000	100.265245 
3182.000000	100.264935 
3181.000000	100.264555 
3180.000000	100.264146 
3179.000000	100.263637 
3178.000000	100.262949 
3177.000000	100.262148 
3176.000000	100.261466 
3175.000000	100.261200 
3174.000000	100.261671 
3173.000000	100.263104 
3172.000000	100.265353 
3171.000000	100.267721 
3170.000000	100.269339 
3169.000000	100.269913 
3168.000000	100.269975 
3167.000000	100.270331 
3166.000000	100.271294 
3165.000000	100.272507 
3164.000000	100.273401 
3163.000000	100.273671 
3162.000000	100.273398 
3161.000000	100.272949 
3160.000000	100.272790 
3159.000000	100.273183 
3158.000000	100.273968 
3157.000000	100.274666 
3156.000000	100.274862 
3155.000000	100.274491 
3154.000000	100.273828 
3153.000000	100.273303 
3152.000000	100.273251 
3151.000000	100.273697 
3150.000000	100.274335 
3149.000000	100.274803 
3148.000000	100.275075 
3147.000000	100.275480 
3146.000000	100.276235 
3145.000000	100.277087 
3144.000000	100.277570 
3143.000000	100.277593 
3142.000000	100.277560 
3141.000000	100.277895 
3140.000000	100.278535 
3139.000000	100.279048 
3138.000000	100.279166 
3137.000000	100.279044 
3136.000000	100.278990 
3135.000000	100.279066 
3134.000000	100.279095 
3133.000000	100.278984 
3132.000000	100.278876 
3131.000000	100.278958 
3130.000000	100.279183 
3129.000000	100.279271 
3128.000000	100.279029 
3127.000000	100.278629 
3126.000000	100.278476 
3125.000000	100.278780 
3124.000000	100.279418 
3123.000000	100.280086 
3122.000000	100.280582 
3121.000000	100.280904 
3120.000000	100.281145 
3119.000000	100.281379 
3118.000000	100.281615 
3117.000000	100.281788 
3116.000000	100.281815 
3115.000000	100.281687 
3114.000000	100.281497 
3113.000000	100.281346 
3112.000000	100.281257 
3111.000000	100.281235 
3110.000000	100.281350 
3109.000000	100.281658 
3108.000000	100.282036 
3107.000000	100.282227 
3106.000000	100.282109 
3105.000000	100.281866 
3104.000000	100.281818 
3103.000000	100.282133 
3102.000000	100.282753 
3101.000000	100.283492 
3100.000000	100.284127 
3099.000000	100.284457 
3098.000000	100.284397 
3097.000000	100.284089 
3096.000000	100.283888 
3095.000000	100.284083 
3094.000000	100.284634 
3093.000000	100.285201 
3092.000000	100.285453 
3091.000000	100.285316 
3090.000000	100.284895 
3089.000000	100.284321 
3088.000000	100.283824 
3087.000000	100.283856 
3086.000000	100.284819 
3085.000000	100.286498 
3084.000000	100.288017 
3083.000000	100.288632 
3082.000000	100.288482 
3081.000000	100.288365 
3080.000000	100.288758 
3079.000000	100.289306 
3078.000000	100.289258 
3077.000000	100.288160 
3076.000000	100.286128 
3075.000000	100.283818 
3074.000000	100.282214 
3073.000000	100.282041 
3072.000000	100.283157 
3071.000000	100.284778 
3070.000000	100.286343 
3069.000000	100.287520 
3068.000000	100.287285 
3067.000000	100.284051 
3066.000000	100.277625 
3065.000000	100.270501 
3064.000000	100.266089 
3063.000000	100.265721 
3062.000000	100.268124 
3061.000000	100.271430 
3060.000000	100.274783 
3059.000000	100.278060 
3058.000000	100.280988 
3057.000000	100.282969 
3056.000000	100.283452 
3055.000000	100.282397 
3054.000000	100.280603 
3053.000000	100.279270 
3052.000000	100.278749 
3051.000000	100.278035 
3050.000000	100.276065 
3049.000000	100.273085 
3048.000000	100.269879 
3047.000000	100.266078 
3046.000000	100.260574 
3045.000000	100.253682 
3044.000000	100.247678 
3043.000000	100.244587 
3042.000000	100.244185 
3041.000000	100.244592 
3040.000000	100.244207 
3039.000000	100.242606 
3038.000000	100.240128 
3037.000000	100.237162 
3036.000000	100.233597 
3035.000000	100.228763 
3034.000000	100.222318 
3033.000000	100.215064 
3032.000000	100.208276 
3031.000000	100.202247 
3030.000000	100.195938 
3029.000000	100.188214 
3028.000000	100.179037 
3027.000000	100.169222 
3026.000000	100.159615 
3025.000000	100.150783 
3024.000000	100.142884 
3023.000000	100.135172 
3022.000000	100.126046 
3021.000000	100.114260 
3020.000000	100.100187 
3019.000000	100.085648 
3018.000000	100.072557 
3017.000000	100.061731 
3016.000000	100.052594 
3015.000000	100.043762 
3014.000000	100.034036 
3013.000000	100.022910 
3012.000000	100.009991 
3011.000000	99.994377  
3010.000000	99.975552  
3009.000000	99.955034  
3008.000000	99.936126  
3007.000000	99.921269  
3006.000000	99.910084  
3005.000000	99.900370  
3004.000000	99.890228  
3003.000000	99.878544  
3002.000000	99.864382  
3001.000000	99.847572  
3000.000000	99.829823  
2999.000000	99.813804  
2998.000000	99.800766  
2997.000000	99.790218  
2996.000000	99.782015  
2995.000000	99.776735  
2994.000000	99.772523  
2993.000000	99.763263  
2992.000000	99.743095  
2991.000000	99.713555  
2990.000000	99.684341  
2989.000000	99.665309  
2988.000000	99.658611  
2987.000000	99.659285  
2986.000000	99.661877  
2985.000000	99.665033  
2984.000000	99.669817  
2983.000000	99.675925  
2982.000000	99.681065  
2981.000000	99.683249  
2980.000000	99.682544  
2979.000000	99.680542  
2978.000000	99.678687  
2977.000000	99.677069  
2976.000000	99.674513  
2975.000000	99.669914  
2974.000000	99.663704  
2973.000000	99.657818  
2972.000000	99.654058  
2971.000000	99.652841  
2970.000000	99.653763  
2969.000000	99.656851  
2968.000000	99.662613  
2967.000000	99.671002  
2966.000000	99.680914  
2965.000000	99.690885  
2964.000000	99.700043  
2963.000000	99.708365  
2962.000000	99.716217  
2961.000000	99.723667  
2960.000000	99.730288  
2959.000000	99.735850  
2958.000000	99.741185  
2957.000000	99.747643  
2956.000000	99.755160  
2955.000000	99.761422  
2954.000000	99.764096  
2953.000000	99.764148  
2952.000000	99.766110  
2951.000000	99.774236  
2950.000000	99.788242  
2949.000000	99.803096  
2948.000000	99.813174  
2947.000000	99.816418  
2946.000000	99.814782  
2945.000000	99.811599  
2944.000000	99.808790  
2943.000000	99.806505  
2942.000000	99.804539  
2941.000000	99.802867  
2940.000000	99.800959  
2939.000000	99.797806  
2938.000000	99.793084  
2937.000000	99.787673  
2936.000000	99.782669  
2935.000000	99.778394  
2934.000000	99.774651  
2933.000000	99.771245  
2932.000000	99.767702  
2931.000000	99.763090  
2930.000000	99.756849  
2929.000000	99.749441  
2928.000000	99.741730  
2927.000000	99.734276  
2926.000000	99.727858  
2925.000000	99.723922  
2924.000000	99.723443  
2923.000000	99.725687  
2922.000000	99.729008  
2921.000000	99.732605  
2920.000000	99.736534  
2919.000000	99.740323  
2918.000000	99.742872  
2917.000000	99.743888  
2916.000000	99.744425  
2915.000000	99.745705  
2914.000000	99.748139  
2913.000000	99.751626  
2912.000000	99.755903  
2911.000000	99.760210  
2910.000000	99.763292  
2909.000000	99.764234  
2908.000000	99.762997  
2907.000000	99.759945  
2906.000000	99.755216  
2905.000000	99.748837  
2904.000000	99.741163  
2903.000000	99.733424  
2902.000000	99.728097  
2901.000000	99.728637  
2900.000000	99.737242  
2899.000000	99.752214  
2898.000000	99.768074  
2897.000000	99.779502  
2896.000000	99.785611  
2895.000000	99.789792  
2894.000000	99.795722  
2893.000000	99.803857  
2892.000000	99.811686  
2891.000000	99.816783  
2890.000000	99.819234  
2889.000000	99.821209  
2888.000000	99.824558  
2887.000000	99.829219  
2886.000000	99.833991  
2885.000000	99.838362  
2884.000000	99.843013  
2883.000000	99.848757  
2882.000000	99.855677  
2881.000000	99.863478  
2880.000000	99.872115  
2879.000000	99.881737  
2878.000000	99.892280  
2877.000000	99.903256  
2876.000000	99.913632  
2875.000000	99.921815  
2874.000000	99.926406  
2873.000000	99.927597  
2872.000000	99.927752  
2871.000000	99.930037  
2870.000000	99.936155  
2869.000000	99.945437  
2868.000000	99.955860  
2867.000000	99.965777  
2866.000000	99.974852  
2865.000000	99.983605  
2864.000000	99.992236  
2863.000000	99.999947  
2862.000000	100.005506 
2861.000000	100.008493 
2860.000000	100.009941 
2859.000000	100.011777 
2858.000000	100.015618 
2857.000000	100.021875 
2856.000000	100.029673 
2855.000000	100.037674 
2854.000000	100.045235 
2853.000000	100.052844 
2852.000000	100.061353 
2851.000000	100.070928 
2850.000000	100.081091 
2849.000000	100.091572 
2848.000000	100.102423 
2847.000000	100.113140 
2846.000000	100.122379 
2845.000000	100.129057 
2844.000000	100.133544 
2843.000000	100.137514 
2842.000000	100.142762 
2841.000000	100.150141 
2840.000000	100.159097 
2839.000000	100.167884 
2838.000000	100.174573 
2837.000000	100.178259 
2836.000000	100.179334 
2835.000000	100.178868 
2834.000000	100.178259 
2833.000000	100.179284 
2832.000000	100.183313 
2831.000000	100.189854 
2830.000000	100.196646 
2829.000000	100.201969 
2828.000000	100.206271 
2827.000000	100.210746 
2826.000000	100.214891 
2825.000000	100.216756 
2824.000000	100.215665 
2823.000000	100.213667 
2822.000000	100.213809 
2821.000000	100.217415 
2820.000000	100.223381 
2819.000000	100.229584 
2818.000000	100.234555 
2817.000000	100.237962 
2816.000000	100.239983 
2815.000000	100.240644 
2814.000000	100.239929 
2813.000000	100.238389 
2812.000000	100.237119 
2811.000000	100.236841 
2810.000000	100.237286 
2809.000000	100.237831 
2808.000000	100.238445 
2807.000000	100.239550 
2806.000000	100.241140 
2805.000000	100.242645 
2804.000000	100.243761 
2803.000000	100.244928 
2802.000000	100.246736 
2801.000000	100.249087 
2800.000000	100.251124 
2799.000000	100.251924 
2798.000000	100.251276 
2797.000000	100.249905 
2796.000000	100.248969 
2795.000000	100.249193 
2794.000000	100.250385 
2793.000000	100.251699 
2792.000000	100.252307 
2791.000000	100.251940 
2790.000000	100.251089 
2789.000000	100.250767 
2788.000000	100.251759 
2787.000000	100.253942 
2786.000000	100.256489 
2785.000000	100.258792 
2784.000000	100.260955 
2783.000000	100.263154 
2782.000000	100.264885 
2781.000000	100.265331 
2780.000000	100.264388 
2779.000000	100.262931 
2778.000000	100.262045 
2777.000000	100.262105 
2776.000000	100.262787 
2775.000000	100.263586 
2774.000000	100.264123 
2773.000000	100.264255 
2772.000000	100.264166 
2771.000000	100.264265 
2770.000000	100.264831 
2769.000000	100.265847 
2768.000000	100.267228 
2767.000000	100.268962 
2766.000000	100.270812 
2765.000000	100.272145 
2764.000000	100.272506 
2763.000000	100.272256 
2762.000000	100.272304 
2761.000000	100.273143 
2760.000000	100.274526 
2759.000000	100.276040 
2758.000000	100.277524 
2757.000000	100.278789 
2756.000000	100.279473 
2755.000000	100.279510 
2754.000000	100.279344 
2753.000000	100.279288 
2752.000000	100.279022 
2751.000000	100.278181 
2750.000000	100.277156 
2749.000000	100.276762 
2748.000000	100.277143 
2747.000000	100.277518 
2746.000000	100.277088 
2745.000000	100.275881 
2744.000000	100.274637 
2743.000000	100.274123 
2742.000000	100.274667 
2741.000000	100.276058 
2740.000000	100.277686 
2739.000000	100.278996 
2738.000000	100.279951 
2737.000000	100.280920 
2736.000000	100.282075 
2735.000000	100.283087 
2734.000000	100.283516 
2733.000000	100.283319 
2732.000000	100.282855 
2731.000000	100.282520 
2730.000000	100.282519 
2729.000000	100.282893 
2728.000000	100.283609 
2727.000000	100.284578 
2726.000000	100.285628 
2725.000000	100.286526 
2724.000000	100.287122 
2723.000000	100.287528 
2722.000000	100.288051 
2721.000000	100.288801 
2720.000000	100.289435 
2719.000000	100.289492 
2718.000000	100.288949 
2717.000000	100.288263 
2716.000000	100.287928 
2715.000000	100.288072 
2714.000000	100.288548 
2713.000000	100.289150 
2712.000000	100.289674 
2711.000000	100.289957 
2710.000000	100.289981 
2709.000000	100.289914 
2708.000000	100.289967 
2707.000000	100.290177 
2706.000000	100.290389 
2705.000000	100.290458 
2704.000000	100.290411 
2703.000000	100.290383 
2702.000000	100.290468 
2701.000000	100.290657 
2700.000000	100.290877 
2699.000000	100.291053 
2698.000000	100.291145 
2697.000000	100.291133 
2696.000000	100.291018 
2695.000000	100.290850 
2694.000000	100.290744 
2693.000000	100.290812 
2692.000000	100.291032 
2691.000000	100.291243 
2690.000000	100.291327 
2689.000000	100.291369 
2688.000000	100.291547 
2687.000000	100.291885 
2686.000000	100.292172 
2685.000000	100.292194 
2684.000000	100.291958 
2683.000000	100.291669 
2682.000000	100.291528 
2681.000000	100.291591 
2680.000000	100.291763 
2679.000000	100.291886 
2678.000000	100.291875 
2677.000000	100.291811 
2676.000000	100.291842 
2675.000000	100.291946 
2674.000000	100.291880 
2673.000000	100.291428 
2672.000000	100.290669 
2671.000000	100.289953 
2670.000000	100.289585 
2669.000000	100.289591 
2668.000000	100.289780 
2667.000000	100.290010 
2666.000000	100.290376 
2665.000000	100.291032 
2664.000000	100.291882 
2663.000000	100.292565 
2662.000000	100.292797 
2661.000000	100.292644 
2660.000000	100.292438 
2659.000000	100.292474 
2658.000000	100.292863 
2657.000000	100.293585 
2656.000000	100.294476 
2655.000000	100.295181 
2654.000000	100.295345 
2653.000000	100.294912 
2652.000000	100.294116 
2651.000000	100.293237 
2650.000000	100.292473 
2649.000000	100.292036 
2648.000000	100.292096 
2647.000000	100.292567 
2646.000000	100.293171 
2645.000000	100.293781 
2644.000000	100.294458 
2643.000000	100.295110 
2642.000000	100.295435 
2641.000000	100.295327 
2640.000000	100.295098 
2639.000000	100.295137 
2638.000000	100.295584 
2637.000000	100.296389 
2636.000000	100.297382 
2635.000000	100.298168 
2634.000000	100.298282 
2633.000000	100.297729 
2632.000000	100.297161 
2631.000000	100.297144 
2630.000000	100.297536 
2629.000000	100.297819 
2628.000000	100.297834 
2627.000000	100.297921 
2626.000000	100.298452 
2625.000000	100.299494 
2624.000000	100.300812 
2623.000000	100.301957 
2622.000000	100.302460 
2621.000000	100.302122 
2620.000000	100.301190 
2619.000000	100.300177 
2618.000000	100.299400 
2617.000000	100.298849 
2616.000000	100.298437 
2615.000000	100.298185 
2614.000000	100.298141 
2613.000000	100.298269 
2612.000000	100.298465 
2611.000000	100.298664 
2610.000000	100.298856 
2609.000000	100.299052 
2608.000000	100.299242 
2607.000000	100.299410 
2606.000000	100.299579 
2605.000000	100.299803 
2604.000000	100.300088 
2603.000000	100.300312 
2602.000000	100.300309 
2601.000000	100.300055 
2600.000000	100.299736 
2599.000000	100.299574 
2598.000000	100.299613 
2597.000000	100.299728 
2596.000000	100.299752 
2595.000000	100.299596 
2594.000000	100.299268 
2593.000000	100.298844 
2592.000000	100.298463 
2591.000000	100.298270 
2590.000000	100.298310 
2589.000000	100.298515 
2588.000000	100.298745 
2587.000000	100.298868 
2586.000000	100.298813 
2585.000000	100.298571 
2584.000000	100.298197 
2583.000000	100.297797 
2582.000000	100.297490 
2581.000000	100.297337 
2580.000000	100.297320 
2579.000000	100.297369 
2578.000000	100.297416 
2577.000000	100.297442 
2576.000000	100.297466 
2575.000000	100.297505 
2574.000000	100.297561 
2573.000000	100.297618 
2572.000000	100.297656 
2571.000000	100.297656 
2570.000000	100.297616 
2569.000000	100.297551 
2568.000000	100.297495 
2567.000000	100.297487 
2566.000000	100.297544 
2565.000000	100.297651 
2564.000000	100.297767 
2563.000000	100.297855 
2562.000000	100.297902 
2561.000000	100.297918 
2560.000000	100.297928 
2559.000000	100.297962 
2558.000000	100.298041 
2557.000000	100.298159 
2556.000000	100.298267 
2555.000000	100.298314 
2554.000000	100.298344 
2553.000000	100.298498 
2552.000000	100.298866 
2551.000000	100.299355 
2550.000000	100.299742 
2549.000000	100.299912 
2548.000000	100.299908 
2547.000000	100.299790 
2546.000000	100.299545 
2545.000000	100.299220 
2544.000000	100.299053 
2543.000000	100.299314 
2542.000000	100.300054 
2541.000000	100.301013 
2540.000000	100.301784 
2539.000000	100.302075 
2538.000000	100.301814 
2537.000000	100.301095 
2536.000000	100.300078 
2535.000000	100.298976 
2534.000000	100.298134 
2533.000000	100.297947 
2532.000000	100.298598 
2531.000000	100.299847 
2530.000000	100.301137 
2529.000000	100.301984 
2528.000000	100.302186 
2527.000000	100.301789 
2526.000000	100.301086 
2525.000000	100.300644 
2524.000000	100.301054 
2523.000000	100.302443 
2522.000000	100.304259 
2521.000000	100.305650 
2520.000000	100.306069 
2519.000000	100.305548 
2518.000000	100.304582 
2517.000000	100.303731 
2516.000000	100.303140 
2515.000000	100.302438 
2514.000000	100.301272 
2513.000000	100.299857 
2512.000000	100.298692 
2511.000000	100.297817 
2510.000000	100.296867 
2509.000000	100.295939 
2508.000000	100.295810 
2507.000000	100.296862 
2506.000000	100.298213 
2505.000000	100.298462 
2504.000000	100.297177 
2503.000000	100.295220 
2502.000000	100.293735 
2501.000000	100.293205 
2500.000000	100.293552 
2499.000000	100.294700 
2498.000000	100.296712 
2497.000000	100.299389 
2496.000000	100.301900 
2495.000000	100.303059 
2494.000000	100.302098 
2493.000000	100.299137 
2492.000000	100.294967 
2491.000000	100.290512 
2490.000000	100.286636 
2489.000000	100.284231 
2488.000000	100.283886 
2487.000000	100.285286 
2486.000000	100.287286 
2485.000000	100.288983 
2484.000000	100.290471 
2483.000000	100.292166 
2482.000000	100.293792 
2481.000000	100.294485 
2480.000000	100.293804 
2479.000000	100.292188 
2478.000000	100.290441 
2477.000000	100.289050 
2476.000000	100.288073 
2475.000000	100.287462 
2474.000000	100.287263 
2473.000000	100.287553 
2472.000000	100.288280 
2471.000000	100.289229 
2470.000000	100.290069 
2469.000000	100.290419 
2468.000000	100.289916 
2467.000000	100.288429 
2466.000000	100.286372 
2465.000000	100.284710 
2464.000000	100.284260 
2463.000000	100.284957 
2462.000000	100.285889 
2461.000000	100.286145 
2460.000000	100.285590 
2459.000000	100.284702 
2458.000000	100.283976 
2457.000000	100.283608 
2456.000000	100.283575 
2455.000000	100.283749 
2454.000000	100.283954 
2453.000000	100.284095 
2452.000000	100.284218 
2451.000000	100.284359 
2450.000000	100.284377 
2449.000000	100.284062 
2448.000000	100.283397 
2447.000000	100.282617 
2446.000000	100.282061 
2445.000000	100.281997 
2444.000000	100.282533 
2443.000000	100.283501 
2442.000000	100.284428 
2441.000000	100.284828 
2440.000000	100.284579 
2439.000000	100.283948 
2438.000000	100.283240 
2437.000000	100.282530 
2436.000000	100.281706 
2435.000000	100.280603 
2434.000000	100.279080 
2433.000000	100.277165 
2432.000000	100.275243 
2431.000000	100.273952 
2430.000000	100.273716 
2429.000000	100.274415 
2428.000000	100.275581 
2427.000000	100.276862 
2426.000000	100.278116 
2425.000000	100.279010 
2424.000000	100.278908 
2423.000000	100.277419 
2422.000000	100.274999 
2421.000000	100.272870 
2420.000000	100.271965 
2419.000000	100.272207 
2418.000000	100.272919 
2417.000000	100.273566 
2416.000000	100.273979 
2415.000000	100.274062 
2414.000000	100.273716 
2413.000000	100.273124 
2412.000000	100.272719 
2411.000000	100.272679 
2410.000000	100.272729 
2409.000000	100.272630 
2408.000000	100.272604 
2407.000000	100.272989 
2406.000000	100.273662 
2405.000000	100.274131 
2404.000000	100.274156 
2403.000000	100.273873 
2402.000000	100.273401 
2401.000000	100.272619 
2400.000000	100.271450 
2399.000000	100.270138 
2398.000000	100.269100 
2397.000000	100.268571 
2396.000000	100.268536 
2395.000000	100.268905 
2394.000000	100.269599 
2393.000000	100.270423 
2392.000000	100.271051 
2391.000000	100.271268 
2390.000000	100.271175 
2389.000000	100.271056 
2388.000000	100.271035 
2387.000000	100.270965 
2386.000000	100.270660 
2385.000000	100.270132 
2384.000000	100.269556 
2383.000000	100.269110 
2382.000000	100.268885 
2381.000000	100.268898 
2380.000000	100.269045 
2379.000000	100.269068 
2378.000000	100.268705 
2377.000000	100.267948 
2376.000000	100.267172 
2375.000000	100.266875 
2374.000000	100.267215 
2373.000000	100.267918 
2372.000000	100.268586 
2371.000000	100.269095 
2370.000000	100.269553 
2369.000000	100.269993 
2368.000000	100.270275 
2367.000000	100.270252 
2366.000000	100.269970 
2365.000000	100.269651 
2364.000000	100.269552 
2363.000000	100.269745 
2362.000000	100.270127 
2361.000000	100.270530 
2360.000000	100.270867 
2359.000000	100.271160 
2358.000000	100.271456 
2357.000000	100.271775 
2356.000000	100.272110 
2355.000000	100.272435 
2354.000000	100.272725 
2353.000000	100.272993 
2352.000000	100.273279 
2351.000000	100.273610 
2350.000000	100.273987 
2349.000000	100.274397 
2348.000000	100.274817 
2347.000000	100.275230 
2346.000000	100.275635 
2345.000000	100.276046 
2344.000000	100.276457 
2343.000000	100.276866 
2342.000000	100.277291 
2341.000000	100.277760 
2340.000000	100.278259 
2339.000000	100.278729 
2338.000000	100.279134 
2337.000000	100.279521 
2336.000000	100.279978 
2335.000000	100.280503 
2334.000000	100.280977 
2333.000000	100.281305 
2332.000000	100.281483 
2331.000000	100.281526 
2330.000000	100.281433 
2329.000000	100.281310 
2328.000000	100.281403 
2327.000000	100.281871 
2326.000000	100.282620 
2325.000000	100.283349 
2324.000000	100.283809 
2323.000000	100.283972 
2322.000000	100.284077 
2321.000000	100.284457 
2320.000000	100.285190 
2319.000000	100.285941 
2318.000000	100.286295 
2317.000000	100.286204 
2316.000000	100.285974 
2315.000000	100.285810 
2314.000000	100.285652 
2313.000000	100.285473 
2312.000000	100.285463 
2311.000000	100.285830 
2310.000000	100.286613 
2309.000000	100.287640 
2308.000000	100.288461 
2307.000000	100.288500 
2306.000000	100.287590 
2305.000000	100.286176 
2304.000000	100.284917 
2303.000000	100.284085 
2302.000000	100.283601 
2301.000000	100.283437 
2300.000000	100.283602 
2299.000000	100.283867 
2298.000000	100.283902 
2297.000000	100.283675 
2296.000000	100.283472 
2295.000000	100.283472 
2294.000000	100.283527 
2293.000000	100.283434 
2292.000000	100.283245 
2291.000000	100.283167 
2290.000000	100.283296 
2289.000000	100.283563 
2288.000000	100.283836 
2287.000000	100.284006 
2286.000000	100.284030 
2285.000000	100.283954 
2284.000000	100.283893 
2283.000000	100.283919 
2282.000000	100.284001 
2281.000000	100.284044 
2280.000000	100.283994 
2279.000000	100.283898 
2278.000000	100.283905 
2277.000000	100.284150 
2276.000000	100.284634 
2275.000000	100.285215 
2274.000000	100.285707 
2273.000000	100.286021 
2272.000000	100.286136 
2271.000000	100.285994 
2270.000000	100.285597 
2269.000000	100.285284 
2268.000000	100.285595 
2267.000000	100.286700 
2266.000000	100.288070 
2265.000000	100.288960 
2264.000000	100.289109 
2263.000000	100.288797 
2262.000000	100.288582 
2261.000000	100.289096 
2260.000000	100.290721 
2259.000000	100.292962 
2258.000000	100.294491 
2257.000000	100.294541 
2256.000000	100.293798 
2255.000000	100.293340 
2254.000000	100.293018 
2253.000000	100.292006 
2252.000000	100.290688 
2251.000000	100.290748 
2250.000000	100.293151 
2249.000000	100.297073 
2248.000000	100.300776 
2247.000000	100.303091 
2246.000000	100.303858 
2245.000000	100.303420 
2244.000000	100.302146 
2243.000000	100.300230 
2242.000000	100.297963 
2241.000000	100.296053 
2240.000000	100.295184 
2239.000000	100.295107 
2238.000000	100.294833 
2237.000000	100.293983 
2236.000000	100.293229 
2235.000000	100.293101 
2234.000000	100.293264 
2233.000000	100.293506 
2232.000000	100.294569 
2231.000000	100.297247 
2230.000000	100.301369 
2229.000000	100.306177 
2228.000000	100.311002 
2227.000000	100.315036 
2226.000000	100.317283 
2225.000000	100.317423 
2224.000000	100.316238 
2223.000000	100.314758 
2222.000000	100.313566 
2221.000000	100.313211 
2220.000000	100.314343 
2219.000000	100.316916 
2218.000000	100.319896 
2217.000000	100.322430 
2216.000000	100.324818 
2215.000000	100.327710 
2214.000000	100.330835 
2213.000000	100.333124 
2212.000000	100.333876 
2211.000000	100.333510 
2210.000000	100.333396 
2209.000000	100.334856 
2208.000000	100.338048 
2207.000000	100.341667 
2206.000000	100.344018 
2205.000000	100.344616 
2204.000000	100.344239 
2203.000000	100.343837 
2202.000000	100.343735 
2201.000000	100.344091 
2200.000000	100.345272 
2199.000000	100.347247 
2198.000000	100.349182 
2197.000000	100.350371 
2196.000000	100.351321 
2195.000000	100.353072 
2194.000000	100.355766 
2193.000000	100.358587 
2192.000000	100.360788 
2191.000000	100.362117 
2190.000000	100.362522 
2189.000000	100.362332 
2188.000000	100.362589 
2187.000000	100.364250 
2186.000000	100.367068 
2185.000000	100.369991 
2184.000000	100.372536 
2183.000000	100.374834 
2182.000000	100.376598 
2181.000000	100.377428 
2180.000000	100.378029 
2179.000000	100.379604 
2178.000000	100.381885 
2177.000000	100.383046 
2176.000000	100.381744 
2175.000000	100.378316 
2174.000000	100.374273 
2173.000000	100.371688 
2172.000000	100.372512 
2171.000000	100.376956 
2170.000000	100.382539 
2169.000000	100.386264 
2168.000000	100.387995 
2167.000000	100.389909 
2166.000000	100.392743 
2165.000000	100.394734 
2164.000000	100.394885 
2163.000000	100.394891 
2162.000000	100.396846 
2161.000000	100.400579 
2160.000000	100.404030 
2159.000000	100.404824 
2158.000000	100.401251 
2157.000000	100.393772 
2156.000000	100.385991 
2155.000000	100.381888 
2154.000000	100.381765 
2153.000000	100.382354 
2152.000000	100.380791 
2151.000000	100.377464 
2150.000000	100.374686 
2149.000000	100.373965 
2148.000000	100.375052 
2147.000000	100.376459 
2146.000000	100.376248 
2145.000000	100.373245 
2144.000000	100.368234 
2143.000000	100.363556 
2142.000000	100.360958 
2141.000000	100.360230 
2140.000000	100.359995 
2139.000000	100.359096 
2138.000000	100.356861 
2137.000000	100.352759 
2136.000000	100.346739 
2135.000000	100.339967 
2134.000000	100.334584 
2133.000000	100.332214 
2132.000000	100.332517 
2131.000000	100.333202 
2130.000000	100.331764 
2129.000000	100.327557 
2128.000000	100.322157 
2127.000000	100.317635 
2126.000000	100.314675 
2125.000000	100.312681 
2124.000000	100.311312 
2123.000000	100.311068 
2122.000000	100.312133 
2121.000000	100.313409 
2120.000000	100.313277 
2119.000000	100.311174 
2118.000000	100.308017 
2117.000000	100.305179 
2116.000000	100.303311 
2115.000000	100.302233 
2114.000000	100.301687 
2113.000000	100.301833 
2112.000000	100.302751 
2111.000000	100.303700 
2110.000000	100.303430 
2109.000000	100.301408 
2108.000000	100.298468 
2107.000000	100.295945 
2106.000000	100.294210 
2105.000000	100.292356 
2104.000000	100.289422 
2103.000000	100.285894 
2102.000000	100.283780 
2101.000000	100.284867 
2100.000000	100.288809 
2099.000000	100.292998 
2098.000000	100.295001 
2097.000000	100.295059 
2096.000000	100.295373 
2095.000000	100.296908 
2094.000000	100.297805 
2093.000000	100.295695 
2092.000000	100.291018 
2091.000000	100.287227 
2090.000000	100.287424 
2089.000000	100.291457 
2088.000000	100.296327 
2087.000000	100.299151 
2086.000000	100.299794 
2085.000000	100.300412 
2084.000000	100.302747 
2083.000000	100.306416 
2082.000000	100.309960 
2081.000000	100.312953 
2080.000000	100.316224 
2079.000000	100.320166 
2078.000000	100.323934 
2077.000000	100.326723 
2076.000000	100.329036 
2075.000000	100.331917 
2074.000000	100.335380 
2073.000000	100.338357 
2072.000000	100.340006 
2071.000000	100.340471 
2070.000000	100.340483 
2069.000000	100.340720 
2068.000000	100.341551 
2067.000000	100.343041 
2066.000000	100.345007 
2065.000000	100.347100 
2064.000000	100.348978 
2063.000000	100.350607 
2062.000000	100.352489 
2061.000000	100.355300 
2060.000000	100.358999 
2059.000000	100.362542 
2058.000000	100.364785 
2057.000000	100.365629 
2056.000000	100.365882 
2055.000000	100.366339 
2054.000000	100.367293 
2053.000000	100.368776 
2052.000000	100.370747 
2051.000000	100.372926 
2050.000000	100.374797 
2049.000000	100.376057 
2048.000000	100.376840 
2047.000000	100.377475 
2046.000000	100.378207 
2045.000000	100.379155 
2044.000000	100.380346 
2043.000000	100.381696 
2042.000000	100.383041 
2041.000000	100.384246 
2040.000000	100.385272 
2039.000000	100.386139 
2038.000000	100.386892 
2037.000000	100.387583 
2036.000000	100.388239 
2035.000000	100.388820 
2034.000000	100.389277 
2033.000000	100.389647 
2032.000000	100.390004 
2031.000000	100.390389 
2030.000000	100.390791 
2029.000000	100.391197 
2028.000000	100.391602 
2027.000000	100.392001 
2026.000000	100.392387 
2025.000000	100.392756 
2024.000000	100.393103 
2023.000000	100.393427 
2022.000000	100.393719 
2021.000000	100.393975 
2020.000000	100.394204 
2019.000000	100.394425 
2018.000000	100.394648 
2017.000000	100.394865 
2016.000000	100.395061 
2015.000000	100.395230 
2014.000000	100.395385 
2013.000000	100.395549 
2012.000000	100.395740 
2011.000000	100.395962 
2010.000000	100.396200 
2009.000000	100.396435 
2008.000000	100.396650 
2007.000000	100.396840 
2006.000000	100.396997 
2005.000000	100.397113 
2004.000000	100.397194 
2003.000000	100.397252 
2002.000000	100.397291 
2001.000000	100.397303 
2000.000000	100.397278 
1999.000000	100.397223 
1998.000000	100.397173 
1997.000000	100.397172 
1996.000000	100.397241 
1995.000000	100.397367 
1994.000000	100.397511 
1993.000000	100.397626 
1992.000000	100.397682 
1991.000000	100.397667 
1990.000000	100.397593 
1989.000000	100.397500 
1988.000000	100.397422 
1987.000000	100.397359 
1986.000000	100.397256 
1985.000000	100.397041 
1984.000000	100.396686 
1983.000000	100.396251 
1982.000000	100.395844 
1981.000000	100.395497 
1980.000000	100.395089 
1979.000000	100.394425 
1978.000000	100.393436 
1977.000000	100.392288 
1976.000000	100.391190 
1975.000000	100.390145 
1974.000000	100.389083 
1973.000000	100.388244 
1972.000000	100.388111 
1971.000000	100.388829 
1970.000000	100.389616 
1969.000000	100.389257 
1968.000000	100.387254 
1967.000000	100.384316 
1966.000000	100.381815 
1965.000000	100.380367 
1964.000000	100.379620 
1963.000000	100.378860 
1962.000000	100.377633 
1961.000000	100.375838 
1960.000000	100.373507 
1959.000000	100.370820 
1958.000000	100.368301 
1957.000000	100.366573 
1956.000000	100.365704 
1955.000000	100.365049 
1954.000000	100.363979 
1953.000000	100.362549 
1952.000000	100.361100 
1951.000000	100.359419 
1950.000000	100.356883 
1949.000000	100.353500 
1948.000000	100.350129 
1947.000000	100.347352 
1946.000000	100.344663 
1945.000000	100.341100 
1944.000000	100.336511 
1943.000000	100.332071 
1942.000000	100.329462 
1941.000000	100.329122 
1940.000000	100.329420 
1939.000000	100.328157 
1938.000000	100.325321 
1937.000000	100.323631 
1936.000000	100.325320 
1935.000000	100.329063 
1934.000000	100.331299 
1933.000000	100.330589 
1932.000000	100.329105 
1931.000000	100.329453 
1930.000000	100.331368 
1929.000000	100.332568 
1928.000000	100.331768 
1927.000000	100.329411 
1926.000000	100.326282 
1925.000000	100.323031 
1924.000000	100.320512 
1923.000000	100.319475 
1922.000000	100.319878 
1921.000000	100.321006 
1920.000000	100.321978 
1919.000000	100.321721 
1918.000000	100.319311 
1917.000000	100.315181 
1916.000000	100.311059 
1915.000000	100.307987 
1914.000000	100.305801 
1913.000000	100.304482 
1912.000000	100.304501 
1911.000000	100.305618 
1910.000000	100.306445 
1909.000000	100.306152 
1908.000000	100.305652 
1907.000000	100.306197 
1906.000000	100.307604 
1905.000000	100.308667 
1904.000000	100.308654 
1903.000000	100.307583 
1902.000000	100.305796 
1901.000000	100.303967 
1900.000000	100.302879 
1899.000000	100.302795 
1898.000000	100.303237 
1897.000000	100.303532 
1896.000000	100.303394 
1895.000000	100.302822 
1894.000000	100.301816 
1893.000000	100.300572 
1892.000000	100.299600 
1891.000000	100.299296 
1890.000000	100.299470 
1889.000000	100.299598 
1888.000000	100.299488 
1887.000000	100.299277 
1886.000000	100.299083 
1885.000000	100.299025 
1884.000000	100.299270 
1883.000000	100.299849 
1882.000000	100.300560 
1881.000000	100.301183 
1880.000000	100.301622 
1879.000000	100.301871 
1878.000000	100.302023 
1877.000000	100.302246 
1876.000000	100.302584 
1875.000000	100.302761 
1874.000000	100.302426 
1873.000000	100.301600 
1872.000000	100.300709 
1871.000000	100.300191 
1870.000000	100.300172 
1869.000000	100.300525 
1868.000000	100.301043 
1867.000000	100.301539 
1866.000000	100.301849 
1865.000000	100.301886 
1864.000000	100.301656 
1863.000000	100.301224 
1862.000000	100.300763 
1861.000000	100.300587 
1860.000000	100.300908 
1859.000000	100.301619 
1858.000000	100.302347 
1857.000000	100.302815 
1856.000000	100.303050 
1855.000000	100.303203 
1854.000000	100.303375 
1853.000000	100.303591 
1852.000000	100.303817 
1851.000000	100.304018 
1850.000000	100.304220 
1849.000000	100.304483 
1848.000000	100.304820 
1847.000000	100.305157 
1846.000000	100.305405 
1845.000000	100.305560 
1844.000000	100.305705 
1843.000000	100.305906 
1842.000000	100.306130 
1841.000000	100.306308 
1840.000000	100.306412 
1839.000000	100.306457 
1838.000000	100.306485 
1837.000000	100.306529 
1836.000000	100.306607 
1835.000000	100.306717 
1834.000000	100.306844 
1833.000000	100.306986 
1832.000000	100.307143 
1831.000000	100.307315 
1830.000000	100.307511 
1829.000000	100.307745 
1828.000000	100.308018 
1827.000000	100.308296 
1826.000000	100.308532 
1825.000000	100.308721 
1824.000000	100.308909 
1823.000000	100.309127 
1822.000000	100.309320 
1821.000000	100.309433 
1820.000000	100.309525 
1819.000000	100.309722 
1818.000000	100.310054 
1817.000000	100.310411 
1816.000000	100.310653 
1815.000000	100.310782 
1814.000000	100.310906 
1813.000000	100.311097 
1812.000000	100.311369 
1811.000000	100.311753 
1810.000000	100.312254 
1809.000000	100.312798 
1808.000000	100.313307 
1807.000000	100.313680 
1806.000000	100.313752 
1805.000000	100.313504 
1804.000000	100.313207 
1803.000000	100.313144 
1802.000000	100.313266 
1801.000000	100.313268 
1800.000000	100.313043 
1799.000000	100.312853 
1798.000000	100.312933 
1797.000000	100.313348 
1796.000000	100.314101 
1795.000000	100.315048 
1794.000000	100.315840 
1793.000000	100.316154 
1792.000000	100.316094 
1791.000000	100.316117 
1790.000000	100.316301 
1789.000000	100.316358 
1788.000000	100.316250 
1787.000000	100.316224 
1786.000000	100.316429 
1785.000000	100.316788 
1784.000000	100.317186 
1783.000000	100.317412 
1782.000000	100.317194 
1781.000000	100.316500 
1780.000000	100.315681 
1779.000000	100.315101 
1778.000000	100.314692 
1777.000000	100.314312 
1776.000000	100.314105 
1775.000000	100.314143 
1774.000000	100.314290 
1773.000000	100.314514 
1772.000000	100.315031 
1771.000000	100.316076 
1770.000000	100.317292 
1769.000000	100.317746 
1768.000000	100.316993 
1767.000000	100.315630 
1766.000000	100.314566 
1765.000000	100.313985 
1764.000000	100.313562 
1763.000000	100.313205 
1762.000000	100.313084 
1761.000000	100.313187 
1760.000000	100.313419 
1759.000000	100.313807 
1758.000000	100.314358 
1757.000000	100.315052 
1756.000000	100.315683 
1755.000000	100.316100 
1754.000000	100.316251 
1753.000000	100.315949 
1752.000000	100.314972 
1751.000000	100.313355 
1750.000000	100.311584 
1749.000000	100.310278 
1748.000000	100.309759 
1747.000000	100.309991 
1746.000000	100.310695 
1745.000000	100.311297 
1744.000000	100.311274 
1743.000000	100.310711 
1742.000000	100.310114 
1741.000000	100.309741 
1740.000000	100.309620 
1739.000000	100.309960 
1738.000000	100.310886 
1737.000000	100.312009 
1736.000000	100.312832 
1735.000000	100.313202 
1734.000000	100.313235 
1733.000000	100.313235 
1732.000000	100.313350 
1731.000000	100.313414 
1730.000000	100.313379 
1729.000000	100.313431 
1728.000000	100.313649 
1727.000000	100.313955 
1726.000000	100.314261 
1725.000000	100.314551 
1724.000000	100.314836 
1723.000000	100.315121 
1722.000000	100.315408 
1721.000000	100.315698 
1720.000000	100.315993 
1719.000000	100.316294 
1718.000000	100.316595 
1717.000000	100.316884 
1716.000000	100.317151 
1715.000000	100.317398 
1714.000000	100.317630 
1713.000000	100.317853 
1712.000000	100.318073 
1711.000000	100.318299 
1710.000000	100.318535 
1709.000000	100.318781 
1708.000000	100.319034 
1707.000000	100.319284 
1706.000000	100.319520 
1705.000000	100.319733 
1704.000000	100.319924 
1703.000000	100.320095 
1702.000000	100.320251 
1701.000000	100.320394 
1700.000000	100.320533 
1699.000000	100.320679 
1698.000000	100.320825 
1697.000000	100.320953 
1696.000000	100.321044 
1695.000000	100.321099 
1694.000000	100.321129 
1693.000000	100.321146 
1692.000000	100.321160 
1691.000000	100.321176 
1690.000000	100.321194 
1689.000000	100.321211 
1688.000000	100.321224 
1687.000000	100.321228 
1686.000000	100.321217 
1685.000000	100.321188 
1684.000000	100.321141 
1683.000000	100.321079 
1682.000000	100.321005 
1681.000000	100.320922 
1680.000000	100.320830 
1679.000000	100.320734 
1678.000000	100.320637 
1677.000000	100.320541 
1676.000000	100.320446 
1675.000000	100.320361 
1674.000000	100.320297 
1673.000000	100.320257 
1672.000000	100.320232 
1671.000000	100.320211 
1670.000000	100.320185 
1669.000000	100.320154 
1668.000000	100.320117 
1667.000000	100.320077 
1666.000000	100.320032 
1665.000000	100.319985 
1664.000000	100.319940 
1663.000000	100.319902 
1662.000000	100.319877 
1661.000000	100.319865 
1660.000000	100.319862 
1659.000000	100.319866 
1658.000000	100.319877 
1657.000000	100.319889 
1656.000000	100.319877 
1655.000000	100.319819 
1654.000000	100.319729 
1653.000000	100.319674 
1652.000000	100.319732 
1651.000000	100.319952 
1650.000000	100.320254 
1649.000000	100.320467 
1648.000000	100.320577 
1647.000000	100.320637 
1646.000000	100.320752 
1645.000000	100.320968 
1644.000000	100.321344 
1643.000000	100.321773 
1642.000000	100.322071 
1641.000000	100.322127 
1640.000000	100.322058 
1639.000000	100.322126 
1638.000000	100.322447 
1637.000000	100.323011 
1636.000000	100.323720 
1635.000000	100.324246 
1634.000000	100.324573 
1633.000000	100.324849 
1632.000000	100.324851 
1631.000000	100.324373 
1630.000000	100.323497 
1629.000000	100.322767 
1628.000000	100.322786 
1627.000000	100.323531 
1626.000000	100.324414 
1625.000000	100.324934 
1624.000000	100.324953 
1623.000000	100.324498 
1622.000000	100.324002 
1621.000000	100.324372 
1620.000000	100.325614 
1619.000000	100.326684 
1618.000000	100.326912 
1617.000000	100.327210 
1616.000000	100.329047 
1615.000000	100.332099 
1614.000000	100.334926 
1613.000000	100.336887 
1612.000000	100.338522 
1611.000000	100.340172 
1610.000000	100.341299 
1609.000000	100.341558 
1608.000000	100.341363 
1607.000000	100.341102 
1606.000000	100.341099 
1605.000000	100.341712 
1604.000000	100.342634 
1603.000000	100.343220 
1602.000000	100.343548 
1601.000000	100.344450 
1600.000000	100.346257 
1599.000000	100.348338 
1598.000000	100.350180 
1597.000000	100.351889 
1596.000000	100.353449 
1595.000000	100.354249 
1594.000000	100.354003 
1593.000000	100.353712 
1592.000000	100.354607 
1591.000000	100.356539 
1590.000000	100.358426 
1589.000000	100.359899 
1588.000000	100.361436 
1587.000000	100.363059 
1586.000000	100.364149 
1585.000000	100.364575 
1584.000000	100.364674 
1583.000000	100.364449 
1582.000000	100.363901 
1581.000000	100.363385 
1580.000000	100.363050 
1579.000000	100.362666 
1578.000000	100.362167 
1577.000000	100.361890 
1576.000000	100.362028 
1575.000000	100.362381 
1574.000000	100.362873 
1573.000000	100.363379 
1572.000000	100.363677 
1571.000000	100.363797 
1570.000000	100.363926 
1569.000000	100.364196 
1568.000000	100.364495 
1567.000000	100.364680 
1566.000000	100.364744 
1565.000000	100.364771 
1564.000000	100.364804 
1563.000000	100.364851 
1562.000000	100.364907 
1561.000000	100.364970 
1560.000000	100.365033 
1559.000000	100.365084 
1558.000000	100.365122 
1557.000000	100.365153 
1556.000000	100.365177 
1555.000000	100.365187 
1554.000000	100.365177 
1553.000000	100.365148 
1552.000000	100.365103 
1551.000000	100.365044 
1550.000000	100.364974 
1549.000000	100.364898 
1548.000000	100.364818 
1547.000000	100.364728 
1546.000000	100.364625 
1545.000000	100.364517 
1544.000000	100.364419 
1543.000000	100.364344 
1542.000000	100.364294 
1541.000000	100.364256 
1540.000000	100.364209 
1539.000000	100.364141 
1538.000000	100.364047 
1537.000000	100.363925 
1536.000000	100.363771 
1535.000000	100.363583 
1534.000000	100.363361 
1533.000000	100.363108 
1532.000000	100.362831 
1531.000000	100.362533 
1530.000000	100.362221 
1529.000000	100.361880 
1528.000000	100.361502 
1527.000000	100.361106 
1526.000000	100.360725 
1525.000000	100.360354 
1524.000000	100.359983 
1523.000000	100.359651 
1522.000000	100.359389 
1521.000000	100.359050 
1520.000000	100.358482 
1519.000000	100.357675 
1518.000000	100.356588 
1517.000000	100.355309 
1516.000000	100.354226 
1515.000000	100.353624 
1514.000000	100.353323 
1513.000000	100.352824 
1512.000000	100.351935 
1511.000000	100.350914 
1510.000000	100.349994 
1509.000000	100.349101 
1508.000000	100.348490 
1507.000000	100.348763 
1506.000000	100.348840 
1505.000000	100.347849 
1504.000000	100.346902 
1503.000000	100.346442 
1502.000000	100.346244 
1501.000000	100.345624 
1500.000000	100.344110 
1499.000000	100.341961 
1498.000000	100.339716 
1497.000000	100.337004 
1496.000000	100.333675 
1495.000000	100.330915 
1494.000000	100.329452 
1493.000000	100.328703 
1492.000000	100.327890 
1491.000000	100.326823 
1490.000000	100.325517 
1489.000000	100.323685 
1488.000000	100.321563 
1487.000000	100.319838 
1486.000000	100.318376 
1485.000000	100.316842 
1484.000000	100.315258 
1483.000000	100.313773 
1482.000000	100.312519 
1481.000000	100.311456 
1480.000000	100.310503 
1479.000000	100.309478 
1478.000000	100.308009 
1477.000000	100.305898 
1476.000000	100.303906 
1475.000000	100.303180 
1474.000000	100.303621 
1473.000000	100.303300 
1472.000000	100.300676 
1471.000000	100.297274 
1470.000000	100.294877 
1469.000000	100.292849 
1468.000000	100.290155 
1467.000000	100.287126 
1466.000000	100.285010 
1465.000000	100.284695 
1464.000000	100.285910 
1463.000000	100.287966 
1462.000000	100.289574 
1461.000000	100.289180 
1460.000000	100.286437 
1459.000000	100.282407 
1458.000000	100.278280 
1457.000000	100.272279 
1456.000000	100.264009 
1455.000000	100.258530 
1454.000000	100.257867 
1453.000000	100.258746 
1452.000000	100.259275 
1451.000000	100.259688 
1450.000000	100.260495 
1449.000000	100.260275 
1448.000000	100.258708 
1447.000000	100.258303 
1446.000000	100.261083 
1445.000000	100.265319 
1444.000000	100.267961 
1443.000000	100.268806 
1442.000000	100.269446 
1441.000000	100.270290 
1440.000000	100.270400 
1439.000000	100.269742 
1438.000000	100.269696 
1437.000000	100.270274 
1436.000000	100.269892 
1435.000000	100.269385 
1434.000000	100.269512 
1433.000000	100.267657 
1432.000000	100.262517 
1431.000000	100.256506 
1430.000000	100.252675 
1429.000000	100.250537 
1428.000000	100.247967 
1427.000000	100.244741 
1426.000000	100.241819 
1425.000000	100.239282 
1424.000000	100.235766 
1423.000000	100.230844 
1422.000000	100.224988 
1421.000000	100.217424 
1420.000000	100.207286 
1419.000000	100.197463 
1418.000000	100.192214 
1417.000000	100.189623 
1416.000000	100.184504 
1415.000000	100.175647 
1414.000000	100.165802 
1413.000000	100.157010 
1412.000000	100.148957 
1411.000000	100.141400 
1410.000000	100.135219 
1409.000000	100.130282 
1408.000000	100.125839 
1407.000000	100.122668 
1406.000000	100.122530 
1405.000000	100.125658 
1404.000000	100.130260 
1403.000000	100.135725 
1402.000000	100.143017 
1401.000000	100.151869 
1400.000000	100.160041 
1399.000000	100.164867 
1398.000000	100.164673 
1397.000000	100.158061 
1396.000000	100.144639 
1395.000000	100.129479 
1394.000000	100.122990 
1393.000000	100.130523 
1392.000000	100.147116 
1391.000000	100.163973 
1390.000000	100.175783 
1389.000000	100.181671 
1388.000000	100.182686 
1387.000000	100.180346 
1386.000000	100.176850 
1385.000000	100.174262 
1384.000000	100.173017 
1383.000000	100.172462 
1382.000000	100.172334 
1381.000000	100.173236 
1380.000000	100.176214 
1379.000000	100.181811 
1378.000000	100.189585 
1377.000000	100.198303 
1376.000000	100.206539 
1375.000000	100.213326 
1374.000000	100.218973 
1373.000000	100.224877 
1372.000000	100.231854 
1371.000000	100.239169 
1370.000000	100.245723 
1369.000000	100.251622 
1368.000000	100.257550 
1367.000000	100.263718 
1366.000000	100.269954 
1365.000000	100.276353 
1364.000000	100.283310 
1363.000000	100.290642 
1362.000000	100.297126 
1361.000000	100.302015 
1360.000000	100.306237 
1359.000000	100.311256 
1358.000000	100.317592 
1357.000000	100.324490 
1356.000000	100.330560 
1355.000000	100.335153 
1354.000000	100.339250 
1353.000000	100.344479 
1352.000000	100.351295 
1351.000000	100.357784 
1350.000000	100.361462 
1349.000000	100.362905 
1348.000000	100.364417 
1347.000000	100.366991 
1346.000000	100.369717 
1345.000000	100.371662 
1344.000000	100.372804 
1343.000000	100.373210 
1342.000000	100.372766 
1341.000000	100.372304 
1340.000000	100.373484 
1339.000000	100.376692 
1338.000000	100.380478 
1337.000000	100.383638 
1336.000000	100.386298 
1335.000000	100.388683 
1334.000000	100.390129 
1333.000000	100.390138 
1332.000000	100.389626 
1331.000000	100.389952 
1330.000000	100.391142 
1329.000000	100.392089 
1328.000000	100.392151 
1327.000000	100.391543 
1326.000000	100.390588 
1325.000000	100.389596 
1324.000000	100.388959 
1323.000000	100.389166 
1322.000000	100.390501 
1321.000000	100.392914 
1320.000000	100.396149 
1319.000000	100.399678 
1318.000000	100.402389 
1317.000000	100.402918 
1316.000000	100.400868 
1315.000000	100.397571 
1314.000000	100.395133 
1313.000000	100.394410 
1312.000000	100.394447 
1311.000000	100.394121 
1310.000000	100.393691 
1309.000000	100.394163 
1308.000000	100.395676 
1307.000000	100.397045 
1306.000000	100.396975 
1305.000000	100.395488 
1304.000000	100.393735 
1303.000000	100.392959 
1302.000000	100.393589 
1301.000000	100.395047 
1300.000000	100.396305 
1299.000000	100.396889 
1298.000000	100.397379 
1297.000000	100.398732 
1296.000000	100.401022 
1295.000000	100.402983 
1294.000000	100.403050 
1293.000000	100.400732 
1292.000000	100.397010 
1291.000000	100.393648 
1290.000000	100.392076 
1289.000000	100.392552 
1288.000000	100.393958 
1287.000000	100.394411 
1286.000000	100.392676 
1285.000000	100.389236 
1284.000000	100.385756 
1283.000000	100.383453 
1282.000000	100.381801 
1281.000000	100.379272 
1280.000000	100.375335 
1279.000000	100.370904 
1278.000000	100.366926 
1277.000000	100.363508 
1276.000000	100.360604 
1275.000000	100.358480 
1274.000000	100.356993 
1273.000000	100.355106 
1272.000000	100.351888 
1271.000000	100.347635 
1270.000000	100.343376 
1269.000000	100.339553 
1268.000000	100.335812 
1267.000000	100.331840 
1266.000000	100.327615 
1265.000000	100.322895 
1264.000000	100.317295 
1263.000000	100.310971 
1262.000000	100.304521 
1261.000000	100.298215 
1260.000000	100.292054 
1259.000000	100.286547 
1258.000000	100.282569 
1257.000000	100.280200 
1256.000000	100.278586 
1255.000000	100.277221 
1254.000000	100.276483 
1253.000000	100.276509 
1252.000000	100.276518 
1251.000000	100.275933 
1250.000000	100.275441 
1249.000000	100.276131 
1248.000000	100.278096 
1247.000000	100.280348 
1246.000000	100.281189 
1245.000000	100.277966 
1244.000000	100.268259 
1243.000000	100.253567 
1242.000000	100.241069 
1241.000000	100.238525 
1240.000000	100.246629 
1239.000000	100.257769 
1238.000000	100.263316 
1237.000000	100.261141 
1236.000000	100.255011 
1235.000000	100.248800 
1234.000000	100.243245 
1233.000000	100.237409 
1232.000000	100.230645 
1231.000000	100.222565 
1230.000000	100.212982 
1229.000000	100.203091 
1228.000000	100.195634 
1227.000000	100.192504 
1226.000000	100.192281 
1225.000000	100.191175 
1224.000000	100.186601 
1223.000000	100.179187 
1222.000000	100.171313 
1221.000000	100.164478 
1220.000000	100.158579 
1219.000000	100.153001 
1218.000000	100.147293 
1217.000000	100.140624 
1216.000000	100.131536 
1215.000000	100.119010 
1214.000000	100.103556 
1213.000000	100.086566 
1212.000000	100.068656 
1211.000000	100.049448 
1210.000000	100.029168 
1209.000000	100.009666 
1208.000000	99.992946  
1207.000000	99.978729  
1206.000000	99.964339  
1205.000000	99.947528  
1204.000000	99.928917  
1203.000000	99.911113  
1202.000000	99.895780  
1201.000000	99.882144  
1200.000000	99.868120  
1199.000000	99.852120  
1198.000000	99.833847  
1197.000000	99.813996  
1196.000000	99.793383  
1195.000000	99.772272  
1194.000000	99.750523  
1193.000000	99.728341  
1192.000000	99.706496  
1191.000000	99.685442  
1190.000000	99.664595  
1189.000000	99.643100  
1188.000000	99.620943  
1187.000000	99.598629  
1186.000000	99.576266  
1185.000000	99.553908  
1184.000000	99.532343  
1183.000000	99.512236  
1182.000000	99.492678  
1181.000000	99.471866  
1180.000000	99.449100  
1179.000000	99.424803  
1178.000000	99.398938  
1177.000000	99.371154  
1176.000000	99.342415  
1175.000000	99.314267  
1174.000000	99.285957  
1173.000000	99.254535  
1172.000000	99.219032  
1171.000000	99.182817  
1170.000000	99.150292  
1169.000000	99.122486  
1168.000000	99.097279  
1167.000000	99.073165  
1166.000000	99.051772  
1165.000000	99.037193  
1164.000000	99.033291  
1163.000000	99.040700  
1162.000000	99.055631  
1161.000000	99.072452  
1160.000000	99.087597  
1159.000000	99.099665  
1158.000000	99.106057  
1157.000000	99.102034  
1156.000000	99.084465  
1155.000000	99.055476  
1154.000000	99.021497  
1153.000000	98.989009  
1152.000000	98.961236  
1151.000000	98.937479  
1150.000000	98.914445  
1149.000000	98.889102  
1148.000000	98.861279  
1147.000000	98.833108  
1146.000000	98.805891  
1145.000000	98.778744  
1144.000000	98.750582  
1143.000000	98.721804  
1142.000000	98.693445  
1141.000000	98.666218  
1140.000000	98.640998  
1139.000000	98.618373  
1138.000000	98.596636  
1137.000000	98.572035  
1136.000000	98.542554  
1135.000000	98.510281  
1134.000000	98.478684  
1133.000000	98.448416  
1132.000000	98.417258  
1131.000000	98.383690  
1130.000000	98.349354  
1129.000000	98.317876  
1128.000000	98.291215  
1127.000000	98.266717  
1126.000000	98.238500  
1125.000000	98.203291  
1124.000000	98.164449  
1123.000000	98.128421  
1122.000000	98.097352  
1121.000000	98.067510  
1120.000000	98.035023  
1119.000000	98.000225  
1118.000000	97.965500  
1117.000000	97.931825  
1116.000000	97.899085  
1115.000000	97.867535  
1114.000000	97.837213  
1113.000000	97.807416  
1112.000000	97.777883  
1111.000000	97.748752  
1110.000000	97.718808  
1109.000000	97.685980  
1108.000000	97.650574  
1107.000000	97.616149  
1106.000000	97.585660  
1105.000000	97.558314  
1104.000000	97.531314  
1103.000000	97.503351  
1102.000000	97.475429  
1101.000000	97.449199  
1100.000000	97.425533  
1099.000000	97.404074  
1098.000000	97.383140  
1097.000000	97.361314  
1096.000000	97.338847  
1095.000000	97.316573  
1094.000000	97.293383  
1093.000000	97.266300  
1092.000000	97.233525  
1091.000000	97.196392  
1090.000000	97.158161  
1089.000000	97.121890  
1088.000000	97.089361  
1087.000000	97.060437  
1086.000000	97.033055  
1085.000000	97.005310  
1084.000000	96.977691  
1083.000000	96.951745  
1082.000000	96.926734  
1081.000000	96.899890  
1080.000000	96.870247  
1079.000000	96.839932  
1078.000000	96.811403  
1077.000000	96.785856  
1076.000000	96.764665  
1075.000000	96.749326  
1074.000000	96.738974  
1073.000000	96.730222  
1072.000000	96.719205  
1071.000000	96.700481  
1070.000000	96.665041  
1069.000000	96.605872  
1068.000000	96.528451  
1067.000000	96.451955  
1066.000000	96.395061  
1065.000000	96.361661  
1064.000000	96.342334  
1063.000000	96.324957  
1062.000000	96.300367  
1061.000000	96.262097  
1060.000000	96.208034  
1059.000000	96.144134  
1058.000000	96.082701  
1057.000000	96.034032  
1056.000000	95.999624  
1055.000000	95.972793  
1054.000000	95.944784  
1053.000000	95.911116  
1052.000000	95.873184  
1051.000000	95.834150  
1050.000000	95.794453  
1049.000000	95.752924  
1048.000000	95.710924  
1047.000000	95.672176  
1046.000000	95.638691  
1045.000000	95.609278  
1044.000000	95.581563  
1043.000000	95.553353  
1042.000000	95.523058  
1041.000000	95.491429  
1040.000000	95.462270  
1039.000000	95.439269  
1038.000000	95.423110  
1037.000000	95.413541  
1036.000000	95.411909  
1035.000000	95.418372  
1034.000000	95.428798  
1033.000000	95.437948  
1032.000000	95.443403  
1031.000000	95.443043  
1030.000000	95.433287  
1029.000000	95.416395  
1028.000000	95.406045  
1027.000000	95.416679  
1026.000000	95.446993  
1025.000000	95.480654  
1024.000000	95.503872  
1023.000000	95.515699  
1022.000000	95.521314  
1021.000000	95.524061  
1020.000000	95.526692  
1019.000000	95.533100  
1018.000000	95.544250  
1017.000000	95.556541  
1016.000000	95.567270  
1015.000000	95.578187  
1014.000000	95.591543  
1013.000000	95.606140  
1012.000000	95.619186  
1011.000000	95.629117  
1010.000000	95.635695  
1009.000000	95.640638  
1008.000000	95.648708  
1007.000000	95.664457  
1006.000000	95.687009  
1005.000000	95.711203  
1004.000000	95.733988  
1003.000000	95.756211  
1002.000000	95.778619  
1001.000000	95.800704  
1000.000000	95.823492  
999.000000	 95.848593  
998.000000	 95.874078  
997.000000	 95.896310  
996.000000	 95.916745  
995.000000	 95.941867  
994.000000	 95.974816  
993.000000	 96.011441  
992.000000	 96.046057  
991.000000	 96.077077  
990.000000	 96.105594  
989.000000	 96.132712  
988.000000	 96.160373  
987.000000	 96.191379  
986.000000	 96.226673  
985.000000	 96.265231  
984.000000	 96.307221  
983.000000	 96.353986  
982.000000	 96.404596  
981.000000	 96.455798  
980.000000	 96.506219  
979.000000	 96.557807  
978.000000	 96.612552  
977.000000	 96.670899  
976.000000	 96.733461  
975.000000	 96.800539  
974.000000	 96.869450  
973.000000	 96.936019  
972.000000	 96.999513  
971.000000	 97.063000  
970.000000	 97.128450  
969.000000	 97.194626  
968.000000	 97.259925  
967.000000	 97.323852  
966.000000	 97.385271  
965.000000	 97.442653  
964.000000	 97.496715  
963.000000	 97.549963  
962.000000	 97.603338  
961.000000	 97.656080  
960.000000	 97.708560  
959.000000	 97.761457  
958.000000	 97.812036  
957.000000	 97.855545  
956.000000	 97.891576  
955.000000	 97.925629  
954.000000	 97.962773  
953.000000	 98.002476  
952.000000	 98.041119  
951.000000	 98.076672  
950.000000	 98.108988  
949.000000	 98.137863  
948.000000	 98.162916  
947.000000	 98.184272  
946.000000	 98.202185  
945.000000	 98.217034  
944.000000	 98.230327  
943.000000	 98.244533  
942.000000	 98.261342  
941.000000	 98.280875  
940.000000	 98.302321  
939.000000	 98.324137  
938.000000	 98.344291  
937.000000	 98.362192  
936.000000	 98.379995  
935.000000	 98.400208  
934.000000	 98.422602  
933.000000	 98.445444  
932.000000	 98.468890  
931.000000	 98.494497  
930.000000	 98.521685  
929.000000	 98.547115  
928.000000	 98.567553  
927.000000	 98.581717  
926.000000	 98.590372  
925.000000	 98.597069  
924.000000	 98.607843  
923.000000	 98.626808  
922.000000	 98.651573  
921.000000	 98.675248  
920.000000	 98.693106  
919.000000	 98.705500  
918.000000	 98.715076  
917.000000	 98.723822  
916.000000	 98.732645  
915.000000	 98.741293  
914.000000	 98.748474  
913.000000	 98.754186  
912.000000	 98.761810  
911.000000	 98.775766  
910.000000	 98.797233  
909.000000	 98.824075  
908.000000	 98.854310  
907.000000	 98.887199  
906.000000	 98.921378  
905.000000	 98.954714  
904.000000	 98.986381  
903.000000	 99.017437  
902.000000	 99.049656  
901.000000	 99.084948  
900.000000	 99.124614  
899.000000	 99.167051  
898.000000	 99.207327  
897.000000	 99.241398  
896.000000	 99.269447  
895.000000	 99.293395  
894.000000	 99.313488  
893.000000	 99.330497  
892.000000	 99.349456  
891.000000	 99.376902  
890.000000	 99.414264  
889.000000	 99.456710  
888.000000	 99.497997  
887.000000	 99.533836  
886.000000	 99.561890  
885.000000	 99.582630  
884.000000	 99.600169  
883.000000	 99.618646  
882.000000	 99.637598  
881.000000	 99.654227  
880.000000	 99.669669  
879.000000	 99.688635  
878.000000	 99.712602  
877.000000	 99.737922  
876.000000	 99.761421  
875.000000	 99.783452  
874.000000	 99.804625  
873.000000	 99.824164  
872.000000	 99.842943  
871.000000	 99.863970  
870.000000	 99.888317  
869.000000	 99.914267  
868.000000	 99.941654  
867.000000	 99.972867  
866.000000	 100.007676 
865.000000	 100.041143 
864.000000	 100.069568 
863.000000	 100.095463 
862.000000	 100.123386 
861.000000	 100.152636 
860.000000	 100.177590 
859.000000	 100.194808 
858.000000	 100.207022 
857.000000	 100.219823 
856.000000	 100.236425 
855.000000	 100.256547 
854.000000	 100.278593 
853.000000	 100.300826 
852.000000	 100.320717 
851.000000	 100.335748 
850.000000	 100.346526 
849.000000	 100.357388 
848.000000	 100.371415 
847.000000	 100.385699 
846.000000	 100.394623 
845.000000	 100.397366 
844.000000	 100.398428 
843.000000	 100.400579 
842.000000	 100.401925 
841.000000	 100.401262 
840.000000	 100.400998 
839.000000	 100.401931 
838.000000	 100.399917 
837.000000	 100.391695 
836.000000	 100.380015 
835.000000	 100.368909 
834.000000	 100.358069 
833.000000	 100.347377 
832.000000	 100.343021 
831.000000	 100.351226 
830.000000	 100.366955 
829.000000	 100.376866 
828.000000	 100.374814 
827.000000	 100.367929 
826.000000	 100.365692 
825.000000	 100.369071 
824.000000	 100.373410 
823.000000	 100.376557 
822.000000	 100.380179 
821.000000	 100.386199 
820.000000	 100.394302 
819.000000	 100.401248 
818.000000	 100.402539 
817.000000	 100.396444 
816.000000	 100.385009 
815.000000	 100.369041 
814.000000	 100.344615 
813.000000	 100.307715 
812.000000	 100.259336 
811.000000	 100.200980 
810.000000	 100.127520 
809.000000	 100.031130 
808.000000	 99.911968  
807.000000	 99.778879  
806.000000	 99.639192  
805.000000	 99.494558  
804.000000	 99.348905  
803.000000	 99.213536  
802.000000	 99.099950  
801.000000	 99.012034  
800.000000	 98.948558  
799.000000	 98.909009  
798.000000	 98.893750  
797.000000	 98.901360  
796.000000	 98.927503  
795.000000	 98.964314  
794.000000	 99.002029  
793.000000	 99.035355  
792.000000	 99.067284  
791.000000	 99.102254  
790.000000	 99.136654  
789.000000	 99.160573  
788.000000	 99.167348  
787.000000	 99.156241  
786.000000	 99.127668  
785.000000	 99.082511  
784.000000	 99.026245  
783.000000	 98.968048  
782.000000	 98.915020  
781.000000	 98.871249  
780.000000	 98.841011  
779.000000	 98.826930  
778.000000	 98.826235  
777.000000	 98.835655  
776.000000	 98.858942  
775.000000	 98.901866  
774.000000	 98.960171  
773.000000	 99.020704  
772.000000	 99.075517  
771.000000	 99.127455  
770.000000	 99.180767  
769.000000	 99.233193  
768.000000	 99.278825  
767.000000	 99.313207  
766.000000	 99.335195  
765.000000	 99.349342  
764.000000	 99.365929  
763.000000	 99.391922  
762.000000	 99.421569  
761.000000	 99.442705  
760.000000	 99.452800  
759.000000	 99.462018  
758.000000	 99.479987  
757.000000	 99.506337  
756.000000	 99.534591  
755.000000	 99.557775  
754.000000	 99.569673  
753.000000	 99.569157  
752.000000	 99.566130  
751.000000	 99.576402  
750.000000	 99.606548  
749.000000	 99.647553  
748.000000	 99.684853  
747.000000	 99.710700  
746.000000	 99.726572  
745.000000	 99.739433  
744.000000	 99.757437  
743.000000	 99.784348  
742.000000	 99.816301  
741.000000	 99.847481  
740.000000	 99.878308  
739.000000	 99.912994  
738.000000	 99.949911  
737.000000	 99.980764  
736.000000	 99.999756  
735.000000	 100.008123 
734.000000	 100.010201 
733.000000	 100.011149 
732.000000	 100.018267 
731.000000	 100.036691 
730.000000	 100.061696 
729.000000	 100.082365 
728.000000	 100.094531 
727.000000	 100.103633 
726.000000	 100.113998 
725.000000	 100.122729 
724.000000	 100.126712 
723.000000	 100.128195 
722.000000	 100.130633 
721.000000	 100.136024 
720.000000	 100.148739 
719.000000	 100.173980 
718.000000	 100.208536 
717.000000	 100.239808 
716.000000	 100.257331 
715.000000	 100.260139 
714.000000	 100.253142 
713.000000	 100.243920 
712.000000	 100.244044 
711.000000	 100.263128 
710.000000	 100.295967 
709.000000	 100.323576 
708.000000	 100.331837 
707.000000	 100.322751 
706.000000	 100.305617 
705.000000	 100.285012 
704.000000	 100.261922 
703.000000	 100.238190 
702.000000	 100.212256 
701.000000	 100.176915 
700.000000	 100.127998 
699.000000	 100.070198 
698.000000	 100.011472 
697.000000	 99.957706  
696.000000	 99.916114  
695.000000	 99.895929  
694.000000	 99.899088  
693.000000	 99.917413  
692.000000	 99.943772  
691.000000	 99.978389  
690.000000	 100.021051 
689.000000	 100.065341 
688.000000	 100.105691 
687.000000	 100.141503 
686.000000	 100.168229 
685.000000	 100.176517 
684.000000	 100.167940 
683.000000	 100.160199 
682.000000	 100.168681 
681.000000	 100.190715 
680.000000	 100.213209 
679.000000	 100.227146 
678.000000	 100.230059 
677.000000	 100.225865 
676.000000	 100.226922 
675.000000	 100.244220 
674.000000	 100.272004 
673.000000	 100.290335 
672.000000	 100.287423 
671.000000	 100.271032 
670.000000	 100.255129 
669.000000	 100.250361 
668.000000	 100.264527 
667.000000	 100.291758 
666.000000	 100.318586 
665.000000	 100.340563 
664.000000	 100.356901 
663.000000	 100.375747 
662.000000	 100.403307 
661.000000	 100.429621 
660.000000	 100.436823 
659.000000	 100.421012 
658.000000	 100.395652 
657.000000	 100.375848 
656.000000	 100.365749 
655.000000	 100.363962 
654.000000	 100.370515 
653.000000	 100.382639 
652.000000	 100.392998 
651.000000	 100.397772 
650.000000	 100.400165 

