4000.000000	99.304442 
3999.000000	99.304758 
3998.000000	99.305110 
3997.000000	99.307308 
3996.000000	99.311013 
3995.000000	99.314308 
3994.000000	99.315861 
3993.000000	99.315854 
3992.000000	99.314893 
3991.000000	99.312773 
3990.000000	99.308874 
3989.000000	99.303467 
3988.000000	99.298175 
3987.000000	99.295031 
3986.000000	99.295122 
3985.000000	99.297933 
3984.000000	99.301901 
3983.000000	99.305872 
3982.000000	99.310046 
3981.000000	99.315331 
3980.000000	99.321701 
3979.000000	99.327559 
3978.000000	99.330973 
3977.000000	99.331257 
3976.000000	99.328990 
3975.000000	99.324801 
3974.000000	99.318807 
3973.000000	99.311520 
3972.000000	99.304750 
3971.000000	99.301059 
3970.000000	99.302200 
3969.000000	99.307649 
3968.000000	99.314732 
3967.000000	99.320253 
3966.000000	99.322394 
3965.000000	99.321296 
3964.000000	99.318310 
3963.000000	99.315179 
3962.000000	99.313493 
3961.000000	99.313837 
3960.000000	99.314783 
3959.000000	99.313631 
3958.000000	99.309422 
3957.000000	99.304488 
3956.000000	99.302433 
3955.000000	99.304478 
3954.000000	99.308672 
3953.000000	99.312214 
3952.000000	99.313514 
3951.000000	99.312428 
3950.000000	99.309191 
3949.000000	99.304205 
3948.000000	99.298958 
3947.000000	99.296232 
3946.000000	99.297981 
3945.000000	99.302998 
3944.000000	99.307422 
3943.000000	99.308139 
3942.000000	99.305748 
3941.000000	99.303571 
3940.000000	99.303397 
3939.000000	99.304027 
3938.000000	99.304358 
3937.000000	99.304948 
3936.000000	99.306520 
3935.000000	99.308087 
3934.000000	99.308285 
3933.000000	99.307729 
3932.000000	99.308206 
3931.000000	99.310395 
3930.000000	99.313109 
3929.000000	99.314899 
3928.000000	99.315244 
3927.000000	99.313397 
3926.000000	99.308306 
3925.000000	99.300964 
3924.000000	99.295469 
3923.000000	99.294859 
3922.000000	99.297037 
3921.000000	99.298210 
3920.000000	99.298307 
3919.000000	99.299415 
3918.000000	99.300975 
3917.000000	99.300402 
3916.000000	99.298023 
3915.000000	99.297218 
3914.000000	99.299342 
3913.000000	99.301999 
3912.000000	99.302506 
3911.000000	99.299876 
3910.000000	99.295672 
3909.000000	99.292636 
3908.000000	99.293846 
3907.000000	99.300352 
3906.000000	99.309797 
3905.000000	99.317297 
3904.000000	99.319433 
3903.000000	99.317727 
3902.000000	99.315301 
3901.000000	99.311643 
3900.000000	99.304928 
3899.000000	99.297021 
3898.000000	99.291696 
3897.000000	99.289387 
3896.000000	99.287570 
3895.000000	99.286375 
3894.000000	99.289873 
3893.000000	99.298665 
3892.000000	99.306222 
3891.000000	99.306685 
3890.000000	99.305915 
3889.000000	99.310582 
3888.000000	99.316925 
3887.000000	99.317929 
3886.000000	99.312563 
3885.000000	99.306843 
3884.000000	99.308286 
3883.000000	99.313891 
3882.000000	99.313856 
3881.000000	99.305495 
3880.000000	99.295062 
3879.000000	99.291189 
3878.000000	99.296241 
3877.000000	99.302900 
3876.000000	99.303717 
3875.000000	99.297751 
3874.000000	99.290372 
3873.000000	99.288895 
3872.000000	99.292385 
3871.000000	99.290892 
3870.000000	99.280255 
3869.000000	99.272618 
3868.000000	99.281497 
3867.000000	99.298713 
3866.000000	99.307357 
3865.000000	99.305684 
3864.000000	99.303053 
3863.000000	99.303857 
3862.000000	99.305065 
3861.000000	99.303068 
3860.000000	99.298432 
3859.000000	99.290617 
3858.000000	99.278460 
3857.000000	99.264466 
3856.000000	99.257851 
3855.000000	99.266470 
3854.000000	99.278979 
3853.000000	99.275564 
3852.000000	99.270467 
3851.000000	99.282407 
3850.000000	99.297704 
3849.000000	99.304261 
3848.000000	99.305990 
3847.000000	99.308545 
3846.000000	99.311979 
3845.000000	99.314154 
3844.000000	99.314655 
3843.000000	99.314784 
3842.000000	99.316288 
3841.000000	99.318390 
3840.000000	99.319403 
3839.000000	99.318729 
3838.000000	99.317332 
3837.000000	99.316081 
3836.000000	99.315765 
3835.000000	99.315387 
3834.000000	99.312946 
3833.000000	99.308202 
3832.000000	99.303789 
3831.000000	99.303390 
3830.000000	99.308373 
3829.000000	99.315182 
3828.000000	99.317628 
3827.000000	99.312393 
3826.000000	99.304139 
3825.000000	99.302049 
3824.000000	99.310362 
3823.000000	99.324180 
3822.000000	99.332798 
3821.000000	99.326887 
3820.000000	99.315399 
3819.000000	99.312758 
3818.000000	99.313360 
3817.000000	99.307571 
3816.000000	99.297428 
3815.000000	99.292796 
3814.000000	99.298309 
3813.000000	99.303901 
3812.000000	99.299531 
3811.000000	99.290375 
3810.000000	99.287150 
3809.000000	99.292414 
3808.000000	99.298773 
3807.000000	99.299160 
3806.000000	99.298167 
3805.000000	99.304169 
3804.000000	99.312925 
3803.000000	99.314688 
3802.000000	99.306760 
3801.000000	99.293971 
3800.000000	99.288969 
3799.000000	99.293857 
3798.000000	99.295921 
3797.000000	99.290835 
3796.000000	99.285707 
3795.000000	99.286867 
3794.000000	99.292099 
3793.000000	99.295200 
3792.000000	99.294557 
3791.000000	99.293538 
3790.000000	99.294215 
3789.000000	99.296367 
3788.000000	99.300217 
3787.000000	99.306329 
3786.000000	99.312727 
3785.000000	99.316322 
3784.000000	99.317625 
3783.000000	99.320118 
3782.000000	99.324260 
3781.000000	99.326113 
3780.000000	99.322133 
3779.000000	99.313129 
3778.000000	99.304268 
3777.000000	99.298497 
3776.000000	99.294170 
3775.000000	99.290842 
3774.000000	99.292711 
3773.000000	99.302388 
3772.000000	99.315132 
3771.000000	99.321883 
3770.000000	99.318917 
3769.000000	99.312094 
3768.000000	99.308785 
3767.000000	99.307864 
3766.000000	99.304450 
3765.000000	99.299509 
3764.000000	99.299177 
3763.000000	99.305440 
3762.000000	99.312740 
3761.000000	99.316617 
3760.000000	99.319035 
3759.000000	99.321659 
3758.000000	99.322617 
3757.000000	99.320342 
3756.000000	99.316641 
3755.000000	99.313324 
3754.000000	99.311174 
3753.000000	99.312883 
3752.000000	99.320046 
3751.000000	99.324710 
3750.000000	99.317132 
3749.000000	99.303633 
3748.000000	99.296741 
3747.000000	99.295999 
3746.000000	99.293583 
3745.000000	99.284962 
3744.000000	99.272947 
3743.000000	99.274433 
3742.000000	99.291705 
3741.000000	99.301783 
3740.000000	99.297178 
3739.000000	99.291078 
3738.000000	99.293428 
3737.000000	99.300058 
3736.000000	99.303093 
3735.000000	99.302492 
3734.000000	99.301535 
3733.000000	99.298569 
3732.000000	99.292799 
3731.000000	99.290621 
3730.000000	99.295842 
3729.000000	99.302502 
3728.000000	99.303560 
3727.000000	99.300785 
3726.000000	99.301180 
3725.000000	99.307104 
3724.000000	99.312321 
3723.000000	99.310581 
3722.000000	99.303194 
3721.000000	99.296268 
3720.000000	99.293923 
3719.000000	99.294539 
3718.000000	99.294049 
3717.000000	99.290375 
3716.000000	99.284599 
3715.000000	99.278213 
3714.000000	99.272551 
3713.000000	99.269120 
3712.000000	99.266617 
3711.000000	99.262505 
3710.000000	99.259204 
3709.000000	99.259741 
3708.000000	99.261846 
3707.000000	99.261307 
3706.000000	99.256868 
3705.000000	99.250189 
3704.000000	99.243460 
3703.000000	99.237698 
3702.000000	99.232176 
3701.000000	99.226628 
3700.000000	99.223156 
3699.000000	99.221438 
3698.000000	99.216949 
3697.000000	99.207595 
3696.000000	99.197289 
3695.000000	99.191013 
3694.000000	99.188884 
3693.000000	99.188124 
3692.000000	99.187536 
3691.000000	99.186172 
3690.000000	99.180269 
3689.000000	99.166951 
3688.000000	99.152992 
3687.000000	99.149098 
3686.000000	99.154331 
3685.000000	99.158437 
3684.000000	99.157178 
3683.000000	99.154999 
3682.000000	99.155341 
3681.000000	99.154439 
3680.000000	99.147225 
3679.000000	99.136282 
3678.000000	99.127480 
3677.000000	99.122245 
3676.000000	99.115627 
3675.000000	99.107997 
3674.000000	99.113439 
3673.000000	99.131844 
3672.000000	99.143962 
3671.000000	99.143353 
3670.000000	99.136625 
3669.000000	99.129831 
3668.000000	99.126364 
3667.000000	99.122563 
3666.000000	99.115034 
3665.000000	99.107842 
3664.000000	99.106180 
3663.000000	99.110033 
3662.000000	99.115431 
3661.000000	99.119379 
3660.000000	99.122687 
3659.000000	99.128155 
3658.000000	99.136033 
3657.000000	99.143156 
3656.000000	99.146969 
3655.000000	99.152168 
3654.000000	99.162576 
3653.000000	99.173831 
3652.000000	99.182805 
3651.000000	99.192097 
3650.000000	99.199175 
3649.000000	99.194972 
3648.000000	99.180678 
3647.000000	99.168666 
3646.000000	99.166380 
3645.000000	99.170981 
3644.000000	99.176686 
3643.000000	99.181372 
3642.000000	99.187173 
3641.000000	99.196093 
3640.000000	99.207494 
3639.000000	99.219499 
3638.000000	99.231964 
3637.000000	99.245555 
3636.000000	99.257055 
3635.000000	99.260257 
3634.000000	99.253216 
3633.000000	99.242002 
3632.000000	99.234108 
3631.000000	99.232721 
3630.000000	99.236563 
3629.000000	99.238215 
3628.000000	99.235178 
3627.000000	99.237191 
3626.000000	99.243739 
3625.000000	99.246910 
3624.000000	99.248170 
3623.000000	99.252364 
3622.000000	99.258986 
3621.000000	99.263614 
3620.000000	99.263711 
3619.000000	99.260910 
3618.000000	99.260700 
3617.000000	99.266981 
3616.000000	99.276069 
3615.000000	99.280676 
3614.000000	99.277016 
3613.000000	99.267312 
3612.000000	99.257392 
3611.000000	99.251324 
3610.000000	99.249049 
3609.000000	99.249213 
3608.000000	99.250841 
3607.000000	99.253331 
3606.000000	99.256099 
3605.000000	99.258549 
3604.000000	99.261460 
3603.000000	99.266077 
3602.000000	99.271441 
3601.000000	99.275407 
3600.000000	99.277990 
3599.000000	99.281002 
3598.000000	99.284584 
3597.000000	99.287722 
3596.000000	99.289261 
3595.000000	99.288310 
3594.000000	99.284624 
3593.000000	99.280704 
3592.000000	99.280407 
3591.000000	99.286246 
3590.000000	99.297322 
3589.000000	99.308464 
3588.000000	99.311313 
3587.000000	99.302477 
3586.000000	99.289453 
3585.000000	99.280994 
3584.000000	99.278037 
3583.000000	99.277604 
3582.000000	99.277320 
3581.000000	99.276081 
3580.000000	99.273574 
3579.000000	99.270158 
3578.000000	99.266065 
3577.000000	99.262006 
3576.000000	99.259610 
3575.000000	99.260536 
3574.000000	99.264818 
3573.000000	99.270587 
3572.000000	99.275824 
3571.000000	99.279647 
3570.000000	99.281925 
3569.000000	99.281961 
3568.000000	99.278426 
3567.000000	99.271759 
3566.000000	99.266739 
3565.000000	99.267964 
3564.000000	99.273405 
3563.000000	99.277981 
3562.000000	99.279524 
3561.000000	99.278976 
3560.000000	99.277758 
3559.000000	99.276324 
3558.000000	99.274455 
3557.000000	99.272308 
3556.000000	99.271130 
3555.000000	99.272013 
3554.000000	99.274219 
3553.000000	99.275440 
3552.000000	99.274397 
3551.000000	99.272116 
3550.000000	99.269930 
3549.000000	99.267934 
3548.000000	99.266391 
3547.000000	99.266461 
3546.000000	99.268623 
3545.000000	99.271904 
3544.000000	99.275035 
3543.000000	99.277261 
3542.000000	99.278273 
3541.000000	99.278088 
3540.000000	99.277487 
3539.000000	99.277609 
3538.000000	99.278815 
3537.000000	99.280064 
3536.000000	99.279811 
3535.000000	99.277506 
3534.000000	99.273656 
3533.000000	99.269380 
3532.000000	99.265895 
3531.000000	99.264288 
3530.000000	99.264683 
3529.000000	99.266451 
3528.000000	99.269228 
3527.000000	99.273080 
3526.000000	99.276973 
3525.000000	99.278357 
3524.000000	99.275592 
3523.000000	99.270236 
3522.000000	99.265787 
3521.000000	99.264113 
3520.000000	99.264217 
3519.000000	99.264429 
3518.000000	99.264580 
3517.000000	99.265516 
3516.000000	99.267350 
3515.000000	99.269507 
3514.000000	99.272023 
3513.000000	99.275489 
3512.000000	99.279224 
3511.000000	99.281009 
3510.000000	99.279412 
3509.000000	99.275979 
3508.000000	99.273839 
3507.000000	99.274064 
3506.000000	99.274225 
3505.000000	99.271115 
3504.000000	99.264370 
3503.000000	99.257580 
3502.000000	99.255885 
3501.000000	99.261848 
3500.000000	99.272905 
3499.000000	99.282684 
3498.000000	99.285493 
3497.000000	99.280972 
3496.000000	99.274789 
3495.000000	99.273665 
3494.000000	99.279007 
3493.000000	99.285645 
3492.000000	99.286987 
3491.000000	99.281138 
3490.000000	99.272159 
3489.000000	99.265912 
3488.000000	99.265188 
3487.000000	99.268544 
3486.000000	99.272737 
3485.000000	99.275615 
3484.000000	99.277005 
3483.000000	99.277831 
3482.000000	99.278647 
3481.000000	99.278993 
3480.000000	99.278006 
3479.000000	99.275689 
3478.000000	99.273312 
3477.000000	99.272149 
3476.000000	99.271934 
3475.000000	99.271097 
3474.000000	99.268903 
3473.000000	99.266563 
3472.000000	99.265723 
3471.000000	99.266494 
3470.000000	99.267718 
3469.000000	99.268591 
3468.000000	99.269084 
3467.000000	99.269032 
3466.000000	99.267901 
3465.000000	99.265727 
3464.000000	99.263621 
3463.000000	99.262770 
3462.000000	99.263046 
3461.000000	99.263023 
3460.000000	99.261411 
3459.000000	99.258494 
3458.000000	99.256142 
3457.000000	99.256167 
3456.000000	99.258451 
3455.000000	99.260888 
3454.000000	99.261335 
3453.000000	99.259784 
3452.000000	99.258346 
3451.000000	99.259161 
3450.000000	99.262181 
3449.000000	99.265177 
3448.000000	99.265765 
3447.000000	99.263525 
3446.000000	99.260325 
3445.000000	99.258555 
3444.000000	99.259090 
3443.000000	99.260963 
3442.000000	99.262646 
3441.000000	99.263599 
3440.000000	99.264552 
3439.000000	99.266136 
3438.000000	99.267530 
3437.000000	99.266923 
3436.000000	99.263539 
3435.000000	99.258980 
3434.000000	99.256154 
3433.000000	99.257032 
3432.000000	99.261276 
3431.000000	99.266669 
3430.000000	99.270456 
3429.000000	99.270912 
3428.000000	99.268293 
3427.000000	99.264385 
3426.000000	99.261088 
3425.000000	99.259435 
3424.000000	99.259666 
3423.000000	99.261506 
3422.000000	99.263971 
3421.000000	99.265339 
3420.000000	99.264086 
3419.000000	99.260228 
3418.000000	99.255625 
3417.000000	99.252729 
3416.000000	99.252755 
3415.000000	99.254836 
3414.000000	99.256934 
3413.000000	99.257682 
3412.000000	99.257334 
3411.000000	99.257083 
3410.000000	99.257854 
3409.000000	99.259732 
3408.000000	99.261925 
3407.000000	99.262890 
3406.000000	99.261235 
3405.000000	99.257281 
3404.000000	99.253575 
3403.000000	99.253141 
3402.000000	99.256917 
3401.000000	99.263011 
3400.000000	99.268352 
3399.000000	99.271083 
3398.000000	99.271721 
3397.000000	99.272157 
3396.000000	99.273260 
3395.000000	99.273702 
3394.000000	99.271720 
3393.000000	99.267883 
3392.000000	99.265058 
3391.000000	99.265210 
3390.000000	99.267182 
3389.000000	99.268353 
3388.000000	99.267638 
3387.000000	99.265946 
3386.000000	99.264387 
3385.000000	99.263216 
3384.000000	99.262346 
3383.000000	99.261799 
3382.000000	99.261371 
3381.000000	99.260612 
3380.000000	99.259360 
3379.000000	99.258030 
3378.000000	99.257283 
3377.000000	99.257737 
3376.000000	99.259837 
3375.000000	99.263565 
3374.000000	99.268159 
3373.000000	99.272325 
3372.000000	99.274859 
3371.000000	99.275185 
3370.000000	99.273695 
3369.000000	99.271749 
3368.000000	99.270865 
3367.000000	99.271325 
3366.000000	99.271712 
3365.000000	99.270371 
3364.000000	99.267381 
3363.000000	99.264612 
3362.000000	99.263692 
3361.000000	99.264256 
3360.000000	99.264478 
3359.000000	99.263239 
3358.000000	99.261549 
3357.000000	99.261583 
3356.000000	99.264168 
3355.000000	99.267487 
3354.000000	99.268816 
3353.000000	99.267569 
3352.000000	99.266075 
3351.000000	99.267158 
3350.000000	99.271478 
3349.000000	99.277443 
3348.000000	99.282929 
3347.000000	99.286430 
3346.000000	99.287216 
3345.000000	99.285570 
3344.000000	99.282787 
3343.000000	99.280113 
3342.000000	99.277592 
3341.000000	99.274682 
3340.000000	99.271811 
3339.000000	99.270286 
3338.000000	99.270303 
3337.000000	99.269978 
3336.000000	99.267219 
3335.000000	99.262382 
3334.000000	99.258436 
3333.000000	99.258394 
3332.000000	99.262600 
3331.000000	99.268349 
3330.000000	99.272148 
3329.000000	99.272708 
3328.000000	99.271843 
3327.000000	99.272180 
3326.000000	99.274109 
3325.000000	99.275590 
3324.000000	99.274994 
3323.000000	99.273316 
3322.000000	99.272882 
3321.000000	99.274266 
3320.000000	99.275264 
3319.000000	99.273245 
3318.000000	99.268323 
3317.000000	99.263874 
3316.000000	99.263677 
3315.000000	99.268328 
3314.000000	99.274452 
3313.000000	99.277724 
3312.000000	99.276770 
3311.000000	99.274012 
3310.000000	99.272804 
3309.000000	99.274207 
3308.000000	99.276790 
3307.000000	99.278898 
3306.000000	99.280209 
3305.000000	99.280989 
3304.000000	99.280755 
3303.000000	99.278610 
3302.000000	99.274855 
3301.000000	99.271518 
3300.000000	99.270643 
3299.000000	99.272241 
3298.000000	99.274350 
3297.000000	99.275139 
3296.000000	99.274580 
3295.000000	99.274070 
3294.000000	99.274925 
3293.000000	99.277535 
3292.000000	99.281382 
3291.000000	99.285274 
3290.000000	99.287713 
3289.000000	99.287755 
3288.000000	99.285845 
3287.000000	99.283595 
3286.000000	99.282510 
3285.000000	99.282981 
3284.000000	99.284380 
3283.000000	99.285745 
3282.000000	99.286316 
3281.000000	99.285677 
3280.000000	99.283790 
3279.000000	99.281088 
3278.000000	99.278437 
3277.000000	99.276704 
3276.000000	99.276174 
3275.000000	99.276465 
3274.000000	99.277068 
3273.000000	99.277698 
3272.000000	99.277859 
3271.000000	99.276519 
3270.000000	99.273009 
3269.000000	99.268384 
3268.000000	99.265284 
3267.000000	99.265977 
3266.000000	99.270630 
3265.000000	99.277498 
3264.000000	99.284296 
3263.000000	99.289377 
3262.000000	99.292379 
3261.000000	99.294159 
3260.000000	99.295622 
3259.000000	99.296278 
3258.000000	99.294460 
3257.000000	99.289244 
3256.000000	99.281761 
3255.000000	99.274346 
3254.000000	99.269004 
3253.000000	99.267031 
3252.000000	99.269005 
3251.000000	99.273961 
3250.000000	99.278993 
3249.000000	99.281111 
3248.000000	99.279810 
3247.000000	99.277115 
3246.000000	99.275007 
3245.000000	99.273630 
3244.000000	99.272394 
3243.000000	99.272041 
3242.000000	99.274694 
3241.000000	99.281623 
3240.000000	99.291096 
3239.000000	99.298777 
3238.000000	99.300796 
3237.000000	99.296775 
3236.000000	99.289768 
3235.000000	99.283215 
3234.000000	99.278505 
3233.000000	99.275720 
3232.000000	99.275525 
3231.000000	99.278820 
3230.000000	99.284598 
3229.000000	99.289531 
3228.000000	99.290379 
3227.000000	99.286386 
3226.000000	99.279247 
3225.000000	99.271636 
3224.000000	99.266091 
3223.000000	99.264246 
3222.000000	99.266093 
3221.000000	99.270086 
3220.000000	99.274423 
3219.000000	99.278114 
3218.000000	99.280699 
3217.000000	99.281633 
3216.000000	99.280790 
3215.000000	99.279337 
3214.000000	99.279084 
3213.000000	99.280644 
3212.000000	99.282847 
3211.000000	99.284296 
3210.000000	99.285047 
3209.000000	99.286300 
3208.000000	99.288657 
3207.000000	99.291228 
3206.000000	99.292698 
3205.000000	99.292969 
3204.000000	99.293386 
3203.000000	99.295332 
3202.000000	99.298946 
3201.000000	99.303278 
3200.000000	99.307114 
3199.000000	99.309204 
3198.000000	99.308335 
3197.000000	99.304390 
3196.000000	99.299443 
3195.000000	99.296543 
3194.000000	99.296578 
3193.000000	99.297072 
3192.000000	99.295043 
3191.000000	99.290708 
3190.000000	99.287357 
3189.000000	99.287703 
3188.000000	99.291337 
3187.000000	99.295838 
3186.000000	99.299223 
3185.000000	99.300683 
3184.000000	99.299941 
3183.000000	99.297090 
3182.000000	99.292964 
3181.000000	99.288837 
3180.000000	99.285630 
3179.000000	99.283695 
3178.000000	99.283068 
3177.000000	99.283317 
3176.000000	99.283367 
3175.000000	99.282472 
3174.000000	99.281710 
3173.000000	99.283627 
3172.000000	99.289423 
3171.000000	99.296732 
3170.000000	99.301245 
3169.000000	99.300964 
3168.000000	99.298225 
3167.000000	99.297001 
3166.000000	99.298720 
3165.000000	99.301384 
3164.000000	99.302569 
3163.000000	99.302234 
3162.000000	99.302229 
3161.000000	99.303820 
3160.000000	99.306521 
3159.000000	99.308964 
3158.000000	99.310054 
3157.000000	99.309319 
3156.000000	99.307022 
3155.000000	99.304364 
3154.000000	99.303045 
3153.000000	99.304063 
3152.000000	99.306795 
3151.000000	99.309331 
3150.000000	99.309798 
3149.000000	99.307767 
3148.000000	99.304833 
3147.000000	99.303632 
3146.000000	99.305543 
3145.000000	99.309113 
3144.000000	99.311377 
3143.000000	99.311164 
3142.000000	99.310597 
3141.000000	99.312668 
3140.000000	99.317525 
3139.000000	99.321992 
3138.000000	99.323005 
3137.000000	99.320915 
3136.000000	99.318815 
3135.000000	99.318911 
3134.000000	99.320211 
3133.000000	99.319994 
3132.000000	99.317101 
3131.000000	99.313228 
3130.000000	99.310914 
3129.000000	99.310862 
3128.000000	99.311702 
3127.000000	99.312058 
3126.000000	99.312005 
3125.000000	99.312372 
3124.000000	99.313402 
3123.000000	99.314590 
3122.000000	99.315506 
3121.000000	99.316342 
3120.000000	99.317645 
3119.000000	99.319573 
3118.000000	99.321298 
3117.000000	99.321233 
3116.000000	99.318410 
3115.000000	99.313815 
3114.000000	99.309747 
3113.000000	99.307495 
3112.000000	99.306292 
3111.000000	99.305057 
3110.000000	99.304287 
3109.000000	99.305083 
3108.000000	99.306781 
3107.000000	99.307045 
3106.000000	99.304650 
3105.000000	99.301270 
3104.000000	99.299999 
3103.000000	99.302706 
3102.000000	99.309119 
3101.000000	99.317594 
3100.000000	99.325787 
3099.000000	99.330965 
3098.000000	99.331170 
3097.000000	99.326918 
3096.000000	99.321370 
3095.000000	99.318165 
3094.000000	99.318914 
3093.000000	99.322590 
3092.000000	99.326733 
3091.000000	99.328965 
3090.000000	99.328067 
3089.000000	99.324711 
3088.000000	99.321283 
3087.000000	99.320207 
3086.000000	99.321825 
3085.000000	99.324128 
3084.000000	99.324917 
3083.000000	99.323944 
3082.000000	99.322687 
3081.000000	99.322430 
3080.000000	99.323187 
3079.000000	99.324255 
3078.000000	99.324924 
3077.000000	99.324389 
3076.000000	99.321871 
3075.000000	99.317626 
3074.000000	99.313423 
3073.000000	99.311398 
3072.000000	99.312533 
3071.000000	99.316523 
3070.000000	99.322439 
3069.000000	99.328484 
3068.000000	99.331474 
3067.000000	99.328312 
3066.000000	99.319167 
3065.000000	99.308596 
3064.000000	99.302321 
3063.000000	99.302565 
3062.000000	99.306869 
3061.000000	99.311174 
3060.000000	99.313457 
3059.000000	99.314484 
3058.000000	99.315878 
3057.000000	99.318009 
3056.000000	99.319656 
3055.000000	99.319405 
3054.000000	99.317186 
3053.000000	99.314359 
3052.000000	99.312465 
3051.000000	99.312170 
3050.000000	99.313308 
3049.000000	99.315187 
3048.000000	99.316309 
3047.000000	99.314504 
3046.000000	99.308598 
3045.000000	99.300185 
3044.000000	99.292857 
3043.000000	99.289136 
3042.000000	99.288477 
3041.000000	99.288425 
3040.000000	99.287171 
3039.000000	99.284632 
3038.000000	99.281597 
3037.000000	99.278548 
3036.000000	99.275297 
3035.000000	99.271291 
3034.000000	99.266155 
3033.000000	99.260004 
3032.000000	99.253168 
3031.000000	99.245604 
3030.000000	99.236802 
3029.000000	99.226358 
3028.000000	99.214563 
3027.000000	99.202391 
3026.000000	99.190990 
3025.000000	99.181015 
3024.000000	99.172035 
3023.000000	99.162443 
3022.000000	99.150419 
3021.000000	99.135527 
3020.000000	99.119468 
3019.000000	99.105009 
3018.000000	99.093937 
3017.000000	99.085811 
3016.000000	99.078364 
3015.000000	99.069003 
3014.000000	99.056199 
3013.000000	99.039811 
3012.000000	99.020300 
3011.000000	98.997958 
3010.000000	98.973245 
3009.000000	98.947738 
3008.000000	98.924153 
3007.000000	98.905035 
3006.000000	98.891373 
3005.000000	98.882072 
3004.000000	98.874089 
3003.000000	98.863359 
3002.000000	98.847088 
3001.000000	98.826339 
3000.000000	98.805783 
2999.000000	98.789642 
2998.000000	98.778049 
2997.000000	98.768302 
2996.000000	98.758997 
2995.000000	98.750676 
2994.000000	98.741558 
2993.000000	98.725227 
2992.000000	98.695900 
2991.000000	98.656438 
2990.000000	98.618944 
2989.000000	98.595715 
2988.000000	98.589868 
2987.000000	98.595294 
2986.000000	98.604304 
2985.000000	98.613591 
2984.000000	98.623236 
2983.000000	98.632735 
2982.000000	98.639880 
2981.000000	98.642847 
2980.000000	98.641988 
2979.000000	98.639315 
2978.000000	98.636850 
2977.000000	98.635471 
2976.000000	98.634669 
2975.000000	98.633191 
2974.000000	98.630342 
2973.000000	98.626899 
2972.000000	98.624568 
2971.000000	98.624563 
2970.000000	98.627078 
2969.000000	98.632066 
2968.000000	98.639893 
2967.000000	98.650812 
2966.000000	98.664125 
2965.000000	98.678302 
2964.000000	98.691886 
2963.000000	98.704132 
2962.000000	98.714999 
2961.000000	98.724921 
2960.000000	98.734616 
2959.000000	98.744872 
2958.000000	98.756241 
2957.000000	98.768596 
2956.000000	98.780644 
2955.000000	98.790070 
2954.000000	98.795189 
2953.000000	98.797299 
2952.000000	98.801016 
2951.000000	98.810913 
2950.000000	98.827042 
2949.000000	98.844130 
2948.000000	98.855794 
2947.000000	98.859529 
2946.000000	98.857598 
2945.000000	98.853923 
2944.000000	98.851238 
2943.000000	98.850855 
2942.000000	98.853286 
2941.000000	98.857732 
2940.000000	98.861627 
2939.000000	98.862212 
2938.000000	98.859021 
2937.000000	98.854396 
2936.000000	98.851573 
2935.000000	98.852605 
2934.000000	98.857606 
2933.000000	98.864755 
2932.000000	98.870777 
2931.000000	98.872522 
2930.000000	98.869008 
2929.000000	98.861778 
2928.000000	98.853174 
2927.000000	98.844834 
2926.000000	98.837886 
2925.000000	98.833334 
2924.000000	98.831343 
2923.000000	98.830856 
2922.000000	98.830850 
2921.000000	98.831480 
2920.000000	98.833102 
2919.000000	98.834756 
2918.000000	98.834771 
2917.000000	98.832659 
2916.000000	98.829369 
2915.000000	98.825774 
2914.000000	98.821987 
2913.000000	98.818212 
2912.000000	98.815058 
2911.000000	98.812482 
2910.000000	98.809312 
2909.000000	98.804528 
2908.000000	98.798448 
2907.000000	98.791999 
2906.000000	98.785052 
2905.000000	98.776019 
2904.000000	98.763349 
2903.000000	98.747868 
2902.000000	98.734265 
2901.000000	98.729566 
2900.000000	98.738475 
2899.000000	98.758868 
2898.000000	98.782060 
2897.000000	98.799082 
2896.000000	98.807169 
2895.000000	98.810577 
2894.000000	98.815501 
2893.000000	98.824449 
2892.000000	98.834956 
2891.000000	98.842734 
2890.000000	98.845705 
2889.000000	98.845425 
2888.000000	98.845073 
2887.000000	98.846400 
2886.000000	98.848885 
2885.000000	98.851584 
2884.000000	98.855048 
2883.000000	98.860992 
2882.000000	98.870476 
2881.000000	98.882975 
2880.000000	98.897109 
2879.000000	98.911811 
2878.000000	98.926624 
2877.000000	98.941058 
2876.000000	98.953798 
2875.000000	98.962851 
2874.000000	98.967027 
2873.000000	98.967628 
2872.000000	98.968259 
2871.000000	98.972370 
2870.000000	98.980806 
2869.000000	98.991722 
2868.000000	99.002716 
2867.000000	99.013001 
2866.000000	99.023907 
2865.000000	99.037445 
2864.000000	99.053922 
2863.000000	99.070659 
2862.000000	99.083657 
2861.000000	99.091263 
2860.000000	99.096010 
2859.000000	99.102219 
2858.000000	99.111880 
2857.000000	99.123488 
2856.000000	99.134562 
2855.000000	99.144310 
2854.000000	99.153561 
2853.000000	99.162940 
2852.000000	99.172027 
2851.000000	99.180276 
2850.000000	99.188111 
2849.000000	99.196624 
2848.000000	99.206130 
2847.000000	99.215328 
2846.000000	99.222215 
2845.000000	99.225878 
2844.000000	99.227277 
2843.000000	99.228395 
2842.000000	99.230959 
2841.000000	99.235694 
2840.000000	99.241955 
2839.000000	99.247645 
2838.000000	99.250233 
2837.000000	99.248791 
2836.000000	99.245162 
2835.000000	99.242799 
2834.000000	99.244410 
2833.000000	99.250556 
2832.000000	99.259744 
2831.000000	99.269285 
2830.000000	99.276619 
2829.000000	99.280815 
2828.000000	99.283020 
2827.000000	99.284938 
2826.000000	99.286900 
2825.000000	99.287853 
2824.000000	99.287155 
2823.000000	99.285779 
2822.000000	99.285545 
2821.000000	99.287511 
2820.000000	99.291189 
2819.000000	99.295096 
2818.000000	99.298033 
2817.000000	99.299986 
2816.000000	99.301674 
2815.000000	99.303240 
2814.000000	99.303950 
2813.000000	99.303535 
2812.000000	99.303100 
2811.000000	99.303828 
2810.000000	99.305259 
2809.000000	99.305961 
2808.000000	99.305778 
2807.000000	99.306209 
2806.000000	99.308306 
2805.000000	99.311321 
2804.000000	99.313969 
2803.000000	99.316081 
2802.000000	99.318253 
2801.000000	99.320484 
2800.000000	99.322003 
2799.000000	99.322234 
2798.000000	99.321370 
2797.000000	99.320131 
2796.000000	99.319284 
2795.000000	99.319175 
2794.000000	99.319413 
2793.000000	99.319166 
2792.000000	99.318003 
2791.000000	99.316340 
2790.000000	99.315092 
2789.000000	99.315248 
2788.000000	99.317613 
2787.000000	99.322148 
2786.000000	99.327360 
2785.000000	99.331129 
2784.000000	99.332615 
2783.000000	99.332688 
2782.000000	99.332219 
2781.000000	99.330922 
2780.000000	99.328641 
2779.000000	99.326781 
2778.000000	99.327134 
2777.000000	99.329613 
2776.000000	99.332239 
2775.000000	99.333264 
2774.000000	99.332425 
2773.000000	99.330357 
2772.000000	99.327958 
2771.000000	99.326440 
2770.000000	99.326949 
2769.000000	99.329613 
2768.000000	99.333512 
2767.000000	99.337626 
2766.000000	99.341235 
2765.000000	99.343510 
2764.000000	99.343812 
2763.000000	99.342750 
2762.000000	99.342073 
2761.000000	99.343010 
2760.000000	99.345257 
2759.000000	99.347773 
2758.000000	99.349836 
2757.000000	99.351071 
2756.000000	99.351422 
2755.000000	99.351602 
2754.000000	99.352646 
2753.000000	99.354257 
2752.000000	99.354430 
2751.000000	99.351673 
2750.000000	99.347025 
2749.000000	99.342896 
2748.000000	99.340328 
2747.000000	99.338497 
2746.000000	99.336664 
2745.000000	99.335380 
2744.000000	99.335531 
2743.000000	99.337111 
2742.000000	99.339372 
2741.000000	99.341693 
2740.000000	99.343994 
2739.000000	99.346629 
2738.000000	99.349946 
2737.000000	99.353628 
2736.000000	99.356528 
2735.000000	99.357563 
2734.000000	99.356752 
2733.000000	99.354991 
2732.000000	99.353013 
2731.000000	99.351141 
2730.000000	99.349894 
2729.000000	99.350040 
2728.000000	99.351855 
2727.000000	99.354842 
2726.000000	99.358196 
2725.000000	99.361077 
2724.000000	99.362633 
2723.000000	99.362670 
2722.000000	99.362382 
2721.000000	99.363446 
2720.000000	99.365975 
2719.000000	99.368101 
2718.000000	99.368020 
2717.000000	99.365866 
2716.000000	99.363391 
2715.000000	99.362517 
2714.000000	99.364358 
2713.000000	99.368497 
2712.000000	99.372525 
2711.000000	99.373469 
2710.000000	99.370883 
2709.000000	99.367858 
2708.000000	99.367700 
2707.000000	99.369996 
2706.000000	99.371218 
2705.000000	99.369121 
2704.000000	99.365204 
2703.000000	99.362557 
2702.000000	99.362459 
2701.000000	99.363709 
2700.000000	99.364553 
2699.000000	99.364405 
2698.000000	99.363804 
2697.000000	99.363330 
2696.000000	99.362992 
2695.000000	99.362819 
2694.000000	99.363690 
2693.000000	99.366643 
2692.000000	99.370862 
2691.000000	99.373298 
2690.000000	99.371633 
2689.000000	99.367551 
2688.000000	99.365627 
2687.000000	99.368463 
2686.000000	99.373807 
2685.000000	99.377131 
2684.000000	99.376358 
2683.000000	99.373381 
2682.000000	99.371445 
2681.000000	99.372004 
2680.000000	99.374032 
2679.000000	99.375572 
2678.000000	99.375580 
2677.000000	99.374575 
2676.000000	99.373855 
2675.000000	99.374142 
2674.000000	99.375014 
2673.000000	99.375568 
2672.000000	99.375402 
2671.000000	99.374717 
2670.000000	99.373499 
2669.000000	99.371014 
2668.000000	99.366622 
2667.000000	99.361284 
2666.000000	99.357797 
2665.000000	99.358756 
2664.000000	99.364029 
2663.000000	99.370726 
2662.000000	99.375829 
2661.000000	99.378366 
2660.000000	99.378798 
2659.000000	99.377352 
2658.000000	99.374105 
2657.000000	99.370273 
2656.000000	99.368041 
2655.000000	99.368669 
2654.000000	99.371411 
2653.000000	99.374384 
2652.000000	99.375872 
2651.000000	99.374894 
2650.000000	99.371646 
2649.000000	99.367809 
2648.000000	99.365517 
2647.000000	99.365409 
2646.000000	99.366155 
2645.000000	99.366228 
2644.000000	99.365482 
2643.000000	99.364683 
2642.000000	99.364296 
2641.000000	99.364395 
2640.000000	99.365225 
2639.000000	99.367192 
2638.000000	99.370475 
2637.000000	99.374791 
2636.000000	99.378997 
2635.000000	99.380907 
2634.000000	99.378657 
2633.000000	99.372941 
2632.000000	99.367073 
2631.000000	99.364032 
2630.000000	99.364052 
2629.000000	99.365561 
2628.000000	99.367345 
2627.000000	99.368806 
2626.000000	99.369173 
2625.000000	99.368166 
2624.000000	99.367058 
2623.000000	99.367550 
2622.000000	99.369567 
2621.000000	99.371306 
2620.000000	99.371457 
2619.000000	99.370197 
2618.000000	99.368077 
2617.000000	99.365299 
2616.000000	99.362517 
2615.000000	99.361127 
2614.000000	99.361906 
2613.000000	99.363883 
2612.000000	99.365190 
2611.000000	99.364928 
2610.000000	99.363964 
2609.000000	99.363942 
2608.000000	99.365444 
2607.000000	99.367255 
2606.000000	99.367961 
2605.000000	99.368313 
2604.000000	99.370725 
2603.000000	99.375596 
2602.000000	99.379501 
2601.000000	99.378859 
2600.000000	99.374839 
2599.000000	99.372534 
2598.000000	99.375093 
2597.000000	99.380360 
2596.000000	99.383563 
2595.000000	99.381686 
2594.000000	99.374946 
2593.000000	99.366168 
2592.000000	99.359822 
2591.000000	99.359840 
2590.000000	99.366489 
2589.000000	99.375889 
2588.000000	99.383565 
2587.000000	99.387703 
2586.000000	99.388304 
2585.000000	99.384943 
2584.000000	99.377486 
2583.000000	99.368356 
2582.000000	99.361733 
2581.000000	99.359750 
2580.000000	99.360399 
2579.000000	99.359571 
2578.000000	99.354804 
2577.000000	99.347436 
2576.000000	99.341957 
2575.000000	99.342870 
2574.000000	99.350844 
2573.000000	99.361558 
2572.000000	99.369006 
2571.000000	99.370225 
2570.000000	99.366731 
2569.000000	99.362205 
2568.000000	99.359785 
2567.000000	99.360831 
2566.000000	99.364401 
2565.000000	99.367548 
2564.000000	99.367589 
2563.000000	99.364716 
2562.000000	99.361508 
2561.000000	99.359861 
2560.000000	99.359784 
2559.000000	99.361240 
2558.000000	99.364748 
2557.000000	99.368850 
2556.000000	99.369337 
2555.000000	99.363825 
2554.000000	99.356268 
2553.000000	99.354026 
2552.000000	99.359977 
2551.000000	99.369642 
2550.000000	99.376503 
2549.000000	99.377957 
2548.000000	99.375137 
2547.000000	99.369527 
2546.000000	99.362327 
2545.000000	99.356085 
2544.000000	99.354076 
2543.000000	99.357411 
2542.000000	99.364152 
2541.000000	99.371578 
2540.000000	99.378009 
2539.000000	99.382137 
2538.000000	99.382226 
2537.000000	99.377370 
2536.000000	99.369171 
2535.000000	99.361172 
2534.000000	99.356514 
2533.000000	99.356218 
2532.000000	99.359244 
2531.000000	99.363700 
2530.000000	99.368202 
2529.000000	99.372504 
2528.000000	99.376878 
2527.000000	99.381001 
2526.000000	99.383958 
2525.000000	99.385479 
2524.000000	99.386475 
2523.000000	99.387692 
2522.000000	99.388253 
2521.000000	99.386396 
2520.000000	99.381795 
2519.000000	99.376539 
2518.000000	99.373315 
2517.000000	99.372781 
2516.000000	99.373106 
2515.000000	99.372370 
2514.000000	99.371098 
2513.000000	99.371617 
2512.000000	99.374567 
2511.000000	99.377045 
2510.000000	99.375653 
2509.000000	99.371228 
2508.000000	99.368669 
2507.000000	99.371095 
2506.000000	99.375521 
2505.000000	99.375889 
2504.000000	99.369787 
2503.000000	99.360587 
2502.000000	99.353264 
2501.000000	99.350115 
2500.000000	99.351071 
2499.000000	99.356127 
2498.000000	99.365417 
2497.000000	99.377198 
2496.000000	99.387408 
2495.000000	99.391946 
2494.000000	99.389243 
2493.000000	99.380779 
2492.000000	99.369779 
2491.000000	99.359562 
2490.000000	99.352466 
2489.000000	99.349459 
2488.000000	99.350219 
2487.000000	99.353553 
2486.000000	99.358161 
2485.000000	99.363434 
2484.000000	99.369414 
2483.000000	99.375542 
2482.000000	99.379654 
2481.000000	99.379272 
2480.000000	99.374426 
2479.000000	99.368297 
2478.000000	99.364095 
2477.000000	99.361777 
2476.000000	99.358990 
2475.000000	99.354994 
2474.000000	99.352085 
2473.000000	99.352657 
2472.000000	99.356224 
2471.000000	99.360408 
2470.000000	99.363802 
2469.000000	99.366361 
2468.000000	99.367491 
2467.000000	99.365805 
2466.000000	99.361534 
2465.000000	99.357886 
2464.000000	99.358510 
2463.000000	99.363577 
2462.000000	99.369085 
2461.000000	99.370365 
2460.000000	99.366253 
2459.000000	99.359958 
2458.000000	99.356066 
2457.000000	99.356600 
2456.000000	99.359678 
2455.000000	99.361667 
2454.000000	99.360322 
2453.000000	99.355890 
2452.000000	99.349966 
2451.000000	99.344223 
2450.000000	99.340166 
2449.000000	99.338969 
2448.000000	99.340771 
2447.000000	99.344493 
2446.000000	99.348801 
2445.000000	99.353042 
2444.000000	99.357053 
2443.000000	99.360556 
2442.000000	99.363183 
2441.000000	99.364760 
2440.000000	99.365080 
2439.000000	99.363734 
2438.000000	99.360836 
2437.000000	99.357766 
2436.000000	99.356368 
2435.000000	99.356899 
2434.000000	99.357125 
2433.000000	99.354143 
2432.000000	99.347606 
2431.000000	99.340989 
2430.000000	99.338959 
2429.000000	99.343103 
2428.000000	99.350713 
2427.000000	99.358069 
2426.000000	99.363832 
2425.000000	99.368051 
2424.000000	99.369059 
2423.000000	99.364170 
2422.000000	99.354152 
2421.000000	99.344648 
2420.000000	99.341283 
2419.000000	99.344378 
2418.000000	99.349737 
2417.000000	99.353467 
2416.000000	99.354459 
2415.000000	99.353341 
2414.000000	99.351392 
2413.000000	99.350366 
2412.000000	99.351273 
2411.000000	99.352817 
2410.000000	99.352507 
2409.000000	99.349782 
2408.000000	99.346881 
2407.000000	99.346284 
2406.000000	99.348373 
2405.000000	99.351835 
2404.000000	99.355045 
2403.000000	99.356586 
2402.000000	99.355617 
2401.000000	99.352542 
2400.000000	99.348677 
2399.000000	99.344811 
2398.000000	99.340867 
2397.000000	99.337284 
2396.000000	99.335754 
2395.000000	99.337863 
2394.000000	99.343463 
2393.000000	99.350764 
2392.000000	99.357547 
2391.000000	99.362233 
2390.000000	99.364666 
2389.000000	99.366244 
2388.000000	99.368494 
2387.000000	99.371129 
2386.000000	99.372298 
2385.000000	99.371141 
2384.000000	99.369240 
2383.000000	99.368974 
2382.000000	99.371196 
2381.000000	99.374994 
2380.000000	99.378578 
2379.000000	99.379458 
2378.000000	99.375033 
2377.000000	99.365267 
2376.000000	99.354921 
2375.000000	99.350759 
2374.000000	99.355281 
2373.000000	99.364235 
2372.000000	99.371705 
2371.000000	99.376810 
2370.000000	99.383109 
2369.000000	99.391387 
2368.000000	99.395866 
2367.000000	99.390018 
2366.000000	99.375388 
2365.000000	99.362289 
2364.000000	99.360770 
2363.000000	99.370857 
2362.000000	99.382596 
2361.000000	99.386848 
2360.000000	99.383014 
2359.000000	99.377056 
2358.000000	99.375541 
2357.000000	99.380002 
2356.000000	99.387483 
2355.000000	99.392825 
2354.000000	99.391718 
2353.000000	99.384913 
2352.000000	99.377926 
2351.000000	99.377237 
2350.000000	99.382757 
2349.000000	99.388359 
2348.000000	99.389367 
2347.000000	99.385385 
2346.000000	99.379810 
2345.000000	99.374602 
2344.000000	99.371091 
2343.000000	99.371248 
2342.000000	99.375629 
2341.000000	99.382768 
2340.000000	99.387442 
2339.000000	99.386311 
2338.000000	99.380688 
2337.000000	99.375410 
2336.000000	99.373711 
2335.000000	99.375040 
2334.000000	99.376628 
2333.000000	99.377049 
2332.000000	99.376139 
2331.000000	99.374125 
2330.000000	99.370224 
2329.000000	99.364528 
2328.000000	99.360336 
2327.000000	99.359619 
2326.000000	99.362064 
2325.000000	99.363260 
2324.000000	99.360832 
2323.000000	99.357183 
2322.000000	99.357820 
2321.000000	99.365876 
2320.000000	99.376821 
2319.000000	99.383519 
2318.000000	99.382870 
2317.000000	99.379269 
2316.000000	99.378336 
2315.000000	99.381006 
2314.000000	99.383925 
2313.000000	99.384203 
2312.000000	99.382197 
2311.000000	99.379510 
2310.000000	99.377985 
2309.000000	99.378598 
2308.000000	99.381012 
2307.000000	99.382318 
2306.000000	99.380023 
2305.000000	99.374624 
2304.000000	99.368660 
2303.000000	99.362545 
2302.000000	99.354812 
2301.000000	99.346093 
2300.000000	99.339883 
2299.000000	99.337743 
2298.000000	99.337471 
2297.000000	99.337263 
2296.000000	99.339343 
2295.000000	99.345536 
2294.000000	99.352509 
2293.000000	99.354095 
2292.000000	99.348820 
2291.000000	99.341001 
2290.000000	99.335291 
2289.000000	99.332182 
2288.000000	99.329602 
2287.000000	99.326107 
2286.000000	99.321779 
2285.000000	99.317549 
2284.000000	99.314512 
2283.000000	99.312885 
2282.000000	99.311111 
2281.000000	99.307167 
2280.000000	99.301158 
2279.000000	99.296097 
2278.000000	99.295487 
2277.000000	99.300345 
2276.000000	99.308176 
2275.000000	99.314805 
2274.000000	99.317414 
2273.000000	99.315790 
2272.000000	99.310390 
2271.000000	99.300538 
2270.000000	99.287241 
2269.000000	99.277194 
2268.000000	99.279525 
2267.000000	99.295882 
2266.000000	99.316254 
2265.000000	99.327608 
2264.000000	99.325724 
2263.000000	99.316949 
2262.000000	99.310908 
2261.000000	99.313619 
2260.000000	99.324651 
2259.000000	99.336791 
2258.000000	99.340070 
2257.000000	99.330697 
2256.000000	99.315804 
2255.000000	99.306266 
2254.000000	99.305350 
2253.000000	99.307842 
2252.000000	99.309268 
2251.000000	99.311238 
2250.000000	99.317094 
2249.000000	99.326274 
2248.000000	99.334760 
2247.000000	99.338336 
2246.000000	99.334230 
2245.000000	99.322088 
2244.000000	99.305084 
2243.000000	99.288957 
2242.000000	99.278735 
2241.000000	99.276143 
2240.000000	99.279138 
2239.000000	99.282925 
2238.000000	99.282542 
2237.000000	99.276293 
2236.000000	99.266253 
2235.000000	99.254631 
2234.000000	99.241757 
2233.000000	99.229611 
2232.000000	99.224439 
2231.000000	99.231880 
2230.000000	99.250380 
2229.000000	99.272696 
2228.000000	99.292963 
2227.000000	99.308734 
2226.000000	99.317187 
2225.000000	99.314853 
2224.000000	99.302540 
2223.000000	99.286849 
2222.000000	99.275206 
2221.000000	99.271189 
2220.000000	99.274339 
2219.000000	99.281563 
2218.000000	99.288706 
2217.000000	99.293947 
2216.000000	99.300137 
2215.000000	99.310687 
2214.000000	99.322683 
2213.000000	99.327290 
2212.000000	99.318465 
2211.000000	99.299463 
2210.000000	99.280369 
2209.000000	99.270679 
2208.000000	99.273124 
2207.000000	99.281899 
2206.000000	99.287033 
2205.000000	99.282834 
2204.000000	99.272167 
2203.000000	99.261416 
2202.000000	99.253539 
2201.000000	99.248327 
2200.000000	99.245912 
2199.000000	99.245293 
2198.000000	99.241836 
2197.000000	99.232376 
2196.000000	99.222289 
2195.000000	99.221757 
2194.000000	99.234459 
2193.000000	99.253990 
2192.000000	99.270779 
2191.000000	99.277790 
2190.000000	99.270864 
2189.000000	99.251259 
2188.000000	99.229322 
2187.000000	99.218891 
2186.000000	99.225202 
2185.000000	99.241920 
2184.000000	99.260170 
2183.000000	99.274957 
2182.000000	99.282546 
2181.000000	99.280104 
2180.000000	99.271514 
2179.000000	99.266417 
2178.000000	99.268999 
2177.000000	99.272327 
2176.000000	99.267158 
2175.000000	99.252525 
2174.000000	99.234845 
2173.000000	99.220532 
2172.000000	99.212250 
2171.000000	99.209230 
2170.000000	99.209207 
2169.000000	99.212478 
2168.000000	99.223536 
2167.000000	99.243777 
2166.000000	99.263023 
2165.000000	99.266246 
2164.000000	99.251635 
2163.000000	99.234336 
2162.000000	99.228730 
2161.000000	99.234128 
2160.000000	99.241073 
2159.000000	99.243785 
2158.000000	99.241467 
2157.000000	99.236023 
2156.000000	99.234505 
2155.000000	99.244948 
2154.000000	99.263626 
2153.000000	99.273983 
2152.000000	99.264958 
2151.000000	99.245168 
2150.000000	99.233352 
2149.000000	99.239605 
2148.000000	99.260349 
2147.000000	99.285632 
2146.000000	99.304460 
2145.000000	99.308141 
2144.000000	99.297337 
2143.000000	99.283884 
2142.000000	99.279291 
2141.000000	99.282741 
2140.000000	99.284978 
2139.000000	99.281482 
2138.000000	99.275912 
2137.000000	99.272538 
2136.000000	99.272121 
2135.000000	99.275516 
2134.000000	99.285162 
2133.000000	99.300305 
2132.000000	99.313969 
2131.000000	99.317091 
2130.000000	99.305694 
2129.000000	99.285099 
2128.000000	99.267532 
2127.000000	99.262769 
2126.000000	99.269159 
2125.000000	99.275922 
2124.000000	99.276248 
2123.000000	99.275095 
2122.000000	99.280724 
2121.000000	99.291866 
2120.000000	99.298857 
2119.000000	99.296367 
2118.000000	99.289199 
2117.000000	99.284699 
2116.000000	99.284474 
2115.000000	99.285775 
2114.000000	99.287122 
2113.000000	99.289067 
2112.000000	99.291189 
2111.000000	99.291581 
2110.000000	99.289524 
2109.000000	99.286980 
2108.000000	99.286519 
2107.000000	99.287651 
2106.000000	99.285525 
2105.000000	99.274641 
2104.000000	99.255210 
2103.000000	99.235201 
2102.000000	99.224431 
2101.000000	99.226320 
2100.000000	99.235968 
2099.000000	99.245839 
2098.000000	99.252350 
2097.000000	99.257449 
2096.000000	99.264784 
2095.000000	99.273621 
2094.000000	99.276258 
2093.000000	99.264061 
2092.000000	99.238219 
2091.000000	99.212465 
2090.000000	99.202066 
2089.000000	99.209965 
2088.000000	99.225527 
2087.000000	99.236482 
2086.000000	99.239374 
2085.000000	99.238944 
2084.000000	99.241198 
2083.000000	99.248218 
2082.000000	99.257159 
2081.000000	99.262390 
2080.000000	99.259863 
2079.000000	99.250706 
2078.000000	99.240573 
2077.000000	99.235876 
2076.000000	99.240879 
2075.000000	99.256162 
2074.000000	99.276850 
2073.000000	99.293322 
2072.000000	99.297707 
2071.000000	99.290747 
2070.000000	99.279853 
2069.000000	99.270429 
2068.000000	99.262008 
2067.000000	99.253009 
2066.000000	99.245050 
2065.000000	99.240309 
2064.000000	99.238004 
2063.000000	99.236762 
2062.000000	99.238231 
2061.000000	99.244878 
2060.000000	99.255412 
2059.000000	99.265469 
2058.000000	99.272282 
2057.000000	99.275878 
2056.000000	99.275777 
2055.000000	99.269562 
2054.000000	99.256428 
2053.000000	99.240912 
2052.000000	99.230889 
2051.000000	99.231220 
2050.000000	99.239224 
2049.000000	99.245786 
2048.000000	99.242221 
2047.000000	99.227770 
2046.000000	99.210117 
2045.000000	99.198312 
2044.000000	99.195574 
2043.000000	99.198653 
2042.000000	99.202569 
2041.000000	99.204723 
2040.000000	99.205606 
2039.000000	99.207371 
2038.000000	99.211887 
2037.000000	99.218780 
2036.000000	99.224447 
2035.000000	99.223818 
2034.000000	99.214304 
2033.000000	99.198573 
2032.000000	99.183230 
2031.000000	99.174283 
2030.000000	99.173604 
2029.000000	99.178484 
2028.000000	99.183657 
2027.000000	99.185096 
2026.000000	99.183901 
2025.000000	99.186934 
2024.000000	99.200600 
2023.000000	99.221591 
2022.000000	99.235569 
2021.000000	99.228993 
2020.000000	99.203734 
2019.000000	99.177081 
2018.000000	99.165895 
2017.000000	99.171754 
2016.000000	99.182372 
2015.000000	99.186089 
2014.000000	99.181772 
2013.000000	99.175941 
2012.000000	99.174437 
2011.000000	99.178041 
2010.000000	99.184585 
2009.000000	99.193207 
2008.000000	99.205204 
2007.000000	99.220163 
2006.000000	99.232430 
2005.000000	99.234494 
2004.000000	99.224802 
2003.000000	99.210369 
2002.000000	99.200930 
2001.000000	99.201250 
2000.000000	99.208659 
1999.000000	99.215724 
1998.000000	99.215683 
1997.000000	99.208294 
1996.000000	99.201340 
1995.000000	99.204236 
1994.000000	99.218691 
1993.000000	99.235964 
1992.000000	99.244501 
1991.000000	99.240803 
1990.000000	99.231433 
1989.000000	99.225733 
1988.000000	99.228366 
1987.000000	99.236712 
1986.000000	99.243316 
1985.000000	99.242240 
1984.000000	99.234741 
1983.000000	99.227841 
1982.000000	99.225975 
1981.000000	99.224916 
1980.000000	99.216018 
1979.000000	99.196196 
1978.000000	99.173058 
1977.000000	99.159359 
1976.000000	99.161100 
1975.000000	99.172075 
1974.000000	99.181341 
1973.000000	99.185572 
1972.000000	99.192160 
1971.000000	99.208412 
1970.000000	99.229330 
1969.000000	99.239877 
1968.000000	99.230535 
1967.000000	99.207940 
1966.000000	99.187298 
1965.000000	99.177020 
1964.000000	99.175082 
1963.000000	99.177426 
1962.000000	99.183206 
1961.000000	99.191499 
1960.000000	99.198486 
1959.000000	99.201358 
1958.000000	99.202668 
1957.000000	99.207368 
1956.000000	99.216423 
1955.000000	99.225955 
1954.000000	99.232356 
1953.000000	99.235578 
1952.000000	99.236450 
1951.000000	99.234209 
1950.000000	99.229190 
1949.000000	99.226228 
1948.000000	99.231563 
1947.000000	99.244148 
1946.000000	99.252656 
1945.000000	99.244969 
1944.000000	99.221283 
1943.000000	99.196216 
1942.000000	99.185898 
1941.000000	99.192643 
1940.000000	99.204917 
1939.000000	99.211362 
1938.000000	99.211617 
1937.000000	99.214253 
1936.000000	99.225459 
1935.000000	99.240781 
1934.000000	99.249954 
1933.000000	99.249368 
1932.000000	99.246330 
1931.000000	99.249913 
1930.000000	99.259696 
1929.000000	99.267276 
1928.000000	99.268100 
1927.000000	99.265931 
1926.000000	99.266037 
1925.000000	99.268131 
1924.000000	99.269067 
1923.000000	99.269351 
1922.000000	99.271845 
1921.000000	99.275485 
1920.000000	99.274422 
1919.000000	99.263763 
1918.000000	99.244998 
1917.000000	99.226165 
1916.000000	99.215765 
1915.000000	99.216375 
1914.000000	99.224754 
1913.000000	99.235739 
1912.000000	99.245140 
1911.000000	99.250632 
1910.000000	99.250542 
1909.000000	99.245175 
1908.000000	99.239645 
1907.000000	99.240357 
1906.000000	99.248359 
1905.000000	99.257579 
1904.000000	99.261591 
1903.000000	99.260421 
1902.000000	99.257642 
1901.000000	99.254899 
1900.000000	99.252113 
1899.000000	99.250064 
1898.000000	99.250442 
1897.000000	99.253458 
1896.000000	99.257476 
1895.000000	99.260797 
1894.000000	99.261863 
1893.000000	99.259615 
1892.000000	99.255337 
1891.000000	99.252565 
1890.000000	99.253163 
1889.000000	99.254735 
1888.000000	99.254366 
1887.000000	99.252552 
1886.000000	99.251594 
1885.000000	99.252843 
1884.000000	99.256572 
1883.000000	99.262805 
1882.000000	99.269908 
1881.000000	99.274413 
1880.000000	99.274854 
1879.000000	99.273848 
1878.000000	99.275542 
1877.000000	99.281507 
1876.000000	99.289299 
1875.000000	99.294878 
1874.000000	99.295169 
1873.000000	99.289237 
1872.000000	99.279172 
1871.000000	99.269149 
1870.000000	99.262360 
1869.000000	99.258579 
1868.000000	99.256663 
1867.000000	99.257182 
1866.000000	99.259566 
1865.000000	99.261430 
1864.000000	99.261642 
1863.000000	99.260723 
1862.000000	99.258595 
1861.000000	99.254677 
1860.000000	99.251352 
1859.000000	99.253540 
1858.000000	99.262069 
1857.000000	99.270978 
1856.000000	99.274708 
1855.000000	99.275042 
1854.000000	99.276969 
1853.000000	99.280609 
1852.000000	99.282496 
1851.000000	99.281336 
1850.000000	99.280125 
1849.000000	99.282935 
1848.000000	99.290534 
1847.000000	99.299652 
1846.000000	99.304970 
1845.000000	99.302644 
1844.000000	99.294552 
1843.000000	99.288566 
1842.000000	99.289011 
1841.000000	99.292286 
1840.000000	99.293863 
1839.000000	99.292359 
1838.000000	99.288907 
1837.000000	99.285051 
1836.000000	99.282407 
1835.000000	99.282731 
1834.000000	99.285699 
1833.000000	99.288602 
1832.000000	99.288868 
1831.000000	99.285657 
1830.000000	99.280642 
1829.000000	99.277566 
1828.000000	99.278126 
1827.000000	99.279911 
1826.000000	99.280417 
1825.000000	99.279810 
1824.000000	99.279730 
1823.000000	99.280916 
1822.000000	99.281565 
1821.000000	99.279816 
1820.000000	99.277065 
1819.000000	99.277209 
1818.000000	99.282195 
1817.000000	99.287875 
1816.000000	99.288938 
1815.000000	99.286711 
1814.000000	99.286652 
1813.000000	99.291071 
1812.000000	99.296816 
1811.000000	99.301328 
1810.000000	99.306082 
1809.000000	99.310747 
1808.000000	99.311862 
1807.000000	99.308312 
1806.000000	99.302569 
1805.000000	99.296602 
1804.000000	99.290654 
1803.000000	99.285746 
1802.000000	99.283118 
1801.000000	99.282147 
1800.000000	99.280858 
1799.000000	99.280175 
1798.000000	99.283334 
1797.000000	99.290491 
1796.000000	99.298714 
1795.000000	99.304932 
1794.000000	99.306602 
1793.000000	99.301373 
1792.000000	99.289818 
1791.000000	99.279659 
1790.000000	99.277920 
1789.000000	99.282279 
1788.000000	99.287305 
1787.000000	99.291507 
1786.000000	99.296429 
1785.000000	99.301510 
1784.000000	99.304008 
1783.000000	99.302887 
1782.000000	99.298361 
1781.000000	99.292077 
1780.000000	99.286030 
1779.000000	99.281928 
1778.000000	99.280869 
1777.000000	99.282444 
1776.000000	99.285862 
1775.000000	99.289020 
1774.000000	99.289620 
1773.000000	99.288105 
1772.000000	99.286969 
1771.000000	99.288202 
1770.000000	99.291082 
1769.000000	99.292522 
1768.000000	99.290918 
1767.000000	99.287812 
1766.000000	99.285569 
1765.000000	99.284664 
1764.000000	99.283686 
1763.000000	99.281837 
1762.000000	99.279881 
1761.000000	99.280030 
1760.000000	99.282390 
1759.000000	99.285346 
1758.000000	99.289136 
1757.000000	99.295547 
1756.000000	99.303899 
1755.000000	99.309208 
1754.000000	99.308473 
1753.000000	99.305313 
1752.000000	99.305749 
1751.000000	99.308733 
1750.000000	99.308254 
1749.000000	99.303349 
1748.000000	99.299192 
1747.000000	99.299140 
1746.000000	99.300979 
1745.000000	99.302328 
1744.000000	99.302397 
1743.000000	99.300791 
1742.000000	99.297778 
1741.000000	99.294677 
1740.000000	99.293297 
1739.000000	99.295412 
1738.000000	99.300380 
1737.000000	99.304638 
1736.000000	99.306199 
1735.000000	99.308153 
1734.000000	99.310280 
1733.000000	99.310830 
1732.000000	99.310426 
1731.000000	99.306683 
1730.000000	99.299255 
1729.000000	99.291875 
1728.000000	99.288424 
1727.000000	99.289380 
1726.000000	99.292236 
1725.000000	99.295304 
1724.000000	99.297264 
1723.000000	99.298387 
1722.000000	99.299989 
1721.000000	99.301739 
1720.000000	99.303032 
1719.000000	99.305923 
1718.000000	99.311584 
1717.000000	99.313834 
1716.000000	99.308652 
1715.000000	99.302504 
1714.000000	99.301385 
1713.000000	99.302810 
1712.000000	99.301840 
1711.000000	99.299372 
1710.000000	99.300110 
1709.000000	99.305091 
1708.000000	99.310383 
1707.000000	99.312189 
1706.000000	99.310669 
1705.000000	99.306397 
1704.000000	99.300507 
1703.000000	99.295186 
1702.000000	99.294078 
1701.000000	99.299237 
1700.000000	99.301863 
1699.000000	99.301172 
1698.000000	99.303957 
1697.000000	99.305517 
1696.000000	99.300103 
1695.000000	99.291533 
1694.000000	99.287394 
1693.000000	99.286826 
1692.000000	99.285254 
1691.000000	99.283208 
1690.000000	99.282464 
1689.000000	99.283418 
1688.000000	99.286646 
1687.000000	99.292013 
1686.000000	99.300962 
1685.000000	99.312391 
1684.000000	99.314760 
1683.000000	99.307968 
1682.000000	99.300889 
1681.000000	99.294104 
1680.000000	99.289988 
1679.000000	99.289999 
1678.000000	99.290215 
1677.000000	99.287711 
1676.000000	99.284513 
1675.000000	99.283698 
1674.000000	99.285446 
1673.000000	99.289231 
1672.000000	99.293617 
1671.000000	99.298023 
1670.000000	99.299607 
1669.000000	99.296011 
1668.000000	99.292173 
1667.000000	99.290983 
1666.000000	99.289842 
1665.000000	99.287356 
1664.000000	99.285533 
1663.000000	99.287036 
1662.000000	99.289942 
1661.000000	99.291557 
1660.000000	99.292938 
1659.000000	99.295601 
1658.000000	99.298375 
1657.000000	99.298328 
1656.000000	99.294618 
1655.000000	99.289006 
1654.000000	99.288099 
1653.000000	99.289322 
1652.000000	99.294348 
1651.000000	99.304969 
1650.000000	99.309880 
1649.000000	99.307511 
1648.000000	99.303533 
1647.000000	99.299129 
1646.000000	99.295271 
1645.000000	99.294884 
1644.000000	99.297293 
1643.000000	99.300243 
1642.000000	99.302421 
1641.000000	99.303375 
1640.000000	99.303649 
1639.000000	99.303927 
1638.000000	99.304857 
1637.000000	99.307468 
1636.000000	99.310776 
1635.000000	99.311921 
1634.000000	99.311646 
1633.000000	99.309427 
1632.000000	99.303698 
1631.000000	99.297145 
1630.000000	99.292854 
1629.000000	99.291767 
1628.000000	99.293389 
1627.000000	99.296595 
1626.000000	99.298953 
1625.000000	99.298794 
1624.000000	99.297010 
1623.000000	99.295261 
1622.000000	99.294154 
1621.000000	99.293843 
1620.000000	99.294375 
1619.000000	99.295304 
1618.000000	99.296352 
1617.000000	99.296276 
1616.000000	99.296856 
1615.000000	99.300682 
1614.000000	99.304640 
1613.000000	99.306110 
1612.000000	99.307978 
1611.000000	99.312510 
1610.000000	99.315901 
1609.000000	99.314206 
1608.000000	99.310112 
1607.000000	99.308368 
1606.000000	99.308629 
1605.000000	99.309167 
1604.000000	99.311004 
1603.000000	99.314167 
1602.000000	99.316062 
1601.000000	99.315432 
1600.000000	99.314626 
1599.000000	99.315625 
1598.000000	99.317328 
1597.000000	99.318306 
1596.000000	99.318975 
1595.000000	99.319843 
1594.000000	99.319822 
1593.000000	99.318852 
1592.000000	99.319693 
1591.000000	99.324237 
1590.000000	99.329956 
1589.000000	99.333169 
1588.000000	99.333916 
1587.000000	99.334556 
1586.000000	99.335251 
1585.000000	99.334277 
1584.000000	99.332511 
1583.000000	99.331317 
1582.000000	99.329526 
1581.000000	99.326281 
1580.000000	99.323241 
1579.000000	99.321340 
1578.000000	99.319778 
1577.000000	99.318509 
1576.000000	99.317783 
1575.000000	99.318386 
1574.000000	99.319218 
1573.000000	99.318936 
1572.000000	99.319258 
1571.000000	99.322632 
1570.000000	99.326118 
1569.000000	99.326169 
1568.000000	99.326596 
1567.000000	99.328695 
1566.000000	99.329164 
1565.000000	99.327045 
1564.000000	99.325422 
1563.000000	99.324060 
1562.000000	99.321739 
1561.000000	99.318725 
1560.000000	99.325900 
1559.000000	99.331276 
1558.000000	99.323707 
1557.000000	99.320180 
1556.000000	99.321597 
1555.000000	99.322545 
1554.000000	99.322132 
1553.000000	99.319899 
1552.000000	99.316208 
1551.000000	99.310839 
1550.000000	99.306859 
1549.000000	99.307241 
1548.000000	99.311505 
1547.000000	99.315401 
1546.000000	99.314857 
1545.000000	99.309855 
1544.000000	99.305075 
1543.000000	99.306417 
1542.000000	99.315663 
1541.000000	99.326151 
1540.000000	99.325600 
1539.000000	99.317748 
1538.000000	99.315160 
1537.000000	99.316897 
1536.000000	99.318478 
1535.000000	99.320567 
1534.000000	99.321265 
1533.000000	99.316852 
1532.000000	99.309903 
1531.000000	99.305905 
1530.000000	99.305604 
1529.000000	99.305887 
1528.000000	99.304299 
1527.000000	99.302574 
1526.000000	99.303904 
1525.000000	99.308133 
1524.000000	99.312175 
1523.000000	99.315309 
1522.000000	99.318885 
1521.000000	99.321038 
1520.000000	99.320008 
1519.000000	99.315177 
1518.000000	99.306644 
1517.000000	99.297573 
1516.000000	99.291697 
1515.000000	99.289946 
1514.000000	99.290099 
1513.000000	99.291033 
1512.000000	99.292588 
1511.000000	99.293320 
1510.000000	99.292746 
1509.000000	99.291574 
1508.000000	99.292931 
1507.000000	99.295301 
1506.000000	99.296314 
1505.000000	99.296579 
1504.000000	99.295222 
1503.000000	99.292797 
1502.000000	99.291994 
1501.000000	99.292367 
1500.000000	99.290192 
1499.000000	99.283523 
1498.000000	99.276270 
1497.000000	99.272245 
1496.000000	99.269537 
1495.000000	99.268937 
1494.000000	99.274111 
1493.000000	99.284339 
1492.000000	99.294914 
1491.000000	99.301095 
1490.000000	99.300966 
1489.000000	99.295922 
1488.000000	99.287640 
1487.000000	99.278761 
1486.000000	99.271341 
1485.000000	99.264291 
1484.000000	99.257999 
1483.000000	99.254336 
1482.000000	99.254734 
1481.000000	99.257392 
1480.000000	99.258393 
1479.000000	99.256470 
1478.000000	99.253466 
1477.000000	99.250667 
1476.000000	99.247564 
1475.000000	99.245851 
1474.000000	99.247798 
1473.000000	99.251337 
1472.000000	99.251837 
1471.000000	99.250297 
1470.000000	99.250213 
1469.000000	99.250883 
1468.000000	99.250088 
1467.000000	99.247927 
1466.000000	99.246500 
1465.000000	99.247268 
1464.000000	99.250192 
1463.000000	99.253857 
1462.000000	99.256790 
1461.000000	99.257587 
1460.000000	99.255615 
1459.000000	99.250206 
1458.000000	99.240592 
1457.000000	99.225596 
1456.000000	99.209855 
1455.000000	99.199097 
1454.000000	99.192843 
1453.000000	99.191980 
1452.000000	99.197864 
1451.000000	99.207443 
1450.000000	99.215878 
1449.000000	99.220246 
1448.000000	99.219954 
1447.000000	99.217569 
1446.000000	99.216171 
1445.000000	99.217615 
1444.000000	99.221398 
1443.000000	99.224982 
1442.000000	99.227062 
1441.000000	99.228085 
1440.000000	99.228522 
1439.000000	99.227715 
1438.000000	99.227509 
1437.000000	99.229731 
1436.000000	99.232075 
1435.000000	99.231724 
1434.000000	99.228941 
1433.000000	99.225023 
1432.000000	99.221019 
1431.000000	99.216538 
1430.000000	99.211623 
1429.000000	99.208111 
1428.000000	99.206370 
1427.000000	99.205077 
1426.000000	99.202507 
1425.000000	99.199746 
1424.000000	99.198114 
1423.000000	99.195151 
1422.000000	99.188092 
1421.000000	99.176932 
1420.000000	99.163330 
1419.000000	99.147316 
1418.000000	99.131619 
1417.000000	99.119202 
1416.000000	99.106629 
1415.000000	99.090075 
1414.000000	99.070151 
1413.000000	99.050419 
1412.000000	99.033700 
1411.000000	99.019881 
1410.000000	99.008498 
1409.000000	99.000112 
1408.000000	98.994851 
1407.000000	98.993059 
1406.000000	98.994908 
1405.000000	99.000658 
1404.000000	99.010247 
1403.000000	99.022522 
1402.000000	99.036961 
1401.000000	99.053751 
1400.000000	99.071173 
1399.000000	99.082658 
1398.000000	99.079941 
1397.000000	99.057722 
1396.000000	99.017227 
1395.000000	98.973607 
1394.000000	98.953047 
1393.000000	98.970070 
1392.000000	99.012446 
1391.000000	99.055837 
1390.000000	99.083799 
1389.000000	99.093154 
1388.000000	99.088604 
1387.000000	99.076695 
1386.000000	99.063909 
1385.000000	99.055162 
1384.000000	99.051645 
1383.000000	99.050712 
1382.000000	99.049288 
1381.000000	99.047269 
1380.000000	99.048062 
1379.000000	99.055004 
1378.000000	99.067497 
1377.000000	99.081519 
1376.000000	99.093251 
1375.000000	99.101556 
1374.000000	99.108381 
1373.000000	99.117719 
1372.000000	99.131189 
1371.000000	99.146048 
1370.000000	99.157847 
1369.000000	99.165010 
1368.000000	99.169762 
1367.000000	99.174719 
1366.000000	99.180974 
1365.000000	99.188984 
1364.000000	99.199021 
1363.000000	99.209629 
1362.000000	99.217756 
1361.000000	99.221811 
1360.000000	99.223270 
1359.000000	99.225210 
1358.000000	99.230116 
1357.000000	99.238387 
1356.000000	99.247743 
1355.000000	99.254757 
1354.000000	99.258342 
1353.000000	99.260741 
1352.000000	99.264071 
1351.000000	99.268030 
1350.000000	99.270598 
1349.000000	99.271773 
1348.000000	99.273659 
1347.000000	99.276758 
1346.000000	99.279456 
1345.000000	99.281019 
1344.000000	99.282524 
1343.000000	99.284308 
1342.000000	99.285097 
1341.000000	99.284395 
1340.000000	99.283737 
1339.000000	99.284410 
1338.000000	99.285938 
1337.000000	99.287787 
1336.000000	99.290258 
1335.000000	99.292849 
1334.000000	99.293802 
1333.000000	99.292420 
1332.000000	99.290307 
1331.000000	99.289142 
1330.000000	99.288567 
1329.000000	99.287765 
1328.000000	99.287472 
1327.000000	99.288687 
1326.000000	99.290231 
1325.000000	99.290054 
1324.000000	99.287929 
1323.000000	99.285381 
1322.000000	99.283950 
1321.000000	99.284438 
1320.000000	99.287230 
1319.000000	99.291969 
1318.000000	99.296960 
1317.000000	99.299702 
1316.000000	99.298632 
1315.000000	99.294551 
1314.000000	99.290317 
1313.000000	99.288460 
1312.000000	99.288737 
1311.000000	99.288816 
1310.000000	99.287600 
1309.000000	99.286692 
1308.000000	99.287772 
1307.000000	99.290015 
1306.000000	99.291279 
1305.000000	99.291369 
1304.000000	99.291934 
1303.000000	99.293445 
1302.000000	99.294337 
1301.000000	99.293206 
1300.000000	99.290391 
1299.000000	99.287302 
1298.000000	99.285669 
1297.000000	99.287151 
1296.000000	99.291958 
1295.000000	99.297355 
1294.000000	99.299213 
1293.000000	99.295860 
1292.000000	99.289480 
1291.000000	99.283615 
1290.000000	99.280292 
1289.000000	99.279469 
1288.000000	99.279760 
1287.000000	99.279135 
1286.000000	99.276221 
1285.000000	99.271640 
1284.000000	99.267251 
1283.000000	99.263830 
1282.000000	99.260404 
1281.000000	99.255956 
1280.000000	99.250728 
1279.000000	99.245368 
1278.000000	99.240215 
1277.000000	99.236007 
1276.000000	99.233857 
1275.000000	99.233280 
1274.000000	99.231320 
1273.000000	99.225255 
1272.000000	99.215775 
1271.000000	99.206225 
1270.000000	99.198755 
1269.000000	99.192363 
1268.000000	99.184860 
1267.000000	99.175548 
1266.000000	99.165532 
1265.000000	99.156005 
1264.000000	99.146868 
1263.000000	99.137169 
1262.000000	99.126612 
1261.000000	99.116319 
1260.000000	99.107876 
1259.000000	99.101433 
1258.000000	99.095344 
1257.000000	99.088240 
1256.000000	99.081187 
1255.000000	99.076917 
1254.000000	99.076422 
1253.000000	99.077024 
1252.000000	99.075073 
1251.000000	99.070610 
1250.000000	99.068195 
1249.000000	99.072324 
1248.000000	99.082709 
1247.000000	99.094456 
1246.000000	99.101692 
1245.000000	99.100069 
1244.000000	99.088048 
1243.000000	99.069599 
1242.000000	99.055218 
1241.000000	99.055419 
1240.000000	99.070532 
1239.000000	99.089120 
1238.000000	99.098697 
1237.000000	99.096519 
1236.000000	99.088319 
1235.000000	99.079524 
1234.000000	99.071318 
1233.000000	99.063401 
1232.000000	99.055883 
1231.000000	99.048053 
1230.000000	99.038966 
1229.000000	99.030429 
1228.000000	99.026773 
1227.000000	99.030227 
1226.000000	99.038183 
1225.000000	99.046086 
1224.000000	99.051595 
1223.000000	99.055154 
1222.000000	99.058167 
1221.000000	99.061838 
1220.000000	99.066707 
1219.000000	99.072177 
1218.000000	99.076946 
1217.000000	99.080241 
1216.000000	99.081981 
1215.000000	99.081857 
1214.000000	99.079394 
1213.000000	99.075015 
1212.000000	99.069969 
1211.000000	99.065254 
1210.000000	99.061639 
1209.000000	99.060304 
1208.000000	99.061825 
1207.000000	99.064465 
1206.000000	99.065192 
1205.000000	99.062881 
1204.000000	99.059157 
1203.000000	99.055819 
1202.000000	99.052895 
1201.000000	99.049565 
1200.000000	99.045475 
1199.000000	99.040510 
1198.000000	99.034618 
1197.000000	99.028388 
1196.000000	99.022498 
1195.000000	99.016200 
1194.000000	99.007767 
1193.000000	98.997084 
1192.000000	98.986312 
1191.000000	98.977099 
1190.000000	98.968418 
1189.000000	98.958274 
1188.000000	98.946606 
1187.000000	98.935521 
1186.000000	98.927301 
1185.000000	98.922809 
1184.000000	98.920926 
1183.000000	98.918801 
1182.000000	98.913536 
1181.000000	98.904535 
1180.000000	98.893631 
1179.000000	98.882597 
1178.000000	98.871744 
1177.000000	98.861460 
1176.000000	98.853201 
1175.000000	98.847165 
1174.000000	98.840038 
1173.000000	98.827455 
1172.000000	98.808950 
1171.000000	98.789091 
1170.000000	98.773232 
1169.000000	98.762752 
1168.000000	98.754624 
1167.000000	98.745217 
1166.000000	98.734537 
1165.000000	98.726842 
1164.000000	98.726618 
1163.000000	98.733870 
1162.000000	98.744185 
1161.000000	98.753638 
1160.000000	98.762130 
1159.000000	98.770803 
1158.000000	98.777583 
1157.000000	98.777366 
1156.000000	98.766716 
1155.000000	98.747525 
1154.000000	98.726179 
1153.000000	98.709531 
1152.000000	98.700806 
1151.000000	98.697848 
1150.000000	98.695118 
1149.000000	98.688416 
1148.000000	98.678046 
1147.000000	98.667188 
1146.000000	98.657548 
1145.000000	98.647342 
1144.000000	98.633516 
1143.000000	98.615379 
1142.000000	98.596013 
1141.000000	98.580371 
1140.000000	98.571653 
1139.000000	98.568809 
1138.000000	98.567322 
1137.000000	98.562687 
1136.000000	98.553337 
1135.000000	98.540651 
1134.000000	98.526834 
1133.000000	98.512854 
1132.000000	98.497975 
1131.000000	98.481332 
1130.000000	98.464283 
1129.000000	98.450346 
1128.000000	98.441294 
1127.000000	98.433628 
1126.000000	98.421249 
1125.000000	98.402534 
1124.000000	98.382751 
1123.000000	98.368068 
1122.000000	98.358811 
1121.000000	98.350434 
1120.000000	98.339649 
1119.000000	98.327061 
1118.000000	98.314348 
1117.000000	98.301500 
1116.000000	98.287473 
1115.000000	98.271841 
1114.000000	98.255025 
1113.000000	98.237766 
1112.000000	98.220677 
1111.000000	98.203440 
1110.000000	98.184326 
1109.000000	98.161764 
1108.000000	98.136829 
1107.000000	98.113400 
1106.000000	98.094842 
1105.000000	98.080501 
1104.000000	98.066137 
1103.000000	98.048327 
1102.000000	98.028331 
1101.000000	98.011097 
1100.000000	97.999635 
1099.000000	97.991914 
1098.000000	97.984007 
1097.000000	97.975450 
1096.000000	97.968921 
1095.000000	97.964138 
1094.000000	97.954988 
1093.000000	97.934221 
1092.000000	97.899450 
1091.000000	97.853825 
1090.000000	97.803204 
1089.000000	97.753986 
1088.000000	97.711150 
1087.000000	97.675572 
1086.000000	97.644143 
1085.000000	97.614281 
1084.000000	97.586705 
1083.000000	97.561839 
1082.000000	97.535962 
1081.000000	97.504499 
1080.000000	97.467900 
1079.000000	97.431056 
1078.000000	97.398045 
1077.000000	97.370902 
1076.000000	97.352360 
1075.000000	97.345263 
1074.000000	97.348876 
1073.000000	97.358905 
1072.000000	97.369954 
1071.000000	97.373710 
1070.000000	97.357027 
1069.000000	97.310535 
1068.000000	97.242998 
1067.000000	97.181912 
1066.000000	97.153582 
1065.000000	97.162506 
1064.000000	97.191703 
1063.000000	97.219053 
1062.000000	97.229563 
1061.000000	97.216691 
1060.000000	97.181185 
1059.000000	97.132545 
1058.000000	97.086965 
1057.000000	97.057683 
1056.000000	97.045825 
1055.000000	97.041713 
1054.000000	97.035043 
1053.000000	97.023177 
1052.000000	97.010191 
1051.000000	97.000186 
1050.000000	96.993302 
1049.000000	96.987337 
1048.000000	96.980776 
1047.000000	96.973862 
1046.000000	96.968357 
1045.000000	96.966319 
1044.000000	96.967635 
1043.000000	96.969031 
1042.000000	96.967437 
1041.000000	96.964289 
1040.000000	96.964532 
1039.000000	96.971736 
1038.000000	96.986637 
1037.000000	97.009656 
1036.000000	97.040694 
1035.000000	97.075799 
1034.000000	97.108320 
1033.000000	97.134557 
1032.000000	97.153920 
1031.000000	97.162742 
1030.000000	97.155041 
1029.000000	97.134270 
1028.000000	97.118956 
1027.000000	97.128787 
1026.000000	97.165033 
1025.000000	97.209401 
1024.000000	97.241717 
1023.000000	97.255013 
1022.000000	97.255433 
1021.000000	97.253441 
1020.000000	97.256396 
1019.000000	97.265516 
1018.000000	97.277123 
1017.000000	97.287479 
1016.000000	97.296696 
1015.000000	97.307217 
1014.000000	97.319644 
1013.000000	97.331932 
1012.000000	97.341872 
1011.000000	97.348531 
1010.000000	97.352274 
1009.000000	97.355493 
1008.000000	97.362458 
1007.000000	97.376127 
1006.000000	97.395146 
1005.000000	97.415334 
1004.000000	97.433336 
1003.000000	97.447842 
1002.000000	97.459176 
1001.000000	97.469626 
1000.000000	97.482288 
999.000000	 97.497187 
998.000000	 97.510085 
997.000000	 97.517851 
996.000000	 97.523575 
995.000000	 97.533352 
994.000000	 97.548845 
993.000000	 97.565941 
992.000000	 97.580155 
991.000000	 97.590430 
990.000000	 97.597998 
989.000000	 97.604541 
988.000000	 97.611914 
987.000000	 97.621517 
986.000000	 97.633322 
985.000000	 97.646687 
984.000000	 97.661670 
983.000000	 97.678058 
982.000000	 97.693919 
981.000000	 97.707100 
980.000000	 97.717921 
979.000000	 97.729007 
978.000000	 97.742937 
977.000000	 97.760956 
976.000000	 97.782504 
975.000000	 97.804489 
974.000000	 97.822839 
973.000000	 97.837138 
972.000000	 97.852327 
971.000000	 97.873409 
970.000000	 97.899474 
969.000000	 97.925172 
968.000000	 97.946796 
967.000000	 97.964408 
966.000000	 97.979402 
965.000000	 97.993179 
964.000000	 98.007664 
963.000000	 98.024100 
962.000000	 98.041271 
961.000000	 98.057168 
960.000000	 98.071979 
959.000000	 98.087017 
958.000000	 98.101341 
957.000000	 98.112497 
956.000000	 98.120691 
955.000000	 98.129429 
954.000000	 98.141364 
953.000000	 98.155683 
952.000000	 98.170127 
951.000000	 98.183448 
950.000000	 98.195066 
949.000000	 98.204041 
948.000000	 98.209442 
947.000000	 98.211047 
946.000000	 98.209580 
945.000000	 98.207060 
944.000000	 98.206640 
943.000000	 98.210777 
942.000000	 98.219233 
941.000000	 98.229384 
940.000000	 98.238035 
939.000000	 98.242602 
938.000000	 98.242182 
937.000000	 98.239190 
936.000000	 98.238858 
935.000000	 98.244964 
934.000000	 98.256074 
933.000000	 98.267352 
932.000000	 98.275596 
931.000000	 98.281214 
930.000000	 98.286076 
929.000000	 98.291057 
928.000000	 98.295342 
927.000000	 98.296974 
926.000000	 98.294773 
925.000000	 98.290752 
924.000000	 98.289510 
923.000000	 98.293810 
922.000000	 98.301725 
921.000000	 98.309415 
920.000000	 98.315072 
919.000000	 98.318254 
918.000000	 98.317291 
917.000000	 98.310572 
916.000000	 98.299920 
915.000000	 98.289923 
914.000000	 98.283688 
913.000000	 98.281109 
912.000000	 98.281136 
911.000000	 98.283708 
910.000000	 98.289316 
909.000000	 98.298238 
908.000000	 98.310151 
907.000000	 98.323268 
906.000000	 98.334288 
905.000000	 98.340376 
904.000000	 98.340821 
903.000000	 98.336649 
902.000000	 98.330583 
901.000000	 98.328104 
900.000000	 98.335417 
899.000000	 98.353496 
898.000000	 98.375556 
897.000000	 98.392986 
896.000000	 98.402385 
895.000000	 98.405172 
894.000000	 98.403476 
893.000000	 98.400190 
892.000000	 98.401263 
891.000000	 98.413425 
890.000000	 98.438792 
889.000000	 98.473033 
888.000000	 98.507557 
887.000000	 98.532457 
886.000000	 98.541571 
885.000000	 98.538778 
884.000000	 98.536229 
883.000000	 98.541472 
882.000000	 98.548620 
881.000000	 98.547795 
880.000000	 98.541091 
879.000000	 98.541548 
878.000000	 98.556141 
877.000000	 98.577416 
876.000000	 98.593892 
875.000000	 98.601587 
874.000000	 98.602576 
873.000000	 98.599143 
872.000000	 98.594277 
871.000000	 98.593404 
870.000000	 98.600569 
869.000000	 98.614989 
868.000000	 98.634007 
867.000000	 98.656156 
866.000000	 98.678577 
865.000000	 98.695474 
864.000000	 98.704017 
863.000000	 98.709862 
862.000000	 98.721800 
861.000000	 98.740823 
860.000000	 98.758539 
859.000000	 98.767040 
858.000000	 98.766972 
857.000000	 98.764775 
856.000000	 98.765639 
855.000000	 98.771837 
854.000000	 98.784795 
853.000000	 98.803854 
852.000000	 98.823119 
851.000000	 98.834247 
850.000000	 98.835185 
849.000000	 98.833712 
848.000000	 98.839323 
847.000000	 98.852807 
846.000000	 98.866368 
845.000000	 98.872904 
844.000000	 98.872103 
843.000000	 98.868255 
842.000000	 98.865979 
841.000000	 98.868265 
840.000000	 98.874579 
839.000000	 98.879598 
838.000000	 98.877575 
837.000000	 98.869743 
836.000000	 98.863658 
835.000000	 98.863068 
834.000000	 98.862807 
833.000000	 98.857769 
832.000000	 98.853008 
831.000000	 98.858342 
830.000000	 98.873667 
829.000000	 98.886405 
828.000000	 98.885884 
827.000000	 98.875527 
826.000000	 98.867437 
825.000000	 98.867975 
824.000000	 98.873048 
823.000000	 98.876246 
822.000000	 98.876825 
821.000000	 98.878164 
820.000000	 98.881377 
819.000000	 98.883598 
818.000000	 98.882620 
817.000000	 98.880958 
816.000000	 98.882922 
815.000000	 98.887691 
814.000000	 98.887990 
813.000000	 98.877339 
812.000000	 98.856716 
811.000000	 98.831847 
810.000000	 98.805161 
809.000000	 98.773254 
808.000000	 98.732376 
807.000000	 98.683931 
806.000000	 98.633231 
805.000000	 98.584145 
804.000000	 98.536853 
803.000000	 98.490920 
802.000000	 98.448937 
801.000000	 98.415307 
800.000000	 98.391310 
799.000000	 98.373614 
798.000000	 98.359544 
797.000000	 98.351939 
796.000000	 98.355173 
795.000000	 98.367282 
794.000000	 98.380716 
793.000000	 98.391362 
792.000000	 98.401779 
791.000000	 98.414136 
790.000000	 98.425420 
789.000000	 98.432291 
788.000000	 98.435356 
787.000000	 98.434868 
786.000000	 98.426748 
785.000000	 98.407557 
784.000000	 98.380390 
783.000000	 98.352013 
782.000000	 98.327125 
781.000000	 98.308403 
780.000000	 98.297617 
779.000000	 98.291846 
778.000000	 98.282940 
777.000000	 98.267224 
776.000000	 98.253091 
775.000000	 98.252726 
774.000000	 98.268075 
773.000000	 98.290645 
772.000000	 98.312961 
771.000000	 98.333563 
770.000000	 98.352228 
769.000000	 98.367229 
768.000000	 98.377840 
767.000000	 98.384838 
766.000000	 98.389005 
765.000000	 98.393226 
764.000000	 98.403854 
763.000000	 98.423793 
762.000000	 98.445214 
761.000000	 98.455776 
760.000000	 98.452770 
759.000000	 98.445973 
758.000000	 98.446212 
757.000000	 98.455512 
756.000000	 98.467892 
755.000000	 98.474669 
754.000000	 98.469810 
753.000000	 98.456037 
752.000000	 98.445900 
751.000000	 98.451351 
750.000000	 98.470983 
749.000000	 98.491506 
748.000000	 98.501778 
747.000000	 98.501386 
746.000000	 98.496971 
745.000000	 98.496001 
744.000000	 98.503969 
743.000000	 98.521369 
742.000000	 98.541995 
741.000000	 98.558978 
740.000000	 98.572913 
739.000000	 98.589544 
738.000000	 98.609824 
737.000000	 98.627287 
736.000000	 98.634893 
735.000000	 98.629722 
734.000000	 98.612660 
733.000000	 98.590291 
732.000000	 98.576247 
731.000000	 98.582168 
730.000000	 98.605028 
729.000000	 98.630081 
728.000000	 98.647681 
727.000000	 98.659974 
726.000000	 98.670011 
725.000000	 98.673407 
724.000000	 98.665471 
723.000000	 98.649993 
722.000000	 98.635766 
721.000000	 98.628880 
720.000000	 98.632155 
719.000000	 98.646843 
718.000000	 98.669740 
717.000000	 98.691798 
716.000000	 98.703858 
715.000000	 98.702929 
714.000000	 98.692656 
713.000000	 98.681016 
712.000000	 98.677918 
711.000000	 98.689169 
710.000000	 98.709085 
709.000000	 98.722962 
708.000000	 98.720324 
707.000000	 98.703419 
706.000000	 98.681515 
705.000000	 98.661175 
704.000000	 98.644863 
703.000000	 98.634463 
702.000000	 98.630793 
701.000000	 98.630492 
700.000000	 98.626367 
699.000000	 98.611307 
698.000000	 98.583451 
697.000000	 98.550151 
696.000000	 98.525118 
695.000000	 98.516988 
694.000000	 98.520617 
693.000000	 98.524043 
692.000000	 98.523277 
691.000000	 98.524557 
690.000000	 98.533358 
689.000000	 98.548749 
688.000000	 98.568426 
687.000000	 98.590203 
686.000000	 98.606119 
685.000000	 98.604796 
684.000000	 98.585157 
683.000000	 98.561727 
682.000000	 98.552543 
681.000000	 98.564535 
680.000000	 98.589566 
679.000000	 98.609566 
678.000000	 98.608665 
677.000000	 98.589132 
676.000000	 98.575841 
675.000000	 98.590362 
674.000000	 98.622890 
673.000000	 98.642280 
672.000000	 98.632725 
671.000000	 98.608028 
670.000000	 98.592314 
669.000000	 98.601491 
668.000000	 98.629137 
667.000000	 98.650875 
666.000000	 98.656470 
665.000000	 98.649043 
664.000000	 98.640335 
663.000000	 98.648572 
662.000000	 98.675425 
661.000000	 98.696845 
660.000000	 98.691038 
659.000000	 98.662485 
658.000000	 98.629165 
657.000000	 98.599754 
656.000000	 98.577627 
655.000000	 98.571835 
654.000000	 98.588256 
653.000000	 98.618391 
652.000000	 98.648482 
651.000000	 98.670767 
650.000000	 98.678383 

