4000.000000	100.624000 
3999.000000	100.621489 
3998.000000	100.619706 
3997.000000	100.619837 
3996.000000	100.621447 
3995.000000	100.623052 
3994.000000	100.623754 
3993.000000	100.624157 
3992.000000	100.625525 
3991.000000	100.627883 
3990.000000	100.629175 
3989.000000	100.627033 
3988.000000	100.621665 
3987.000000	100.616260 
3986.000000	100.614046 
3985.000000	100.615409 
3984.000000	100.618292 
3983.000000	100.620916 
3982.000000	100.623226 
3981.000000	100.626017 
3980.000000	100.629673 
3979.000000	100.633978 
3978.000000	100.638280 
3977.000000	100.641508 
3976.000000	100.642674 
3975.000000	100.641648 
3974.000000	100.638802 
3973.000000	100.634282 
3972.000000	100.628782 
3971.000000	100.624556 
3970.000000	100.624228 
3969.000000	100.627984 
3968.000000	100.633179 
3967.000000	100.636651 
3966.000000	100.636847 
3965.000000	100.634065 
3964.000000	100.629947 
3963.000000	100.626981 
3962.000000	100.626940 
3961.000000	100.629092 
3960.000000	100.631068 
3959.000000	100.631434 
3958.000000	100.630819 
3957.000000	100.630339 
3956.000000	100.630530 
3955.000000	100.631208 
3954.000000	100.631584 
3953.000000	100.630952 
3952.000000	100.629559 
3951.000000	100.628808 
3950.000000	100.629508 
3949.000000	100.630571 
3948.000000	100.630117 
3947.000000	100.627696 
3946.000000	100.625183 
3945.000000	100.625315 
3944.000000	100.628469 
3943.000000	100.630987 
3942.000000	100.628568 
3941.000000	100.621948 
3940.000000	100.616996 
3939.000000	100.618468 
3938.000000	100.624964 
3937.000000	100.630137 
3936.000000	100.629984 
3935.000000	100.627124 
3934.000000	100.626437 
3933.000000	100.628612 
3932.000000	100.630247 
3931.000000	100.630621 
3930.000000	100.632621 
3929.000000	100.636477 
3928.000000	100.637909 
3927.000000	100.634719 
3926.000000	100.631357 
3925.000000	100.631959 
3924.000000	100.633911 
3923.000000	100.633536 
3922.000000	100.632532 
3921.000000	100.633842 
3920.000000	100.635761 
3919.000000	100.634775 
3918.000000	100.632177 
3917.000000	100.631376 
3916.000000	100.631528 
3915.000000	100.629666 
3914.000000	100.626958 
3913.000000	100.626378 
3912.000000	100.627467 
3911.000000	100.626388 
3910.000000	100.622898 
3909.000000	100.620446 
3908.000000	100.622280 
3907.000000	100.628932 
3906.000000	100.640234 
3905.000000	100.655158 
3904.000000	100.667571 
3903.000000	100.670170 
3902.000000	100.663126 
3901.000000	100.654572 
3900.000000	100.650539 
3899.000000	100.647834 
3898.000000	100.640621 
3897.000000	100.629921 
3896.000000	100.621387 
3895.000000	100.617408 
3894.000000	100.617397 
3893.000000	100.622125 
3892.000000	100.634709 
3891.000000	100.651405 
3890.000000	100.662192 
3889.000000	100.660885 
3888.000000	100.653552 
3887.000000	100.653274 
3886.000000	100.659789 
3885.000000	100.657674 
3884.000000	100.642747 
3883.000000	100.630110 
3882.000000	100.634089 
3881.000000	100.649429 
3880.000000	100.656622 
3879.000000	100.647939 
3878.000000	100.633613 
3877.000000	100.625089 
3876.000000	100.627066 
3875.000000	100.636601 
3874.000000	100.642700 
3873.000000	100.636376 
3872.000000	100.625112 
3871.000000	100.627114 
3870.000000	100.642238 
3869.000000	100.648285 
3868.000000	100.637596 
3867.000000	100.629567 
3866.000000	100.643438 
3865.000000	100.668504 
3864.000000	100.676690 
3863.000000	100.663256 
3862.000000	100.648639 
3861.000000	100.642873 
3860.000000	100.639309 
3859.000000	100.629910 
3858.000000	100.615052 
3857.000000	100.598621 
3856.000000	100.588864 
3855.000000	100.602799 
3854.000000	100.638383 
3853.000000	100.660529 
3852.000000	100.657846 
3851.000000	100.651891 
3850.000000	100.656632 
3849.000000	100.667003 
3848.000000	100.670090 
3847.000000	100.661274 
3846.000000	100.648871 
3845.000000	100.642509 
3844.000000	100.643974 
3843.000000	100.647132 
3842.000000	100.646486 
3841.000000	100.644366 
3840.000000	100.649381 
3839.000000	100.662081 
3838.000000	100.673549 
3837.000000	100.677021 
3836.000000	100.673496 
3835.000000	100.666477 
3834.000000	100.659404 
3833.000000	100.656268 
3832.000000	100.657552 
3831.000000	100.658634 
3830.000000	100.656023 
3829.000000	100.651159 
3828.000000	100.649046 
3827.000000	100.651963 
3826.000000	100.654914 
3825.000000	100.650644 
3824.000000	100.642035 
3823.000000	100.643656 
3822.000000	100.664127 
3821.000000	100.684556 
3820.000000	100.682456 
3819.000000	100.663838 
3818.000000	100.651868 
3817.000000	100.661373 
3816.000000	100.676086 
3815.000000	100.670033 
3814.000000	100.648563 
3813.000000	100.636757 
3812.000000	100.642693 
3811.000000	100.650996 
3810.000000	100.646225 
3809.000000	100.635890 
3808.000000	100.641233 
3807.000000	100.662423 
3806.000000	100.675625 
3805.000000	100.667051 
3804.000000	100.648616 
3803.000000	100.643638 
3802.000000	100.656107 
3801.000000	100.660404 
3800.000000	100.645250 
3799.000000	100.629863 
3798.000000	100.631464 
3797.000000	100.645276 
3796.000000	100.651603 
3795.000000	100.642290 
3794.000000	100.629956 
3793.000000	100.628911 
3792.000000	100.637224 
3791.000000	100.643127 
3790.000000	100.641197 
3789.000000	100.635926 
3788.000000	100.632864 
3787.000000	100.634280 
3786.000000	100.641504 
3785.000000	100.654269 
3784.000000	100.666858 
3783.000000	100.671866 
3782.000000	100.669193 
3781.000000	100.665850 
3780.000000	100.666072 
3779.000000	100.665164 
3778.000000	100.658880 
3777.000000	100.651026 
3776.000000	100.648676 
3775.000000	100.652114 
3774.000000	100.653874 
3773.000000	100.648996 
3772.000000	100.643479 
3771.000000	100.645270 
3770.000000	100.650061 
3769.000000	100.648177 
3768.000000	100.641952 
3767.000000	100.642990 
3766.000000	100.655654 
3765.000000	100.669642 
3764.000000	100.672022 
3763.000000	100.664337 
3762.000000	100.660805 
3761.000000	100.668680 
3760.000000	100.678229 
3759.000000	100.678744 
3758.000000	100.676627 
3757.000000	100.680445 
3756.000000	100.685635 
3755.000000	100.685333 
3754.000000	100.684016 
3753.000000	100.690749 
3752.000000	100.701279 
3751.000000	100.704320 
3750.000000	100.703725 
3749.000000	100.707805 
3748.000000	100.707938 
3747.000000	100.694613 
3746.000000	100.683618 
3745.000000	100.691044 
3744.000000	100.693864 
3743.000000	100.676504 
3742.000000	100.661394 
3741.000000	100.667050 
3740.000000	100.684546 
3739.000000	100.689925 
3738.000000	100.678100 
3737.000000	100.669441 
3736.000000	100.675560 
3735.000000	100.682854 
3734.000000	100.680457 
3733.000000	100.678389 
3732.000000	100.684366 
3731.000000	100.690476 
3730.000000	100.687994 
3729.000000	100.680100 
3728.000000	100.676400 
3727.000000	100.678387 
3726.000000	100.677433 
3725.000000	100.671564 
3724.000000	100.668781 
3723.000000	100.671678 
3722.000000	100.673099 
3721.000000	100.668813 
3720.000000	100.664281 
3719.000000	100.665751 
3718.000000	100.672832 
3717.000000	100.677484 
3716.000000	100.672205 
3715.000000	100.659040 
3714.000000	100.647108 
3713.000000	100.642371 
3712.000000	100.641847 
3711.000000	100.641009 
3710.000000	100.641101 
3709.000000	100.643472 
3708.000000	100.645672 
3707.000000	100.643838 
3706.000000	100.635814 
3705.000000	100.623580 
3704.000000	100.612659 
3703.000000	100.607660 
3702.000000	100.607990 
3701.000000	100.608986 
3700.000000	100.606875 
3699.000000	100.601579 
3698.000000	100.596278 
3697.000000	100.592484 
3696.000000	100.587092 
3695.000000	100.579679 
3694.000000	100.575790 
3693.000000	100.578202 
3692.000000	100.581433 
3691.000000	100.579727 
3690.000000	100.576281 
3689.000000	100.576110 
3688.000000	100.577789 
3687.000000	100.577441 
3686.000000	100.575354 
3685.000000	100.575668 
3684.000000	100.578699 
3683.000000	100.577862 
3682.000000	100.570411 
3681.000000	100.564731 
3680.000000	100.565684 
3679.000000	100.563282 
3678.000000	100.548740 
3677.000000	100.538134 
3676.000000	100.548089 
3675.000000	100.563186 
3674.000000	100.566576 
3673.000000	100.563826 
3672.000000	100.569859 
3671.000000	100.588171 
3670.000000	100.597541 
3669.000000	100.582325 
3668.000000	100.558879 
3667.000000	100.546430 
3666.000000	100.544446 
3665.000000	100.543488 
3664.000000	100.539177 
3663.000000	100.534786 
3662.000000	100.535678 
3661.000000	100.542415 
3660.000000	100.550002 
3659.000000	100.554984 
3658.000000	100.559884 
3657.000000	100.569266 
3656.000000	100.579809 
3655.000000	100.585568 
3654.000000	100.587885 
3653.000000	100.593660 
3652.000000	100.608213 
3651.000000	100.625641 
3650.000000	100.629452 
3649.000000	100.616125 
3648.000000	100.602828 
3647.000000	100.600721 
3646.000000	100.604545 
3645.000000	100.607425 
3644.000000	100.608795 
3643.000000	100.609286 
3642.000000	100.607050 
3641.000000	100.601265 
3640.000000	100.597619 
3639.000000	100.603700 
3638.000000	100.618661 
3637.000000	100.633987 
3636.000000	100.644122 
3635.000000	100.651366 
3634.000000	100.656989 
3633.000000	100.656805 
3632.000000	100.649529 
3631.000000	100.645642 
3630.000000	100.656482 
3629.000000	100.668218 
3628.000000	100.661155 
3627.000000	100.646015 
3626.000000	100.642983 
3625.000000	100.653591 
3624.000000	100.664609 
3623.000000	100.663602 
3622.000000	100.651837 
3621.000000	100.641688 
3620.000000	100.641173 
3619.000000	100.646857 
3618.000000	100.654126 
3617.000000	100.663093 
3616.000000	100.673995 
3615.000000	100.685678 
3614.000000	100.694570 
3613.000000	100.695052 
3612.000000	100.685251 
3611.000000	100.670931 
3610.000000	100.660235 
3609.000000	100.655415 
3608.000000	100.652028 
3607.000000	100.647381 
3606.000000	100.645239 
3605.000000	100.649066 
3604.000000	100.656690 
3603.000000	100.662998 
3602.000000	100.665825 
3601.000000	100.667129 
3600.000000	100.668489 
3599.000000	100.670468 
3598.000000	100.673407 
3597.000000	100.676468 
3596.000000	100.677686 
3595.000000	100.677306 
3594.000000	100.677543 
3593.000000	100.680932 
3592.000000	100.687812 
3591.000000	100.695871 
3590.000000	100.702691 
3589.000000	100.706657 
3588.000000	100.704887 
3587.000000	100.695582 
3586.000000	100.683665 
3585.000000	100.676615 
3584.000000	100.676132 
3583.000000	100.678035 
3582.000000	100.677475 
3581.000000	100.673212 
3580.000000	100.666978 
3579.000000	100.661012 
3578.000000	100.656622 
3577.000000	100.654400 
3576.000000	100.654473 
3575.000000	100.656496 
3574.000000	100.660049 
3573.000000	100.665033 
3572.000000	100.671567 
3571.000000	100.678304 
3570.000000	100.682888 
3569.000000	100.684007 
3568.000000	100.681385 
3567.000000	100.675726 
3566.000000	100.671039 
3565.000000	100.671886 
3564.000000	100.677406 
3563.000000	100.682173 
3562.000000	100.682105 
3561.000000	100.678050 
3560.000000	100.673970 
3559.000000	100.672281 
3558.000000	100.672547 
3557.000000	100.673568 
3556.000000	100.675132 
3555.000000	100.677548 
3554.000000	100.680660 
3553.000000	100.683201 
3552.000000	100.683445 
3551.000000	100.680991 
3550.000000	100.677283 
3549.000000	100.674131 
3548.000000	100.671978 
3547.000000	100.670262 
3546.000000	100.669200 
3545.000000	100.669767 
3544.000000	100.671834 
3543.000000	100.673925 
3542.000000	100.675094 
3541.000000	100.675593 
3540.000000	100.676046 
3539.000000	100.676905 
3538.000000	100.678509 
3537.000000	100.680385 
3536.000000	100.680747 
3535.000000	100.678377 
3534.000000	100.674412 
3533.000000	100.671715 
3532.000000	100.672154 
3531.000000	100.675729 
3530.000000	100.681769 
3529.000000	100.689508 
3528.000000	100.697180 
3527.000000	100.702344 
3526.000000	100.704051 
3525.000000	100.703306 
3524.000000	100.701094 
3523.000000	100.697404 
3522.000000	100.692667 
3521.000000	100.688266 
3520.000000	100.684938 
3519.000000	100.681911 
3518.000000	100.678157 
3517.000000	100.674207 
3516.000000	100.672011 
3515.000000	100.673096 
3514.000000	100.676819 
3513.000000	100.681016 
3512.000000	100.683928 
3511.000000	100.685148 
3510.000000	100.685203 
3509.000000	100.684758 
3508.000000	100.684188 
3507.000000	100.683512 
3506.000000	100.682322 
3505.000000	100.679603 
3504.000000	100.674406 
3503.000000	100.668133 
3502.000000	100.665468 
3501.000000	100.670814 
3500.000000	100.683176 
3499.000000	100.695854 
3498.000000	100.701551 
3497.000000	100.697875 
3496.000000	100.688768 
3495.000000	100.680927 
3494.000000	100.678379 
3493.000000	100.679814 
3492.000000	100.680984 
3491.000000	100.679492 
3490.000000	100.677133 
3489.000000	100.677620 
3488.000000	100.682236 
3487.000000	100.688276 
3486.000000	100.691746 
3485.000000	100.690958 
3484.000000	100.687658 
3483.000000	100.685321 
3482.000000	100.685994 
3481.000000	100.688316 
3480.000000	100.688968 
3479.000000	100.686487 
3478.000000	100.683018 
3477.000000	100.681488 
3476.000000	100.681728 
3475.000000	100.680867 
3474.000000	100.677782 
3473.000000	100.675269 
3472.000000	100.676931 
3471.000000	100.682962 
3470.000000	100.690008 
3469.000000	100.694654 
3468.000000	100.695918 
3467.000000	100.694574 
3466.000000	100.691553 
3465.000000	100.687637 
3464.000000	100.683749 
3463.000000	100.680565 
3462.000000	100.677924 
3461.000000	100.675145 
3460.000000	100.671985 
3459.000000	100.669048 
3458.000000	100.667287 
3457.000000	100.667266 
3456.000000	100.668695 
3455.000000	100.670740 
3454.000000	100.672936 
3453.000000	100.675680 
3452.000000	100.679160 
3451.000000	100.682526 
3450.000000	100.684774 
3449.000000	100.685884 
3448.000000	100.686106 
3447.000000	100.684737 
3446.000000	100.681374 
3445.000000	100.677798 
3444.000000	100.676767 
3443.000000	100.678794 
3442.000000	100.681513 
3441.000000	100.682779 
3440.000000	100.683162 
3439.000000	100.684448 
3438.000000	100.686603 
3437.000000	100.687582 
3436.000000	100.685857 
3435.000000	100.682311 
3434.000000	100.679549 
3433.000000	100.679618 
3432.000000	100.682040 
3431.000000	100.684272 
3430.000000	100.684146 
3429.000000	100.681536 
3428.000000	100.677775 
3427.000000	100.674155 
3426.000000	100.671589 
3425.000000	100.670971 
3424.000000	100.672995 
3423.000000	100.677440 
3422.000000	100.682787 
3421.000000	100.686626 
3420.000000	100.686912 
3419.000000	100.683649 
3418.000000	100.679383 
3417.000000	100.677250 
3416.000000	100.678064 
3415.000000	100.679751 
3414.000000	100.679904 
3413.000000	100.678320 
3412.000000	100.676651 
3411.000000	100.676370 
3410.000000	100.677805 
3409.000000	100.680430 
3408.000000	100.683118 
3407.000000	100.684409 
3406.000000	100.683456 
3405.000000	100.681020 
3404.000000	100.679302 
3403.000000	100.680506 
3402.000000	100.685017 
3401.000000	100.690680 
3400.000000	100.694088 
3399.000000	100.693360 
3398.000000	100.689965 
3397.000000	100.687606 
3396.000000	100.689047 
3395.000000	100.693822 
3394.000000	100.698932 
3393.000000	100.701410 
3392.000000	100.700336 
3391.000000	100.696811 
3390.000000	100.692382 
3389.000000	100.687748 
3388.000000	100.682975 
3387.000000	100.678552 
3386.000000	100.675529 
3385.000000	100.674454 
3384.000000	100.674699 
3383.000000	100.675313 
3382.000000	100.675998 
3381.000000	100.676701 
3380.000000	100.676686 
3379.000000	100.674994 
3378.000000	100.672055 
3377.000000	100.670251 
3376.000000	100.672362 
3375.000000	100.679208 
3374.000000	100.688728 
3373.000000	100.697276 
3372.000000	100.702113 
3371.000000	100.703060 
3370.000000	100.702039 
3369.000000	100.701082 
3368.000000	100.700717 
3367.000000	100.700030 
3366.000000	100.698030 
3365.000000	100.694937 
3364.000000	100.692269 
3363.000000	100.691719 
3362.000000	100.693541 
3361.000000	100.695745 
3360.000000	100.695222 
3359.000000	100.690443 
3358.000000	100.683372 
3357.000000	100.678332 
3356.000000	100.678535 
3355.000000	100.683506 
3354.000000	100.689767 
3353.000000	100.693828 
3352.000000	100.694681 
3351.000000	100.693992 
3350.000000	100.694309 
3349.000000	100.696937 
3348.000000	100.701043 
3347.000000	100.704499 
3346.000000	100.705663 
3345.000000	100.704535 
3344.000000	100.702406 
3343.000000	100.700511 
3342.000000	100.699014 
3341.000000	100.697330 
3340.000000	100.695310 
3339.000000	100.693668 
3338.000000	100.692985 
3337.000000	100.692677 
3336.000000	100.691714 
3335.000000	100.690459 
3334.000000	100.690960 
3333.000000	100.694766 
3332.000000	100.700742 
3331.000000	100.705726 
3330.000000	100.707445 
3329.000000	100.706369 
3328.000000	100.704627 
3327.000000	100.703610 
3326.000000	100.703015 
3325.000000	100.702014 
3324.000000	100.700931 
3323.000000	100.701353 
3322.000000	100.704226 
3321.000000	100.707987 
3320.000000	100.709195 
3319.000000	100.705551 
3318.000000	100.698368 
3317.000000	100.691816 
3316.000000	100.689641 
3315.000000	100.692431 
3314.000000	100.697575 
3313.000000	100.701675 
3312.000000	100.703347 
3311.000000	100.704036 
3310.000000	100.706025 
3309.000000	100.709678 
3308.000000	100.713054 
3307.000000	100.714264 
3306.000000	100.713300 
3305.000000	100.711047 
3304.000000	100.707570 
3303.000000	100.702630 
3302.000000	100.697425 
3301.000000	100.694367 
3300.000000	100.694734 
3299.000000	100.697512 
3298.000000	100.700862 
3297.000000	100.703911 
3296.000000	100.706684 
3295.000000	100.709041 
3294.000000	100.710500 
3293.000000	100.710933 
3292.000000	100.710979 
3291.000000	100.711650 
3290.000000	100.713490 
3289.000000	100.715937 
3288.000000	100.717498 
3287.000000	100.717003 
3286.000000	100.714824 
3285.000000	100.712567 
3284.000000	100.711619 
3283.000000	100.712339 
3282.000000	100.714252 
3281.000000	100.716210 
3280.000000	100.716495 
3279.000000	100.713835 
3278.000000	100.708969 
3277.000000	100.704694 
3276.000000	100.703651 
3275.000000	100.706078 
3274.000000	100.709841 
3273.000000	100.712257 
3272.000000	100.711715 
3271.000000	100.708194 
3270.000000	100.703096 
3269.000000	100.698595 
3268.000000	100.696579 
3267.000000	100.697855 
3266.000000	100.702078 
3265.000000	100.708004 
3264.000000	100.713936 
3263.000000	100.718468 
3262.000000	100.721113 
3261.000000	100.722166 
3260.000000	100.722091 
3259.000000	100.721172 
3258.000000	100.719683 
3257.000000	100.717899 
3256.000000	100.715648 
3255.000000	100.712533 
3254.000000	100.709152 
3253.000000	100.707628 
3252.000000	100.709938 
3251.000000	100.715642 
3250.000000	100.721811 
3249.000000	100.725525 
3248.000000	100.726109 
3247.000000	100.724755 
3246.000000	100.722547 
3245.000000	100.719541 
3244.000000	100.715894 
3243.000000	100.713242 
3242.000000	100.714136 
3241.000000	100.719764 
3240.000000	100.728163 
3239.000000	100.734846 
3238.000000	100.735898 
3237.000000	100.731172 
3236.000000	100.724508 
3235.000000	100.720388 
3234.000000	100.720203 
3233.000000	100.721863 
3232.000000	100.722773 
3231.000000	100.722547 
3230.000000	100.722524 
3229.000000	100.723436 
3228.000000	100.724340 
3227.000000	100.723672 
3226.000000	100.720786 
3225.000000	100.716423 
3224.000000	100.712198 
3223.000000	100.709726 
3222.000000	100.709675 
3221.000000	100.711385 
3220.000000	100.713658 
3219.000000	100.715812 
3218.000000	100.717685 
3217.000000	100.718954 
3216.000000	100.719186 
3215.000000	100.718542 
3214.000000	100.717837 
3213.000000	100.717714 
3212.000000	100.718255 
3211.000000	100.719663 
3210.000000	100.722640 
3209.000000	100.727361 
3208.000000	100.732329 
3207.000000	100.735157 
3206.000000	100.734887 
3205.000000	100.733223 
3204.000000	100.733144 
3203.000000	100.736295 
3202.000000	100.741731 
3201.000000	100.746989 
3200.000000	100.750011 
3199.000000	100.750002 
3198.000000	100.747171 
3197.000000	100.742594 
3196.000000	100.738266 
3195.000000	100.736093 
3194.000000	100.735921 
3193.000000	100.735198 
3192.000000	100.731730 
3191.000000	100.726723 
3190.000000	100.723912 
3189.000000	100.725432 
3188.000000	100.729645 
3187.000000	100.733475 
3186.000000	100.735715 
3185.000000	100.737121 
3184.000000	100.738221 
3183.000000	100.738401 
3182.000000	100.737162 
3181.000000	100.735034 
3180.000000	100.732791 
3179.000000	100.730523 
3178.000000	100.727913 
3177.000000	100.724867 
3176.000000	100.721499 
3175.000000	100.718164 
3174.000000	100.716065 
3173.000000	100.717165 
3172.000000	100.722454 
3171.000000	100.730193 
3170.000000	100.736696 
3169.000000	100.739480 
3168.000000	100.739478 
3167.000000	100.739779 
3166.000000	100.742358 
3165.000000	100.746454 
3164.000000	100.749965 
3163.000000	100.751677 
3162.000000	100.751932 
3161.000000	100.751795 
3160.000000	100.752195 
3159.000000	100.753618 
3158.000000	100.755691 
3157.000000	100.756773 
3156.000000	100.754781 
3155.000000	100.749347 
3154.000000	100.743046 
3153.000000	100.739703 
3152.000000	100.741008 
3151.000000	100.744973 
3150.000000	100.747870 
3149.000000	100.747589 
3148.000000	100.745122 
3147.000000	100.743066 
3146.000000	100.742901 
3145.000000	100.743756 
3144.000000	100.743866 
3143.000000	100.743097 
3142.000000	100.743473 
3141.000000	100.746806 
3140.000000	100.752294 
3139.000000	100.757116 
3138.000000	100.759279 
3137.000000	100.759350 
3136.000000	100.759327 
3135.000000	100.760242 
3134.000000	100.761166 
3133.000000	100.760422 
3132.000000	100.757503 
3131.000000	100.753582 
3130.000000	100.750177 
3129.000000	100.747710 
3128.000000	100.745660 
3127.000000	100.743969 
3126.000000	100.743739 
3125.000000	100.746082 
3124.000000	100.750403 
3123.000000	100.754525 
3122.000000	100.756794 
3121.000000	100.757627 
3120.000000	100.758806 
3119.000000	100.761444 
3118.000000	100.764585 
3117.000000	100.765782 
3116.000000	100.763356 
3115.000000	100.758298 
3114.000000	100.753615 
3113.000000	100.751400 
3112.000000	100.750840 
3111.000000	100.749701 
3110.000000	100.747456 
3109.000000	100.745898 
3108.000000	100.746455 
3107.000000	100.748012 
3106.000000	100.748181 
3105.000000	100.746054 
3104.000000	100.743064 
3103.000000	100.741851 
3102.000000	100.744718 
3101.000000	100.751886 
3100.000000	100.760358 
3099.000000	100.765480 
3098.000000	100.764886 
3097.000000	100.760781 
3096.000000	100.757657 
3095.000000	100.758007 
3094.000000	100.760900 
3093.000000	100.764079 
3092.000000	100.766073 
3091.000000	100.766287 
3090.000000	100.764529 
3089.000000	100.761457 
3088.000000	100.758951 
3087.000000	100.759045 
3086.000000	100.762117 
3085.000000	100.766339 
3084.000000	100.769204 
3083.000000	100.769650 
3082.000000	100.768626 
3081.000000	100.767699 
3080.000000	100.767578 
3079.000000	100.768024 
3078.000000	100.768376 
3077.000000	100.767605 
3076.000000	100.764589 
3075.000000	100.759401 
3074.000000	100.754160 
3073.000000	100.751560 
3072.000000	100.752473 
3071.000000	100.755869 
3070.000000	100.760665 
3069.000000	100.765892 
3068.000000	100.769071 
3067.000000	100.766865 
3066.000000	100.758940 
3065.000000	100.749754 
3064.000000	100.744752 
3063.000000	100.745357 
3062.000000	100.748791 
3061.000000	100.751863 
3060.000000	100.753542 
3059.000000	100.754436 
3058.000000	100.755408 
3057.000000	100.756949 
3056.000000	100.758981 
3055.000000	100.761046 
3054.000000	100.762977 
3053.000000	100.764982 
3052.000000	100.766605 
3051.000000	100.766418 
3050.000000	100.763682 
3049.000000	100.759664 
3048.000000	100.756186 
3047.000000	100.753305 
3046.000000	100.749759 
3045.000000	100.745542 
3044.000000	100.742547 
3043.000000	100.742230 
3042.000000	100.743697 
3041.000000	100.744729 
3040.000000	100.744013 
3039.000000	100.741787 
3038.000000	100.738869 
3037.000000	100.735739 
3036.000000	100.732388 
3035.000000	100.728660 
3034.000000	100.724549 
3033.000000	100.720230 
3032.000000	100.715771 
3031.000000	100.710819 
3030.000000	100.704856 
3029.000000	100.697798 
3028.000000	100.690181 
3027.000000	100.682787 
3026.000000	100.676231 
3025.000000	100.670641 
3024.000000	100.665241 
3023.000000	100.658327 
3022.000000	100.648322 
3021.000000	100.635192 
3020.000000	100.620795 
3019.000000	100.607933 
3018.000000	100.598961 
3017.000000	100.594419 
3016.000000	100.592143 
3015.000000	100.588040 
3014.000000	100.578756 
3013.000000	100.563992 
3012.000000	100.545961 
3011.000000	100.526813 
3010.000000	100.507426 
3009.000000	100.488720 
3008.000000	100.472968 
3007.000000	100.462665 
3006.000000	100.458077 
3005.000000	100.456283 
3004.000000	100.452731 
3003.000000	100.443958 
3002.000000	100.429598 
3001.000000	100.412536 
3000.000000	100.396959 
2999.000000	100.385393 
2998.000000	100.377138 
2997.000000	100.369880 
2996.000000	100.362798 
2995.000000	100.356994 
2994.000000	100.352031 
2993.000000	100.343242 
2992.000000	100.324921 
2991.000000	100.297161 
2990.000000	100.268094 
2989.000000	100.247725 
2988.000000	100.239844 
2987.000000	100.240920 
2986.000000	100.245847 
2985.000000	100.252612 
2984.000000	100.261134 
2983.000000	100.269956 
2982.000000	100.276105 
2981.000000	100.277819 
2980.000000	100.276154 
2979.000000	100.273701 
2978.000000	100.272191 
2977.000000	100.271275 
2976.000000	100.269193 
2975.000000	100.264706 
2974.000000	100.258537 
2973.000000	100.252735 
2972.000000	100.248612 
2971.000000	100.245816 
2970.000000	100.243667 
2969.000000	100.242662 
2968.000000	100.244072 
2967.000000	100.248474 
2966.000000	100.255259 
2965.000000	100.263336 
2964.000000	100.271751 
2963.000000	100.279726 
2962.000000	100.286686 
2961.000000	100.292347 
2960.000000	100.296636 
2959.000000	100.299780 
2958.000000	100.302791 
2957.000000	100.307304 
2956.000000	100.314026 
2955.000000	100.321303 
2954.000000	100.326264 
2953.000000	100.328206 
2952.000000	100.330461 
2951.000000	100.337773 
2950.000000	100.351144 
2949.000000	100.365692 
2948.000000	100.374448 
2947.000000	100.374479 
2946.000000	100.368855 
2945.000000	100.362662 
2944.000000	100.358233 
2943.000000	100.354776 
2942.000000	100.351145 
2941.000000	100.346977 
2940.000000	100.341360 
2939.000000	100.332490 
2938.000000	100.319594 
2937.000000	100.304237 
2936.000000	100.289108 
2935.000000	100.276235 
2934.000000	100.266452 
2933.000000	100.259188 
2932.000000	100.252044 
2931.000000	100.241839 
2930.000000	100.227312 
2929.000000	100.210320 
2928.000000	100.193901 
2927.000000	100.179950 
2926.000000	100.169143 
2925.000000	100.161603 
2924.000000	100.156591 
2923.000000	100.152906 
2922.000000	100.151021 
2921.000000	100.153720 
2920.000000	100.162900 
2919.000000	100.176434 
2918.000000	100.189841 
2917.000000	100.200695 
2916.000000	100.209981 
2915.000000	100.219574 
2914.000000	100.230190 
2913.000000	100.241768 
2912.000000	100.253911 
2911.000000	100.265314 
2910.000000	100.274114 
2909.000000	100.279638 
2908.000000	100.283048 
2907.000000	100.285625 
2906.000000	100.287022 
2905.000000	100.285688 
2904.000000	100.280704 
2903.000000	100.272977 
2902.000000	100.265651 
2901.000000	100.263470 
2900.000000	100.270122 
2899.000000	100.285184 
2898.000000	100.303708 
2897.000000	100.319875 
2896.000000	100.331298 
2895.000000	100.339793 
2894.000000	100.348332 
2893.000000	100.357718 
2892.000000	100.366132 
2891.000000	100.371350 
2890.000000	100.373095 
2889.000000	100.373306 
2888.000000	100.374331 
2887.000000	100.377125 
2886.000000	100.381278 
2885.000000	100.386337 
2884.000000	100.392493 
2883.000000	100.400053 
2882.000000	100.408850 
2881.000000	100.418463 
2880.000000	100.428681 
2879.000000	100.439498 
2878.000000	100.450760 
2877.000000	100.461873 
2876.000000	100.471686 
2875.000000	100.478705 
2874.000000	100.481896 
2873.000000	100.481730 
2872.000000	100.480414 
2871.000000	100.480782 
2870.000000	100.484513 
2869.000000	100.491064 
2868.000000	100.498297 
2867.000000	100.504489 
2866.000000	100.509904 
2865.000000	100.516082 
2864.000000	100.523265 
2863.000000	100.528943 
2862.000000	100.529620 
2861.000000	100.524186 
2860.000000	100.515285 
2859.000000	100.507256 
2858.000000	100.502775 
2857.000000	100.501350 
2856.000000	100.500716 
2855.000000	100.499678 
2854.000000	100.499635 
2853.000000	100.503240 
2852.000000	100.511759 
2851.000000	100.524164 
2850.000000	100.538837 
2849.000000	100.555328 
2848.000000	100.573857 
2847.000000	100.593639 
2846.000000	100.612535 
2845.000000	100.628351 
2844.000000	100.640190 
2843.000000	100.648844 
2842.000000	100.656422 
2841.000000	100.665170 
2840.000000	100.675670 
2839.000000	100.685967 
2838.000000	100.693054 
2837.000000	100.695621 
2836.000000	100.695284 
2835.000000	100.695344 
2834.000000	100.698545 
2833.000000	100.705541 
2832.000000	100.714602 
2831.000000	100.722769 
2830.000000	100.728069 
2829.000000	100.731023 
2828.000000	100.733790 
2827.000000	100.737684 
2826.000000	100.741877 
2825.000000	100.744560 
2824.000000	100.745013 
2823.000000	100.744431 
2822.000000	100.744924 
2821.000000	100.747725 
2820.000000	100.752164 
2819.000000	100.756420 
2818.000000	100.759401 
2817.000000	100.761556 
2816.000000	100.763587 
2815.000000	100.765040 
2814.000000	100.765014 
2813.000000	100.763933 
2812.000000	100.763382 
2811.000000	100.764003 
2810.000000	100.764604 
2809.000000	100.763991 
2808.000000	100.762860 
2807.000000	100.763083 
2806.000000	100.765512 
2805.000000	100.769261 
2804.000000	100.772973 
2803.000000	100.776083 
2802.000000	100.778704 
2801.000000	100.780796 
2800.000000	100.781801 
2799.000000	100.781101 
2798.000000	100.778828 
2797.000000	100.776258 
2796.000000	100.775175 
2795.000000	100.776555 
2794.000000	100.779749 
2793.000000	100.782954 
2792.000000	100.784452 
2791.000000	100.783562 
2790.000000	100.780947 
2789.000000	100.778387 
2788.000000	100.777938 
2787.000000	100.780576 
2786.000000	100.785327 
2785.000000	100.790001 
2784.000000	100.792997 
2783.000000	100.794214 
2782.000000	100.794228 
2781.000000	100.793224 
2780.000000	100.791322 
2779.000000	100.789515 
2778.000000	100.789247 
2777.000000	100.790741 
2776.000000	100.792393 
2775.000000	100.792373 
2774.000000	100.790485 
2773.000000	100.788052 
2772.000000	100.786334 
2771.000000	100.785612 
2770.000000	100.785681 
2769.000000	100.786628 
2768.000000	100.788991 
2767.000000	100.793256 
2766.000000	100.798967 
2765.000000	100.804166 
2764.000000	100.806307 
2763.000000	100.804511 
2762.000000	100.800806 
2761.000000	100.798568 
2760.000000	100.799736 
2759.000000	100.803747 
2758.000000	100.808616 
2757.000000	100.812289 
2756.000000	100.813480 
2755.000000	100.812382 
2754.000000	100.810596 
2753.000000	100.809388 
2752.000000	100.808125 
2751.000000	100.805532 
2750.000000	100.802313 
2749.000000	100.800896 
2748.000000	100.802009 
2747.000000	100.803135 
2746.000000	100.801501 
2745.000000	100.797623 
2744.000000	100.794660 
2743.000000	100.794825 
2742.000000	100.797563 
2741.000000	100.800854 
2740.000000	100.803201 
2739.000000	100.804379 
2738.000000	100.805130 
2737.000000	100.806370 
2736.000000	100.808267 
2735.000000	100.810006 
2734.000000	100.810558 
2733.000000	100.809504 
2732.000000	100.807111 
2731.000000	100.804155 
2730.000000	100.801904 
2729.000000	100.801624 
2728.000000	100.803611 
2727.000000	100.807001 
2726.000000	100.810688 
2725.000000	100.813941 
2724.000000	100.816147 
2723.000000	100.816956 
2722.000000	100.817100 
2721.000000	100.818073 
2720.000000	100.820217 
2719.000000	100.821881 
2718.000000	100.821244 
2717.000000	100.818454 
2716.000000	100.815420 
2715.000000	100.814163 
2714.000000	100.815841 
2713.000000	100.820236 
2712.000000	100.825197 
2711.000000	100.827577 
2710.000000	100.826226 
2709.000000	100.823621 
2708.000000	100.823224 
2707.000000	100.825397 
2706.000000	100.827083 
2705.000000	100.825497 
2704.000000	100.821052 
2703.000000	100.816520 
2702.000000	100.814248 
2701.000000	100.814427 
2700.000000	100.815501 
2699.000000	100.815890 
2698.000000	100.815376 
2697.000000	100.814792 
2696.000000	100.814689 
2695.000000	100.815113 
2694.000000	100.816539 
2693.000000	100.819449 
2692.000000	100.822316 
2691.000000	100.821733 
2690.000000	100.816311 
2689.000000	100.809589 
2688.000000	100.807131 
2687.000000	100.810876 
2686.000000	100.817609 
2685.000000	100.822696 
2684.000000	100.824004 
2683.000000	100.822570 
2682.000000	100.821161 
2681.000000	100.822292 
2680.000000	100.826162 
2679.000000	100.830075 
2678.000000	100.830976 
2677.000000	100.828731 
2676.000000	100.826010 
2675.000000	100.825027 
2674.000000	100.825693 
2673.000000	100.826920 
2672.000000	100.828085 
2671.000000	100.828558 
2670.000000	100.827139 
2669.000000	100.823162 
2668.000000	100.817846 
2667.000000	100.813943 
2666.000000	100.814008 
2665.000000	100.818672 
2664.000000	100.825960 
2663.000000	100.832515 
2662.000000	100.836308 
2661.000000	100.838081 
2660.000000	100.839477 
2659.000000	100.840304 
2658.000000	100.838998 
2657.000000	100.835574 
2656.000000	100.832393 
2655.000000	100.831505 
2654.000000	100.832462 
2653.000000	100.833306 
2652.000000	100.832740 
2651.000000	100.830896 
2650.000000	100.828938 
2649.000000	100.828257 
2648.000000	100.829151 
2647.000000	100.830178 
2646.000000	100.829901 
2645.000000	100.829297 
2644.000000	100.830872 
2643.000000	100.835094 
2642.000000	100.839429 
2641.000000	100.841731 
2640.000000	100.842973 
2639.000000	100.845495 
2638.000000	100.849854 
2637.000000	100.854475 
2636.000000	100.857294 
2635.000000	100.856785 
2634.000000	100.852724 
2633.000000	100.847204 
2632.000000	100.843689 
2631.000000	100.843666 
2630.000000	100.845201 
2629.000000	100.845986 
2628.000000	100.846535 
2627.000000	100.848766 
2626.000000	100.852603 
2625.000000	100.856150 
2624.000000	100.858550 
2623.000000	100.860542 
2622.000000	100.862389 
2621.000000	100.863303 
2620.000000	100.863062 
2619.000000	100.862404 
2618.000000	100.861517 
2617.000000	100.859741 
2616.000000	100.857135 
2615.000000	100.854868 
2614.000000	100.853560 
2613.000000	100.852645 
2612.000000	100.851972 
2611.000000	100.852730 
2610.000000	100.855766 
2609.000000	100.859834 
2608.000000	100.862548 
2607.000000	100.862829 
2606.000000	100.861910 
2605.000000	100.862078 
2604.000000	100.864519 
2603.000000	100.867997 
2602.000000	100.869756 
2601.000000	100.868393 
2600.000000	100.865774 
2599.000000	100.865236 
2598.000000	100.867822 
2597.000000	100.871346 
2596.000000	100.873172 
2595.000000	100.872467 
2594.000000	100.869311 
2593.000000	100.863574 
2592.000000	100.856339 
2591.000000	100.851161 
2590.000000	100.851639 
2589.000000	100.857718 
2588.000000	100.865782 
2587.000000	100.872109 
2586.000000	100.874597 
2585.000000	100.871659 
2584.000000	100.862510 
2583.000000	100.850025 
2582.000000	100.840974 
2581.000000	100.840646 
2580.000000	100.847425 
2579.000000	100.854428 
2578.000000	100.856518 
2577.000000	100.854495 
2576.000000	100.852790 
2575.000000	100.854684 
2574.000000	100.859935 
2573.000000	100.865397 
2572.000000	100.867189 
2571.000000	100.863443 
2570.000000	100.856004 
2569.000000	100.849174 
2568.000000	100.846307 
2567.000000	100.847694 
2566.000000	100.851452 
2565.000000	100.855491 
2564.000000	100.858502 
2563.000000	100.860038 
2562.000000	100.860359 
2561.000000	100.860078 
2560.000000	100.859979 
2559.000000	100.861124 
2558.000000	100.864081 
2557.000000	100.867097 
2556.000000	100.866480 
2555.000000	100.861090 
2554.000000	100.855757 
2553.000000	100.857175 
2552.000000	100.865872 
2551.000000	100.875142 
2550.000000	100.878975 
2549.000000	100.878065 
2548.000000	100.876214 
2547.000000	100.873981 
2546.000000	100.869334 
2545.000000	100.862851 
2544.000000	100.858334 
2543.000000	100.858197 
2542.000000	100.861055 
2541.000000	100.864178 
2540.000000	100.866062 
2539.000000	100.866129 
2538.000000	100.863897 
2537.000000	100.859384 
2536.000000	100.853380 
2535.000000	100.847090 
2534.000000	100.842333 
2533.000000	100.841609 
2532.000000	100.846240 
2531.000000	100.854274 
2530.000000	100.861576 
2529.000000	100.865446 
2528.000000	100.866463 
2527.000000	100.867018 
2526.000000	100.869245 
2525.000000	100.874201 
2524.000000	100.881537 
2523.000000	100.889394 
2522.000000	100.895442 
2521.000000	100.898397 
2520.000000	100.898347 
2519.000000	100.896146 
2518.000000	100.893154 
2517.000000	100.890797 
2516.000000	100.889203 
2515.000000	100.886913 
2514.000000	100.883131 
2513.000000	100.879420 
2512.000000	100.877483 
2511.000000	100.876099 
2510.000000	100.872728 
2509.000000	100.868254 
2508.000000	100.867521 
2507.000000	100.873775 
2506.000000	100.883962 
2505.000000	100.890793 
2504.000000	100.889089 
2503.000000	100.879756 
2502.000000	100.868493 
2501.000000	100.861390 
2500.000000	100.861244 
2499.000000	100.867099 
2498.000000	100.876477 
2497.000000	100.887128 
2496.000000	100.896552 
2495.000000	100.901513 
2494.000000	100.899819 
2493.000000	100.892356 
2492.000000	100.882230 
2491.000000	100.872265 
2490.000000	100.864351 
2489.000000	100.860233 
2488.000000	100.860724 
2487.000000	100.864232 
2486.000000	100.868142 
2485.000000	100.872161 
2484.000000	100.878505 
2483.000000	100.887934 
2482.000000	100.897084 
2481.000000	100.901010 
2480.000000	100.897835 
2479.000000	100.890231 
2478.000000	100.882859 
2477.000000	100.878844 
2476.000000	100.878127 
2475.000000	100.878573 
2474.000000	100.878571 
2473.000000	100.878632 
2472.000000	100.880486 
2471.000000	100.885015 
2470.000000	100.891156 
2469.000000	100.896037 
2468.000000	100.895977 
2467.000000	100.888929 
2466.000000	100.877477 
2465.000000	100.868467 
2464.000000	100.867489 
2463.000000	100.873437 
2462.000000	100.879758 
2461.000000	100.881197 
2460.000000	100.878332 
2459.000000	100.875755 
2458.000000	100.877195 
2457.000000	100.882482 
2456.000000	100.887912 
2455.000000	100.889158 
2454.000000	100.884750 
2453.000000	100.877119 
2452.000000	100.870012 
2451.000000	100.865397 
2450.000000	100.863358 
2449.000000	100.863673 
2448.000000	100.865763 
2447.000000	100.867960 
2446.000000	100.869038 
2445.000000	100.870375 
2444.000000	100.874457 
2443.000000	100.881016 
2442.000000	100.886607 
2441.000000	100.888501 
2440.000000	100.887335 
2439.000000	100.885526 
2438.000000	100.884865 
2437.000000	100.886157 
2436.000000	100.889049 
2435.000000	100.890929 
2434.000000	100.887832 
2433.000000	100.878468 
2432.000000	100.866829 
2431.000000	100.859277 
2430.000000	100.859047 
2429.000000	100.864250 
2428.000000	100.870834 
2427.000000	100.876427 
2426.000000	100.881017 
2425.000000	100.884639 
2424.000000	100.885624 
2423.000000	100.882198 
2422.000000	100.875692 
2421.000000	100.870708 
2420.000000	100.870936 
2419.000000	100.875555 
2418.000000	100.880800 
2417.000000	100.884093 
2416.000000	100.885077 
2415.000000	100.883527 
2414.000000	100.878934 
2413.000000	100.872576 
2412.000000	100.867694 
2411.000000	100.866339 
2410.000000	100.867242 
2409.000000	100.867755 
2408.000000	100.866925 
2407.000000	100.865910 
2406.000000	100.866329 
2405.000000	100.868954 
2404.000000	100.873156 
2403.000000	100.876795 
2402.000000	100.877388 
2401.000000	100.874282 
2400.000000	100.869359 
2399.000000	100.865032 
2398.000000	100.862067 
2397.000000	100.859985 
2396.000000	100.858976 
2395.000000	100.860277 
2394.000000	100.864454 
2393.000000	100.869959 
2392.000000	100.874077 
2391.000000	100.875479 
2390.000000	100.875568 
2389.000000	100.876900 
2388.000000	100.880308 
2387.000000	100.884135 
2386.000000	100.886423 
2385.000000	100.887040 
2384.000000	100.887157 
2383.000000	100.887483 
2382.000000	100.888060 
2381.000000	100.889196 
2380.000000	100.891178 
2379.000000	100.892944 
2378.000000	100.892492 
2377.000000	100.889454 
2376.000000	100.886255 
2375.000000	100.885912 
2374.000000	100.888898 
2373.000000	100.893424 
2372.000000	100.898498 
2371.000000	100.905222 
2370.000000	100.914338 
2369.000000	100.923176 
2368.000000	100.925631 
2367.000000	100.916409 
2366.000000	100.897410 
2365.000000	100.880005 
2364.000000	100.876350 
2363.000000	100.888055 
2362.000000	100.905586 
2361.000000	100.916931 
2360.000000	100.918823 
2359.000000	100.917131 
2358.000000	100.917563 
2357.000000	100.921407 
2356.000000	100.924909 
2355.000000	100.923788 
2354.000000	100.917132 
2353.000000	100.909311 
2352.000000	100.907321 
2351.000000	100.912668 
2350.000000	100.921653 
2349.000000	100.928050 
2348.000000	100.927850 
2347.000000	100.923065 
2346.000000	100.916533 
2345.000000	100.910996 
2344.000000	100.907266 
2343.000000	100.907202 
2342.000000	100.911835 
2341.000000	100.918634 
2340.000000	100.925019 
2339.000000	100.928321 
2338.000000	100.928450 
2337.000000	100.927359 
2336.000000	100.927736 
2335.000000	100.928595 
2334.000000	100.928390 
2333.000000	100.927411 
2332.000000	100.928878 
2331.000000	100.930449 
2330.000000	100.928688 
2329.000000	100.923188 
2328.000000	100.918690 
2327.000000	100.919998 
2326.000000	100.925866 
2325.000000	100.932663 
2324.000000	100.935820 
2323.000000	100.934835 
2322.000000	100.934195 
2321.000000	100.939139 
2320.000000	100.949905 
2319.000000	100.958537 
2318.000000	100.958561 
2317.000000	100.950060 
2316.000000	100.939689 
2315.000000	100.931704 
2314.000000	100.927531 
2313.000000	100.926768 
2312.000000	100.929733 
2311.000000	100.935178 
2310.000000	100.941768 
2309.000000	100.948593 
2308.000000	100.954249 
2307.000000	100.955101 
2306.000000	100.949129 
2305.000000	100.939498 
2304.000000	100.932141 
2303.000000	100.928822 
2302.000000	100.927247 
2301.000000	100.925533 
2300.000000	100.924442 
2299.000000	100.923639 
2298.000000	100.921627 
2297.000000	100.919505 
2296.000000	100.921716 
2295.000000	100.930098 
2294.000000	100.940035 
2293.000000	100.945027 
2292.000000	100.943027 
2291.000000	100.937091 
2290.000000	100.931248 
2289.000000	100.928318 
2288.000000	100.929570 
2287.000000	100.934390 
2286.000000	100.939952 
2285.000000	100.942865 
2284.000000	100.941087 
2283.000000	100.934507 
2282.000000	100.924501 
2281.000000	100.913521 
2280.000000	100.904492 
2279.000000	100.900155 
2278.000000	100.902862 
2277.000000	100.913281 
2276.000000	100.928434 
2275.000000	100.942303 
2274.000000	100.950309 
2273.000000	100.951843 
2272.000000	100.947249 
2271.000000	100.935671 
2270.000000	100.919727 
2269.000000	100.909525 
2268.000000	100.915583 
2267.000000	100.937164 
2266.000000	100.961868 
2265.000000	100.977114 
2264.000000	100.978831 
2263.000000	100.970474 
2262.000000	100.959487 
2261.000000	100.955165 
2260.000000	100.962902 
2259.000000	100.977836 
2258.000000	100.988552 
2257.000000	100.989338 
2256.000000	100.984949 
2255.000000	100.981620 
2254.000000	100.978751 
2253.000000	100.972514 
2252.000000	100.963588 
2251.000000	100.957270 
2250.000000	100.958301 
2249.000000	100.967782 
2248.000000	100.982432 
2247.000000	100.995491 
2246.000000	101.000944 
2245.000000	100.998758 
2244.000000	100.993783 
2243.000000	100.989087 
2242.000000	100.983869 
2241.000000	100.978176 
2240.000000	100.974696 
2239.000000	100.974320 
2238.000000	100.974643 
2237.000000	100.974753 
2236.000000	100.976569 
2235.000000	100.979007 
2234.000000	100.976247 
2233.000000	100.965974 
2232.000000	100.955339 
2231.000000	100.954251 
2230.000000	100.965341 
2229.000000	100.983686 
2228.000000	101.003358 
2227.000000	101.020269 
2226.000000	101.030917 
2225.000000	101.032994 
2224.000000	101.027389 
2223.000000	101.017538 
2222.000000	101.007598 
2221.000000	101.001921 
2220.000000	101.003572 
2219.000000	101.011582 
2218.000000	101.021899 
2217.000000	101.032612 
2216.000000	101.046081 
2215.000000	101.064221 
2214.000000	101.083428 
2213.000000	101.095688 
2212.000000	101.094336 
2211.000000	101.079843 
2210.000000	101.062015 
2209.000000	101.054367 
2208.000000	101.061489 
2207.000000	101.072910 
2206.000000	101.074300 
2205.000000	101.063486 
2204.000000	101.049812 
2203.000000	101.039650 
2202.000000	101.031335 
2201.000000	101.024157 
2200.000000	101.021642 
2199.000000	101.022696 
2198.000000	101.019472 
2197.000000	101.009912 
2196.000000	101.004607 
2195.000000	101.014447 
2194.000000	101.037134 
2193.000000	101.061216 
2192.000000	101.077746 
2191.000000	101.082532 
2190.000000	101.073572 
2189.000000	101.054669 
2188.000000	101.037527 
2187.000000	101.032569 
2186.000000	101.039932 
2185.000000	101.054024 
2184.000000	101.071976 
2183.000000	101.091114 
2182.000000	101.103416 
2181.000000	101.102381 
2180.000000	101.093653 
2179.000000	101.089921 
2178.000000	101.095866 
2177.000000	101.104720 
2176.000000	101.108561 
2175.000000	101.105635 
2174.000000	101.097743 
2173.000000	101.086820 
2172.000000	101.075748 
2171.000000	101.068735 
2170.000000	101.069747 
2169.000000	101.081731 
2168.000000	101.105329 
2167.000000	101.135604 
2166.000000	101.162336 
2165.000000	101.177979 
2164.000000	101.184933 
2163.000000	101.191594 
2162.000000	101.202454 
2161.000000	101.214688 
2160.000000	101.221557 
2159.000000	101.216043 
2158.000000	101.195315 
2157.000000	101.166181 
2156.000000	101.141576 
2155.000000	101.127540 
2154.000000	101.117660 
2153.000000	101.102999 
2152.000000	101.083882 
2151.000000	101.068878 
2150.000000	101.065640 
2149.000000	101.076232 
2148.000000	101.097424 
2147.000000	101.120254 
2146.000000	101.131611 
2145.000000	101.123092 
2144.000000	101.099559 
2143.000000	101.075079 
2142.000000	101.060148 
2141.000000	101.055202 
2140.000000	101.055107 
2139.000000	101.055660 
2138.000000	101.054433 
2137.000000	101.048691 
2136.000000	101.036151 
2135.000000	101.018568 
2134.000000	101.003169 
2133.000000	100.997970 
2132.000000	101.003531 
2131.000000	101.010253 
2130.000000	101.006686 
2129.000000	100.991630 
2128.000000	100.976035 
2127.000000	100.971123 
2126.000000	100.976450 
2125.000000	100.982158 
2124.000000	100.982000 
2123.000000	100.980541 
2122.000000	100.986010 
2121.000000	100.998699 
2120.000000	101.009790 
2119.000000	101.011825 
2118.000000	101.007189 
2117.000000	101.004125 
2116.000000	101.006236 
2115.000000	101.009516 
2114.000000	101.009786 
2113.000000	101.008675 
2112.000000	101.009600 
2111.000000	101.011187 
2110.000000	101.009248 
2109.000000	101.004084 
2108.000000	101.001047 
2107.000000	101.002963 
2106.000000	101.005592 
2105.000000	101.002189 
2104.000000	100.990592 
2103.000000	100.975058 
2102.000000	100.963131 
2101.000000	100.961065 
2100.000000	100.969450 
2099.000000	100.982095 
2098.000000	100.990775 
2097.000000	100.992150 
2096.000000	100.988831 
2095.000000	100.983459 
2094.000000	100.974674 
2093.000000	100.960678 
2092.000000	100.944890 
2091.000000	100.935561 
2090.000000	100.939027 
2089.000000	100.953093 
2088.000000	100.967588 
2087.000000	100.973302 
2086.000000	100.971030 
2085.000000	100.970120 
2084.000000	100.977061 
2083.000000	100.988169 
2082.000000	100.996061 
2081.000000	101.000330 
2080.000000	101.007000 
2079.000000	101.018835 
2078.000000	101.032050 
2077.000000	101.043414 
2076.000000	101.054938 
2075.000000	101.068572 
2074.000000	101.080682 
2073.000000	101.085434 
2072.000000	101.081741 
2071.000000	101.073946 
2070.000000	101.066774 
2069.000000	101.061933 
2068.000000	101.058583 
2067.000000	101.055369 
2066.000000	101.052169 
2065.000000	101.050453 
2064.000000	101.051760 
2063.000000	101.056329 
2062.000000	101.063958 
2061.000000	101.074791 
2060.000000	101.087568 
2059.000000	101.098759 
2058.000000	101.105896 
2057.000000	101.110396 
2056.000000	101.114418 
2055.000000	101.116818 
2054.000000	101.116214 
2053.000000	101.116402 
2052.000000	101.123667 
2051.000000	101.138854 
2050.000000	101.156023 
2049.000000	101.168596 
2048.000000	101.173362 
2047.000000	101.168850 
2046.000000	101.155927 
2045.000000	101.141885 
2044.000000	101.137505 
2043.000000	101.146635 
2042.000000	101.162893 
2041.000000	101.178403 
2040.000000	101.191349 
2039.000000	101.202698 
2038.000000	101.210604 
2037.000000	101.211989 
2036.000000	101.206659 
2035.000000	101.197240 
2034.000000	101.187534 
2033.000000	101.181948 
2032.000000	101.182599 
2031.000000	101.186158 
2030.000000	101.187361 
2029.000000	101.185198 
2028.000000	101.181788 
2027.000000	101.176451 
2026.000000	101.167665 
2025.000000	101.160005 
2024.000000	101.160781 
2023.000000	101.168053 
2022.000000	101.169243 
2021.000000	101.155767 
2020.000000	101.134364 
2019.000000	101.120457 
2018.000000	101.123630 
2017.000000	101.140484 
2016.000000	101.158092 
2015.000000	101.164173 
2014.000000	101.157304 
2013.000000	101.148236 
2012.000000	101.148591 
2011.000000	101.158638 
2010.000000	101.169971 
2009.000000	101.177663 
2008.000000	101.183164 
2007.000000	101.186188 
2006.000000	101.182976 
2005.000000	101.174162 
2004.000000	101.166198 
2003.000000	101.162870 
2002.000000	101.161399 
2001.000000	101.158653 
2000.000000	101.154057 
1999.000000	101.146358 
1998.000000	101.135220 
1997.000000	101.126927 
1996.000000	101.131273 
1995.000000	101.149807 
1994.000000	101.172211 
1993.000000	101.186082 
1992.000000	101.187186 
1991.000000	101.179031 
1990.000000	101.167494 
1989.000000	101.159282 
1988.000000	101.159978 
1987.000000	101.168223 
1986.000000	101.175219 
1985.000000	101.174746 
1984.000000	101.171421 
1983.000000	101.175630 
1982.000000	101.191387 
1981.000000	101.211571 
1980.000000	101.223174 
1979.000000	101.217486 
1978.000000	101.197681 
1977.000000	101.176061 
1976.000000	101.161803 
1975.000000	101.154178 
1974.000000	101.151282 
1973.000000	101.159006 
1972.000000	101.182996 
1971.000000	101.214142 
1970.000000	101.231189 
1969.000000	101.220358 
1968.000000	101.188527 
1967.000000	101.155447 
1966.000000	101.136101 
1965.000000	101.132185 
1964.000000	101.136093 
1963.000000	101.139057 
1962.000000	101.137276 
1961.000000	101.133062 
1960.000000	101.130122 
1959.000000	101.128511 
1958.000000	101.125603 
1957.000000	101.119950 
1956.000000	101.111781 
1955.000000	101.101755 
1954.000000	101.092467 
1953.000000	101.088055 
1952.000000	101.089042 
1951.000000	101.089354 
1950.000000	101.083076 
1949.000000	101.073445 
1948.000000	101.068622 
1947.000000	101.068976 
1946.000000	101.065191 
1945.000000	101.049966 
1944.000000	101.027109 
1943.000000	101.007732 
1942.000000	101.000241 
1941.000000	101.004363 
1940.000000	101.012449 
1939.000000	101.016532 
1938.000000	101.015949 
1937.000000	101.017332 
1936.000000	101.025135 
1935.000000	101.034462 
1934.000000	101.037730 
1933.000000	101.035904 
1932.000000	101.038182 
1931.000000	101.049050 
1930.000000	101.061506 
1929.000000	101.066271 
1928.000000	101.060652 
1927.000000	101.048770 
1926.000000	101.036352 
1925.000000	101.028516 
1924.000000	101.028761 
1923.000000	101.035352 
1922.000000	101.042923 
1921.000000	101.048591 
1920.000000	101.051810 
1919.000000	101.049989 
1918.000000	101.039200 
1917.000000	101.022022 
1916.000000	101.007183 
1915.000000	100.998392 
1914.000000	100.993382 
1913.000000	100.991715 
1912.000000	100.996226 
1911.000000	101.005781 
1910.000000	101.013115 
1909.000000	101.013992 
1908.000000	101.012212 
1907.000000	101.013687 
1906.000000	101.018206 
1905.000000	101.021354 
1904.000000	101.020961 
1903.000000	101.017017 
1902.000000	101.010894 
1901.000000	101.006283 
1900.000000	101.005455 
1899.000000	101.005602 
1898.000000	101.001718 
1897.000000	100.993504 
1896.000000	100.986173 
1895.000000	100.982687 
1894.000000	100.981061 
1893.000000	100.980402 
1892.000000	100.983144 
1891.000000	100.990220 
1890.000000	100.998082 
1889.000000	101.002432 
1888.000000	101.002639 
1887.000000	100.999509 
1886.000000	100.994177 
1885.000000	100.990535 
1884.000000	100.992748 
1883.000000	100.998779 
1882.000000	101.002348 
1881.000000	101.001889 
1880.000000	101.001148 
1879.000000	101.002498 
1878.000000	101.004951 
1877.000000	101.008091 
1876.000000	101.013486 
1875.000000	101.019638 
1874.000000	101.020253 
1873.000000	101.011458 
1872.000000	100.996421 
1871.000000	100.981481 
1870.000000	100.972201 
1869.000000	100.972587 
1868.000000	100.982881 
1867.000000	100.996226 
1866.000000	101.002775 
1865.000000	100.999146 
1864.000000	100.989333 
1863.000000	100.977191 
1862.000000	100.963848 
1861.000000	100.953348 
1860.000000	100.953038 
1859.000000	100.964365 
1858.000000	100.978960 
1857.000000	100.987791 
1856.000000	100.989771 
1855.000000	100.989192 
1854.000000	100.988793 
1853.000000	100.989581 
1852.000000	100.990091 
1851.000000	100.987529 
1850.000000	100.982771 
1849.000000	100.981271 
1848.000000	100.986832 
1847.000000	100.994943 
1846.000000	100.997871 
1845.000000	100.995147 
1844.000000	100.993767 
1843.000000	100.997915 
1842.000000	101.003160 
1841.000000	101.003079 
1840.000000	100.996312 
1839.000000	100.987052 
1838.000000	100.979754 
1837.000000	100.976313 
1836.000000	100.976135 
1835.000000	100.976336 
1834.000000	100.974932 
1833.000000	100.973046 
1832.000000	100.971822 
1831.000000	100.971671 
1830.000000	100.972266 
1829.000000	100.973049 
1828.000000	100.974576 
1827.000000	100.975141 
1826.000000	100.972723 
1825.000000	100.968918 
1824.000000	100.967731 
1823.000000	100.969157 
1822.000000	100.967464 
1821.000000	100.959821 
1820.000000	100.951763 
1819.000000	100.950959 
1818.000000	100.956427 
1817.000000	100.961080 
1816.000000	100.962810 
1815.000000	100.964240 
1814.000000	100.966810 
1813.000000	100.969233 
1812.000000	100.971930 
1811.000000	100.977266 
1810.000000	100.983286 
1809.000000	100.986162 
1808.000000	100.985709 
1807.000000	100.982775 
1806.000000	100.977085 
1805.000000	100.970714 
1804.000000	100.969069 
1803.000000	100.973063 
1802.000000	100.977079 
1801.000000	100.974993 
1800.000000	100.968441 
1799.000000	100.964065 
1798.000000	100.964180 
1797.000000	100.968191 
1796.000000	100.975717 
1795.000000	100.983649 
1794.000000	100.987400 
1793.000000	100.985329 
1792.000000	100.981088 
1791.000000	100.979012 
1790.000000	100.977766 
1789.000000	100.974891 
1788.000000	100.972314 
1787.000000	100.972883 
1786.000000	100.975906 
1785.000000	100.979393 
1784.000000	100.983698 
1783.000000	100.986642 
1782.000000	100.985439 
1781.000000	100.979771 
1780.000000	100.972157 
1779.000000	100.965686 
1778.000000	100.960420 
1777.000000	100.957503 
1776.000000	100.958787 
1775.000000	100.963270 
1774.000000	100.968604 
1773.000000	100.973408 
1772.000000	100.976309 
1771.000000	100.979658 
1770.000000	100.983813 
1769.000000	100.983044 
1768.000000	100.976141 
1767.000000	100.969180 
1766.000000	100.967154 
1765.000000	100.967013 
1764.000000	100.964228 
1763.000000	100.959730 
1762.000000	100.957539 
1761.000000	100.957432 
1760.000000	100.957940 
1759.000000	100.958463 
1758.000000	100.959604 
1757.000000	100.963281 
1756.000000	100.967809 
1755.000000	100.971058 
1754.000000	100.971014 
1753.000000	100.965171 
1752.000000	100.952807 
1751.000000	100.937983 
1750.000000	100.926309 
1749.000000	100.920214 
1748.000000	100.918514 
1747.000000	100.918657 
1746.000000	100.919875 
1745.000000	100.919534 
1744.000000	100.915417 
1743.000000	100.910153 
1742.000000	100.907171 
1741.000000	100.906005 
1740.000000	100.906671 
1739.000000	100.912145 
1738.000000	100.924240 
1737.000000	100.937308 
1736.000000	100.944449 
1735.000000	100.946548 
1734.000000	100.944206 
1733.000000	100.940350 
1732.000000	100.941234 
1731.000000	100.943515 
1730.000000	100.943326 
1729.000000	100.943253 
1728.000000	100.945573 
1727.000000	100.948631 
1726.000000	100.951089 
1725.000000	100.952404 
1724.000000	100.953505 
1723.000000	100.954937 
1722.000000	100.954382 
1721.000000	100.950638 
1720.000000	100.946459 
1719.000000	100.948424 
1718.000000	100.955727 
1717.000000	100.958305 
1716.000000	100.958838 
1715.000000	100.962429 
1714.000000	100.963140 
1713.000000	100.958676 
1712.000000	100.955292 
1711.000000	100.955621 
1710.000000	100.956198 
1709.000000	100.955666 
1708.000000	100.956209 
1707.000000	100.958852 
1706.000000	100.959955 
1705.000000	100.958186 
1704.000000	100.960563 
1703.000000	100.966672 
1702.000000	100.966948 
1701.000000	100.959458 
1700.000000	100.952491 
1699.000000	100.961598 
1698.000000	100.979897 
1697.000000	100.989006 
1696.000000	100.986224 
1695.000000	100.979002 
1694.000000	100.974941 
1693.000000	100.972384 
1692.000000	100.967861 
1691.000000	100.962815 
1690.000000	100.960117 
1689.000000	100.961864 
1688.000000	100.966281 
1687.000000	100.970016 
1686.000000	100.972281 
1685.000000	100.977535 
1684.000000	100.981533 
1683.000000	100.979534 
1682.000000	100.978627 
1681.000000	100.979260 
1680.000000	100.977597 
1679.000000	100.974570 
1678.000000	100.972449 
1677.000000	100.970538 
1676.000000	100.967200 
1675.000000	100.962914 
1674.000000	100.964866 
1673.000000	100.973949 
1672.000000	100.982032 
1671.000000	100.984774 
1670.000000	100.984062 
1669.000000	100.983011 
1668.000000	100.982243 
1667.000000	100.980943 
1666.000000	100.978696 
1665.000000	100.974663 
1664.000000	100.970409 
1663.000000	100.967361 
1662.000000	100.966876 
1661.000000	100.971458 
1660.000000	100.977784 
1659.000000	100.981100 
1658.000000	100.982292 
1657.000000	100.983053 
1656.000000	100.978125 
1655.000000	100.965984 
1654.000000	100.961903 
1653.000000	100.964101 
1652.000000	100.967553 
1651.000000	100.979621 
1650.000000	100.989781 
1649.000000	100.989012 
1648.000000	100.983491 
1647.000000	100.979898 
1646.000000	100.977178 
1645.000000	100.976890 
1644.000000	100.981711 
1643.000000	100.987790 
1642.000000	100.990167 
1641.000000	100.988499 
1640.000000	100.985236 
1639.000000	100.983192 
1638.000000	100.982199 
1637.000000	100.984114 
1636.000000	100.989322 
1635.000000	100.991477 
1634.000000	100.990892 
1633.000000	100.989034 
1632.000000	100.984674 
1631.000000	100.977481 
1630.000000	100.970149 
1629.000000	100.967080 
1628.000000	100.970067 
1627.000000	100.975411 
1626.000000	100.979386 
1625.000000	100.981297 
1624.000000	100.981895 
1623.000000	100.980508 
1622.000000	100.978970 
1621.000000	100.982093 
1620.000000	100.987434 
1619.000000	100.989137 
1618.000000	100.986935 
1617.000000	100.986850 
1616.000000	100.991160 
1615.000000	100.997478 
1614.000000	101.002795 
1613.000000	101.005389 
1612.000000	101.005555 
1611.000000	101.003521 
1610.000000	101.000810 
1609.000000	100.999814 
1608.000000	100.999755 
1607.000000	100.997375 
1606.000000	100.994063 
1605.000000	100.993780 
1604.000000	100.995356 
1603.000000	100.995786 
1602.000000	100.995783 
1601.000000	100.997759 
1600.000000	101.000721 
1599.000000	101.001772 
1598.000000	101.001534 
1597.000000	101.002839 
1596.000000	101.005898 
1595.000000	101.007580 
1594.000000	101.006155 
1593.000000	101.003962 
1592.000000	101.003671 
1591.000000	101.004975 
1590.000000	101.006660 
1589.000000	101.008909 
1588.000000	101.011533 
1587.000000	101.013191 
1586.000000	101.013534 
1585.000000	101.015179 
1584.000000	101.017565 
1583.000000	101.016570 
1582.000000	101.011946 
1581.000000	101.007849 
1580.000000	101.005739 
1579.000000	101.003493 
1578.000000	101.001739 
1577.000000	101.003693 
1576.000000	101.006245 
1575.000000	101.004588 
1574.000000	101.004085 
1573.000000	101.006345 
1572.000000	101.006112 
1571.000000	101.002527 
1570.000000	101.000770 
1569.000000	101.005686 
1568.000000	101.013113 
1567.000000	101.015920 
1566.000000	101.013211 
1565.000000	101.010553 
1564.000000	101.009857 
1563.000000	101.010277 
1562.000000	101.007516 
1561.000000	101.003802 
1560.000000	101.006428 
1559.000000	101.009720 
1558.000000	101.000937 
1557.000000	101.002584 
1556.000000	101.012968 
1555.000000	101.016019 
1554.000000	101.012592 
1553.000000	101.008125 
1552.000000	101.003304 
1551.000000	100.997139 
1550.000000	100.992240 
1549.000000	100.992906 
1548.000000	100.998433 
1547.000000	101.001049 
1546.000000	100.995308 
1545.000000	100.984255 
1544.000000	100.976018 
1543.000000	100.977635 
1542.000000	100.989472 
1541.000000	101.005532 
1540.000000	101.013559 
1539.000000	101.006150 
1538.000000	100.998906 
1537.000000	101.000539 
1536.000000	101.004816 
1535.000000	101.006134 
1534.000000	101.004971 
1533.000000	101.002291 
1532.000000	101.001082 
1531.000000	101.003637 
1530.000000	101.005276 
1529.000000	101.003013 
1528.000000	101.000008 
1527.000000	100.999742 
1526.000000	101.003190 
1525.000000	101.009605 
1524.000000	101.017015 
1523.000000	101.023471 
1522.000000	101.026254 
1521.000000	101.022095 
1520.000000	101.015395 
1519.000000	101.010409 
1518.000000	101.004444 
1517.000000	100.997050 
1516.000000	100.993557 
1515.000000	100.997552 
1514.000000	101.004801 
1513.000000	101.008039 
1512.000000	101.007196 
1511.000000	101.007746 
1510.000000	101.009401 
1509.000000	101.007948 
1508.000000	101.007674 
1507.000000	101.016834 
1506.000000	101.021318 
1505.000000	101.018854 
1504.000000	101.018945 
1503.000000	101.022555 
1502.000000	101.027387 
1501.000000	101.030622 
1500.000000	101.030472 
1499.000000	101.028207 
1498.000000	101.024863 
1497.000000	101.015596 
1496.000000	101.001231 
1495.000000	100.991707 
1494.000000	100.990369 
1493.000000	100.991010 
1492.000000	100.989390 
1491.000000	100.987160 
1490.000000	100.985558 
1489.000000	100.982539 
1488.000000	100.980589 
1487.000000	100.982244 
1486.000000	100.982867 
1485.000000	100.981194 
1484.000000	100.978859 
1483.000000	100.976663 
1482.000000	100.975278 
1481.000000	100.975130 
1480.000000	100.976668 
1479.000000	100.977758 
1478.000000	100.975152 
1477.000000	100.969156 
1476.000000	100.966093 
1475.000000	100.968928 
1474.000000	100.972998 
1473.000000	100.971490 
1472.000000	100.963613 
1471.000000	100.957392 
1470.000000	100.955817 
1469.000000	100.953991 
1468.000000	100.949555 
1467.000000	100.944379 
1466.000000	100.941250 
1465.000000	100.941782 
1464.000000	100.944591 
1463.000000	100.948975 
1462.000000	100.952509 
1461.000000	100.952323 
1460.000000	100.948345 
1459.000000	100.944109 
1458.000000	100.941843 
1457.000000	100.933244 
1456.000000	100.916411 
1455.000000	100.905938 
1454.000000	100.905435 
1453.000000	100.907227 
1452.000000	100.908064 
1451.000000	100.910141 
1450.000000	100.914385 
1449.000000	100.916726 
1448.000000	100.916369 
1447.000000	100.916864 
1446.000000	100.921217 
1445.000000	100.926770 
1444.000000	100.929044 
1443.000000	100.929741 
1442.000000	100.932166 
1441.000000	100.936090 
1440.000000	100.938951 
1439.000000	100.941246 
1438.000000	100.944644 
1437.000000	100.946535 
1436.000000	100.943487 
1435.000000	100.941066 
1434.000000	100.942639 
1433.000000	100.942660 
1432.000000	100.938315 
1431.000000	100.934403 
1430.000000	100.935939 
1429.000000	100.939512 
1428.000000	100.940264 
1427.000000	100.937519 
1426.000000	100.933429 
1425.000000	100.929094 
1424.000000	100.923583 
1423.000000	100.919602 
1422.000000	100.918274 
1421.000000	100.913845 
1420.000000	100.900593 
1419.000000	100.884513 
1418.000000	100.876621 
1417.000000	100.874565 
1416.000000	100.868032 
1415.000000	100.855052 
1414.000000	100.841286 
1413.000000	100.829917 
1412.000000	100.819633 
1411.000000	100.811058 
1410.000000	100.806077 
1409.000000	100.801604 
1408.000000	100.794613 
1407.000000	100.787382 
1406.000000	100.784716 
1405.000000	100.787195 
1404.000000	100.791111 
1403.000000	100.797604 
1402.000000	100.809895 
1401.000000	100.825815 
1400.000000	100.839643 
1399.000000	100.847845 
1398.000000	100.849037 
1397.000000	100.838290 
1396.000000	100.811229 
1395.000000	100.777274 
1394.000000	100.760620 
1393.000000	100.774541 
1392.000000	100.806863 
1391.000000	100.838393 
1390.000000	100.858928 
1389.000000	100.866741 
1388.000000	100.863798 
1387.000000	100.854176 
1386.000000	100.843997 
1385.000000	100.837292 
1384.000000	100.832722 
1383.000000	100.828260 
1382.000000	100.824264 
1381.000000	100.822223 
1380.000000	100.823264 
1379.000000	100.827502 
1378.000000	100.834449 
1377.000000	100.842883 
1376.000000	100.851220 
1375.000000	100.858646 
1374.000000	100.866713 
1373.000000	100.877539 
1372.000000	100.890971 
1371.000000	100.903762 
1370.000000	100.913155 
1369.000000	100.919338 
1368.000000	100.923445 
1367.000000	100.926794 
1366.000000	100.930361 
1365.000000	100.934234 
1364.000000	100.938578 
1363.000000	100.944040 
1362.000000	100.950442 
1361.000000	100.956535 
1360.000000	100.961296 
1359.000000	100.964983 
1358.000000	100.969274 
1357.000000	100.975278 
1356.000000	100.981756 
1355.000000	100.986777 
1354.000000	100.990497 
1353.000000	100.994124 
1352.000000	100.998272 
1351.000000	101.001542 
1350.000000	101.002999 
1349.000000	101.004186 
1348.000000	101.006014 
1347.000000	101.006992 
1346.000000	101.005393 
1345.000000	101.002095 
1344.000000	100.999478 
1343.000000	100.998404 
1342.000000	100.997993 
1341.000000	100.998107 
1340.000000	100.999977 
1339.000000	101.003933 
1338.000000	101.008500 
1337.000000	101.012224 
1336.000000	101.015208 
1335.000000	101.018238 
1334.000000	101.020962 
1333.000000	101.021895 
1332.000000	101.020482 
1331.000000	101.018174 
1330.000000	101.017344 
1329.000000	101.019125 
1328.000000	101.022608 
1327.000000	101.025429 
1326.000000	101.025664 
1325.000000	101.023313 
1324.000000	101.019882 
1323.000000	101.017389 
1322.000000	101.016944 
1321.000000	101.018126 
1320.000000	101.020068 
1319.000000	101.022770 
1318.000000	101.026168 
1317.000000	101.028475 
1316.000000	101.027356 
1315.000000	101.023038 
1314.000000	101.018635 
1313.000000	101.016599 
1312.000000	101.016280 
1311.000000	101.015785 
1310.000000	101.014937 
1309.000000	101.014973 
1308.000000	101.016566 
1307.000000	101.018804 
1306.000000	101.020224 
1305.000000	101.020133 
1304.000000	101.018875 
1303.000000	101.017667 
1302.000000	101.017526 
1301.000000	101.018222 
1300.000000	101.018897 
1299.000000	101.019872 
1298.000000	101.022500 
1297.000000	101.026870 
1296.000000	101.030810 
1295.000000	101.031925 
1294.000000	101.029892 
1293.000000	101.025941 
1292.000000	101.021137 
1291.000000	101.016235 
1290.000000	101.012380 
1289.000000	101.010704 
1288.000000	101.011173 
1287.000000	101.012421 
1286.000000	101.012835 
1285.000000	101.011586 
1284.000000	101.008773 
1283.000000	101.004846 
1282.000000	100.999845 
1281.000000	100.993656 
1280.000000	100.987120 
1279.000000	100.982163 
1278.000000	100.979982 
1277.000000	100.979594 
1276.000000	100.979111 
1275.000000	100.977824 
1274.000000	100.975928 
1273.000000	100.972806 
1272.000000	100.967416 
1271.000000	100.960441 
1270.000000	100.954202 
1269.000000	100.949821 
1268.000000	100.945789 
1267.000000	100.940120 
1266.000000	100.932693 
1265.000000	100.924818 
1264.000000	100.917693 
1263.000000	100.911808 
1262.000000	100.906724 
1261.000000	100.901261 
1260.000000	100.894791 
1259.000000	100.888348 
1258.000000	100.883273 
1257.000000	100.879095 
1256.000000	100.874737 
1255.000000	100.871532 
1254.000000	100.872328 
1253.000000	100.877111 
1252.000000	100.882205 
1251.000000	100.885046 
1250.000000	100.887362 
1249.000000	100.892024 
1248.000000	100.898803 
1247.000000	100.905081 
1246.000000	100.908531 
1245.000000	100.906826 
1244.000000	100.897448 
1243.000000	100.881745 
1242.000000	100.867977 
1241.000000	100.865763 
1240.000000	100.876446 
1239.000000	100.891352 
1238.000000	100.900399 
1237.000000	100.900695 
1236.000000	100.896343 
1235.000000	100.892451 
1234.000000	100.890931 
1233.000000	100.890318 
1232.000000	100.887572 
1231.000000	100.880558 
1230.000000	100.870321 
1229.000000	100.861026 
1228.000000	100.856850 
1227.000000	100.858589 
1226.000000	100.863478 
1225.000000	100.868244 
1224.000000	100.871925 
1223.000000	100.875642 
1222.000000	100.880310 
1221.000000	100.885394 
1220.000000	100.889960 
1219.000000	100.894109 
1218.000000	100.898519 
1217.000000	100.902692 
1216.000000	100.904694 
1215.000000	100.903070 
1214.000000	100.898428 
1213.000000	100.892581 
1212.000000	100.886782 
1211.000000	100.881619 
1210.000000	100.878028 
1209.000000	100.877206 
1208.000000	100.879227 
1207.000000	100.882302 
1206.000000	100.883858 
1205.000000	100.882447 
1204.000000	100.878663 
1203.000000	100.874386 
1202.000000	100.871177 
1201.000000	100.869249 
1200.000000	100.867777 
1199.000000	100.865984 
1198.000000	100.863697 
1197.000000	100.860823 
1196.000000	100.856713 
1195.000000	100.850480 
1194.000000	100.842085 
1193.000000	100.832923 
1192.000000	100.824962 
1191.000000	100.819001 
1190.000000	100.813772 
1189.000000	100.807114 
1188.000000	100.798221 
1187.000000	100.788609 
1186.000000	100.780779 
1185.000000	100.776090 
1184.000000	100.773940 
1183.000000	100.772527 
1182.000000	100.770213 
1181.000000	100.766576 
1180.000000	100.762299 
1179.000000	100.757872 
1178.000000	100.752803 
1177.000000	100.746682 
1176.000000	100.740489 
1175.000000	100.735427 
1174.000000	100.730420 
1173.000000	100.722568 
1172.000000	100.710877 
1171.000000	100.698192 
1170.000000	100.688150 
1169.000000	100.681087 
1168.000000	100.674216 
1167.000000	100.665369 
1166.000000	100.655532 
1165.000000	100.648064 
1164.000000	100.646261 
1163.000000	100.651127 
1162.000000	100.660594 
1161.000000	100.671271 
1160.000000	100.681326 
1159.000000	100.690746 
1158.000000	100.698371 
1157.000000	100.700311 
1156.000000	100.693134 
1155.000000	100.678315 
1154.000000	100.662167 
1153.000000	100.651120 
1152.000000	100.647464 
1151.000000	100.648648 
1150.000000	100.649485 
1149.000000	100.645873 
1148.000000	100.637950 
1147.000000	100.629455 
1146.000000	100.623010 
1145.000000	100.616702 
1144.000000	100.606653 
1143.000000	100.592296 
1142.000000	100.577451 
1141.000000	100.566569 
1140.000000	100.561600 
1139.000000	100.561946 
1138.000000	100.564926 
1137.000000	100.566020 
1136.000000	100.561200 
1135.000000	100.550509 
1134.000000	100.537910 
1133.000000	100.526406 
1132.000000	100.514778 
1131.000000	100.500688 
1130.000000	100.485767 
1129.000000	100.475025 
1128.000000	100.470692 
1127.000000	100.468375 
1126.000000	100.460878 
1125.000000	100.445721 
1124.000000	100.427634 
1123.000000	100.413200 
1122.000000	100.404011 
1121.000000	100.396055 
1120.000000	100.385143 
1119.000000	100.371149 
1118.000000	100.356566 
1117.000000	100.342683 
1116.000000	100.328635 
1115.000000	100.313569 
1114.000000	100.298455 
1113.000000	100.285530 
1112.000000	100.276132 
1111.000000	100.268521 
1110.000000	100.258138 
1109.000000	100.241390 
1108.000000	100.219877 
1107.000000	100.199683 
1106.000000	100.185153 
1105.000000	100.174450 
1104.000000	100.162531 
1103.000000	100.147234 
1102.000000	100.131094 
1101.000000	100.117492 
1100.000000	100.107520 
1099.000000	100.100374 
1098.000000	100.094891 
1097.000000	100.090504 
1096.000000	100.086755 
1095.000000	100.082333 
1094.000000	100.074453 
1093.000000	100.059817 
1092.000000	100.036819 
1091.000000	100.006825 
1090.000000	99.973310  
1089.000000	99.940012  
1088.000000	99.909677  
1087.000000	99.883298  
1086.000000	99.859941  
1085.000000	99.838150  
1084.000000	99.817827  
1083.000000	99.799730  
1082.000000	99.783100  
1081.000000	99.765412  
1080.000000	99.745015  
1079.000000	99.722651  
1078.000000	99.700223  
1077.000000	99.679925  
1076.000000	99.664897  
1075.000000	99.658216  
1074.000000	99.659838  
1073.000000	99.666033  
1072.000000	99.671947  
1071.000000	99.672171  
1070.000000	99.659222  
1069.000000	99.626972  
1068.000000	99.579546  
1067.000000	99.534027  
1066.000000	99.509073  
1065.000000	99.509967  
1064.000000	99.526568  
1063.000000	99.543658  
1062.000000	99.549829  
1061.000000	99.538973  
1060.000000	99.510364  
1059.000000	99.470935  
1058.000000	99.434015  
1057.000000	99.410921  
1056.000000	99.402828  
1055.000000	99.401682  
1054.000000	99.398616  
1053.000000	99.390808  
1052.000000	99.380918  
1051.000000	99.371759  
1050.000000	99.362989  
1049.000000	99.352821  
1048.000000	99.341383  
1047.000000	99.331292  
1046.000000	99.325311  
1045.000000	99.323976  
1044.000000	99.325045  
1043.000000	99.324920  
1042.000000	99.321357  
1041.000000	99.315407  
1040.000000	99.310458  
1039.000000	99.309666  
1038.000000	99.315146  
1037.000000	99.328817  
1036.000000	99.351372  
1035.000000	99.379580  
1034.000000	99.407050  
1033.000000	99.428825  
1032.000000	99.442954  
1031.000000	99.447181  
1030.000000	99.439055  
1029.000000	99.422986  
1028.000000	99.413226  
1027.000000	99.423273  
1026.000000	99.451861  
1025.000000	99.483795  
1024.000000	99.504912  
1023.000000	99.512652  
1022.000000	99.512929  
1021.000000	99.512145  
1020.000000	99.514080  
1019.000000	99.520228  
1018.000000	99.529523  
1017.000000	99.539106  
1016.000000	99.547241  
1015.000000	99.554506  
1014.000000	99.561566  
1013.000000	99.567578  
1012.000000	99.571587  
1011.000000	99.573827  
1010.000000	99.575114  
1009.000000	99.576662  
1008.000000	99.580848  
1007.000000	99.589896  
1006.000000	99.602957  
1005.000000	99.616404  
1004.000000	99.627793  
1003.000000	99.637785  
1002.000000	99.647785  
1001.000000	99.657892  
1000.000000	99.667971  
999.000000	 99.678505  
998.000000	 99.689219  
997.000000	 99.698745  
996.000000	 99.706933  
995.000000	 99.715860  
994.000000	 99.727296  
993.000000	 99.740438  
992.000000	 99.753145  
991.000000	 99.764112  
990.000000	 99.772984  
989.000000	 99.779756  
988.000000	 99.785209  
987.000000	 99.790979  
986.000000	 99.798329  
985.000000	 99.807496  
984.000000	 99.818450  
983.000000	 99.831083  
982.000000	 99.844379  
981.000000	 99.856865  
980.000000	 99.868473  
979.000000	 99.880806  
978.000000	 99.895165  
977.000000	 99.911366  
976.000000	 99.928467  
975.000000	 99.945251  
974.000000	 99.960184  
973.000000	 99.972940  
972.000000	 99.986266  
971.000000	 100.004260 
970.000000	 100.027877 
969.000000	 100.053635 
968.000000	 100.077304 
967.000000	 100.097255 
966.000000	 100.113829 
965.000000	 100.127510 
964.000000	 100.138964 
963.000000	 100.149638 
962.000000	 100.161214 
961.000000	 100.175053 
960.000000	 100.192082 
959.000000	 100.211668 
958.000000	 100.230516 
957.000000	 100.244819 
956.000000	 100.254183 
955.000000	 100.261683 
954.000000	 100.269618 
953.000000	 100.277473 
952.000000	 100.284904 
951.000000	 100.293887 
950.000000	 100.305736 
949.000000	 100.317942 
948.000000	 100.326356 
947.000000	 100.329373 
946.000000	 100.328023 
945.000000	 100.323295 
944.000000	 100.316199 
943.000000	 100.310256 
942.000000	 100.310982 
941.000000	 100.321316 
940.000000	 100.338139 
939.000000	 100.353869 
938.000000	 100.361761 
937.000000	 100.360520 
936.000000	 100.354633 
935.000000	 100.350369 
934.000000	 100.351229 
933.000000	 100.357160 
932.000000	 100.367182 
931.000000	 100.380783 
930.000000	 100.396279 
929.000000	 100.409715 
928.000000	 100.416946 
927.000000	 100.416490 
926.000000	 100.410062 
925.000000	 100.401376 
924.000000	 100.395031 
923.000000	 100.395022 
922.000000	 100.402368 
921.000000	 100.414122 
920.000000	 100.425406 
919.000000	 100.432324 
918.000000	 100.433113 
917.000000	 100.427912 
916.000000	 100.418440 
915.000000	 100.407415 
914.000000	 100.397387 
913.000000	 100.390167 
912.000000	 100.387192 
911.000000	 100.389326 
910.000000	 100.395940 
909.000000	 100.405263 
908.000000	 100.415894 
907.000000	 100.426819 
906.000000	 100.435971 
905.000000	 100.440903 
904.000000	 100.442054 
903.000000	 100.444047 
902.000000	 100.452324 
901.000000	 100.468538 
900.000000	 100.489222 
899.000000	 100.507750 
898.000000	 100.517713 
897.000000	 100.516736 
896.000000	 100.508296 
895.000000	 100.499131 
894.000000	 100.494080 
893.000000	 100.494063 
892.000000	 100.498754 
891.000000	 100.508837 
890.000000	 100.524422 
889.000000	 100.542982 
888.000000	 100.560420 
887.000000	 100.573594 
886.000000	 100.581696 
885.000000	 100.586718 
884.000000	 100.592866 
883.000000	 100.603209 
882.000000	 100.615756 
881.000000	 100.625079 
880.000000	 100.629385 
879.000000	 100.633586 
878.000000	 100.643030 
877.000000	 100.656165 
876.000000	 100.666332 
875.000000	 100.669560 
874.000000	 100.667804 
873.000000	 100.665510 
872.000000	 100.665855 
871.000000	 100.669915 
870.000000	 100.676905 
869.000000	 100.685378 
868.000000	 100.695770 
867.000000	 100.710432 
866.000000	 100.728897 
865.000000	 100.745092 
864.000000	 100.753232 
863.000000	 100.755812 
862.000000	 100.761032 
861.000000	 100.771434 
860.000000	 100.779956 
859.000000	 100.779765 
858.000000	 100.773889 
857.000000	 100.771393 
856.000000	 100.777210 
855.000000	 100.789980 
854.000000	 100.806959 
853.000000	 100.825156 
852.000000	 100.838642 
851.000000	 100.841608 
850.000000	 100.836367 
849.000000	 100.833272 
848.000000	 100.839661 
847.000000	 100.852274 
846.000000	 100.862894 
845.000000	 100.867656 
844.000000	 100.867673 
843.000000	 100.864469 
842.000000	 100.859700 
841.000000	 100.856675 
840.000000	 100.856802 
839.000000	 100.855892 
838.000000	 100.849241 
837.000000	 100.839699 
836.000000	 100.835122 
835.000000	 100.837538 
834.000000	 100.840700 
833.000000	 100.840235 
832.000000	 100.840392 
831.000000	 100.846815 
830.000000	 100.856901 
829.000000	 100.862541 
828.000000	 100.860563 
827.000000	 100.855560 
826.000000	 100.852550 
825.000000	 100.850638 
824.000000	 100.844916 
823.000000	 100.832761 
822.000000	 100.817851 
821.000000	 100.808437 
820.000000	 100.810965 
819.000000	 100.824966 
818.000000	 100.844646 
817.000000	 100.864349 
816.000000	 100.879892 
815.000000	 100.885808 
814.000000	 100.877175 
813.000000	 100.856455 
812.000000	 100.833724 
811.000000	 100.816261 
810.000000	 100.800687 
809.000000	 100.778687 
808.000000	 100.747414 
807.000000	 100.710301 
806.000000	 100.670529 
805.000000	 100.629079 
804.000000	 100.588329 
803.000000	 100.552701 
802.000000	 100.525052 
801.000000	 100.505264 
800.000000	 100.492258 
799.000000	 100.485048 
798.000000	 100.482898 
797.000000	 100.486548 
796.000000	 100.496959 
795.000000	 100.510265 
794.000000	 100.517528 
793.000000	 100.514036 
792.000000	 100.506361 
791.000000	 100.505489 
790.000000	 100.514791 
789.000000	 100.528839 
788.000000	 100.541096 
787.000000	 100.546844 
786.000000	 100.540933 
785.000000	 100.520362 
784.000000	 100.490159 
783.000000	 100.461604 
782.000000	 100.443207 
781.000000	 100.436139 
780.000000	 100.437070 
779.000000	 100.440828 
778.000000	 100.441761 
777.000000	 100.438491 
776.000000	 100.437204 
775.000000	 100.444761 
774.000000	 100.458678 
773.000000	 100.469788 
772.000000	 100.475334 
771.000000	 100.483366 
770.000000	 100.502229 
769.000000	 100.529975 
768.000000	 100.555794 
767.000000	 100.568969 
766.000000	 100.566962 
765.000000	 100.558806 
764.000000	 100.559823 
763.000000	 100.577691 
762.000000	 100.602961 
761.000000	 100.617944 
760.000000	 100.615519 
759.000000	 100.604992 
758.000000	 100.599866 
757.000000	 100.604764 
756.000000	 100.614154 
755.000000	 100.618076 
754.000000	 100.608872 
753.000000	 100.588607 
752.000000	 100.571514 
751.000000	 100.573652 
750.000000	 100.597126 
749.000000	 100.627557 
748.000000	 100.647892 
747.000000	 100.651427 
746.000000	 100.642550 
745.000000	 100.630874 
744.000000	 100.625885 
743.000000	 100.631905 
742.000000	 100.645864 
741.000000	 100.663092 
740.000000	 100.684449 
739.000000	 100.712484 
738.000000	 100.741409 
737.000000	 100.758038 
736.000000	 100.754369 
735.000000	 100.734611 
734.000000	 100.709819 
733.000000	 100.691126 
732.000000	 100.687581 
731.000000	 100.701887 
730.000000	 100.725398 
729.000000	 100.744413 
728.000000	 100.753933 
727.000000	 100.759773 
726.000000	 100.766061 
725.000000	 100.767813 
724.000000	 100.759386 
723.000000	 100.744169 
722.000000	 100.731728 
721.000000	 100.729478 
720.000000	 100.739457 
719.000000	 100.758454 
718.000000	 100.778702 
717.000000	 100.792147 
716.000000	 100.795792 
715.000000	 100.790451 
714.000000	 100.776539 
713.000000	 100.757798 
712.000000	 100.747502 
711.000000	 100.759997 
710.000000	 100.792061 
709.000000	 100.821448 
708.000000	 100.828488 
707.000000	 100.812994 
706.000000	 100.787519 
705.000000	 100.762096 
704.000000	 100.741658 
703.000000	 100.730916 
702.000000	 100.731797 
701.000000	 100.738593 
700.000000	 100.741517 
699.000000	 100.733794 
698.000000	 100.715234 
697.000000	 100.692439 
696.000000	 100.676448 
695.000000	 100.674795 
694.000000	 100.683151 
693.000000	 100.691353 
692.000000	 100.697774 
691.000000	 100.709076 
690.000000	 100.726355 
689.000000	 100.741879 
688.000000	 100.752539 
687.000000	 100.764135 
686.000000	 100.776270 
685.000000	 100.777989 
684.000000	 100.765949 
683.000000	 100.753237 
682.000000	 100.752614 
681.000000	 100.761525 
680.000000	 100.769336 
679.000000	 100.768775 
678.000000	 100.755707 
677.000000	 100.733463 
676.000000	 100.720537 
675.000000	 100.735069 
674.000000	 100.769524 
673.000000	 100.792705 
672.000000	 100.784580 
671.000000	 100.758285 
670.000000	 100.741826 
669.000000	 100.762244 
668.000000	 100.818846 
667.000000	 100.862295 
666.000000	 100.869000 
665.000000	 100.857531 
664.000000	 100.841653 
663.000000	 100.844192 
662.000000	 100.877900 
661.000000	 100.922201 
660.000000	 100.940176 
659.000000	 100.921691 
658.000000	 100.887619 
657.000000	 100.856683 
656.000000	 100.828361 
655.000000	 100.801520 
654.000000	 100.790336 
653.000000	 100.805611 
652.000000	 100.836811 
651.000000	 100.865311 
650.000000	 100.882832 

