4000.000000	100.280521 
3999.000000	100.279806 
3998.000000	100.279378 
3997.000000	100.279646 
3996.000000	100.280404 
3995.000000	100.280990 
3994.000000	100.281026 
3993.000000	100.280747 
3992.000000	100.280651 
3991.000000	100.280850 
3990.000000	100.280858 
3989.000000	100.280035 
3988.000000	100.278241 
3987.000000	100.276110 
3986.000000	100.274608 
3985.000000	100.274295 
3984.000000	100.275047 
3983.000000	100.276366 
3982.000000	100.277867 
3981.000000	100.279417 
3980.000000	100.280922 
3979.000000	100.282173 
3978.000000	100.282896 
3977.000000	100.282919 
3976.000000	100.282279 
3975.000000	100.281195 
3974.000000	100.279884 
3973.000000	100.278431 
3972.000000	100.276956 
3971.000000	100.275846 
3970.000000	100.275632 
3969.000000	100.276521 
3968.000000	100.278139 
3967.000000	100.279727 
3966.000000	100.280622 
3965.000000	100.280604 
3964.000000	100.279936 
3963.000000	100.279188 
3962.000000	100.278835 
3961.000000	100.278846 
3960.000000	100.278728 
3959.000000	100.278061 
3958.000000	100.276950 
3957.000000	100.275934 
3956.000000	100.275470 
3955.000000	100.275561 
3954.000000	100.275827 
3953.000000	100.275896 
3952.000000	100.275720 
3951.000000	100.275505 
3950.000000	100.275388 
3949.000000	100.275253 
3948.000000	100.274935 
3947.000000	100.274504 
3946.000000	100.274222 
3945.000000	100.274235 
3944.000000	100.274413 
3943.000000	100.274475 
3942.000000	100.274234 
3941.000000	100.273744 
3940.000000	100.273221 
3939.000000	100.272821 
3938.000000	100.272514 
3937.000000	100.272166 
3936.000000	100.271738 
3935.000000	100.271401 
3934.000000	100.271373 
3933.000000	100.271686 
3932.000000	100.272158 
3931.000000	100.272655 
3930.000000	100.273188 
3929.000000	100.273608 
3928.000000	100.273499 
3927.000000	100.272586 
3926.000000	100.271262 
3925.000000	100.270367 
3924.000000	100.270254 
3923.000000	100.270549 
3922.000000	100.270813 
3921.000000	100.270968 
3920.000000	100.271066 
3919.000000	100.270975 
3918.000000	100.270545 
3917.000000	100.269819 
3916.000000	100.268996 
3915.000000	100.268310 
3914.000000	100.267975 
3913.000000	100.267902 
3912.000000	100.267551 
3911.000000	100.266349 
3910.000000	100.264580 
3909.000000	100.263424 
3908.000000	100.263934 
3907.000000	100.266275 
3906.000000	100.269632 
3905.000000	100.272881 
3904.000000	100.275126 
3903.000000	100.275922 
3902.000000	100.275395 
3901.000000	100.274152 
3900.000000	100.272826 
3899.000000	100.271516 
3898.000000	100.269799 
3897.000000	100.267466 
3896.000000	100.264985 
3895.000000	100.263065 
3894.000000	100.262249 
3893.000000	100.262727 
3892.000000	100.264455 
3891.000000	100.267005 
3890.000000	100.269582 
3889.000000	100.271561 
3888.000000	100.272693 
3887.000000	100.273005 
3886.000000	100.272531 
3885.000000	100.271311 
3884.000000	100.269843 
3883.000000	100.268975 
3882.000000	100.268948 
3881.000000	100.269054 
3880.000000	100.268476 
3879.000000	100.267384 
3878.000000	100.266502 
3877.000000	100.265929 
3876.000000	100.265169 
3875.000000	100.264228 
3874.000000	100.263749 
3873.000000	100.263959 
3872.000000	100.264284 
3871.000000	100.264217 
3870.000000	100.263927 
3869.000000	100.263761 
3868.000000	100.264053 
3867.000000	100.265102 
3866.000000	100.266753 
3865.000000	100.267991 
3864.000000	100.267746 
3863.000000	100.266283 
3862.000000	100.264932 
3861.000000	100.264034 
3860.000000	100.262725 
3859.000000	100.260463 
3858.000000	100.257896 
3857.000000	100.256196 
3856.000000	100.256090 
3855.000000	100.257808 
3854.000000	100.261182 
3853.000000	100.264550 
3852.000000	100.266334 
3851.000000	100.266856 
3850.000000	100.267011 
3849.000000	100.266840 
3848.000000	100.265883 
3847.000000	100.264058 
3846.000000	100.262119 
3845.000000	100.260960 
3844.000000	100.260759 
3843.000000	100.260994 
3842.000000	100.261106 
3841.000000	100.261017 
3840.000000	100.261273 
3839.000000	100.262324 
3838.000000	100.263795 
3837.000000	100.264817 
3836.000000	100.264830 
3835.000000	100.263919 
3834.000000	100.262556 
3833.000000	100.261217 
3832.000000	100.260165 
3831.000000	100.259357 
3830.000000	100.258633 
3829.000000	100.257841 
3828.000000	100.256817 
3827.000000	100.255517 
3826.000000	100.254229 
3825.000000	100.253347 
3824.000000	100.253188 
3823.000000	100.253864 
3822.000000	100.255315 
3821.000000	100.257059 
3820.000000	100.258317 
3819.000000	100.258928 
3818.000000	100.259184 
3817.000000	100.259224 
3816.000000	100.258830 
3815.000000	100.257836 
3814.000000	100.256664 
3813.000000	100.255889 
3812.000000	100.255431 
3811.000000	100.254679 
3810.000000	100.253477 
3809.000000	100.252640 
3808.000000	100.253156 
3807.000000	100.254800 
3806.000000	100.256126 
3805.000000	100.256174 
3804.000000	100.255301 
3803.000000	100.254375 
3802.000000	100.253897 
3801.000000	100.253456 
3800.000000	100.252510 
3799.000000	100.251447 
3798.000000	100.250839 
3797.000000	100.250590 
3796.000000	100.250208 
3795.000000	100.249676 
3794.000000	100.249645 
3793.000000	100.250559 
3792.000000	100.251937 
3791.000000	100.252789 
3790.000000	100.252691 
3789.000000	100.252145 
3788.000000	100.251936 
3787.000000	100.252510 
3786.000000	100.253941 
3785.000000	100.256022 
3784.000000	100.258225 
3783.000000	100.259815 
3782.000000	100.260328 
3781.000000	100.259783 
3780.000000	100.258593 
3779.000000	100.257186 
3778.000000	100.255888 
3777.000000	100.254875 
3776.000000	100.254162 
3775.000000	100.253629 
3774.000000	100.253204 
3773.000000	100.253000 
3772.000000	100.253254 
3771.000000	100.253976 
3770.000000	100.254679 
3769.000000	100.254828 
3768.000000	100.254668 
3767.000000	100.254990 
3766.000000	100.256016 
3765.000000	100.257043 
3764.000000	100.257299 
3763.000000	100.256995 
3762.000000	100.257197 
3761.000000	100.258404 
3760.000000	100.259737 
3759.000000	100.259965 
3758.000000	100.259550 
3757.000000	100.259871 
3756.000000	100.260857 
3755.000000	100.261321 
3754.000000	100.261036 
3753.000000	100.261275 
3752.000000	100.262620 
3751.000000	100.263695 
3750.000000	100.263662 
3749.000000	100.263769 
3748.000000	100.264631 
3747.000000	100.265217 
3746.000000	100.264949 
3745.000000	100.264971 
3744.000000	100.264877 
3743.000000	100.263274 
3742.000000	100.261423 
3741.000000	100.261351 
3740.000000	100.262851 
3739.000000	100.263754 
3738.000000	100.262853 
3737.000000	100.261808 
3736.000000	100.262525 
3735.000000	100.264281 
3734.000000	100.265354 
3733.000000	100.266108 
3732.000000	100.267789 
3731.000000	100.270031 
3730.000000	100.271432 
3729.000000	100.271216 
3728.000000	100.269524 
3727.000000	100.267044 
3726.000000	100.264544 
3725.000000	100.262738 
3724.000000	100.261854 
3723.000000	100.261113 
3722.000000	100.259544 
3721.000000	100.257308 
3720.000000	100.255692 
3719.000000	100.255197 
3718.000000	100.254822 
3717.000000	100.253166 
3716.000000	100.249453 
3715.000000	100.243920 
3714.000000	100.237449 
3713.000000	100.231217 
3712.000000	100.226762 
3711.000000	100.225295 
3710.000000	100.226629 
3709.000000	100.228866 
3708.000000	100.229551 
3707.000000	100.227314 
3706.000000	100.222238 
3705.000000	100.215471 
3704.000000	100.208676 
3703.000000	100.203404 
3702.000000	100.200498 
3701.000000	100.199607 
3700.000000	100.199422 
3699.000000	100.198484 
3698.000000	100.195903 
3697.000000	100.191657 
3696.000000	100.186339 
3695.000000	100.180888 
3694.000000	100.176348 
3693.000000	100.173247 
3692.000000	100.171320 
3691.000000	100.170036 
3690.000000	100.169368 
3689.000000	100.169276 
3688.000000	100.169179 
3687.000000	100.168706 
3686.000000	100.167973 
3685.000000	100.167152 
3684.000000	100.166021 
3683.000000	100.164022 
3682.000000	100.160986 
3681.000000	100.157732 
3680.000000	100.155037 
3679.000000	100.152319 
3678.000000	100.148256 
3677.000000	100.143373 
3676.000000	100.140806 
3675.000000	100.142149 
3674.000000	100.145773 
3673.000000	100.149474 
3672.000000	100.152232 
3671.000000	100.153584 
3670.000000	100.153241 
3669.000000	100.151283 
3668.000000	100.148503 
3667.000000	100.145601 
3666.000000	100.142463 
3665.000000	100.139038 
3664.000000	100.136036 
3663.000000	100.134275 
3662.000000	100.133892 
3661.000000	100.134401 
3660.000000	100.135149 
3659.000000	100.135817 
3658.000000	100.136322 
3657.000000	100.136746 
3656.000000	100.137131 
3655.000000	100.137588 
3654.000000	100.138604 
3653.000000	100.140507 
3652.000000	100.142934 
3651.000000	100.144780 
3650.000000	100.144952 
3649.000000	100.143485 
3648.000000	100.141630 
3647.000000	100.140483 
3646.000000	100.140165 
3645.000000	100.140376 
3644.000000	100.140841 
3643.000000	100.141242 
3642.000000	100.141315 
3641.000000	100.141181 
3640.000000	100.141407 
3639.000000	100.142582 
3638.000000	100.144651 
3637.000000	100.146836 
3636.000000	100.148229 
3635.000000	100.148527 
3634.000000	100.148146 
3633.000000	100.147752 
3632.000000	100.147848 
3631.000000	100.148664 
3630.000000	100.150087 
3629.000000	100.151415 
3628.000000	100.151783 
3627.000000	100.151402 
3626.000000	100.151263 
3625.000000	100.151706 
3624.000000	100.152240 
3623.000000	100.152317 
3622.000000	100.151955 
3621.000000	100.151636 
3620.000000	100.151701 
3619.000000	100.152119 
3618.000000	100.152979 
3617.000000	100.154606 
3616.000000	100.156833 
3615.000000	100.158806 
3614.000000	100.159715 
3613.000000	100.159492 
3612.000000	100.158767 
3611.000000	100.158263 
3610.000000	100.158214 
3609.000000	100.158393 
3608.000000	100.158531 
3607.000000	100.158650 
3606.000000	100.159095 
3605.000000	100.160103 
3604.000000	100.161377 
3603.000000	100.162333 
3602.000000	100.162811 
3601.000000	100.163487 
3600.000000	100.165256 
3599.000000	100.168290 
3598.000000	100.171738 
3597.000000	100.174274 
3596.000000	100.174946 
3595.000000	100.174077 
3594.000000	100.173162 
3593.000000	100.173759 
3592.000000	100.176470 
3591.000000	100.180603 
3590.000000	100.184425 
3589.000000	100.186100 
3588.000000	100.184937 
3587.000000	100.181928 
3586.000000	100.178904 
3585.000000	100.177059 
3584.000000	100.176270 
3583.000000	100.175716 
3582.000000	100.174752 
3581.000000	100.173362 
3580.000000	100.171837 
3579.000000	100.170253 
3578.000000	100.168491 
3577.000000	100.166697 
3576.000000	100.165474 
3575.000000	100.165408 
3574.000000	100.166536 
3573.000000	100.168257 
3572.000000	100.169779 
3571.000000	100.170489 
3570.000000	100.170065 
3569.000000	100.168588 
3568.000000	100.166756 
3567.000000	100.165644 
3566.000000	100.165847 
3565.000000	100.167003 
3564.000000	100.168141 
3563.000000	100.168374 
3562.000000	100.167461 
3561.000000	100.165841 
3560.000000	100.164276 
3559.000000	100.163262 
3558.000000	100.162779 
3557.000000	100.162521 
3556.000000	100.162225 
3555.000000	100.161833 
3554.000000	100.161442 
3553.000000	100.161150 
3552.000000	100.160932 
3551.000000	100.160689 
3550.000000	100.160371 
3549.000000	100.160028 
3548.000000	100.159723 
3547.000000	100.159461 
3546.000000	100.159210 
3545.000000	100.158948 
3544.000000	100.158670 
3543.000000	100.158375 
3542.000000	100.158068 
3541.000000	100.157765 
3540.000000	100.157484 
3539.000000	100.157232 
3538.000000	100.157003 
3537.000000	100.156779 
3536.000000	100.156547 
3535.000000	100.156303 
3534.000000	100.156053 
3533.000000	100.155805 
3532.000000	100.155564 
3531.000000	100.155329 
3530.000000	100.155098 
3529.000000	100.154865 
3528.000000	100.154632 
3527.000000	100.154399 
3526.000000	100.154169 
3525.000000	100.153934 
3524.000000	100.153688 
3523.000000	100.153428 
3522.000000	100.153164 
3521.000000	100.152906 
3520.000000	100.152661 
3519.000000	100.152429 
3518.000000	100.152209 
3517.000000	100.151994 
3516.000000	100.151776 
3515.000000	100.151548 
3514.000000	100.151307 
3513.000000	100.151050 
3512.000000	100.150775 
3511.000000	100.150481 
3510.000000	100.150169 
3509.000000	100.149843 
3508.000000	100.149508 
3507.000000	100.149166 
3506.000000	100.148815 
3505.000000	100.148451 
3504.000000	100.148074 
3503.000000	100.147691 
3502.000000	100.147312 
3501.000000	100.146943 
3500.000000	100.146579 
3499.000000	100.146210 
3498.000000	100.145825 
3497.000000	100.145418 
3496.000000	100.144994 
3495.000000	100.144561 
3494.000000	100.144126 
3493.000000	100.143691 
3492.000000	100.143252 
3491.000000	100.142798 
3490.000000	100.142320 
3489.000000	100.141826 
3488.000000	100.141343 
3487.000000	100.140897 
3486.000000	100.140479 
3485.000000	100.140048 
3484.000000	100.139568 
3483.000000	100.139057 
3482.000000	100.138568 
3481.000000	100.138106 
3480.000000	100.137583 
3479.000000	100.136923 
3478.000000	100.136168 
3477.000000	100.135435 
3476.000000	100.134753 
3475.000000	100.134036 
3474.000000	100.133236 
3473.000000	100.132486 
3472.000000	100.131984 
3471.000000	100.131758 
3470.000000	100.131614 
3469.000000	100.131348 
3468.000000	100.130938 
3467.000000	100.130477 
3466.000000	100.129944 
3465.000000	100.129152 
3464.000000	100.127955 
3463.000000	100.126476 
3462.000000	100.125055 
3461.000000	100.123944 
3460.000000	100.123107 
3459.000000	100.122398 
3458.000000	100.121863 
3457.000000	100.121706 
3456.000000	100.121949 
3455.000000	100.122232 
3454.000000	100.122097 
3453.000000	100.121469 
3452.000000	100.120604 
3451.000000	100.119723 
3450.000000	100.118915 
3449.000000	100.118314 
3448.000000	100.118076 
3447.000000	100.118127 
3446.000000	100.118189 
3445.000000	100.118096 
3444.000000	100.117909 
3443.000000	100.117682 
3442.000000	100.117317 
3441.000000	100.116759 
3440.000000	100.116164 
3439.000000	100.115752 
3438.000000	100.115536 
3437.000000	100.115307 
3436.000000	100.114886 
3435.000000	100.114322 
3434.000000	100.113831 
3433.000000	100.113555 
3432.000000	100.113418 
3431.000000	100.113215 
3430.000000	100.112820 
3429.000000	100.112266 
3428.000000	100.111680 
3427.000000	100.111175 
3426.000000	100.110808 
3425.000000	100.110585 
3424.000000	100.110451 
3423.000000	100.110314 
3422.000000	100.110106 
3421.000000	100.109831 
3420.000000	100.109531 
3419.000000	100.109225 
3418.000000	100.108917 
3417.000000	100.108617 
3416.000000	100.108320 
3415.000000	100.107969 
3414.000000	100.107495 
3413.000000	100.106928 
3412.000000	100.106428 
3411.000000	100.106167 
3410.000000	100.106192 
3409.000000	100.106400 
3408.000000	100.106584 
3407.000000	100.106517 
3406.000000	100.106047 
3405.000000	100.105225 
3404.000000	100.104376 
3403.000000	100.103898 
3402.000000	100.103973 
3401.000000	100.104452 
3400.000000	100.104991 
3399.000000	100.105349 
3398.000000	100.105560 
3397.000000	100.105814 
3396.000000	100.106170 
3395.000000	100.106438 
3394.000000	100.106394 
3393.000000	100.106051 
3392.000000	100.105621 
3391.000000	100.105212 
3390.000000	100.104733 
3389.000000	100.104121 
3388.000000	100.103507 
3387.000000	100.103063 
3386.000000	100.102745 
3385.000000	100.102333 
3384.000000	100.101745 
3383.000000	100.101247 
3382.000000	100.101265 
3381.000000	100.101921 
3380.000000	100.102756 
3379.000000	100.102988 
3378.000000	100.102232 
3377.000000	100.100948 
3376.000000	100.100146 
3375.000000	100.100569 
3374.000000	100.102278 
3373.000000	100.104819 
3372.000000	100.107522 
3371.000000	100.109697 
3370.000000	100.110868 
3369.000000	100.111079 
3368.000000	100.110872 
3367.000000	100.110675 
3366.000000	100.110270 
3365.000000	100.109113 
3364.000000	100.107155 
3363.000000	100.105101 
3362.000000	100.103789 
3361.000000	100.103457 
3360.000000	100.103679 
3359.000000	100.103922 
3358.000000	100.104090 
3357.000000	100.104501 
3356.000000	100.105371 
3355.000000	100.106400 
3354.000000	100.107006 
3353.000000	100.106978 
3352.000000	100.106729 
3351.000000	100.106856 
3350.000000	100.107585 
3349.000000	100.108744 
3348.000000	100.110102 
3347.000000	100.111487 
3346.000000	100.112601 
3345.000000	100.113074 
3344.000000	100.112793 
3343.000000	100.112058 
3342.000000	100.111313 
3341.000000	100.110772 
3340.000000	100.110444 
3339.000000	100.110342 
3338.000000	100.110480 
3337.000000	100.110708 
3336.000000	100.110796 
3335.000000	100.110727 
3334.000000	100.110783 
3333.000000	100.111220 
3332.000000	100.111955 
3331.000000	100.112630 
3330.000000	100.112990 
3329.000000	100.113103 
3328.000000	100.113230 
3327.000000	100.113545 
3326.000000	100.114000 
3325.000000	100.114442 
3324.000000	100.114778 
3323.000000	100.115042 
3322.000000	100.115322 
3321.000000	100.115642 
3320.000000	100.115934 
3319.000000	100.116137 
3318.000000	100.116276 
3317.000000	100.116438 
3316.000000	100.116687 
3315.000000	100.117016 
3314.000000	100.117376 
3313.000000	100.117709 
3312.000000	100.117999 
3311.000000	100.118253 
3310.000000	100.118482 
3309.000000	100.118697 
3308.000000	100.118910 
3307.000000	100.119133 
3306.000000	100.119370 
3305.000000	100.119603 
3304.000000	100.119807 
3303.000000	100.119965 
3302.000000	100.120080 
3301.000000	100.120202 
3300.000000	100.120405 
3299.000000	100.120739 
3298.000000	100.121188 
3297.000000	100.121688 
3296.000000	100.122168 
3295.000000	100.122552 
3294.000000	100.122788 
3293.000000	100.122889 
3292.000000	100.122949 
3291.000000	100.123066 
3290.000000	100.123258 
3289.000000	100.123454 
3288.000000	100.123571 
3287.000000	100.123590 
3286.000000	100.123596 
3285.000000	100.123691 
3284.000000	100.123872 
3283.000000	100.124027 
3282.000000	100.124080 
3281.000000	100.124092 
3280.000000	100.124133 
3279.000000	100.124152 
3278.000000	100.124050 
3277.000000	100.123897 
3276.000000	100.123934 
3275.000000	100.124324 
3274.000000	100.124969 
3273.000000	100.125558 
3272.000000	100.125756 
3271.000000	100.125379 
3270.000000	100.124517 
3269.000000	100.123598 
3268.000000	100.123172 
3267.000000	100.123519 
3266.000000	100.124510 
3265.000000	100.125774 
3264.000000	100.126997 
3263.000000	100.128064 
3262.000000	100.128970 
3261.000000	100.129666 
3260.000000	100.130004 
3259.000000	100.129826 
3258.000000	100.129130 
3257.000000	100.128162 
3256.000000	100.127293 
3255.000000	100.126791 
3254.000000	100.126756 
3253.000000	100.127202 
3252.000000	100.128063 
3251.000000	100.129105 
3250.000000	100.129973 
3249.000000	100.130434 
3248.000000	100.130530 
3247.000000	100.130458 
3246.000000	100.130322 
3245.000000	100.130115 
3244.000000	100.129899 
3243.000000	100.129903 
3242.000000	100.130356 
3241.000000	100.131252 
3240.000000	100.132293 
3239.000000	100.133058 
3238.000000	100.133325 
3237.000000	100.133233 
3236.000000	100.133165 
3235.000000	100.133393 
3234.000000	100.133857 
3233.000000	100.134326 
3232.000000	100.134710 
3231.000000	100.135127 
3230.000000	100.135680 
3229.000000	100.136234 
3228.000000	100.136519 
3227.000000	100.136382 
3226.000000	100.135906 
3225.000000	100.135363 
3224.000000	100.135077 
3223.000000	100.135253 
3222.000000	100.135886 
3221.000000	100.136802 
3220.000000	100.137791 
3219.000000	100.138694 
3218.000000	100.139359 
3217.000000	100.139650 
3216.000000	100.139570 
3215.000000	100.139365 
3214.000000	100.139365 
3213.000000	100.139653 
3212.000000	100.140003 
3211.000000	100.140195 
3210.000000	100.140329 
3209.000000	100.140686 
3208.000000	100.141355 
3207.000000	100.142125 
3206.000000	100.142764 
3205.000000	100.143302 
3204.000000	100.143959 
3203.000000	100.144851 
3202.000000	100.145848 
3201.000000	100.146709 
3200.000000	100.147279 
3199.000000	100.147502 
3198.000000	100.147387 
3197.000000	100.147094 
3196.000000	100.147015 
3195.000000	100.147551 
3194.000000	100.148639 
3193.000000	100.149605 
3192.000000	100.149723 
3191.000000	100.148938 
3190.000000	100.147959 
3189.000000	100.147637 
3188.000000	100.148263 
3187.000000	100.149498 
3186.000000	100.150718 
3185.000000	100.151385 
3184.000000	100.151232 
3183.000000	100.150333 
3182.000000	100.149085 
3181.000000	100.148005 
3180.000000	100.147425 
3179.000000	100.147366 
3178.000000	100.147641 
3177.000000	100.147944 
3176.000000	100.147955 
3175.000000	100.147619 
3174.000000	100.147399 
3173.000000	100.147958 
3172.000000	100.149439 
3171.000000	100.151163 
3170.000000	100.152209 
3169.000000	100.152333 
3168.000000	100.152099 
3167.000000	100.152224 
3166.000000	100.152908 
3165.000000	100.153828 
3164.000000	100.154606 
3163.000000	100.155128 
3162.000000	100.155474 
3161.000000	100.155738 
3160.000000	100.155977 
3159.000000	100.156259 
3158.000000	100.156628 
3157.000000	100.157018 
3156.000000	100.157275 
3155.000000	100.157322 
3154.000000	100.157276 
3153.000000	100.157348 
3152.000000	100.157612 
3151.000000	100.157900 
3150.000000	100.157973 
3149.000000	100.157774 
3148.000000	100.157535 
3147.000000	100.157605 
3146.000000	100.158151 
3145.000000	100.158970 
3144.000000	100.159605 
3143.000000	100.159793 
3142.000000	100.159756 
3141.000000	100.159990 
3140.000000	100.160674 
3139.000000	100.161415 
3138.000000	100.161689 
3137.000000	100.161449 
3136.000000	100.161143 
3135.000000	100.161192 
3134.000000	100.161593 
3133.000000	100.162055 
3132.000000	100.162338 
3131.000000	100.162382 
3130.000000	100.162178 
3129.000000	100.161738 
3128.000000	100.161216 
3127.000000	100.160922 
3126.000000	100.161094 
3125.000000	100.161684 
3124.000000	100.162435 
3123.000000	100.163120 
3122.000000	100.163728 
3121.000000	100.164423 
3120.000000	100.165356 
3119.000000	100.166464 
3118.000000	100.167417 
3117.000000	100.167801 
3116.000000	100.167459 
3115.000000	100.166669 
3114.000000	100.165910 
3113.000000	100.165371 
3112.000000	100.164837 
3111.000000	100.164137 
3110.000000	100.163585 
3109.000000	100.163695 
3108.000000	100.164459 
3107.000000	100.165186 
3106.000000	100.165221 
3105.000000	100.164681 
3104.000000	100.164284 
3103.000000	100.164617 
3102.000000	100.165785 
3101.000000	100.167532 
3100.000000	100.169345 
3099.000000	100.170570 
3098.000000	100.170798 
3097.000000	100.170253 
3096.000000	100.169687 
3095.000000	100.169724 
3094.000000	100.170377 
3093.000000	100.171271 
3092.000000	100.172088 
3091.000000	100.172656 
3090.000000	100.172798 
3089.000000	100.172430 
3088.000000	100.171868 
3087.000000	100.171798 
3086.000000	100.172693 
3085.000000	100.174289 
3084.000000	100.175756 
3083.000000	100.176448 
3082.000000	100.176426 
3081.000000	100.176230 
3080.000000	100.176203 
3079.000000	100.176133 
3078.000000	100.175529 
3077.000000	100.174125 
3076.000000	100.172138 
3075.000000	100.170200 
3074.000000	100.169054 
3073.000000	100.169137 
3072.000000	100.170303 
3071.000000	100.172019 
3070.000000	100.173826 
3069.000000	100.175332 
3068.000000	100.175744 
3067.000000	100.174067 
3066.000000	100.170346 
3065.000000	100.166325 
3064.000000	100.164013 
3063.000000	100.163635 
3062.000000	100.163747 
3061.000000	100.163396 
3060.000000	100.163389 
3059.000000	100.165030 
3058.000000	100.168154 
3057.000000	100.170954 
3056.000000	100.171652 
3055.000000	100.170126 
3054.000000	100.167935 
3053.000000	100.166873 
3052.000000	100.167384 
3051.000000	100.168371 
3050.000000	100.168522 
3049.000000	100.167485 
3048.000000	100.165513 
3047.000000	100.162463 
3046.000000	100.158043 
3045.000000	100.153067 
3044.000000	100.149494 
3043.000000	100.148585 
3042.000000	100.149375 
3041.000000	100.149455 
3040.000000	100.147258 
3039.000000	100.143396 
3038.000000	100.139910 
3037.000000	100.138390 
3036.000000	100.138659 
3035.000000	100.139109 
3034.000000	100.138229 
3033.000000	100.135658 
3032.000000	100.131773 
3031.000000	100.126811 
3030.000000	100.120771 
3029.000000	100.113930 
3028.000000	100.106962 
3027.000000	100.100440 
3026.000000	100.094515 
3025.000000	100.089049 
3024.000000	100.083624 
3023.000000	100.077403 
3022.000000	100.069574 
3021.000000	100.060307 
3020.000000	100.051040 
3019.000000	100.043551 
3018.000000	100.038772 
3017.000000	100.036328 
3016.000000	100.034742 
3015.000000	100.031987 
3014.000000	100.026361 
3013.000000	100.017315 
3012.000000	100.005457 
3011.000000	99.991800  
3010.000000	99.977300  
3009.000000	99.963227  
3008.000000	99.951390  
3007.000000	99.943350  
3006.000000	99.939188  
3005.000000	99.937054  
3004.000000	99.933940  
3003.000000	99.927251  
3002.000000	99.916378  
3001.000000	99.903317  
3000.000000	99.891480  
2999.000000	99.883180  
2998.000000	99.878041  
2997.000000	99.874012  
2996.000000	99.869749  
2995.000000	99.865306  
2994.000000	99.860210  
2993.000000	99.851911  
2992.000000	99.837717  
2991.000000	99.818677  
2990.000000	99.800358  
2989.000000	99.788398  
2988.000000	99.783638  
2987.000000	99.782500  
2986.000000	99.781811  
2985.000000	99.782168  
2984.000000	99.785854  
2983.000000	99.792741  
2982.000000	99.799643  
2981.000000	99.803364  
2980.000000	99.803387  
2979.000000	99.801423  
2978.000000	99.799287  
2977.000000	99.797581  
2976.000000	99.795847  
2975.000000	99.793458  
2974.000000	99.790406  
2973.000000	99.787334  
2972.000000	99.784771  
2971.000000	99.782581  
2970.000000	99.780479  
2969.000000	99.778946  
2968.000000	99.779174  
2967.000000	99.782084  
2966.000000	99.787674  
2965.000000	99.795171  
2964.000000	99.803369  
2963.000000	99.810926  
2962.000000	99.816908  
2961.000000	99.821213  
2960.000000	99.824201  
2959.000000	99.826113  
2958.000000	99.827388  
2957.000000	99.829312  
2956.000000	99.833235  
2955.000000	99.838707  
2954.000000	99.843365  
2953.000000	99.845678  
2952.000000	99.847373  
2951.000000	99.851926  
2950.000000	99.860317  
2949.000000	99.869187  
2948.000000	99.874067  
2947.000000	99.873914  
2946.000000	99.871780  
2945.000000	99.871276  
2944.000000	99.873080  
2943.000000	99.875326  
2942.000000	99.876383  
2941.000000	99.876005  
2940.000000	99.874136  
2939.000000	99.870184  
2938.000000	99.864134  
2937.000000	99.857515  
2936.000000	99.852390  
2935.000000	99.849742  
2934.000000	99.849170  
2933.000000	99.849590  
2932.000000	99.849619  
2931.000000	99.847794  
2930.000000	99.843284  
2929.000000	99.836529  
2928.000000	99.828958  
2927.000000	99.822229  
2926.000000	99.817736  
2925.000000	99.816105  
2924.000000	99.816640  
2923.000000	99.817872  
2922.000000	99.819274  
2921.000000	99.821884  
2920.000000	99.826513  
2919.000000	99.832055  
2918.000000	99.836502  
2917.000000	99.839164  
2916.000000	99.840869  
2915.000000	99.842371  
2914.000000	99.843739  
2913.000000	99.845153  
2912.000000	99.847001  
2911.000000	99.848943  
2910.000000	99.849920  
2909.000000	99.849439  
2908.000000	99.848119  
2907.000000	99.846691  
2906.000000	99.845152  
2905.000000	99.843172  
2904.000000	99.840613  
2903.000000	99.837502  
2902.000000	99.834324  
2901.000000	99.832785  
2900.000000	99.835206  
2899.000000	99.842325  
2898.000000	99.851969  
2897.000000	99.860417  
2896.000000	99.865455  
2895.000000	99.867872  
2894.000000	99.870190  
2893.000000	99.874227  
2892.000000	99.879672  
2891.000000	99.884682  
2890.000000	99.887821  
2889.000000	99.889415  
2888.000000	99.890922  
2887.000000	99.893259  
2886.000000	99.896246  
2885.000000	99.899532  
2884.000000	99.903303  
2883.000000	99.907796  
2882.000000	99.912740  
2881.000000	99.917787  
2880.000000	99.923166  
2879.000000	99.929508  
2878.000000	99.937118  
2877.000000	99.945529  
2876.000000	99.953520  
2875.000000	99.959560  
2874.000000	99.962702  
2873.000000	99.963430  
2872.000000	99.963593  
2871.000000	99.965096  
2870.000000	99.968596  
2869.000000	99.973507  
2868.000000	99.978952  
2867.000000	99.984511  
2866.000000	99.990310  
2865.000000	99.996665  
2864.000000	100.003541 
2863.000000	100.010149 
2862.000000	100.015228 
2861.000000	100.018086 
2860.000000	100.019418 
2859.000000	100.020914 
2858.000000	100.023823 
2857.000000	100.027977 
2856.000000	100.032209 
2855.000000	100.035728 
2854.000000	100.039000 
2853.000000	100.043150 
2852.000000	100.048618 
2851.000000	100.054756 
2850.000000	100.060867 
2849.000000	100.067189 
2848.000000	100.074372 
2847.000000	100.082123 
2846.000000	100.088993 
2845.000000	100.093666 
2844.000000	100.096111 
2843.000000	100.097519 
2842.000000	100.099541 
2841.000000	100.103488 
2840.000000	100.109562 
2839.000000	100.116363 
2838.000000	100.121600 
2837.000000	100.123850 
2836.000000	100.123619 
2835.000000	100.122810 
2834.000000	100.123343 
2833.000000	100.126184 
2832.000000	100.131036 
2831.000000	100.136382 
2830.000000	100.140332 
2829.000000	100.142131 
2828.000000	100.142843 
2827.000000	100.144224 
2826.000000	100.146929 
2825.000000	100.150097 
2824.000000	100.152551 
2823.000000	100.153969 
2822.000000	100.154889 
2821.000000	100.155968 
2820.000000	100.157370 
2819.000000	100.158830 
2818.000000	100.160255 
2817.000000	100.162086 
2816.000000	100.164748 
2815.000000	100.167751 
2814.000000	100.169843 
2813.000000	100.170236 
2812.000000	100.169303 
2811.000000	100.167848 
2810.000000	100.166166 
2809.000000	100.164296 
2808.000000	100.162798 
2807.000000	100.162560 
2806.000000	100.163850 
2805.000000	100.166016 
2804.000000	100.168224 
2803.000000	100.170182 
2802.000000	100.172066 
2801.000000	100.173980 
2800.000000	100.175618 
2799.000000	100.176433 
2798.000000	100.176169 
2797.000000	100.175248 
2796.000000	100.174473 
2795.000000	100.174341 
2794.000000	100.174799 
2793.000000	100.175610 
2792.000000	100.176615 
2791.000000	100.177556 
2790.000000	100.178058 
2789.000000	100.178121 
2788.000000	100.178305 
2787.000000	100.179096 
2786.000000	100.180341 
2785.000000	100.181531 
2784.000000	100.182421 
2783.000000	100.183073 
2782.000000	100.183468 
2781.000000	100.183473 
2780.000000	100.183180 
2779.000000	100.183003 
2778.000000	100.183308 
2777.000000	100.184089 
2776.000000	100.185032 
2775.000000	100.185777 
2774.000000	100.186085 
2773.000000	100.185923 
2772.000000	100.185511 
2771.000000	100.185234 
2770.000000	100.185388 
2769.000000	100.186037 
2768.000000	100.187128 
2767.000000	100.188561 
2766.000000	100.190070 
2765.000000	100.191186 
2764.000000	100.191558 
2763.000000	100.191300 
2762.000000	100.190867 
2761.000000	100.190645 
2760.000000	100.190786 
2759.000000	100.191322 
2758.000000	100.192116 
2757.000000	100.192795 
2756.000000	100.193079 
2755.000000	100.193208 
2754.000000	100.193640 
2753.000000	100.194253 
2752.000000	100.194309 
2751.000000	100.193423 
2750.000000	100.192177 
2749.000000	100.191431 
2748.000000	100.191239 
2747.000000	100.190961 
2746.000000	100.190284 
2745.000000	100.189638 
2744.000000	100.189496 
2743.000000	100.189776 
2742.000000	100.190133 
2741.000000	100.190515 
2740.000000	100.191154 
2739.000000	100.192186 
2738.000000	100.193512 
2737.000000	100.194909 
2736.000000	100.196078 
2735.000000	100.196708 
2734.000000	100.196650 
2733.000000	100.196025 
2732.000000	100.195144 
2731.000000	100.194361 
2730.000000	100.194011 
2729.000000	100.194296 
2728.000000	100.195142 
2727.000000	100.196201 
2726.000000	100.197089 
2725.000000	100.197646 
2724.000000	100.197946 
2723.000000	100.198163 
2722.000000	100.198451 
2721.000000	100.198853 
2720.000000	100.199264 
2719.000000	100.199521 
2718.000000	100.199567 
2717.000000	100.199502 
2716.000000	100.199487 
2715.000000	100.199641 
2714.000000	100.200002 
2713.000000	100.200499 
2712.000000	100.200951 
2711.000000	100.201194 
2710.000000	100.201242 
2709.000000	100.201255 
2708.000000	100.201377 
2707.000000	100.201585 
2706.000000	100.201742 
2705.000000	100.201778 
2704.000000	100.201778 
2703.000000	100.201865 
2702.000000	100.202054 
2701.000000	100.202249 
2700.000000	100.202356 
2699.000000	100.202371 
2698.000000	100.202361 
2697.000000	100.202354 
2696.000000	100.202290 
2695.000000	100.202121 
2694.000000	100.201976 
2693.000000	100.202084 
2692.000000	100.202461 
2691.000000	100.202755 
2690.000000	100.202610 
2689.000000	100.202132 
2688.000000	100.201829 
2687.000000	100.202015 
2686.000000	100.202499 
2685.000000	100.202903 
2684.000000	100.203138 
2683.000000	100.203387 
2682.000000	100.203772 
2681.000000	100.204209 
2680.000000	100.204502 
2679.000000	100.204453 
2678.000000	100.204001 
2677.000000	100.203390 
2676.000000	100.203039 
2675.000000	100.203096 
2674.000000	100.203213 
2673.000000	100.202917 
2672.000000	100.202102 
2671.000000	100.201048 
2670.000000	100.200041 
2669.000000	100.199126 
2668.000000	100.198278 
2667.000000	100.197665 
2666.000000	100.197652 
2665.000000	100.198470 
2664.000000	100.199887 
2663.000000	100.201300 
2662.000000	100.202288 
2661.000000	100.202954 
2660.000000	100.203561 
2659.000000	100.204043 
2658.000000	100.204088 
2657.000000	100.203659 
2656.000000	100.203173 
2655.000000	100.203095 
2654.000000	100.203502 
2653.000000	100.204050 
2652.000000	100.204257 
2651.000000	100.203878 
2650.000000	100.203154 
2649.000000	100.202681 
2648.000000	100.202815 
2647.000000	100.203298 
2646.000000	100.203601 
2645.000000	100.203598 
2644.000000	100.203618 
2643.000000	100.203848 
2642.000000	100.204073 
2641.000000	100.204104 
2640.000000	100.204159 
2639.000000	100.204559 
2638.000000	100.205306 
2637.000000	100.206107 
2636.000000	100.206677 
2635.000000	100.206912 
2634.000000	100.206859 
2633.000000	100.206731 
2632.000000	100.206790 
2631.000000	100.207112 
2630.000000	100.207566 
2629.000000	100.208012 
2628.000000	100.208434 
2627.000000	100.208850 
2626.000000	100.209239 
2625.000000	100.209629 
2624.000000	100.210120 
2623.000000	100.210733 
2622.000000	100.211299 
2621.000000	100.211617 
2620.000000	100.211687 
2619.000000	100.211700 
2618.000000	100.211804 
2617.000000	100.211966 
2616.000000	100.212093 
2615.000000	100.212167 
2614.000000	100.212251 
2613.000000	100.212421 
2612.000000	100.212720 
2611.000000	100.213131 
2610.000000	100.213574 
2609.000000	100.213954 
2608.000000	100.214238 
2607.000000	100.214453 
2606.000000	100.214652 
2605.000000	100.214878 
2604.000000	100.215134 
2603.000000	100.215301 
2602.000000	100.215201 
2601.000000	100.214814 
2600.000000	100.214383 
2599.000000	100.214219 
2598.000000	100.214399 
2597.000000	100.214727 
2596.000000	100.214906 
2595.000000	100.214751 
2594.000000	100.214239 
2593.000000	100.213510 
2592.000000	100.212861 
2591.000000	100.212567 
2590.000000	100.212675 
2589.000000	100.212999 
2588.000000	100.213271 
2587.000000	100.213355 
2586.000000	100.213243 
2585.000000	100.212939 
2584.000000	100.212446 
2583.000000	100.211857 
2582.000000	100.211356 
2581.000000	100.211081 
2580.000000	100.211007 
2579.000000	100.210978 
2578.000000	100.210849 
2577.000000	100.210605 
2576.000000	100.210364 
2575.000000	100.210268 
2574.000000	100.210351 
2573.000000	100.210485 
2572.000000	100.210465 
2571.000000	100.210182 
2570.000000	100.209694 
2569.000000	100.209186 
2568.000000	100.208841 
2567.000000	100.208752 
2566.000000	100.208913 
2565.000000	100.209209 
2564.000000	100.209477 
2563.000000	100.209648 
2562.000000	100.209837 
2561.000000	100.210235 
2560.000000	100.210879 
2559.000000	100.211550 
2558.000000	100.211955 
2557.000000	100.211961 
2556.000000	100.211663 
2555.000000	100.211364 
2554.000000	100.211477 
2553.000000	100.212289 
2552.000000	100.213584 
2551.000000	100.214593 
2550.000000	100.214728 
2549.000000	100.214252 
2548.000000	100.213957 
2547.000000	100.214113 
2546.000000	100.214233 
2545.000000	100.214004 
2544.000000	100.213807 
2543.000000	100.214093 
2542.000000	100.214708 
2541.000000	100.215158 
2540.000000	100.215255 
2539.000000	100.215179 
2538.000000	100.215084 
2537.000000	100.214910 
2536.000000	100.214439 
2535.000000	100.213501 
2534.000000	100.212365 
2533.000000	100.211899 
2532.000000	100.212870 
2531.000000	100.215047 
2530.000000	100.217340 
2529.000000	100.219056 
2528.000000	100.220448 
2527.000000	100.221785 
2526.000000	100.222616 
2525.000000	100.222546 
2524.000000	100.222160 
2523.000000	100.222417 
2522.000000	100.223309 
2521.000000	100.223877 
2520.000000	100.223490 
2519.000000	100.222496 
2518.000000	100.221632 
2517.000000	100.221232 
2516.000000	100.221052 
2515.000000	100.220598 
2514.000000	100.219599 
2513.000000	100.218311 
2512.000000	100.217244 
2511.000000	100.216506 
2510.000000	100.215728 
2509.000000	100.214844 
2508.000000	100.214534 
2507.000000	100.215405 
2506.000000	100.216985 
2505.000000	100.218022 
2504.000000	100.217763 
2503.000000	100.216538 
2502.000000	100.215210 
2501.000000	100.214398 
2500.000000	100.214317 
2499.000000	100.214991 
2498.000000	100.216329 
2497.000000	100.218000 
2496.000000	100.219404 
2495.000000	100.219960 
2494.000000	100.219457 
2493.000000	100.218166 
2492.000000	100.216610 
2491.000000	100.215177 
2490.000000	100.214012 
2489.000000	100.213178 
2488.000000	100.212700 
2487.000000	100.212494 
2486.000000	100.212423 
2485.000000	100.212476 
2484.000000	100.212719 
2483.000000	100.213054 
2482.000000	100.213202 
2481.000000	100.212994 
2480.000000	100.212535 
2479.000000	100.212075 
2478.000000	100.211760 
2477.000000	100.211561 
2476.000000	100.211396 
2475.000000	100.211238 
2474.000000	100.211091 
2473.000000	100.210949 
2472.000000	100.210792 
2471.000000	100.210610 
2470.000000	100.210405 
2469.000000	100.210179 
2468.000000	100.209929 
2467.000000	100.209663 
2466.000000	100.209400 
2465.000000	100.209152 
2464.000000	100.208917 
2463.000000	100.208681 
2462.000000	100.208433 
2461.000000	100.208169 
2460.000000	100.207892 
2459.000000	100.207607 
2458.000000	100.207319 
2457.000000	100.207033 
2456.000000	100.206746 
2455.000000	100.206454 
2454.000000	100.206154 
2453.000000	100.205852 
2452.000000	100.205560 
2451.000000	100.205283 
2450.000000	100.205022 
2449.000000	100.204771 
2448.000000	100.204523 
2447.000000	100.204269 
2446.000000	100.204010 
2445.000000	100.203760 
2444.000000	100.203540 
2443.000000	100.203362 
2442.000000	100.203207 
2441.000000	100.203015 
2440.000000	100.202740 
2439.000000	100.202371 
2438.000000	100.201931 
2437.000000	100.201472 
2436.000000	100.201056 
2435.000000	100.200692 
2434.000000	100.200298 
2433.000000	100.199762 
2432.000000	100.199076 
2431.000000	100.198389 
2430.000000	100.197888 
2429.000000	100.197642 
2428.000000	100.197605 
2427.000000	100.197700 
2426.000000	100.197856 
2425.000000	100.197935 
2424.000000	100.197733 
2423.000000	100.197115 
2422.000000	100.196170 
2421.000000	100.195246 
2420.000000	100.194676 
2419.000000	100.194506 
2418.000000	100.194540 
2417.000000	100.194607 
2416.000000	100.194697 
2415.000000	100.194769 
2414.000000	100.194656 
2413.000000	100.194291 
2412.000000	100.193844 
2411.000000	100.193489 
2410.000000	100.193174 
2409.000000	100.192810 
2408.000000	100.192556 
2407.000000	100.192693 
2406.000000	100.193259 
2405.000000	100.193961 
2404.000000	100.194465 
2403.000000	100.194619 
2402.000000	100.194461 
2401.000000	100.194144 
2400.000000	100.193868 
2399.000000	100.193752 
2398.000000	100.193778 
2397.000000	100.193846 
2396.000000	100.193887 
2395.000000	100.193901 
2394.000000	100.193915 
2393.000000	100.193934 
2392.000000	100.193947 
2391.000000	100.193975 
2390.000000	100.194105 
2389.000000	100.194422 
2388.000000	100.194889 
2387.000000	100.195328 
2386.000000	100.195574 
2385.000000	100.195654 
2384.000000	100.195779 
2383.000000	100.196105 
2382.000000	100.196593 
2381.000000	100.197074 
2380.000000	100.197379 
2379.000000	100.197367 
2378.000000	100.196981 
2377.000000	100.196387 
2376.000000	100.195961 
2375.000000	100.195939 
2374.000000	100.196167 
2373.000000	100.196273 
2372.000000	100.196151 
2371.000000	100.196106 
2370.000000	100.196450 
2369.000000	100.197069 
2368.000000	100.197455 
2367.000000	100.197215 
2366.000000	100.196423 
2365.000000	100.195548 
2364.000000	100.195029 
2363.000000	100.194941 
2362.000000	100.194988 
2361.000000	100.194789 
2360.000000	100.194217 
2359.000000	100.193397 
2358.000000	100.192526 
2357.000000	100.191703 
2356.000000	100.190995 
2355.000000	100.190499 
2354.000000	100.190191 
2353.000000	100.189934 
2352.000000	100.189713 
2351.000000	100.189784 
2350.000000	100.190345 
2349.000000	100.191235 
2348.000000	100.192051 
2347.000000	100.192348 
2346.000000	100.191936 
2345.000000	100.190993 
2344.000000	100.190021 
2343.000000	100.189466 
2342.000000	100.189393 
2341.000000	100.189639 
2340.000000	100.189881 
2339.000000	100.189794 
2338.000000	100.189244 
2337.000000	100.188404 
2336.000000	100.187596 
2335.000000	100.187077 
2334.000000	100.186919 
2333.000000	100.187053 
2332.000000	100.187175 
2331.000000	100.186881 
2330.000000	100.185994 
2329.000000	100.184808 
2328.000000	100.184017 
2327.000000	100.184039 
2326.000000	100.184734 
2325.000000	100.185488 
2324.000000	100.185747 
2323.000000	100.185490 
2322.000000	100.185189 
2321.000000	100.185422 
2320.000000	100.186250 
2319.000000	100.187257 
2318.000000	100.187964 
2317.000000	100.188225 
2316.000000	100.188121 
2315.000000	100.187807 
2314.000000	100.187538 
2313.000000	100.187657 
2312.000000	100.188325 
2311.000000	100.189348 
2310.000000	100.190454 
2309.000000	100.191563 
2308.000000	100.192571 
2307.000000	100.193039 
2306.000000	100.192633 
2305.000000	100.191592 
2304.000000	100.190450 
2303.000000	100.189460 
2302.000000	100.188607 
2301.000000	100.188037 
2300.000000	100.187987 
2299.000000	100.188290 
2298.000000	100.188486 
2297.000000	100.188517 
2296.000000	100.188857 
2295.000000	100.189787 
2294.000000	100.190942 
2293.000000	100.191703 
2292.000000	100.191870 
2291.000000	100.191728 
2290.000000	100.191639 
2289.000000	100.191729 
2288.000000	100.191948 
2287.000000	100.192236 
2286.000000	100.192589 
2285.000000	100.193016 
2284.000000	100.193468 
2283.000000	100.193837 
2282.000000	100.194039 
2281.000000	100.194091 
2280.000000	100.194097 
2279.000000	100.194201 
2278.000000	100.194543 
2277.000000	100.195198 
2276.000000	100.196097 
2275.000000	100.196991 
2274.000000	100.197591 
2273.000000	100.197786 
2272.000000	100.197615 
2271.000000	100.197003 
2270.000000	100.195872 
2269.000000	100.194712 
2268.000000	100.194522 
2267.000000	100.195840 
2266.000000	100.198048 
2265.000000	100.199887 
2264.000000	100.200636 
2263.000000	100.200386 
2262.000000	100.199729 
2261.000000	100.199578 
2260.000000	100.200761 
2259.000000	100.203078 
2258.000000	100.204985 
2257.000000	100.205049 
2256.000000	100.203442 
2255.000000	100.201458 
2254.000000	100.199835 
2253.000000	100.198428 
2252.000000	100.197354 
2251.000000	100.197413 
2250.000000	100.199231 
2249.000000	100.202708 
2248.000000	100.207150 
2247.000000	100.211299 
2246.000000	100.213498 
2245.000000	100.212606 
2244.000000	100.208979 
2243.000000	100.204186 
2242.000000	100.199867 
2241.000000	100.197171 
2240.000000	100.196679 
2239.000000	100.197959 
2238.000000	100.199406 
2237.000000	100.199281 
2236.000000	100.197040 
2235.000000	100.193493 
2234.000000	100.190167 
2233.000000	100.188796 
2232.000000	100.190582 
2231.000000	100.195189 
2230.000000	100.200947 
2229.000000	100.206614 
2228.000000	100.212376 
2227.000000	100.218567 
2226.000000	100.224154 
2225.000000	100.227316 
2224.000000	100.227253 
2223.000000	100.224946 
2222.000000	100.222539 
2221.000000	100.222199 
2220.000000	100.224694 
2219.000000	100.228708 
2218.000000	100.232101 
2217.000000	100.234161 
2216.000000	100.235930 
2215.000000	100.238185 
2214.000000	100.240137 
2213.000000	100.240552 
2212.000000	100.239169 
2211.000000	100.236721 
2210.000000	100.234538 
2209.000000	100.234235 
2208.000000	100.236530 
2207.000000	100.239920 
2206.000000	100.241593 
2205.000000	100.240302 
2204.000000	100.237439 
2203.000000	100.235187 
2202.000000	100.234495 
2201.000000	100.235351 
2200.000000	100.237563 
2199.000000	100.240160 
2198.000000	100.241215 
2197.000000	100.239941 
2196.000000	100.238340 
2195.000000	100.239182 
2194.000000	100.242893 
2193.000000	100.247659 
2192.000000	100.251873 
2191.000000	100.254900 
2190.000000	100.255976 
2189.000000	100.254626 
2188.000000	100.252274 
2187.000000	100.251633 
2186.000000	100.254089 
2185.000000	100.259000 
2184.000000	100.265015 
2183.000000	100.270490 
2182.000000	100.273188 
2181.000000	100.272037 
2180.000000	100.269218 
2179.000000	100.268065 
2178.000000	100.268654 
2177.000000	100.267933 
2176.000000	100.264208 
2175.000000	100.259086 
2174.000000	100.254712 
2173.000000	100.251519 
2172.000000	100.249329 
2171.000000	100.248434 
2170.000000	100.248984 
2169.000000	100.251068 
2168.000000	100.255624 
2167.000000	100.263302 
2166.000000	100.272037 
2165.000000	100.278098 
2164.000000	100.280410 
2163.000000	100.281451 
2162.000000	100.283361 
2161.000000	100.285457 
2160.000000	100.286229 
2159.000000	100.285132 
2158.000000	100.281640 
2157.000000	100.275503 
2156.000000	100.268709 
2155.000000	100.264332 
2154.000000	100.262757 
2153.000000	100.261145 
2152.000000	100.256981 
2151.000000	100.250669 
2150.000000	100.244667 
2149.000000	100.241559 
2148.000000	100.242676 
2147.000000	100.246787 
2146.000000	100.249901 
2145.000000	100.248510 
2144.000000	100.243251 
2143.000000	100.238119 
2142.000000	100.235732 
2141.000000	100.234925 
2140.000000	100.233427 
2139.000000	100.230864 
2138.000000	100.228112 
2137.000000	100.225264 
2136.000000	100.221851 
2135.000000	100.218407 
2134.000000	100.216354 
2133.000000	100.216280 
2132.000000	100.217091 
2131.000000	100.216906 
2130.000000	100.214512 
2129.000000	100.210107 
2128.000000	100.205143 
2127.000000	100.201263 
2126.000000	100.198999 
2125.000000	100.197643 
2124.000000	100.196407 
2123.000000	100.195459 
2122.000000	100.195349 
2121.000000	100.195790 
2120.000000	100.195690 
2119.000000	100.194361 
2118.000000	100.192185 
2117.000000	100.190097 
2116.000000	100.188681 
2115.000000	100.187893 
2114.000000	100.187459 
2113.000000	100.187197 
2112.000000	100.186928 
2111.000000	100.186345 
2110.000000	100.185259 
2109.000000	100.183948 
2108.000000	100.183004 
2107.000000	100.182653 
2106.000000	100.182261 
2105.000000	100.180695 
2104.000000	100.177394 
2103.000000	100.173276 
2102.000000	100.170508 
2101.000000	100.170789 
2100.000000	100.173870 
2099.000000	100.177678 
2098.000000	100.180215 
2097.000000	100.181371 
2096.000000	100.182324 
2095.000000	100.183389 
2094.000000	100.183130 
2093.000000	100.180096 
2092.000000	100.175058 
2091.000000	100.170978 
2090.000000	100.170421 
2089.000000	100.173126 
2088.000000	100.176212 
2087.000000	100.176894 
2086.000000	100.175074 
2085.000000	100.173090 
2084.000000	100.173123 
2083.000000	100.175322 
2082.000000	100.178456 
2081.000000	100.181688 
2080.000000	100.185057 
2079.000000	100.188578 
2078.000000	100.191898 
2077.000000	100.195095 
2076.000000	100.198946 
2075.000000	100.203803 
2074.000000	100.208671 
2073.000000	100.211977 
2072.000000	100.213107 
2071.000000	100.212747 
2070.000000	100.211934 
2069.000000	100.211307 
2068.000000	100.211139 
2067.000000	100.211510 
2066.000000	100.212332 
2065.000000	100.213466 
2064.000000	100.214910 
2063.000000	100.216753 
2062.000000	100.219022 
2061.000000	100.221648 
2060.000000	100.224444 
2059.000000	100.227119 
2058.000000	100.229365 
2057.000000	100.231006 
2056.000000	100.232034 
2055.000000	100.232542 
2054.000000	100.232797 
2053.000000	100.233273 
2052.000000	100.234402 
2051.000000	100.236233 
2050.000000	100.238389 
2049.000000	100.240317 
2048.000000	100.241672 
2047.000000	100.242504 
2046.000000	100.243115 
2045.000000	100.243853 
2044.000000	100.244894 
2043.000000	100.246162 
2042.000000	100.247464 
2041.000000	100.248644 
2040.000000	100.249662 
2039.000000	100.250545 
2038.000000	100.251316 
2037.000000	100.251974 
2036.000000	100.252514 
2035.000000	100.252960 
2034.000000	100.253362 
2033.000000	100.253763 
2032.000000	100.254149 
2031.000000	100.254470 
2030.000000	100.254704 
2029.000000	100.254890 
2028.000000	100.255073 
2027.000000	100.255278 
2026.000000	100.255507 
2025.000000	100.255753 
2024.000000	100.256006 
2023.000000	100.256253 
2022.000000	100.256471 
2021.000000	100.256643 
2020.000000	100.256774 
2019.000000	100.256884 
2018.000000	100.256995 
2017.000000	100.257116 
2016.000000	100.257238 
2015.000000	100.257351 
2014.000000	100.257456 
2013.000000	100.257570 
2012.000000	100.257706 
2011.000000	100.257862 
2010.000000	100.258016 
2009.000000	100.258145 
2008.000000	100.258238 
2007.000000	100.258294 
2006.000000	100.258323 
2005.000000	100.258328 
2004.000000	100.258310 
2003.000000	100.258256 
2002.000000	100.258152 
2001.000000	100.257990 
2000.000000	100.257777 
1999.000000	100.257538 
1998.000000	100.257299 
1997.000000	100.257079 
1996.000000	100.256887 
1995.000000	100.256724 
1994.000000	100.256583 
1993.000000	100.256448 
1992.000000	100.256293 
1991.000000	100.256094 
1990.000000	100.255844 
1989.000000	100.255556 
1988.000000	100.255253 
1987.000000	100.254938 
1986.000000	100.254595 
1985.000000	100.254196 
1984.000000	100.253720 
1983.000000	100.253166 
1982.000000	100.252542 
1981.000000	100.251864 
1980.000000	100.251138 
1979.000000	100.250322 
1978.000000	100.249388 
1977.000000	100.248394 
1976.000000	100.247406 
1975.000000	100.246395 
1974.000000	100.245306 
1973.000000	100.244228 
1972.000000	100.243359 
1971.000000	100.242727 
1970.000000	100.241976 
1969.000000	100.240706 
1968.000000	100.238880 
1967.000000	100.236919 
1966.000000	100.235254 
1965.000000	100.233936 
1964.000000	100.232731 
1963.000000	100.231365 
1962.000000	100.229697 
1961.000000	100.227749 
1960.000000	100.225710 
1959.000000	100.223920 
1958.000000	100.222704 
1957.000000	100.222056 
1956.000000	100.221463 
1955.000000	100.220285 
1954.000000	100.218420 
1953.000000	100.216394 
1952.000000	100.214594 
1951.000000	100.212643 
1950.000000	100.209975 
1949.000000	100.206843 
1948.000000	100.204137 
1947.000000	100.202109 
1946.000000	100.199886 
1945.000000	100.196500 
1944.000000	100.192032 
1943.000000	100.187700 
1942.000000	100.184972 
1941.000000	100.184301 
1940.000000	100.184590 
1939.000000	100.184238 
1938.000000	100.183052 
1937.000000	100.182611 
1936.000000	100.184029 
1935.000000	100.185969 
1934.000000	100.186055 
1933.000000	100.184055 
1932.000000	100.182309 
1931.000000	100.182591 
1930.000000	100.183775 
1929.000000	100.183514 
1928.000000	100.181304 
1927.000000	100.178715 
1926.000000	100.177257 
1925.000000	100.177038 
1924.000000	100.177320 
1923.000000	100.177430 
1922.000000	100.177029 
1921.000000	100.175924 
1920.000000	100.173817 
1919.000000	100.170397 
1918.000000	100.165967 
1917.000000	100.161850 
1916.000000	100.159287 
1915.000000	100.158182 
1914.000000	100.157820 
1913.000000	100.158136 
1912.000000	100.159401 
1911.000000	100.160988 
1910.000000	100.161540 
1909.000000	100.160684 
1908.000000	100.159686 
1907.000000	100.159908 
1906.000000	100.161304 
1905.000000	100.162742 
1904.000000	100.163193 
1903.000000	100.162260 
1902.000000	100.160144 
1901.000000	100.157675 
1900.000000	100.155792 
1899.000000	100.154828 
1898.000000	100.154518 
1897.000000	100.154647 
1896.000000	100.155252 
1895.000000	100.155978 
1894.000000	100.155971 
1893.000000	100.154958 
1892.000000	100.153799 
1891.000000	100.153420 
1890.000000	100.153569 
1889.000000	100.153254 
1888.000000	100.152213 
1887.000000	100.151073 
1886.000000	100.150418 
1885.000000	100.150443 
1884.000000	100.151091 
1883.000000	100.152028 
1882.000000	100.152740 
1881.000000	100.153073 
1880.000000	100.153450 
1879.000000	100.154379 
1878.000000	100.155980 
1877.000000	100.158033 
1876.000000	100.160168 
1875.000000	100.161698 
1874.000000	100.161666 
1873.000000	100.159669 
1872.000000	100.156474 
1871.000000	100.153508 
1870.000000	100.151727 
1869.000000	100.150978 
1868.000000	100.150449 
1867.000000	100.149646 
1866.000000	100.148859 
1865.000000	100.148769 
1864.000000	100.149408 
1863.000000	100.149694 
1862.000000	100.148766 
1861.000000	100.147662 
1860.000000	100.148522 
1859.000000	100.152026 
1858.000000	100.156520 
1857.000000	100.159733 
1856.000000	100.160990 
1855.000000	100.161118 
1854.000000	100.161080 
1853.000000	100.161164 
1852.000000	100.161027 
1851.000000	100.160344 
1850.000000	100.159545 
1849.000000	100.159700 
1848.000000	100.161366 
1847.000000	100.163719 
1846.000000	100.165267 
1845.000000	100.165348 
1844.000000	100.164825 
1843.000000	100.165030 
1842.000000	100.166130 
1841.000000	100.167334 
1840.000000	100.167946 
1839.000000	100.167683 
1838.000000	100.166665 
1837.000000	100.165429 
1836.000000	100.164583 
1835.000000	100.164257 
1834.000000	100.164205 
1833.000000	100.164224 
1832.000000	100.164132 
1831.000000	100.163713 
1830.000000	100.163121 
1829.000000	100.163119 
1828.000000	100.164186 
1827.000000	100.165740 
1826.000000	100.166755 
1825.000000	100.166944 
1824.000000	100.166937 
1823.000000	100.167047 
1822.000000	100.166569 
1821.000000	100.164997 
1820.000000	100.163218 
1819.000000	100.162732 
1818.000000	100.163799 
1817.000000	100.165218 
1816.000000	100.165948 
1815.000000	100.166246 
1814.000000	100.166845 
1813.000000	100.167915 
1812.000000	100.169226 
1811.000000	100.170698 
1810.000000	100.172206 
1809.000000	100.173378 
1808.000000	100.173893 
1807.000000	100.173534 
1806.000000	100.172150 
1805.000000	100.170029 
1804.000000	100.167913 
1803.000000	100.166266 
1802.000000	100.164991 
1801.000000	100.164044 
1800.000000	100.163991 
1799.000000	100.165289 
1798.000000	100.167470 
1797.000000	100.169766 
1796.000000	100.171836 
1795.000000	100.173461 
1794.000000	100.174210 
1793.000000	100.173790 
1792.000000	100.172816 
1791.000000	100.172373 
1790.000000	100.172494 
1789.000000	100.172624 
1788.000000	100.172831 
1787.000000	100.173516 
1786.000000	100.174556 
1785.000000	100.175423 
1784.000000	100.175853 
1783.000000	100.175759 
1782.000000	100.175021 
1781.000000	100.173740 
1780.000000	100.172431 
1779.000000	100.171585 
1778.000000	100.171245 
1777.000000	100.171422 
1776.000000	100.172251 
1775.000000	100.173427 
1774.000000	100.174248 
1773.000000	100.174193 
1772.000000	100.173697 
1771.000000	100.173812 
1770.000000	100.174454 
1769.000000	100.174564 
1768.000000	100.173831 
1767.000000	100.172954 
1766.000000	100.172431 
1765.000000	100.171995 
1764.000000	100.171458 
1763.000000	100.171307 
1762.000000	100.172005 
1761.000000	100.173189 
1760.000000	100.174187 
1759.000000	100.174840 
1758.000000	100.175431 
1757.000000	100.176179 
1756.000000	100.176826 
1755.000000	100.176982 
1754.000000	100.176523 
1753.000000	100.175675 
1752.000000	100.174915 
1751.000000	100.174531 
1750.000000	100.174305 
1749.000000	100.173877 
1748.000000	100.173301 
1747.000000	100.172935 
1746.000000	100.172891 
1745.000000	100.172821 
1744.000000	100.172506 
1743.000000	100.172281 
1742.000000	100.172480 
1741.000000	100.172863 
1740.000000	100.173013 
1739.000000	100.173003 
1738.000000	100.173152 
1737.000000	100.173331 
1736.000000	100.173343 
1735.000000	100.173291 
1734.000000	100.173415 
1733.000000	100.173891 
1732.000000	100.174491 
1731.000000	100.174808 
1730.000000	100.174800 
1729.000000	100.174720 
1728.000000	100.174758 
1727.000000	100.174917 
1726.000000	100.175140 
1725.000000	100.175394 
1724.000000	100.175655 
1723.000000	100.175879 
1722.000000	100.176040 
1721.000000	100.176170 
1720.000000	100.176319 
1719.000000	100.176508 
1718.000000	100.176697 
1717.000000	100.176830 
1716.000000	100.176929 
1715.000000	100.177034 
1714.000000	100.177141 
1713.000000	100.177247 
1712.000000	100.177361 
1711.000000	100.177487 
1710.000000	100.177618 
1709.000000	100.177752 
1708.000000	100.177887 
1707.000000	100.178022 
1706.000000	100.178151 
1705.000000	100.178271 
1704.000000	100.178383 
1703.000000	100.178487 
1702.000000	100.178589 
1701.000000	100.178691 
1700.000000	100.178794 
1699.000000	100.178903 
1698.000000	100.179015 
1697.000000	100.179120 
1696.000000	100.179212 
1695.000000	100.179296 
1694.000000	100.179378 
1693.000000	100.179463 
1692.000000	100.179552 
1691.000000	100.179644 
1690.000000	100.179738 
1689.000000	100.179835 
1688.000000	100.179936 
1687.000000	100.180045 
1686.000000	100.180161 
1685.000000	100.180279 
1684.000000	100.180381 
1683.000000	100.180461 
1682.000000	100.180525 
1681.000000	100.180574 
1680.000000	100.180608 
1679.000000	100.180636 
1678.000000	100.180669 
1677.000000	100.180710 
1676.000000	100.180763 
1675.000000	100.180833 
1674.000000	100.180924 
1673.000000	100.181029 
1672.000000	100.181134 
1671.000000	100.181226 
1670.000000	100.181298 
1669.000000	100.181353 
1668.000000	100.181395 
1667.000000	100.181427 
1666.000000	100.181453 
1665.000000	100.181473 
1664.000000	100.181490 
1663.000000	100.181506 
1662.000000	100.181526 
1661.000000	100.181551 
1660.000000	100.181577 
1659.000000	100.181605 
1658.000000	100.181628 
1657.000000	100.181639 
1656.000000	100.181624 
1655.000000	100.181599 
1654.000000	100.181620 
1653.000000	100.181686 
1652.000000	100.181774 
1651.000000	100.181906 
1650.000000	100.182038 
1649.000000	100.182079 
1648.000000	100.182029 
1647.000000	100.181925 
1646.000000	100.181849 
1645.000000	100.181874 
1644.000000	100.182047 
1643.000000	100.182290 
1642.000000	100.182472 
1641.000000	100.182472 
1640.000000	100.182279 
1639.000000	100.182021 
1638.000000	100.181905 
1637.000000	100.182163 
1636.000000	100.182807 
1635.000000	100.183457 
1634.000000	100.183856 
1633.000000	100.183941 
1632.000000	100.183559 
1631.000000	100.182699 
1630.000000	100.181662 
1629.000000	100.180976 
1628.000000	100.180929 
1627.000000	100.181288 
1626.000000	100.181703 
1625.000000	100.182164 
1624.000000	100.182746 
1623.000000	100.183231 
1622.000000	100.183555 
1621.000000	100.184041 
1620.000000	100.184625 
1619.000000	100.184916 
1618.000000	100.184941 
1617.000000	100.185359 
1616.000000	100.186789 
1615.000000	100.188848 
1614.000000	100.190583 
1613.000000	100.191674 
1612.000000	100.192503 
1611.000000	100.193281 
1610.000000	100.193784 
1609.000000	100.193928 
1608.000000	100.193958 
1607.000000	100.194045 
1606.000000	100.194313 
1605.000000	100.194868 
1604.000000	100.195549 
1603.000000	100.196114 
1602.000000	100.196637 
1601.000000	100.197479 
1600.000000	100.198794 
1599.000000	100.200440 
1598.000000	100.202258 
1597.000000	100.204058 
1596.000000	100.205437 
1595.000000	100.205938 
1594.000000	100.205647 
1593.000000	100.205368 
1592.000000	100.205827 
1591.000000	100.206953 
1590.000000	100.208171 
1589.000000	100.209140 
1588.000000	100.209976 
1587.000000	100.210857 
1586.000000	100.211787 
1585.000000	100.212676 
1584.000000	100.213372 
1583.000000	100.213748 
1582.000000	100.213901 
1581.000000	100.214076 
1580.000000	100.214341 
1579.000000	100.214645 
1578.000000	100.215000 
1577.000000	100.215466 
1576.000000	100.216026 
1575.000000	100.216609 
1574.000000	100.217170 
1573.000000	100.217684 
1572.000000	100.218145 
1571.000000	100.218568 
1570.000000	100.218964 
1569.000000	100.219345 
1568.000000	100.219708 
1567.000000	100.220052 
1566.000000	100.220383 
1565.000000	100.220708 
1564.000000	100.221028 
1563.000000	100.221351 
1562.000000	100.221677 
1561.000000	100.222010 
1560.000000	100.222343 
1559.000000	100.222662 
1558.000000	100.222953 
1557.000000	100.223219 
1556.000000	100.223464 
1555.000000	100.223682 
1554.000000	100.223877 
1553.000000	100.224053 
1552.000000	100.224213 
1551.000000	100.224361 
1550.000000	100.224499 
1549.000000	100.224635 
1548.000000	100.224772 
1547.000000	100.224903 
1546.000000	100.225011 
1545.000000	100.225089 
1544.000000	100.225170 
1543.000000	100.225312 
1542.000000	100.225560 
1541.000000	100.225917 
1540.000000	100.226266 
1539.000000	100.226476 
1538.000000	100.226577 
1537.000000	100.226691 
1536.000000	100.226814 
1535.000000	100.226894 
1534.000000	100.226834 
1533.000000	100.226589 
1532.000000	100.226344 
1531.000000	100.226315 
1530.000000	100.226417 
1529.000000	100.226404 
1528.000000	100.226172 
1527.000000	100.225877 
1526.000000	100.225795 
1525.000000	100.226075 
1524.000000	100.226694 
1523.000000	100.227551 
1522.000000	100.228208 
1521.000000	100.227999 
1520.000000	100.227012 
1519.000000	100.225799 
1518.000000	100.224382 
1517.000000	100.222702 
1516.000000	100.221224 
1515.000000	100.220409 
1514.000000	100.220053 
1513.000000	100.219638 
1512.000000	100.219026 
1511.000000	100.218404 
1510.000000	100.217812 
1509.000000	100.217264 
1508.000000	100.217390 
1507.000000	100.218702 
1506.000000	100.219710 
1505.000000	100.219244 
1504.000000	100.218197 
1503.000000	100.217340 
1502.000000	100.216878 
1501.000000	100.216512 
1500.000000	100.215815 
1499.000000	100.214741 
1498.000000	100.213460 
1497.000000	100.211622 
1496.000000	100.209252 
1495.000000	100.207395 
1494.000000	100.206563 
1493.000000	100.206192 
1492.000000	100.205612 
1491.000000	100.204573 
1490.000000	100.203103 
1489.000000	100.201349 
1488.000000	100.199722 
1487.000000	100.198473 
1486.000000	100.197266 
1485.000000	100.195894 
1484.000000	100.194548 
1483.000000	100.193493 
1482.000000	100.192790 
1481.000000	100.192222 
1480.000000	100.191585 
1479.000000	100.190799 
1478.000000	100.189772 
1477.000000	100.188440 
1476.000000	100.187131 
1475.000000	100.186450 
1474.000000	100.186554 
1473.000000	100.186554 
1472.000000	100.185451 
1471.000000	100.183689 
1470.000000	100.182029 
1469.000000	100.180306 
1468.000000	100.178257 
1467.000000	100.176176 
1466.000000	100.174704 
1465.000000	100.174201 
1464.000000	100.174448 
1463.000000	100.174979 
1462.000000	100.174907 
1461.000000	100.173411 
1460.000000	100.170723 
1459.000000	100.168239 
1458.000000	100.166728 
1457.000000	100.163781 
1456.000000	100.158352 
1455.000000	100.154029 
1454.000000	100.152634 
1453.000000	100.152859 
1452.000000	100.154019 
1451.000000	100.155889 
1450.000000	100.157498 
1449.000000	100.156966 
1448.000000	100.154257 
1447.000000	100.151981 
1446.000000	100.152196 
1445.000000	100.153848 
1444.000000	100.155140 
1443.000000	100.156346 
1442.000000	100.158182 
1441.000000	100.159622 
1440.000000	100.159266 
1439.000000	100.157944 
1438.000000	100.157950 
1437.000000	100.159038 
1436.000000	100.158780 
1435.000000	100.157577 
1434.000000	100.156581 
1433.000000	100.154608 
1432.000000	100.151222 
1431.000000	100.148178 
1430.000000	100.147084 
1429.000000	100.146978 
1428.000000	100.146227 
1427.000000	100.144947 
1426.000000	100.144052 
1425.000000	100.143196 
1424.000000	100.140800 
1423.000000	100.136679 
1422.000000	100.131869 
1421.000000	100.126435 
1420.000000	100.119660 
1419.000000	100.112804 
1418.000000	100.108808 
1417.000000	100.107014 
1416.000000	100.104064 
1415.000000	100.099018 
1414.000000	100.093471 
1413.000000	100.088491 
1412.000000	100.083834 
1411.000000	100.079612 
1410.000000	100.076570 
1409.000000	100.074592 
1408.000000	100.073200 
1407.000000	100.072799 
1406.000000	100.074044 
1405.000000	100.076358 
1404.000000	100.078558 
1403.000000	100.081193 
1402.000000	100.085692 
1401.000000	100.091917 
1400.000000	100.098032 
1399.000000	100.102138 
1398.000000	100.103280 
1397.000000	100.100474 
1396.000000	100.093025 
1395.000000	100.083825 
1394.000000	100.079757 
1393.000000	100.084738 
1392.000000	100.095871 
1391.000000	100.107512 
1390.000000	100.116069 
1389.000000	100.120760 
1388.000000	100.122082 
1387.000000	100.121056 
1386.000000	100.119440 
1385.000000	100.118871 
1384.000000	100.119678 
1383.000000	100.121176 
1382.000000	100.122585 
1381.000000	100.123755 
1380.000000	100.125418 
1379.000000	100.128545 
1378.000000	100.133351 
1377.000000	100.138914 
1376.000000	100.143877 
1375.000000	100.147626 
1374.000000	100.151015 
1373.000000	100.155502 
1372.000000	100.161418 
1371.000000	100.167697 
1370.000000	100.173184 
1369.000000	100.177636 
1368.000000	100.181406 
1367.000000	100.184889 
1366.000000	100.188316 
1365.000000	100.191857 
1364.000000	100.195734 
1363.000000	100.200008 
1362.000000	100.204237 
1361.000000	100.207812 
1360.000000	100.210734 
1359.000000	100.213787 
1358.000000	100.217908 
1357.000000	100.223199 
1356.000000	100.228608 
1355.000000	100.233125 
1354.000000	100.237071 
1353.000000	100.241418 
1352.000000	100.246091 
1351.000000	100.249493 
1350.000000	100.250641 
1349.000000	100.251166 
1348.000000	100.252943 
1347.000000	100.255638 
1346.000000	100.257565 
1345.000000	100.258097 
1344.000000	100.257967 
1343.000000	100.257798 
1342.000000	100.257733 
1341.000000	100.258433 
1340.000000	100.260917 
1339.000000	100.264889 
1338.000000	100.268609 
1337.000000	100.270966 
1336.000000	100.272441 
1335.000000	100.273815 
1334.000000	100.275012 
1333.000000	100.275651 
1332.000000	100.275939 
1331.000000	100.276201 
1330.000000	100.276146 
1329.000000	100.275442 
1328.000000	100.274532 
1327.000000	100.274047 
1326.000000	100.273857 
1325.000000	100.273539 
1324.000000	100.273299 
1323.000000	100.273831 
1322.000000	100.275248 
1321.000000	100.276942 
1320.000000	100.278645 
1319.000000	100.280824 
1318.000000	100.283472 
1317.000000	100.285250 
1316.000000	100.284754 
1315.000000	100.282225 
1314.000000	100.279328 
1313.000000	100.277368 
1312.000000	100.276404 
1311.000000	100.276092 
1310.000000	100.276456 
1309.000000	100.277481 
1308.000000	100.278684 
1307.000000	100.279494 
1306.000000	100.279823 
1305.000000	100.280019 
1304.000000	100.280356 
1303.000000	100.280845 
1302.000000	100.281222 
1301.000000	100.281029 
1300.000000	100.280119 
1299.000000	100.279303 
1298.000000	100.279924 
1297.000000	100.282301 
1296.000000	100.284993 
1295.000000	100.286121 
1294.000000	100.285206 
1293.000000	100.283222 
1292.000000	100.281166 
1291.000000	100.279322 
1290.000000	100.277952 
1289.000000	100.277866 
1288.000000	100.279644 
1287.000000	100.282464 
1286.000000	100.284419 
1285.000000	100.284218 
1284.000000	100.282204 
1283.000000	100.279820 
1282.000000	100.278072 
1281.000000	100.276827 
1280.000000	100.275628 
1279.000000	100.274455 
1278.000000	100.273612 
1277.000000	100.273354 
1276.000000	100.273777 
1275.000000	100.274650 
1274.000000	100.275238 
1273.000000	100.274674 
1272.000000	100.272832 
1271.000000	100.270614 
1270.000000	100.269045 
1269.000000	100.268231 
1268.000000	100.267474 
1267.000000	100.266182 
1266.000000	100.264292 
1265.000000	100.261972 
1264.000000	100.259391 
1263.000000	100.256816 
1262.000000	100.254516 
1261.000000	100.252516 
1260.000000	100.250660 
1259.000000	100.248847 
1258.000000	100.246989 
1257.000000	100.244953 
1256.000000	100.243035 
1255.000000	100.242219 
1254.000000	100.243132 
1253.000000	100.244818 
1252.000000	100.245535 
1251.000000	100.245032 
1250.000000	100.245061 
1249.000000	100.247138 
1248.000000	100.250626 
1247.000000	100.253521 
1246.000000	100.254146 
1245.000000	100.251294 
1244.000000	100.244166 
1243.000000	100.234176 
1242.000000	100.226233 
1241.000000	100.225594 
1240.000000	100.232554 
1239.000000	100.241351 
1238.000000	100.245516 
1237.000000	100.243754 
1236.000000	100.239688 
1235.000000	100.236988 
1234.000000	100.236056 
1233.000000	100.234989 
1232.000000	100.231961 
1231.000000	100.226264 
1230.000000	100.218576 
1229.000000	100.211218 
1228.000000	100.207220 
1227.000000	100.207746 
1226.000000	100.210524 
1225.000000	100.211810 
1224.000000	100.209957 
1223.000000	100.206245 
1222.000000	100.202425 
1221.000000	100.198682 
1220.000000	100.194467 
1219.000000	100.190070 
1218.000000	100.186135 
1217.000000	100.182037 
1216.000000	100.175909 
1215.000000	100.166448 
1214.000000	100.154040 
1213.000000	100.140046 
1212.000000	100.125708 
1211.000000	100.112045 
1210.000000	100.100137 
1209.000000	100.090715 
1208.000000	100.083262 
1207.000000	100.075774 
1206.000000	100.065960 
1205.000000	100.053119 
1204.000000	100.038778 
1203.000000	100.025132 
1202.000000	100.012913 
1201.000000	100.001115 
1200.000000	99.988620  
1199.000000	99.975268  
1198.000000	99.961260  
1197.000000	99.946341  
1196.000000	99.930030  
1195.000000	99.912294  
1194.000000	99.893774  
1193.000000	99.875648  
1192.000000	99.859160  
1191.000000	99.844384  
1190.000000	99.829318  
1189.000000	99.811417  
1188.000000	99.790542  
1187.000000	99.769397  
1186.000000	99.750464  
1185.000000	99.733463  
1184.000000	99.716504  
1183.000000	99.698564  
1182.000000	99.679745  
1181.000000	99.660040  
1180.000000	99.639121  
1179.000000	99.616944  
1178.000000	99.593655  
1177.000000	99.569231  
1176.000000	99.543802  
1175.000000	99.517672  
1174.000000	99.490449  
1173.000000	99.461211  
1172.000000	99.430600  
1171.000000	99.401786  
1170.000000	99.377750  
1169.000000	99.357968  
1168.000000	99.339109  
1167.000000	99.319102  
1166.000000	99.299733  
1165.000000	99.285196  
1164.000000	99.278841  
1163.000000	99.281250  
1162.000000	99.290364  
1161.000000	99.303000  
1160.000000	99.316146  
1159.000000	99.326732  
1158.000000	99.330898  
1157.000000	99.324902  
1156.000000	99.307599  
1155.000000	99.282016  
1154.000000	99.254137  
1153.000000	99.229468  
1152.000000	99.210009  
1151.000000	99.193681  
1150.000000	99.176476  
1149.000000	99.156006  
1148.000000	99.133459  
1147.000000	99.111867  
1146.000000	99.092595  
1145.000000	99.074216  
1144.000000	99.054695  
1143.000000	99.033576  
1142.000000	99.011938  
1141.000000	98.991340  
1140.000000	98.973139  
1139.000000	98.957623  
1138.000000	98.943119  
1137.000000	98.926864  
1136.000000	98.907506  
1135.000000	98.886213  
1134.000000	98.864889  
1133.000000	98.843925  
1132.000000	98.822275  
1131.000000	98.799426  
1130.000000	98.776737  
1129.000000	98.756610  
1128.000000	98.739898  
1127.000000	98.724018  
1126.000000	98.704614  
1125.000000	98.680055  
1124.000000	98.653563  
1123.000000	98.629847  
1122.000000	98.610076  
1121.000000	98.591396  
1120.000000	98.570767  
1119.000000	98.547619  
1118.000000	98.523072  
1117.000000	98.498600  
1116.000000	98.475759  
1115.000000	98.455472  
1114.000000	98.436839  
1113.000000	98.417863  
1112.000000	98.397757  
1111.000000	98.377098  
1110.000000	98.355518  
1109.000000	98.331403  
1108.000000	98.304907  
1107.000000	98.279227  
1106.000000	98.257140  
1105.000000	98.237700  
1104.000000	98.217752  
1103.000000	98.195800  
1102.000000	98.173363  
1101.000000	98.152963  
1100.000000	98.135590  
1099.000000	98.119872  
1098.000000	98.103274  
1097.000000	98.084954  
1096.000000	98.066680  
1095.000000	98.049986  
1094.000000	98.033089  
1093.000000	98.012366  
1092.000000	97.986429  
1091.000000	97.957001  
1090.000000	97.926371  
1089.000000	97.896224  
1088.000000	97.868721  
1087.000000	97.845801  
1086.000000	97.826573  
1085.000000	97.807591  
1084.000000	97.786544  
1083.000000	97.763919  
1082.000000	97.740862  
1081.000000	97.717540  
1080.000000	97.694019  
1079.000000	97.670637  
1078.000000	97.647227  
1077.000000	97.624114  
1076.000000	97.603801  
1075.000000	97.588892  
1074.000000	97.578033  
1073.000000	97.566545  
1072.000000	97.550815  
1071.000000	97.528820  
1070.000000	97.496947  
1069.000000	97.451513  
1068.000000	97.395307  
1067.000000	97.339082  
1066.000000	97.293579  
1065.000000	97.261484  
1064.000000	97.238240  
1063.000000	97.216976  
1062.000000	97.190639  
1061.000000	97.153270  
1060.000000	97.103652  
1059.000000	97.047662  
1058.000000	96.994822  
1057.000000	96.951820  
1056.000000	96.919000  
1055.000000	96.891170  
1054.000000	96.861335  
1053.000000	96.826051  
1052.000000	96.788127  
1051.000000	96.752455  
1050.000000	96.719206  
1049.000000	96.683884  
1048.000000	96.644008  
1047.000000	96.602374  
1046.000000	96.563550  
1045.000000	96.530074  
1044.000000	96.501692  
1043.000000	96.475376  
1042.000000	96.446826  
1041.000000	96.415122  
1040.000000	96.385261  
1039.000000	96.363201  
1038.000000	96.349431  
1037.000000	96.340288  
1036.000000	96.333648  
1035.000000	96.329255  
1034.000000	96.325211  
1033.000000	96.318965  
1032.000000	96.310455  
1031.000000	96.299835  
1030.000000	96.284520  
1029.000000	96.264595  
1028.000000	96.249149  
1027.000000	96.249214  
1026.000000	96.263975  
1025.000000	96.280604  
1024.000000	96.288783  
1023.000000	96.289074  
1022.000000	96.286307  
1021.000000	96.282563  
1020.000000	96.279223  
1019.000000	96.278935  
1018.000000	96.281433  
1017.000000	96.282191  
1016.000000	96.278655  
1015.000000	96.273938  
1014.000000	96.271758  
1013.000000	96.271405  
1012.000000	96.269944  
1011.000000	96.265912  
1010.000000	96.259306  
1009.000000	96.251641  
1008.000000	96.247391  
1007.000000	96.251289  
1006.000000	96.262473  
1005.000000	96.274748  
1004.000000	96.283752  
1003.000000	96.290384  
1002.000000	96.296808  
1001.000000	96.303754  
1000.000000	96.312608  
999.000000	 96.325120  
998.000000	 96.339499  
997.000000	 96.351460  
996.000000	 96.360675  
995.000000	 96.371547  
994.000000	 96.386053  
993.000000	 96.400768  
992.000000	 96.412976  
991.000000	 96.424822  
990.000000	 96.438689  
989.000000	 96.452909  
988.000000	 96.465251  
987.000000	 96.477239  
986.000000	 96.492087  
985.000000	 96.511070  
984.000000	 96.533895  
983.000000	 96.559806  
982.000000	 96.586876  
981.000000	 96.612946  
980.000000	 96.638669  
979.000000	 96.667289  
978.000000	 96.700601  
977.000000	 96.737834  
976.000000	 96.778525  
975.000000	 96.822669  
974.000000	 96.867740  
973.000000	 96.910133  
972.000000	 96.950680  
971.000000	 96.994392  
970.000000	 97.043256  
969.000000	 97.093256  
968.000000	 97.139959  
967.000000	 97.183211  
966.000000	 97.224726  
965.000000	 97.264970  
964.000000	 97.304529  
963.000000	 97.345311  
962.000000	 97.388272  
961.000000	 97.432363  
960.000000	 97.476819  
959.000000	 97.521582  
958.000000	 97.564577  
957.000000	 97.602157  
956.000000	 97.633867  
955.000000	 97.663862  
954.000000	 97.695989  
953.000000	 97.729917  
952.000000	 97.763354  
951.000000	 97.795108  
950.000000	 97.824478  
949.000000	 97.850400  
948.000000	 97.872926  
947.000000	 97.893427  
946.000000	 97.912099  
945.000000	 97.927478  
944.000000	 97.939799  
943.000000	 97.952739  
942.000000	 97.970326  
941.000000	 97.993155  
940.000000	 98.017957  
939.000000	 98.039457  
938.000000	 98.053336  
937.000000	 98.060203  
936.000000	 98.066794  
935.000000	 98.080398  
934.000000	 98.101541  
933.000000	 98.124697  
932.000000	 98.145992  
931.000000	 98.166814  
930.000000	 98.189493  
929.000000	 98.212928  
928.000000	 98.233712  
927.000000	 98.249043  
926.000000	 98.258093  
925.000000	 98.263282  
924.000000	 98.270667  
923.000000	 98.285852  
922.000000	 98.308347  
921.000000	 98.332124  
920.000000	 98.351864  
919.000000	 98.366195  
918.000000	 98.375490  
917.000000	 98.380509  
916.000000	 98.383639  
915.000000	 98.387661  
914.000000	 98.392471  
913.000000	 98.396592  
912.000000	 98.402407  
911.000000	 98.415551  
910.000000	 98.437872  
909.000000	 98.465077  
908.000000	 98.492633  
907.000000	 98.520073  
906.000000	 98.547914  
905.000000	 98.574906  
904.000000	 98.601003  
903.000000	 98.629427  
902.000000	 98.663140  
901.000000	 98.701627  
900.000000	 98.742526  
899.000000	 98.783499  
898.000000	 98.821321  
897.000000	 98.852774  
896.000000	 98.878315  
895.000000	 98.902349  
894.000000	 98.928611  
893.000000	 98.957838  
892.000000	 98.990308  
891.000000	 99.026561  
890.000000	 99.064301  
889.000000	 99.098924  
888.000000	 99.129359  
887.000000	 99.159808  
886.000000	 99.193493  
885.000000	 99.228050  
884.000000	 99.259277  
883.000000	 99.285822  
882.000000	 99.307857  
881.000000	 99.325218  
880.000000	 99.340313  
879.000000	 99.359248  
878.000000	 99.385715  
877.000000	 99.416247  
876.000000	 99.444959  
875.000000	 99.470237  
874.000000	 99.493561  
873.000000	 99.515244  
872.000000	 99.535583  
871.000000	 99.557411  
870.000000	 99.583097  
869.000000	 99.611205  
868.000000	 99.640032  
867.000000	 99.671733  
866.000000	 99.708205  
865.000000	 99.744998  
864.000000	 99.774966  
863.000000	 99.797470  
862.000000	 99.818945  
861.000000	 99.843896  
860.000000	 99.870112  
859.000000	 99.894128  
858.000000	 99.916764  
857.000000	 99.940736  
856.000000	 99.966341  
855.000000	 99.992552  
854.000000	 100.019582 
853.000000	 100.046846 
852.000000	 100.070210 
851.000000	 100.085458 
850.000000	 100.094486 
849.000000	 100.104664 
848.000000	 100.121229 
847.000000	 100.142731 
846.000000	 100.164533 
845.000000	 100.183740 
844.000000	 100.198833 
843.000000	 100.207555 
842.000000	 100.209147 
841.000000	 100.207524 
840.000000	 100.207987 
839.000000	 100.210277 
838.000000	 100.208707 
837.000000	 100.200638 
836.000000	 100.191142 
835.000000	 100.186683 
834.000000	 100.187180 
833.000000	 100.188259 
832.000000	 100.189288 
831.000000	 100.194080 
830.000000	 100.203467 
829.000000	 100.211965 
828.000000	 100.214101 
827.000000	 100.211301 
826.000000	 100.210266 
825.000000	 100.215851 
824.000000	 100.227056 
823.000000	 100.238886 
822.000000	 100.247045 
821.000000	 100.251273 
820.000000	 100.254439 
819.000000	 100.258738 
818.000000	 100.263868 
817.000000	 100.268951 
816.000000	 100.273608 
815.000000	 100.275381 
814.000000	 100.268770 
813.000000	 100.249915 
812.000000	 100.220501 
811.000000	 100.183440 
810.000000	 100.135695 
809.000000	 100.069771 
808.000000	 99.982871  
807.000000	 99.880932  
806.000000	 99.772478  
805.000000	 99.661945  
804.000000	 99.551396  
803.000000	 99.445724  
802.000000	 99.352528  
801.000000	 99.277485  
800.000000	 99.221568  
799.000000	 99.182038  
798.000000	 99.155659  
797.000000	 99.141701  
796.000000	 99.140959  
795.000000	 99.150842  
794.000000	 99.163963  
793.000000	 99.174426  
792.000000	 99.183292  
791.000000	 99.194391  
790.000000	 99.207023  
789.000000	 99.216697  
788.000000	 99.220419  
787.000000	 99.216221  
786.000000	 99.199728  
785.000000	 99.167402  
784.000000	 99.123010  
783.000000	 99.076069  
782.000000	 99.034002  
781.000000	 98.999507  
780.000000	 98.973653  
779.000000	 98.955701  
778.000000	 98.941290  
777.000000	 98.927968  
776.000000	 98.922464  
775.000000	 98.935483  
774.000000	 98.968412  
773.000000	 99.010996  
772.000000	 99.052714  
771.000000	 99.090507  
770.000000	 99.124738  
769.000000	 99.154342  
768.000000	 99.178166  
767.000000	 99.196447  
766.000000	 99.209684  
765.000000	 99.219953  
764.000000	 99.232807  
763.000000	 99.252186  
762.000000	 99.273035  
761.000000	 99.285172  
760.000000	 99.286185  
759.000000	 99.285606  
758.000000	 99.294776  
757.000000	 99.316434  
756.000000	 99.344287  
755.000000	 99.367919  
754.000000	 99.378789  
753.000000	 99.377576  
752.000000	 99.376602  
751.000000	 99.389734  
750.000000	 99.418487  
749.000000	 99.451872  
748.000000	 99.479687  
747.000000	 99.501005  
746.000000	 99.519628  
745.000000	 99.537776  
744.000000	 99.556254  
743.000000	 99.575720  
742.000000	 99.595729  
741.000000	 99.616356  
740.000000	 99.641176  
739.000000	 99.673645  
738.000000	 99.709745  
737.000000	 99.739337  
736.000000	 99.756187  
735.000000	 99.762643  
734.000000	 99.764868  
733.000000	 99.768418  
732.000000	 99.778757  
731.000000	 99.799524  
730.000000	 99.826884  
729.000000	 99.850742  
728.000000	 99.865302  
727.000000	 99.874250  
726.000000	 99.882816  
725.000000	 99.889698  
724.000000	 99.890965  
723.000000	 99.887830  
722.000000	 99.886319  
721.000000	 99.892085  
720.000000	 99.908361  
719.000000	 99.935224  
718.000000	 99.967526  
717.000000	 99.996509  
716.000000	 100.016109 
715.000000	 100.026052 
714.000000	 100.029371 
713.000000	 100.030722 
712.000000	 100.037415 
711.000000	 100.055859 
710.000000	 100.083667 
709.000000	 100.109963 
708.000000	 100.126020 
707.000000	 100.131353 
706.000000	 100.128081 
705.000000	 100.116206 
704.000000	 100.098501 
703.000000	 100.083419 
702.000000	 100.076941 
701.000000	 100.073884 
700.000000	 100.061691 
699.000000	 100.031500 
698.000000	 99.984346  
697.000000	 99.930512  
696.000000	 99.884498  
695.000000	 99.856650  
694.000000	 99.847636  
693.000000	 99.852582  
692.000000	 99.869080  
691.000000	 99.896498  
690.000000	 99.929024  
689.000000	 99.957934  
688.000000	 99.982028  
687.000000	 100.006926 
686.000000	 100.032056 
685.000000	 100.048124 
684.000000	 100.050722 
683.000000	 100.047712 
682.000000	 100.049992 
681.000000	 100.062000 
680.000000	 100.082267 
679.000000	 100.105048 
678.000000	 100.120445 
677.000000	 100.122820 
676.000000	 100.121502 
675.000000	 100.131122 
674.000000	 100.150342 
673.000000	 100.161418 
672.000000	 100.153884 
671.000000	 100.137062 
670.000000	 100.128344 
669.000000	 100.137170 
668.000000	 100.155198 
667.000000	 100.173007 
666.000000	 100.193150 
665.000000	 100.209482 
664.000000	 100.220927 
663.000000	 100.238744 
662.000000	 100.268241 
661.000000	 100.294923 
660.000000	 100.301646 
659.000000	 100.290489 
658.000000	 100.278159 
657.000000	 100.274340 
656.000000	 100.276057 
655.000000	 100.279867 
654.000000	 100.284981 
653.000000	 100.286981 
652.000000	 100.281728 
651.000000	 100.274706 
650.000000	 100.275466 

