4000.000000	99.121561 
3999.000000	99.118074 
3998.000000	99.115630 
3997.000000	99.116283 
3996.000000	99.119278 
3995.000000	99.122300 
3994.000000	99.124115 
3993.000000	99.125321 
3992.000000	99.126648 
3991.000000	99.127328 
3990.000000	99.125652 
3989.000000	99.120833 
3988.000000	99.114079 
3987.000000	99.108045 
3986.000000	99.105288 
3985.000000	99.106757 
3984.000000	99.111191 
3983.000000	99.116149 
3982.000000	99.119889 
3981.000000	99.122411 
3980.000000	99.124808 
3979.000000	99.127908 
3978.000000	99.131654 
3977.000000	99.135300 
3976.000000	99.137600 
3975.000000	99.137147 
3974.000000	99.133256 
3973.000000	99.126908 
3972.000000	99.120550 
3971.000000	99.116776 
3970.000000	99.117095 
3969.000000	99.121161 
3968.000000	99.126901 
3967.000000	99.131543 
3966.000000	99.133201 
3965.000000	99.131744 
3964.000000	99.128399 
3963.000000	99.124904 
3962.000000	99.122850 
3961.000000	99.122941 
3960.000000	99.124095 
3959.000000	99.123953 
3958.000000	99.121429 
3957.000000	99.118087 
3956.000000	99.116535 
3955.000000	99.117424 
3954.000000	99.119052 
3953.000000	99.119610 
3952.000000	99.118987 
3951.000000	99.118475 
3950.000000	99.118824 
3949.000000	99.119237 
3948.000000	99.118570 
3947.000000	99.117169 
3946.000000	99.116398 
3945.000000	99.116655 
3944.000000	99.116704 
3943.000000	99.115161 
3942.000000	99.112320 
3941.000000	99.109990 
3940.000000	99.109096 
3939.000000	99.108914 
3938.000000	99.109268 
3937.000000	99.110988 
3936.000000	99.114322 
3935.000000	99.117706 
3934.000000	99.119581 
3933.000000	99.120477 
3932.000000	99.121751 
3931.000000	99.123479 
3930.000000	99.124434 
3929.000000	99.124111 
3928.000000	99.123308 
3927.000000	99.121980 
3926.000000	99.118941 
3925.000000	99.114551 
3924.000000	99.111916 
3923.000000	99.112992 
3922.000000	99.115249 
3921.000000	99.115467 
3920.000000	99.114564 
3919.000000	99.115334 
3918.000000	99.117524 
3917.000000	99.118395 
3916.000000	99.117245 
3915.000000	99.115716 
3914.000000	99.114129 
3913.000000	99.111260 
3912.000000	99.107188 
3911.000000	99.102956 
3910.000000	99.099740 
3909.000000	99.097884 
3908.000000	99.098096 
3907.000000	99.100520 
3906.000000	99.103736 
3905.000000	99.105246 
3904.000000	99.104410 
3903.000000	99.104086 
3902.000000	99.106293 
3901.000000	99.107873 
3900.000000	99.104981 
3899.000000	99.099298 
3898.000000	99.095373 
3897.000000	99.094020 
3896.000000	99.092175 
3895.000000	99.089241 
3894.000000	99.089496 
3893.000000	99.095266 
3892.000000	99.102140 
3891.000000	99.104710 
3890.000000	99.107196 
3889.000000	99.114135 
3888.000000	99.121081 
3887.000000	99.121917 
3886.000000	99.116663 
3885.000000	99.111066 
3884.000000	99.111226 
3883.000000	99.113593 
3882.000000	99.110128 
3881.000000	99.100551 
3880.000000	99.091576 
3879.000000	99.090096 
3878.000000	99.096803 
3877.000000	99.104494 
3876.000000	99.107107 
3875.000000	99.104828 
3874.000000	99.102625 
3873.000000	99.105291 
3872.000000	99.108911 
3871.000000	99.103454 
3870.000000	99.088102 
3869.000000	99.078077 
3868.000000	99.086406 
3867.000000	99.102849 
3866.000000	99.110557 
3865.000000	99.109360 
3864.000000	99.108481 
3863.000000	99.110220 
3862.000000	99.110412 
3861.000000	99.106647 
3860.000000	99.100959 
3859.000000	99.092532 
3858.000000	99.078774 
3857.000000	99.061310 
3856.000000	99.050416 
3855.000000	99.056988 
3854.000000	99.071780 
3853.000000	99.072952 
3852.000000	99.071055 
3851.000000	99.083892 
3850.000000	99.099778 
3849.000000	99.108397 
3848.000000	99.112836 
3847.000000	99.116332 
3846.000000	99.117355 
3845.000000	99.114326 
3844.000000	99.108808 
3843.000000	99.104199 
3842.000000	99.103027 
3841.000000	99.103964 
3840.000000	99.104937 
3839.000000	99.105283 
3838.000000	99.105343 
3837.000000	99.105207 
3836.000000	99.105977 
3835.000000	99.107644 
3834.000000	99.108393 
3833.000000	99.106972 
3832.000000	99.104773 
3831.000000	99.104874 
3830.000000	99.108983 
3829.000000	99.114606 
3828.000000	99.116624 
3827.000000	99.112239 
3826.000000	99.105431 
3825.000000	99.103180 
3824.000000	99.107476 
3823.000000	99.113760 
3822.000000	99.115086 
3821.000000	99.106500 
3820.000000	99.097276 
3819.000000	99.097418 
3818.000000	99.097902 
3817.000000	99.090265 
3816.000000	99.080254 
3815.000000	99.079592 
3814.000000	99.090833 
3813.000000	99.101287 
3812.000000	99.100620 
3811.000000	99.094468 
3810.000000	99.092950 
3809.000000	99.097548 
3808.000000	99.100988 
3807.000000	99.098154 
3806.000000	99.095129 
3805.000000	99.099113 
3804.000000	99.103957 
3803.000000	99.100865 
3802.000000	99.090718 
3801.000000	99.080196 
3800.000000	99.079148 
3799.000000	99.085672 
3798.000000	99.086799 
3797.000000	99.081102 
3796.000000	99.078146 
3795.000000	99.084209 
3794.000000	99.095422 
3793.000000	99.104527 
3792.000000	99.109541 
3791.000000	99.112842 
3790.000000	99.114903 
3789.000000	99.114836 
3788.000000	99.114163 
3787.000000	99.116141 
3786.000000	99.121066 
3785.000000	99.126210 
3784.000000	99.130417 
3783.000000	99.134860 
3782.000000	99.138921 
3781.000000	99.139662 
3780.000000	99.135451 
3779.000000	99.127916 
3778.000000	99.121157 
3777.000000	99.116411 
3776.000000	99.111274 
3775.000000	99.105498 
3774.000000	99.103516 
3773.000000	99.107949 
3772.000000	99.114843 
3771.000000	99.117320 
3770.000000	99.113639 
3769.000000	99.109252 
3768.000000	99.109394 
3767.000000	99.111421 
3766.000000	99.110395 
3765.000000	99.107478 
3764.000000	99.108188 
3763.000000	99.113690 
3762.000000	99.118784 
3761.000000	99.120749 
3760.000000	99.122614 
3759.000000	99.124715 
3758.000000	99.123183 
3757.000000	99.116460 
3756.000000	99.108099 
3755.000000	99.101352 
3754.000000	99.097377 
3753.000000	99.098554 
3752.000000	99.105651 
3751.000000	99.109369 
3750.000000	99.099497 
3749.000000	99.083917 
3748.000000	99.076496 
3747.000000	99.075988 
3746.000000	99.074190 
3745.000000	99.067641 
3744.000000	99.059122 
3743.000000	99.063262 
3742.000000	99.080110 
3741.000000	99.087484 
3740.000000	99.080702 
3739.000000	99.074379 
3738.000000	99.078421 
3737.000000	99.088807 
3736.000000	99.098172 
3735.000000	99.104792 
3734.000000	99.107777 
3733.000000	99.103838 
3732.000000	99.095759 
3731.000000	99.094143 
3730.000000	99.103136 
3729.000000	99.114064 
3728.000000	99.117821 
3727.000000	99.116450 
3726.000000	99.117938 
3725.000000	99.124354 
3724.000000	99.128641 
3723.000000	99.125228 
3722.000000	99.117014 
3721.000000	99.110864 
3720.000000	99.110295 
3719.000000	99.112522 
3718.000000	99.113091 
3717.000000	99.110247 
3716.000000	99.104810 
3715.000000	99.097178 
3714.000000	99.088157 
3713.000000	99.080409 
3712.000000	99.074760 
3711.000000	99.069434 
3710.000000	99.065460 
3709.000000	99.064367 
3708.000000	99.064120 
3707.000000	99.061632 
3706.000000	99.055776 
3705.000000	99.047300 
3704.000000	99.037951 
3703.000000	99.030243 
3702.000000	99.025894 
3701.000000	99.025275 
3700.000000	99.028117 
3699.000000	99.030586 
3698.000000	99.026348 
3697.000000	99.014206 
3696.000000	99.000159 
3695.000000	98.990475 
3694.000000	98.985642 
3693.000000	98.983222 
3692.000000	98.982550 
3691.000000	98.982573 
3690.000000	98.978310 
3689.000000	98.965282 
3688.000000	98.950081 
3687.000000	98.944787 
3686.000000	98.949351 
3685.000000	98.953503 
3684.000000	98.953069 
3683.000000	98.952566 
3682.000000	98.954823 
3681.000000	98.954978 
3680.000000	98.947235 
3679.000000	98.933885 
3678.000000	98.920459 
3677.000000	98.909172 
3676.000000	98.897493 
3675.000000	98.887461 
3674.000000	98.892025 
3673.000000	98.909219 
3672.000000	98.920293 
3671.000000	98.921169 
3670.000000	98.919624 
3669.000000	98.919777 
3668.000000	98.922410 
3667.000000	98.923724 
3666.000000	98.921062 
3665.000000	98.917536 
3664.000000	98.916441 
3663.000000	98.917035 
3662.000000	98.916926 
3661.000000	98.915706 
3660.000000	98.915450 
3659.000000	98.918106 
3658.000000	98.922340 
3657.000000	98.924643 
3656.000000	98.923671 
3655.000000	98.925218 
3654.000000	98.932724 
3653.000000	98.941083 
3652.000000	98.947520 
3651.000000	98.955663 
3650.000000	98.962880 
3649.000000	98.958259 
3648.000000	98.941929 
3647.000000	98.928108 
3646.000000	98.926773 
3645.000000	98.935537 
3644.000000	98.947062 
3643.000000	98.956918 
3642.000000	98.965297 
3641.000000	98.973388 
3640.000000	98.981294 
3639.000000	98.988978 
3638.000000	98.997956 
3637.000000	99.009276 
3636.000000	99.019278 
3635.000000	99.021933 
3634.000000	99.016269 
3633.000000	99.008459 
3632.000000	99.003943 
3631.000000	99.002769 
3630.000000	99.001900 
3629.000000	98.995672 
3628.000000	98.985750 
3627.000000	98.984251 
3626.000000	98.990471 
3625.000000	98.995195 
3624.000000	98.997953 
3623.000000	99.001909 
3622.000000	99.006115 
3621.000000	99.007487 
3620.000000	99.005728 
3619.000000	99.003326 
3618.000000	99.004330 
3617.000000	99.010943 
3616.000000	99.019566 
3615.000000	99.024571 
3614.000000	99.023666 
3613.000000	99.018576 
3612.000000	99.012822 
3611.000000	99.008844 
3610.000000	99.007445 
3609.000000	99.009420 
3608.000000	99.014615 
3607.000000	99.021235 
3606.000000	99.027348 
3605.000000	99.032254 
3604.000000	99.036799 
3603.000000	99.041371 
3602.000000	99.044170 
3601.000000	99.044068 
3600.000000	99.043713 
3599.000000	99.046573 
3598.000000	99.052067 
3597.000000	99.057117 
3596.000000	99.059040 
3595.000000	99.057160 
3594.000000	99.052647 
3593.000000	99.048979 
3592.000000	99.049685 
3591.000000	99.055975 
3590.000000	99.065925 
3589.000000	99.075115 
3588.000000	99.077570 
3587.000000	99.071123 
3586.000000	99.061417 
3585.000000	99.054830 
3584.000000	99.052210 
3583.000000	99.052050 
3582.000000	99.053044 
3581.000000	99.053794 
3580.000000	99.052689 
3579.000000	99.048986 
3578.000000	99.042938 
3577.000000	99.036223 
3576.000000	99.031509 
3575.000000	99.030996 
3574.000000	99.034770 
3573.000000	99.040495 
3572.000000	99.045238 
3571.000000	99.047253 
3570.000000	99.046559 
3569.000000	99.044168 
3568.000000	99.040863 
3567.000000	99.036908 
3566.000000	99.034138 
3565.000000	99.034978 
3564.000000	99.038412 
3563.000000	99.041580 
3562.000000	99.043322 
3561.000000	99.044446 
3560.000000	99.046054 
3559.000000	99.048043 
3558.000000	99.048826 
3557.000000	99.046944 
3556.000000	99.043319 
3555.000000	99.040595 
3554.000000	99.040290 
3553.000000	99.041086 
3552.000000	99.040719 
3551.000000	99.038516 
3550.000000	99.035158 
3549.000000	99.031469 
3548.000000	99.028899 
3547.000000	99.029352 
3546.000000	99.033308 
3545.000000	99.039096 
3544.000000	99.044260 
3543.000000	99.046946 
3542.000000	99.046646 
3541.000000	99.044367 
3540.000000	99.042323 
3539.000000	99.042282 
3538.000000	99.043996 
3537.000000	99.045246 
3536.000000	99.043651 
3535.000000	99.038631 
3534.000000	99.031682 
3533.000000	99.025848 
3532.000000	99.024128 
3531.000000	99.027471 
3530.000000	99.033331 
3529.000000	99.037801 
3528.000000	99.039544 
3527.000000	99.040787 
3526.000000	99.043572 
3525.000000	99.046639 
3524.000000	99.047159 
3523.000000	99.044449 
3522.000000	99.040646 
3521.000000	99.037940 
3520.000000	99.036556 
3519.000000	99.035564 
3518.000000	99.034450 
3517.000000	99.033258 
3516.000000	99.031967 
3515.000000	99.031042 
3514.000000	99.032098 
3513.000000	99.036657 
3512.000000	99.043647 
3511.000000	99.049428 
3510.000000	99.051104 
3509.000000	99.049684 
3508.000000	99.048901 
3507.000000	99.050833 
3506.000000	99.053392 
3505.000000	99.052449 
3504.000000	99.045805 
3503.000000	99.035616 
3502.000000	99.027509 
3501.000000	99.026742 
3500.000000	99.034005 
3499.000000	99.044323 
3498.000000	99.050407 
3497.000000	99.048342 
3496.000000	99.040768 
3495.000000	99.033970 
3494.000000	99.031889 
3493.000000	99.033308 
3492.000000	99.034367 
3491.000000	99.032739 
3490.000000	99.029200 
3489.000000	99.026113 
3488.000000	99.025216 
3487.000000	99.026591 
3486.000000	99.028988 
3485.000000	99.031026 
3484.000000	99.032397 
3483.000000	99.033976 
3482.000000	99.036321 
3481.000000	99.038258 
3480.000000	99.037611 
3479.000000	99.033730 
3478.000000	99.028739 
3477.000000	99.025569 
3476.000000	99.024939 
3475.000000	99.024931 
3474.000000	99.023916 
3473.000000	99.022847 
3472.000000	99.023805 
3471.000000	99.027001 
3470.000000	99.030407 
3469.000000	99.032153 
3468.000000	99.032221 
3467.000000	99.031548 
3466.000000	99.030346 
3465.000000	99.027993 
3464.000000	99.024301 
3463.000000	99.020215 
3462.000000	99.016971 
3461.000000	99.014921 
3460.000000	99.013436 
3459.000000	99.011980 
3458.000000	99.010935 
3457.000000	99.011045 
3456.000000	99.012198 
3455.000000	99.013261 
3454.000000	99.013160 
3453.000000	99.012123 
3452.000000	99.011639 
3451.000000	99.013312 
3450.000000	99.017446 
3449.000000	99.022619 
3448.000000	99.026393 
3447.000000	99.026807 
3446.000000	99.023782 
3445.000000	99.019274 
3444.000000	99.015894 
3443.000000	99.015180 
3442.000000	99.016668 
3441.000000	99.018528 
3440.000000	99.019296 
3439.000000	99.018877 
3438.000000	99.017958 
3437.000000	99.016915 
3436.000000	99.015838 
3435.000000	99.015509 
3434.000000	99.017327 
3433.000000	99.021858 
3432.000000	99.027591 
3431.000000	99.031704 
3430.000000	99.032009 
3429.000000	99.028252 
3428.000000	99.021801 
3427.000000	99.014495 
3426.000000	99.007997 
3425.000000	99.003712 
3424.000000	99.002471 
3423.000000	99.003885 
3422.000000	99.006344 
3421.000000	99.008057 
3420.000000	99.008182 
3419.000000	99.007129 
3418.000000	99.006043 
3417.000000	99.005984 
3416.000000	99.007014 
3415.000000	99.007831 
3414.000000	99.006721 
3413.000000	99.003363 
3412.000000	98.999545 
3411.000000	98.997787 
3410.000000	98.999330 
3409.000000	99.003341 
3408.000000	99.007546 
3407.000000	99.009570 
3406.000000	99.008453 
3405.000000	99.005444 
3404.000000	99.003125 
3403.000000	99.003500 
3402.000000	99.006920 
3401.000000	99.012450 
3400.000000	99.018407 
3399.000000	99.022826 
3398.000000	99.024636 
3397.000000	99.024740 
3396.000000	99.024827 
3395.000000	99.024808 
3394.000000	99.022746 
3393.000000	99.017897 
3392.000000	99.012532 
3391.000000	99.009556 
3390.000000	99.009244 
3389.000000	99.009663 
3388.000000	99.009601 
3387.000000	99.009445 
3386.000000	99.009396 
3385.000000	99.008475 
3384.000000	99.005907 
3383.000000	99.002618 
3382.000000	99.000565 
3381.000000	99.000870 
3380.000000	99.002855 
3379.000000	99.004813 
3378.000000	99.005690 
3377.000000	99.006159 
3376.000000	99.007950 
3375.000000	99.012048 
3374.000000	99.017694 
3373.000000	99.023158 
3372.000000	99.027187 
3371.000000	99.029526 
3370.000000	99.030548 
3369.000000	99.030850 
3368.000000	99.031048 
3367.000000	99.031342 
3366.000000	99.031156 
3365.000000	99.029613 
3364.000000	99.026655 
3363.000000	99.023546 
3362.000000	99.021900 
3361.000000	99.021991 
3360.000000	99.022166 
3359.000000	99.020409 
3358.000000	99.016757 
3357.000000	99.013771 
3356.000000	99.014003 
3355.000000	99.017090 
3354.000000	99.020055 
3353.000000	99.020560 
3352.000000	99.019168 
3351.000000	99.018350 
3350.000000	99.020030 
3349.000000	99.024375 
3348.000000	99.030080 
3347.000000	99.035076 
3346.000000	99.037525 
3345.000000	99.037024 
3344.000000	99.034745 
3343.000000	99.031936 
3342.000000	99.028653 
3341.000000	99.024621 
3340.000000	99.020829 
3339.000000	99.019129 
3338.000000	99.020015 
3337.000000	99.021688 
3336.000000	99.021934 
3335.000000	99.020644 
3334.000000	99.019981 
3333.000000	99.022127 
3332.000000	99.027049 
3331.000000	99.032371 
3330.000000	99.035436 
3329.000000	99.035659 
3328.000000	99.034924 
3327.000000	99.035469 
3326.000000	99.037499 
3325.000000	99.039258 
3324.000000	99.039414 
3323.000000	99.038811 
3322.000000	99.039323 
3321.000000	99.041222 
3320.000000	99.042331 
3319.000000	99.040296 
3318.000000	99.035526 
3317.000000	99.031351 
3316.000000	99.031001 
3315.000000	99.034657 
3314.000000	99.039638 
3313.000000	99.043175 
3312.000000	99.044585 
3311.000000	99.044936 
3310.000000	99.045282 
3309.000000	99.045679 
3308.000000	99.045721 
3307.000000	99.045533 
3306.000000	99.045804 
3305.000000	99.046615 
3304.000000	99.046524 
3303.000000	99.043613 
3302.000000	99.038006 
3301.000000	99.032906 
3300.000000	99.032145 
3299.000000	99.036519 
3298.000000	99.043044 
3297.000000	99.047985 
3296.000000	99.050146 
3295.000000	99.051116 
3294.000000	99.053001 
3293.000000	99.056380 
3292.000000	99.059995 
3291.000000	99.061884 
3290.000000	99.060890 
3289.000000	99.057503 
3288.000000	99.053419 
3287.000000	99.050240 
3286.000000	99.048540 
3285.000000	99.047914 
3284.000000	99.047587 
3283.000000	99.047022 
3282.000000	99.046352 
3281.000000	99.046177 
3280.000000	99.046632 
3279.000000	99.046850 
3278.000000	99.045904 
3277.000000	99.044139 
3276.000000	99.042952 
3275.000000	99.043226 
3274.000000	99.044556 
3273.000000	99.045921 
3272.000000	99.046267 
3271.000000	99.044433 
3270.000000	99.039699 
3269.000000	99.033276 
3268.000000	99.028606 
3267.000000	99.029143 
3266.000000	99.035538 
3265.000000	99.045142 
3264.000000	99.054139 
3263.000000	99.060268 
3262.000000	99.064049 
3261.000000	99.067491 
3260.000000	99.071365 
3259.000000	99.073894 
3258.000000	99.072589 
3257.000000	99.067137 
3256.000000	99.059841 
3255.000000	99.053414 
3254.000000	99.049265 
3253.000000	99.047827 
3252.000000	99.049021 
3251.000000	99.051684 
3250.000000	99.053655 
3249.000000	99.053536 
3248.000000	99.051978 
3247.000000	99.050577 
3246.000000	99.050006 
3245.000000	99.049916 
3244.000000	99.050254 
3243.000000	99.051895 
3242.000000	99.055988 
3241.000000	99.062767 
3240.000000	99.070492 
3239.000000	99.075551 
3238.000000	99.074786 
3237.000000	99.068604 
3236.000000	99.061179 
3235.000000	99.056703 
3234.000000	99.055881 
3233.000000	99.056819 
3232.000000	99.058472 
3231.000000	99.061627 
3230.000000	99.066453 
3229.000000	99.070623 
3228.000000	99.070853 
3227.000000	99.066006 
3226.000000	99.058294 
3225.000000	99.051650 
3224.000000	99.048952 
3223.000000	99.050278 
3222.000000	99.053426 
3221.000000	99.056172 
3220.000000	99.058123 
3219.000000	99.060348 
3218.000000	99.063522 
3217.000000	99.066845 
3216.000000	99.068894 
3215.000000	99.069151 
3214.000000	99.068392 
3213.000000	99.067748 
3212.000000	99.067801 
3211.000000	99.068701 
3210.000000	99.070738 
3209.000000	99.074206 
3208.000000	99.078567 
3207.000000	99.082217 
3206.000000	99.083688 
3205.000000	99.083076 
3204.000000	99.081923 
3203.000000	99.081665 
3202.000000	99.082610 
3201.000000	99.084267 
3200.000000	99.085951 
3199.000000	99.086797 
3198.000000	99.086049 
3197.000000	99.084163 
3196.000000	99.083203 
3195.000000	99.085058 
3194.000000	99.088977 
3193.000000	99.091657 
3192.000000	99.090491 
3191.000000	99.086572 
3190.000000	99.083835 
3189.000000	99.085054 
3188.000000	99.089080 
3187.000000	99.092337 
3186.000000	99.092675 
3185.000000	99.091014 
3184.000000	99.089347 
3183.000000	99.088164 
3182.000000	99.086478 
3181.000000	99.083731 
3180.000000	99.080762 
3179.000000	99.078949 
3178.000000	99.078972 
3177.000000	99.080372 
3176.000000	99.081854 
3175.000000	99.082193 
3174.000000	99.081544 
3173.000000	99.081721 
3172.000000	99.084222 
3171.000000	99.087828 
3170.000000	99.089300 
3169.000000	99.087156 
3168.000000	99.083966 
3167.000000	99.084024 
3166.000000	99.089057 
3165.000000	99.096842 
3164.000000	99.103663 
3163.000000	99.107252 
3162.000000	99.107592 
3161.000000	99.106065 
3160.000000	99.104497 
3159.000000	99.104320 
3158.000000	99.105681 
3157.000000	99.107237 
3156.000000	99.107298 
3155.000000	99.105512 
3154.000000	99.103371 
3153.000000	99.102858 
3152.000000	99.104445 
3151.000000	99.106445 
3150.000000	99.106568 
3149.000000	99.104315 
3148.000000	99.101789 
3147.000000	99.101950 
3146.000000	99.105878 
3145.000000	99.111713 
3144.000000	99.116318 
3143.000000	99.118075 
3142.000000	99.118112 
3141.000000	99.118818 
3140.000000	99.121212 
3139.000000	99.123998 
3138.000000	99.125251 
3137.000000	99.124608 
3136.000000	99.123332 
3135.000000	99.122533 
3134.000000	99.121995 
3133.000000	99.120856 
3132.000000	99.118834 
3131.000000	99.116431 
3130.000000	99.114190 
3129.000000	99.112171 
3128.000000	99.110226 
3127.000000	99.108649 
3126.000000	99.108368 
3125.000000	99.110279 
3124.000000	99.114195 
3123.000000	99.118414 
3122.000000	99.120818 
3121.000000	99.120855 
3120.000000	99.120220 
3119.000000	99.121041 
3118.000000	99.123401 
3117.000000	99.125176 
3116.000000	99.124593 
3115.000000	99.122364 
3114.000000	99.120568 
3113.000000	99.119736 
3112.000000	99.118251 
3111.000000	99.115119 
3110.000000	99.112168 
3109.000000	99.112148 
3108.000000	99.114962 
3107.000000	99.117264 
3106.000000	99.116231 
3105.000000	99.112755 
3104.000000	99.110291 
3103.000000	99.111342 
3102.000000	99.115863 
3101.000000	99.122322 
3100.000000	99.128853 
3099.000000	99.133387 
3098.000000	99.134318 
3097.000000	99.131978 
3096.000000	99.128785 
3095.000000	99.127141 
3094.000000	99.127520 
3093.000000	99.128914 
3092.000000	99.130367 
3091.000000	99.131346 
3090.000000	99.131281 
3089.000000	99.130064 
3088.000000	99.129077 
3087.000000	99.130576 
3086.000000	99.135303 
3085.000000	99.141182 
3084.000000	99.145048 
3083.000000	99.145540 
3082.000000	99.144008 
3081.000000	99.142792 
3080.000000	99.143020 
3079.000000	99.143948 
3078.000000	99.143762 
3077.000000	99.140778 
3076.000000	99.134647 
3075.000000	99.127223 
3074.000000	99.121945 
3073.000000	99.121471 
3072.000000	99.125614 
3071.000000	99.131924 
3070.000000	99.137976 
3069.000000	99.142296 
3068.000000	99.143388 
3067.000000	99.139728 
3066.000000	99.131940 
3065.000000	99.123885 
3064.000000	99.119810 
3063.000000	99.120401 
3062.000000	99.122749 
3061.000000	99.124090 
3060.000000	99.124374 
3059.000000	99.125130 
3058.000000	99.127160 
3057.000000	99.129991 
3056.000000	99.132738 
3055.000000	99.134822 
3054.000000	99.136174 
3053.000000	99.137131 
3052.000000	99.137920 
3051.000000	99.138174 
3050.000000	99.137388 
3049.000000	99.135699 
3048.000000	99.133484 
3047.000000	99.130273 
3046.000000	99.125207 
3045.000000	99.118853 
3044.000000	99.113455 
3043.000000	99.110637 
3042.000000	99.109539 
3041.000000	99.107834 
3040.000000	99.104123 
3039.000000	99.098893 
3038.000000	99.093719 
3037.000000	99.090106 
3036.000000	99.088508 
3035.000000	99.087770 
3034.000000	99.085818 
3033.000000	99.081419 
3032.000000	99.074981 
3031.000000	99.067316 
3030.000000	99.058214 
3029.000000	99.046923 
3028.000000	99.033808 
3027.000000	99.020819 
3026.000000	99.010108 
3025.000000	99.002288 
3024.000000	98.995926 
3023.000000	98.988523 
3022.000000	98.978141 
3021.000000	98.964446 
3020.000000	98.948595 
3019.000000	98.932570 
3018.000000	98.918760 
3017.000000	98.909183 
3016.000000	98.903668 
3015.000000	98.898761 
3014.000000	98.889875 
3013.000000	98.875212 
3012.000000	98.856733 
3011.000000	98.836918 
3010.000000	98.816040 
3009.000000	98.793706 
3008.000000	98.771744 
3007.000000	98.753603 
3006.000000	98.740823 
3005.000000	98.731259 
3004.000000	98.720810 
3003.000000	98.706167 
3002.000000	98.686358 
3001.000000	98.663323 
3000.000000	98.641287 
2999.000000	98.624063 
2998.000000	98.612169 
2997.000000	98.603361 
2996.000000	98.596089 
2995.000000	98.590458 
2994.000000	98.584389 
2993.000000	98.570983 
2992.000000	98.543623 
2991.000000	98.504735 
2990.000000	98.467023 
2989.000000	98.443654 
2988.000000	98.437586 
2987.000000	98.441708 
2986.000000	98.448047 
2985.000000	98.454425 
2984.000000	98.462352 
2983.000000	98.471816 
2982.000000	98.480358 
2981.000000	98.485880 
2980.000000	98.488313 
2979.000000	98.488691 
2978.000000	98.488041 
2977.000000	98.487110 
2976.000000	98.485871 
2975.000000	98.483140 
2974.000000	98.477828 
2973.000000	98.470853 
2972.000000	98.464988 
2971.000000	98.462535 
2970.000000	98.463916 
2969.000000	98.468695 
2968.000000	98.476933 
2967.000000	98.488828 
2966.000000	98.503647 
2965.000000	98.519736 
2964.000000	98.535476 
2963.000000	98.549936 
2962.000000	98.562829 
2961.000000	98.574218 
2960.000000	98.584275 
2959.000000	98.593388 
2958.000000	98.602506 
2957.000000	98.612706 
2956.000000	98.623507 
2955.000000	98.631936 
2954.000000	98.634946 
2953.000000	98.633713 
2952.000000	98.634491 
2951.000000	98.643491 
2950.000000	98.660498 
2949.000000	98.678390 
2948.000000	98.689523 
2947.000000	98.692299 
2946.000000	98.691200 
2945.000000	98.691054 
2944.000000	98.692578 
2943.000000	98.693822 
2942.000000	98.694383 
2941.000000	98.696122 
2940.000000	98.699719 
2939.000000	98.702556 
2938.000000	98.701434 
2937.000000	98.696473 
2936.000000	98.690981 
2935.000000	98.687928 
2934.000000	98.687734 
2933.000000	98.689074 
2932.000000	98.690281 
2931.000000	98.689845 
2930.000000	98.686882 
2929.000000	98.681779 
2928.000000	98.675843 
2927.000000	98.670235 
2926.000000	98.665723 
2925.000000	98.663039 
2924.000000	98.662420 
2923.000000	98.662982 
2922.000000	98.663732 
2921.000000	98.665097 
2920.000000	98.668137 
2919.000000	98.672154 
2918.000000	98.674516 
2917.000000	98.673353 
2916.000000	98.669378 
2915.000000	98.664684 
2914.000000	98.660813 
2913.000000	98.658432 
2912.000000	98.657533 
2911.000000	98.657030 
2910.000000	98.655069 
2909.000000	98.650790 
2908.000000	98.645277 
2907.000000	98.639920 
2906.000000	98.634197 
2905.000000	98.625785 
2904.000000	98.612965 
2903.000000	98.597045 
2902.000000	98.583113 
2901.000000	98.578128 
2900.000000	98.586656 
2899.000000	98.606883 
2898.000000	98.630773 
2897.000000	98.649484 
2896.000000	98.659228 
2895.000000	98.662650 
2894.000000	98.665352 
2893.000000	98.671204 
2892.000000	98.679889 
2891.000000	98.687798 
2890.000000	98.691444 
2889.000000	98.690639 
2888.000000	98.688424 
2887.000000	98.687975 
2886.000000	98.690230 
2885.000000	98.694600 
2884.000000	98.700851 
2883.000000	98.709331 
2882.000000	98.719920 
2881.000000	98.731829 
2880.000000	98.744413 
2879.000000	98.757611 
2878.000000	98.771614 
2877.000000	98.786332 
2876.000000	98.800758 
2875.000000	98.812577 
2874.000000	98.819195 
2873.000000	98.820245 
2872.000000	98.818876 
2871.000000	98.819713 
2870.000000	98.825343 
2869.000000	98.834970 
2868.000000	98.846109 
2867.000000	98.856987 
2866.000000	98.867618 
2865.000000	98.879318 
2864.000000	98.893179 
2863.000000	98.908410 
2862.000000	98.922315 
2861.000000	98.932650 
2860.000000	98.940151 
2859.000000	98.947989 
2858.000000	98.958340 
2857.000000	98.970007 
2856.000000	98.979920 
2855.000000	98.986769 
2854.000000	98.992521 
2853.000000	99.000019 
2852.000000	99.009580 
2851.000000	99.018760 
2850.000000	99.025700 
2849.000000	99.031738 
2848.000000	99.039731 
2847.000000	99.050168 
2846.000000	99.060051 
2845.000000	99.065868 
2844.000000	99.066972 
2843.000000	99.066006 
2842.000000	99.066839 
2841.000000	99.072089 
2840.000000	99.081359 
2839.000000	99.091104 
2838.000000	99.096993 
2837.000000	99.097418 
2836.000000	99.094717 
2835.000000	99.092893 
2834.000000	99.094520 
2833.000000	99.099678 
2832.000000	99.106628 
2831.000000	99.112873 
2830.000000	99.116564 
2829.000000	99.117969 
2828.000000	99.119278 
2827.000000	99.122225 
2826.000000	99.126196 
2825.000000	99.129158 
2824.000000	99.130033 
2823.000000	99.129697 
2822.000000	99.130076 
2821.000000	99.132744 
2820.000000	99.137807 
2819.000000	99.143571 
2818.000000	99.147763 
2817.000000	99.149642 
2816.000000	99.150450 
2815.000000	99.151402 
2814.000000	99.152098 
2813.000000	99.151693 
2812.000000	99.150756 
2811.000000	99.150723 
2810.000000	99.151889 
2809.000000	99.153130 
2808.000000	99.153570 
2807.000000	99.153636 
2806.000000	99.154440 
2805.000000	99.156811 
2804.000000	99.160746 
2803.000000	99.165064 
2802.000000	99.167738 
2801.000000	99.167353 
2800.000000	99.164399 
2799.000000	99.160760 
2798.000000	99.158189 
2797.000000	99.157585 
2796.000000	99.159049 
2795.000000	99.161722 
2794.000000	99.163973 
2793.000000	99.164752 
2792.000000	99.164624 
2791.000000	99.164741 
2790.000000	99.165234 
2789.000000	99.165582 
2788.000000	99.166079 
2787.000000	99.167581 
2786.000000	99.169938 
2785.000000	99.172078 
2784.000000	99.173718 
2783.000000	99.175600 
2782.000000	99.177751 
2781.000000	99.178927 
2780.000000	99.178457 
2779.000000	99.177451 
2778.000000	99.177390 
2777.000000	99.178440 
2776.000000	99.179840 
2775.000000	99.181077 
2774.000000	99.181826 
2773.000000	99.181551 
2772.000000	99.180227 
2771.000000	99.179046 
2770.000000	99.179495 
2769.000000	99.181915 
2768.000000	99.185486 
2767.000000	99.189138 
2766.000000	99.191797 
2765.000000	99.192327 
2764.000000	99.190394 
2763.000000	99.187378 
2762.000000	99.185563 
2761.000000	99.186265 
2760.000000	99.189162 
2759.000000	99.193110 
2758.000000	99.196811 
2757.000000	99.198974 
2756.000000	99.199098 
2755.000000	99.198410 
2754.000000	99.198963 
2753.000000	99.201129 
2752.000000	99.202680 
2751.000000	99.201118 
2750.000000	99.196439 
2749.000000	99.190905 
2748.000000	99.186472 
2747.000000	99.183334 
2746.000000	99.180900 
2745.000000	99.179189 
2744.000000	99.178749 
2743.000000	99.179765 
2742.000000	99.181862 
2741.000000	99.184728 
2740.000000	99.188460 
2739.000000	99.193151 
2738.000000	99.198284 
2737.000000	99.202766 
2736.000000	99.205684 
2735.000000	99.207020 
2734.000000	99.207511 
2733.000000	99.207673 
2732.000000	99.207044 
2731.000000	99.204635 
2730.000000	99.200275 
2729.000000	99.195560 
2728.000000	99.193302 
2727.000000	99.195583 
2726.000000	99.201753 
2725.000000	99.208303 
2724.000000	99.211470 
2723.000000	99.210592 
2722.000000	99.208618 
2721.000000	99.208879 
2720.000000	99.211588 
2719.000000	99.213999 
2718.000000	99.213579 
2717.000000	99.210259 
2716.000000	99.206069 
2715.000000	99.203712 
2714.000000	99.205272 
2713.000000	99.210591 
2712.000000	99.216327 
2711.000000	99.218127 
2710.000000	99.215041 
2709.000000	99.210894 
2708.000000	99.210106 
2707.000000	99.212683 
2706.000000	99.214533 
2705.000000	99.212383 
2704.000000	99.207205 
2703.000000	99.202849 
2702.000000	99.202330 
2701.000000	99.205453 
2700.000000	99.209195 
2699.000000	99.210283 
2698.000000	99.208015 
2697.000000	99.204740 
2696.000000	99.203354 
2695.000000	99.204668 
2694.000000	99.207538 
2693.000000	99.210513 
2692.000000	99.212318 
2691.000000	99.211696 
2690.000000	99.208696 
2689.000000	99.205971 
2688.000000	99.206722 
2687.000000	99.210730 
2686.000000	99.214038 
2685.000000	99.213523 
2684.000000	99.210649 
2683.000000	99.209611 
2682.000000	99.212476 
2681.000000	99.217147 
2680.000000	99.219708 
2679.000000	99.218048 
2678.000000	99.213538 
2677.000000	99.209787 
2676.000000	99.209557 
2675.000000	99.212386 
2674.000000	99.215344 
2673.000000	99.216151 
2672.000000	99.215150 
2671.000000	99.214068 
2670.000000	99.213462 
2669.000000	99.211923 
2668.000000	99.207699 
2667.000000	99.201010 
2666.000000	99.194916 
2665.000000	99.193548 
2664.000000	99.198649 
2663.000000	99.207696 
2662.000000	99.215900 
2661.000000	99.220024 
2660.000000	99.219843 
2659.000000	99.216622 
2658.000000	99.211834 
2657.000000	99.207458 
2656.000000	99.205649 
2655.000000	99.206826 
2654.000000	99.208829 
2653.000000	99.208908 
2652.000000	99.206205 
2651.000000	99.202066 
2650.000000	99.198723 
2649.000000	99.197931 
2648.000000	99.199782 
2647.000000	99.202338 
2646.000000	99.203476 
2645.000000	99.203523 
2644.000000	99.204690 
2643.000000	99.207371 
2642.000000	99.208876 
2641.000000	99.207223 
2640.000000	99.204601 
2639.000000	99.205061 
2638.000000	99.209658 
2637.000000	99.215614 
2636.000000	99.219617 
2635.000000	99.220199 
2634.000000	99.217559 
2633.000000	99.213141 
2632.000000	99.209375 
2631.000000	99.208030 
2630.000000	99.208540 
2629.000000	99.209089 
2628.000000	99.209215 
2627.000000	99.210038 
2626.000000	99.212141 
2625.000000	99.214701 
2624.000000	99.216660 
2623.000000	99.217352 
2622.000000	99.216098 
2621.000000	99.212808 
2620.000000	99.209086 
2619.000000	99.207074 
2618.000000	99.206804 
2617.000000	99.206139 
2616.000000	99.203837 
2615.000000	99.201304 
2614.000000	99.200625 
2613.000000	99.201975 
2612.000000	99.203790 
2611.000000	99.204804 
2610.000000	99.205261 
2609.000000	99.206521 
2608.000000	99.209783 
2607.000000	99.214925 
2606.000000	99.220573 
2605.000000	99.225461 
2604.000000	99.229065 
2603.000000	99.230469 
2602.000000	99.228017 
2601.000000	99.221736 
2600.000000	99.215213 
2599.000000	99.212754 
2598.000000	99.214705 
2597.000000	99.217484 
2596.000000	99.218085 
2595.000000	99.216214 
2594.000000	99.212007 
2593.000000	99.205001 
2592.000000	99.196987 
2591.000000	99.193132 
2590.000000	99.197441 
2589.000000	99.208097 
2588.000000	99.219219 
2587.000000	99.226268 
2586.000000	99.227953 
2585.000000	99.224328 
2584.000000	99.216237 
2583.000000	99.206929 
2582.000000	99.201302 
2581.000000	99.201649 
2580.000000	99.205010 
2579.000000	99.205982 
2578.000000	99.202094 
2577.000000	99.196057 
2576.000000	99.193054 
2575.000000	99.196100 
2574.000000	99.203623 
2573.000000	99.210983 
2572.000000	99.214182 
2571.000000	99.212300 
2570.000000	99.207079 
2569.000000	99.201260 
2568.000000	99.197576 
2567.000000	99.197997 
2566.000000	99.202310 
2565.000000	99.207534 
2564.000000	99.210070 
2563.000000	99.208954 
2562.000000	99.206360 
2561.000000	99.204871 
2560.000000	99.205235 
2559.000000	99.206917 
2558.000000	99.209334 
2557.000000	99.211529 
2556.000000	99.211850 
2555.000000	99.209753 
2554.000000	99.207552 
2553.000000	99.208581 
2552.000000	99.213267 
2551.000000	99.218560 
2550.000000	99.221772 
2549.000000	99.223353 
2548.000000	99.224651 
2547.000000	99.224389 
2546.000000	99.219666 
2545.000000	99.210518 
2544.000000	99.201681 
2543.000000	99.198864 
2542.000000	99.203796 
2541.000000	99.213031 
2540.000000	99.220908 
2539.000000	99.223523 
2538.000000	99.220724 
2537.000000	99.214932 
2536.000000	99.208178 
2535.000000	99.200735 
2534.000000	99.193112 
2533.000000	99.188282 
2532.000000	99.189911 
2531.000000	99.198006 
2530.000000	99.207946 
2529.000000	99.214762 
2528.000000	99.217369 
2527.000000	99.217957 
2526.000000	99.218714 
2525.000000	99.220638 
2524.000000	99.224491 
2523.000000	99.230601 
2522.000000	99.237263 
2521.000000	99.240896 
2520.000000	99.239020 
2519.000000	99.232944 
2518.000000	99.226933 
2517.000000	99.224474 
2516.000000	99.225260 
2515.000000	99.225913 
2514.000000	99.223709 
2513.000000	99.219248 
2512.000000	99.215070 
2511.000000	99.212284 
2510.000000	99.209974 
2509.000000	99.208049 
2508.000000	99.208849 
2507.000000	99.214373 
2506.000000	99.222637 
2505.000000	99.228391 
2504.000000	99.227667 
2503.000000	99.220800 
2502.000000	99.211145 
2501.000000	99.202272 
2500.000000	99.196973 
2499.000000	99.197678 
2498.000000	99.205899 
2497.000000	99.220389 
2496.000000	99.236414 
2495.000000	99.247843 
2494.000000	99.250525 
2493.000000	99.244039 
2492.000000	99.231145 
2491.000000	99.216749 
2490.000000	99.206961 
2489.000000	99.206460 
2488.000000	99.214481 
2487.000000	99.224219 
2486.000000	99.228580 
2485.000000	99.226852 
2484.000000	99.224105 
2483.000000	99.224058 
2482.000000	99.224998 
2481.000000	99.223651 
2480.000000	99.220584 
2479.000000	99.219355 
2478.000000	99.221377 
2477.000000	99.224050 
2476.000000	99.224199 
2475.000000	99.221691 
2474.000000	99.219117 
2473.000000	99.218819 
2472.000000	99.220768 
2471.000000	99.222972 
2470.000000	99.223599 
2469.000000	99.222566 
2468.000000	99.221024 
2467.000000	99.219778 
2466.000000	99.219124 
2465.000000	99.219956 
2464.000000	99.223277 
2463.000000	99.227654 
2462.000000	99.228657 
2461.000000	99.222761 
2460.000000	99.211697 
2459.000000	99.201619 
2458.000000	99.197784 
2457.000000	99.200619 
2456.000000	99.206506 
2455.000000	99.211146 
2454.000000	99.212110 
2453.000000	99.209434 
2452.000000	99.204780 
2451.000000	99.200029 
2450.000000	99.196393 
2449.000000	99.194578 
2448.000000	99.195204 
2447.000000	99.198586 
2446.000000	99.204284 
2445.000000	99.211121 
2444.000000	99.217471 
2443.000000	99.221590 
2442.000000	99.222422 
2441.000000	99.220534 
2440.000000	99.217632 
2439.000000	99.214762 
2438.000000	99.211705 
2437.000000	99.208529 
2436.000000	99.206419 
2435.000000	99.205767 
2434.000000	99.204427 
2433.000000	99.199754 
2432.000000	99.192270 
2431.000000	99.185612 
2430.000000	99.182577 
2429.000000	99.182804 
2428.000000	99.185081 
2427.000000	99.190153 
2426.000000	99.199138 
2425.000000	99.209455 
2424.000000	99.214682 
2423.000000	99.210176 
2422.000000	99.198364 
2421.000000	99.187127 
2420.000000	99.182572 
2419.000000	99.184295 
2418.000000	99.187991 
2417.000000	99.191184 
2416.000000	99.194820 
2415.000000	99.199886 
2414.000000	99.204744 
2413.000000	99.206731 
2412.000000	99.205138 
2411.000000	99.201592 
2410.000000	99.198257 
2409.000000	99.196682 
2408.000000	99.197822 
2407.000000	99.201877 
2406.000000	99.207871 
2405.000000	99.214037 
2404.000000	99.218971 
2403.000000	99.222245 
2402.000000	99.223844 
2401.000000	99.223152 
2400.000000	99.218759 
2399.000000	99.209843 
2398.000000	99.198337 
2397.000000	99.189331 
2396.000000	99.187972 
2395.000000	99.195106 
2394.000000	99.206280 
2393.000000	99.215384 
2392.000000	99.219222 
2391.000000	99.218897 
2390.000000	99.217783 
2389.000000	99.218579 
2388.000000	99.221512 
2387.000000	99.224631 
2386.000000	99.226036 
2385.000000	99.226009 
2384.000000	99.226576 
2383.000000	99.228919 
2382.000000	99.231978 
2381.000000	99.233781 
2380.000000	99.233166 
2379.000000	99.229749 
2378.000000	99.223541 
2377.000000	99.216210 
2376.000000	99.211869 
2375.000000	99.214208 
2374.000000	99.222237 
2373.000000	99.230659 
2372.000000	99.235597 
2371.000000	99.238432 
2370.000000	99.242336 
2369.000000	99.246447 
2368.000000	99.246054 
2367.000000	99.238660 
2366.000000	99.228145 
2365.000000	99.222371 
2364.000000	99.226665 
2363.000000	99.238343 
2362.000000	99.248406 
2361.000000	99.249395 
2360.000000	99.241404 
2359.000000	99.231820 
2358.000000	99.228366 
2357.000000	99.233291 
2356.000000	99.243767 
2355.000000	99.253888 
2354.000000	99.257498 
2353.000000	99.252509 
2352.000000	99.243940 
2351.000000	99.239016 
2350.000000	99.239133 
2349.000000	99.241152 
2348.000000	99.242432 
2347.000000	99.242667 
2346.000000	99.241862 
2345.000000	99.239047 
2344.000000	99.234765 
2343.000000	99.230922 
2342.000000	99.230231 
2341.000000	99.233837 
2340.000000	99.239208 
2339.000000	99.242260 
2338.000000	99.240843 
2337.000000	99.237163 
2336.000000	99.235559 
2335.000000	99.237844 
2334.000000	99.241585 
2333.000000	99.243226 
2332.000000	99.241648 
2331.000000	99.237687 
2330.000000	99.231502 
2329.000000	99.224394 
2328.000000	99.219305 
2327.000000	99.218667 
2326.000000	99.221490 
2325.000000	99.223639 
2324.000000	99.222407 
2323.000000	99.218388 
2322.000000	99.215608 
2321.000000	99.217500 
2320.000000	99.223422 
2319.000000	99.229161 
2318.000000	99.231330 
2317.000000	99.230862 
2316.000000	99.230288 
2315.000000	99.229861 
2314.000000	99.227560 
2313.000000	99.223340 
2312.000000	99.220382 
2311.000000	99.221824 
2310.000000	99.227381 
2309.000000	99.233762 
2308.000000	99.237052 
2307.000000	99.234650 
2306.000000	99.226995 
2305.000000	99.217587 
2304.000000	99.210151 
2303.000000	99.205119 
2302.000000	99.200497 
2301.000000	99.195530 
2300.000000	99.191300 
2299.000000	99.187895 
2298.000000	99.184103 
2297.000000	99.180880 
2296.000000	99.181940 
2295.000000	99.188743 
2294.000000	99.196931 
2293.000000	99.199921 
2292.000000	99.195184 
2291.000000	99.185370 
2290.000000	99.175076 
2289.000000	99.168162 
2288.000000	99.166754 
2287.000000	99.170159 
2286.000000	99.175124 
2285.000000	99.178566 
2284.000000	99.179557 
2283.000000	99.177748 
2282.000000	99.171682 
2281.000000	99.160878 
2280.000000	99.148727 
2279.000000	99.141039 
2278.000000	99.141523 
2277.000000	99.149307 
2276.000000	99.159843 
2275.000000	99.167380 
2274.000000	99.167803 
2273.000000	99.160807 
2272.000000	99.149003 
2271.000000	99.134973 
2270.000000	99.121141 
2269.000000	99.112292 
2268.000000	99.114155 
2267.000000	99.126891 
2266.000000	99.142514 
2265.000000	99.151669 
2264.000000	99.151791 
2263.000000	99.147307 
2262.000000	99.144568 
2261.000000	99.148339 
2260.000000	99.159453 
2259.000000	99.172127 
2258.000000	99.176328 
2257.000000	99.167169 
2256.000000	99.150523 
2255.000000	99.135901 
2254.000000	99.125996 
2253.000000	99.117699 
2252.000000	99.111244 
2251.000000	99.112143 
2250.000000	99.123423 
2249.000000	99.140449 
2248.000000	99.155060 
2247.000000	99.162089 
2246.000000	99.161189 
2245.000000	99.155214 
2244.000000	99.147909 
2243.000000	99.141471 
2242.000000	99.135480 
2241.000000	99.128663 
2240.000000	99.120991 
2239.000000	99.113271 
2238.000000	99.106125 
2237.000000	99.100460 
2236.000000	99.096797 
2235.000000	99.092654 
2234.000000	99.083574 
2233.000000	99.069767 
2232.000000	99.059450 
2231.000000	99.062045 
2230.000000	99.079173 
2229.000000	99.104362 
2228.000000	99.129176 
2227.000000	99.146524 
2226.000000	99.151010 
2225.000000	99.141870 
2224.000000	99.125666 
2223.000000	99.112246 
2222.000000	99.107816 
2221.000000	99.113207 
2220.000000	99.125864 
2219.000000	99.139983 
2218.000000	99.147649 
2217.000000	99.145431 
2216.000000	99.139138 
2215.000000	99.137445 
2214.000000	99.141445 
2213.000000	99.144457 
2212.000000	99.141262 
2211.000000	99.133634 
2210.000000	99.127622 
2209.000000	99.128940 
2208.000000	99.139340 
2207.000000	99.153398 
2206.000000	99.160377 
2205.000000	99.153809 
2204.000000	99.138425 
2203.000000	99.124016 
2202.000000	99.114809 
2201.000000	99.108931 
2200.000000	99.104764 
2199.000000	99.101550 
2198.000000	99.096105 
2197.000000	99.086304 
2196.000000	99.077232 
2195.000000	99.077230 
2194.000000	99.087824 
2193.000000	99.102852 
2192.000000	99.116302 
2191.000000	99.124760 
2190.000000	99.123809 
2189.000000	99.110956 
2188.000000	99.093104 
2187.000000	99.083105 
2186.000000	99.086824 
2185.000000	99.099349 
2184.000000	99.113947 
2183.000000	99.127229 
2182.000000	99.134990 
2181.000000	99.132937 
2180.000000	99.125074 
2179.000000	99.122368 
2178.000000	99.128494 
2177.000000	99.133555 
2176.000000	99.126197 
2175.000000	99.106591 
2174.000000	99.083808 
2173.000000	99.066102 
2172.000000	99.057769 
2171.000000	99.060153 
2170.000000	99.070554 
2169.000000	99.082747 
2168.000000	99.091799 
2167.000000	99.096031 
2166.000000	99.093564 
2165.000000	99.082452 
2164.000000	99.066570 
2163.000000	99.055578 
2162.000000	99.055933 
2161.000000	99.066483 
2160.000000	99.084188 
2159.000000	99.106880 
2158.000000	99.127331 
2157.000000	99.134669 
2156.000000	99.127675 
2155.000000	99.117865 
2154.000000	99.114934 
2153.000000	99.116467 
2152.000000	99.115754 
2151.000000	99.113472 
2150.000000	99.116112 
2149.000000	99.126918 
2148.000000	99.143380 
2147.000000	99.160707 
2146.000000	99.173440 
2145.000000	99.176768 
2144.000000	99.170984 
2143.000000	99.162512 
2142.000000	99.157229 
2141.000000	99.155091 
2140.000000	99.153901 
2139.000000	99.154784 
2138.000000	99.159300 
2137.000000	99.163456 
2136.000000	99.160469 
2135.000000	99.150010 
2134.000000	99.140393 
2133.000000	99.139559 
2132.000000	99.145878 
2131.000000	99.149596 
2130.000000	99.142952 
2129.000000	99.128287 
2128.000000	99.115791 
2127.000000	99.112758 
2126.000000	99.116203 
2125.000000	99.117915 
2124.000000	99.115766 
2123.000000	99.116331 
2122.000000	99.125329 
2121.000000	99.139374 
2120.000000	99.150080 
2119.000000	99.153811 
2118.000000	99.153702 
2117.000000	99.153360 
2116.000000	99.152524 
2115.000000	99.149478 
2114.000000	99.144807 
2113.000000	99.141051 
2112.000000	99.139778 
2111.000000	99.140226 
2110.000000	99.140573 
2109.000000	99.139950 
2108.000000	99.139155 
2107.000000	99.139219 
2106.000000	99.139047 
2105.000000	99.135059 
2104.000000	99.124389 
2103.000000	99.109193 
2102.000000	99.097216 
2101.000000	99.096411 
2100.000000	99.107402 
2099.000000	99.121589 
2098.000000	99.128605 
2097.000000	99.126347 
2096.000000	99.121971 
2095.000000	99.121723 
2094.000000	99.122339 
2093.000000	99.115852 
2092.000000	99.101559 
2091.000000	99.088823 
2090.000000	99.086916 
2089.000000	99.094650 
2088.000000	99.101841 
2087.000000	99.100061 
2086.000000	99.090453 
2085.000000	99.081677 
2084.000000	99.081403 
2083.000000	99.089811 
2082.000000	99.100908 
2081.000000	99.109417 
2080.000000	99.115360 
2079.000000	99.121514 
2078.000000	99.128374 
2077.000000	99.133935 
2076.000000	99.137670 
2075.000000	99.141696 
2074.000000	99.147370 
2073.000000	99.153031 
2072.000000	99.155617 
2071.000000	99.153006 
2070.000000	99.144869 
2069.000000	99.133356 
2068.000000	99.123202 
2067.000000	99.118750 
2066.000000	99.119933 
2065.000000	99.122464 
2064.000000	99.122697 
2063.000000	99.120988 
2062.000000	99.119902 
2061.000000	99.120926 
2060.000000	99.123530 
2059.000000	99.126127 
2058.000000	99.127366 
2057.000000	99.127044 
2056.000000	99.125428 
2055.000000	99.121042 
2054.000000	99.110840 
2053.000000	99.094918 
2052.000000	99.079615 
2051.000000	99.072841 
2050.000000	99.076125 
2049.000000	99.082541 
2048.000000	99.082686 
2047.000000	99.071942 
2046.000000	99.052772 
2045.000000	99.033155 
2044.000000	99.022722 
2043.000000	99.026559 
2042.000000	99.041180 
2041.000000	99.057907 
2040.000000	99.070576 
2039.000000	99.078420 
2038.000000	99.082618 
2037.000000	99.083880 
2036.000000	99.083022 
2035.000000	99.079977 
2034.000000	99.072091 
2033.000000	99.057203 
2032.000000	99.038806 
2031.000000	99.024629 
2030.000000	99.020046 
2029.000000	99.024804 
2028.000000	99.034054 
2027.000000	99.040166 
2026.000000	99.036923 
2025.000000	99.027478 
2024.000000	99.024614 
2023.000000	99.035580 
2022.000000	99.049082 
2021.000000	99.046608 
2020.000000	99.027633 
2019.000000	99.013659 
2018.000000	99.023513 
2017.000000	99.051528 
2016.000000	99.075486 
2015.000000	99.080867 
2014.000000	99.070104 
2013.000000	99.053528 
2012.000000	99.039624 
2011.000000	99.032502 
2010.000000	99.033495 
2009.000000	99.043115 
2008.000000	99.061024 
2007.000000	99.082605 
2006.000000	99.096863 
2005.000000	99.093924 
2004.000000	99.076599 
2003.000000	99.059473 
2002.000000	99.054350 
2001.000000	99.059586 
2000.000000	99.065298 
1999.000000	99.064943 
1998.000000	99.059725 
1997.000000	99.055401 
1996.000000	99.057293 
1995.000000	99.066298 
1994.000000	99.077485 
1993.000000	99.083781 
1992.000000	99.082848 
1991.000000	99.079058 
1990.000000	99.077481 
1989.000000	99.079180 
1988.000000	99.083022 
1987.000000	99.087692 
1986.000000	99.090593 
1985.000000	99.089158 
1984.000000	99.085584 
1983.000000	99.086379 
1982.000000	99.093769 
1981.000000	99.100040 
1980.000000	99.094716 
1979.000000	99.076351 
1978.000000	99.055194 
1977.000000	99.043988 
1976.000000	99.046053 
1975.000000	99.053179 
1974.000000	99.055852 
1973.000000	99.055480 
1972.000000	99.063926 
1971.000000	99.087677 
1970.000000	99.114623 
1969.000000	99.122583 
1968.000000	99.102827 
1967.000000	99.070720 
1966.000000	99.049013 
1965.000000	99.045112 
1964.000000	99.049955 
1963.000000	99.053733 
1962.000000	99.055014 
1961.000000	99.056633 
1960.000000	99.059699 
1959.000000	99.063998 
1958.000000	99.070841 
1957.000000	99.081679 
1956.000000	99.094481 
1955.000000	99.104117 
1954.000000	99.107294 
1953.000000	99.105886 
1952.000000	99.103475 
1951.000000	99.100385 
1950.000000	99.094720 
1949.000000	99.087911 
1948.000000	99.085685 
1947.000000	99.090287 
1946.000000	99.094395 
1945.000000	99.087406 
1944.000000	99.067873 
1943.000000	99.046773 
1942.000000	99.036949 
1941.000000	99.040797 
1940.000000	99.050389 
1939.000000	99.057609 
1938.000000	99.061668 
1937.000000	99.068213 
1936.000000	99.081771 
1935.000000	99.098622 
1934.000000	99.109191 
1933.000000	99.109070 
1932.000000	99.104730 
1931.000000	99.105865 
1930.000000	99.113329 
1929.000000	99.119239 
1928.000000	99.119145 
1927.000000	99.117340 
1926.000000	99.120010 
1925.000000	99.126911 
1924.000000	99.132859 
1923.000000	99.134959 
1922.000000	99.134290 
1921.000000	99.132121 
1920.000000	99.127329 
1919.000000	99.117926 
1918.000000	99.104138 
1917.000000	99.090270 
1916.000000	99.082090 
1915.000000	99.080906 
1914.000000	99.082807 
1913.000000	99.084475 
1912.000000	99.087221 
1911.000000	99.093875 
1910.000000	99.102133 
1909.000000	99.106372 
1908.000000	99.106979 
1907.000000	99.110549 
1906.000000	99.120509 
1905.000000	99.131390 
1904.000000	99.135031 
1903.000000	99.129424 
1902.000000	99.118179 
1901.000000	99.106850 
1900.000000	99.101577 
1899.000000	99.105689 
1898.000000	99.115853 
1897.000000	99.123901 
1896.000000	99.124837 
1895.000000	99.121096 
1894.000000	99.116743 
1893.000000	99.112510 
1892.000000	99.108818 
1891.000000	99.108372 
1890.000000	99.111781 
1889.000000	99.114689 
1888.000000	99.114018 
1887.000000	99.112313 
1886.000000	99.112745 
1885.000000	99.115046 
1884.000000	99.118239 
1883.000000	99.123247 
1882.000000	99.128977 
1881.000000	99.130483 
1880.000000	99.125804 
1879.000000	99.120173 
1878.000000	99.120557 
1877.000000	99.128246 
1876.000000	99.138567 
1875.000000	99.146094 
1874.000000	99.147044 
1873.000000	99.139804 
1872.000000	99.127725 
1871.000000	99.118639 
1870.000000	99.117369 
1869.000000	99.119494 
1868.000000	99.119641 
1867.000000	99.121894 
1866.000000	99.131008 
1865.000000	99.141301 
1864.000000	99.142151 
1863.000000	99.130200 
1862.000000	99.112465 
1861.000000	99.098596 
1860.000000	99.094000 
1859.000000	99.099354 
1858.000000	99.111160 
1857.000000	99.122277 
1856.000000	99.126872 
1855.000000	99.125936 
1854.000000	99.124564 
1853.000000	99.124714 
1852.000000	99.125485 
1851.000000	99.126838 
1850.000000	99.130496 
1849.000000	99.137155 
1848.000000	99.144418 
1847.000000	99.149230 
1846.000000	99.150294 
1845.000000	99.148530 
1844.000000	99.146218 
1843.000000	99.146594 
1842.000000	99.150091 
1841.000000	99.153026 
1840.000000	99.152834 
1839.000000	99.150188 
1838.000000	99.147142 
1837.000000	99.144279 
1836.000000	99.141279 
1835.000000	99.139298 
1834.000000	99.139457 
1833.000000	99.140744 
1832.000000	99.140844 
1831.000000	99.138047 
1830.000000	99.133913 
1829.000000	99.133419 
1828.000000	99.138558 
1827.000000	99.144886 
1826.000000	99.147137 
1825.000000	99.144569 
1824.000000	99.140704 
1823.000000	99.138713 
1822.000000	99.136970 
1821.000000	99.131969 
1820.000000	99.124322 
1819.000000	99.119657 
1818.000000	99.123022 
1817.000000	99.131456 
1816.000000	99.137453 
1815.000000	99.139265 
1814.000000	99.141063 
1813.000000	99.145561 
1812.000000	99.150094 
1811.000000	99.152408 
1810.000000	99.155034 
1809.000000	99.158810 
1808.000000	99.160256 
1807.000000	99.157489 
1806.000000	99.152851 
1805.000000	99.148738 
1804.000000	99.144880 
1803.000000	99.140480 
1802.000000	99.135133 
1801.000000	99.129021 
1800.000000	99.123181 
1799.000000	99.120866 
1798.000000	99.125142 
1797.000000	99.134096 
1796.000000	99.142960 
1795.000000	99.148885 
1794.000000	99.151584 
1793.000000	99.150840 
1792.000000	99.145828 
1791.000000	99.140086 
1790.000000	99.138607 
1789.000000	99.140202 
1788.000000	99.141216 
1787.000000	99.141293 
1786.000000	99.142927 
1785.000000	99.146624 
1784.000000	99.150039 
1783.000000	99.151482 
1782.000000	99.149822 
1781.000000	99.145724 
1780.000000	99.140600 
1779.000000	99.136009 
1778.000000	99.134116 
1777.000000	99.136102 
1776.000000	99.141487 
1775.000000	99.146123 
1774.000000	99.145194 
1773.000000	99.139520 
1772.000000	99.135076 
1771.000000	99.135895 
1770.000000	99.139599 
1769.000000	99.141281 
1768.000000	99.139833 
1767.000000	99.137897 
1766.000000	99.137626 
1765.000000	99.138866 
1764.000000	99.140172 
1763.000000	99.140853 
1762.000000	99.140848 
1761.000000	99.141467 
1760.000000	99.142911 
1759.000000	99.143909 
1758.000000	99.144807 
1757.000000	99.148465 
1756.000000	99.156387 
1755.000000	99.163913 
1754.000000	99.165717 
1753.000000	99.163323 
1752.000000	99.163197 
1751.000000	99.165798 
1750.000000	99.164925 
1749.000000	99.158075 
1748.000000	99.150503 
1747.000000	99.147375 
1746.000000	99.147308 
1745.000000	99.147708 
1744.000000	99.148003 
1743.000000	99.148661 
1742.000000	99.149994 
1741.000000	99.151665 
1740.000000	99.153044 
1739.000000	99.154820 
1738.000000	99.157336 
1737.000000	99.158466 
1736.000000	99.157446 
1735.000000	99.159247 
1734.000000	99.162383 
1733.000000	99.161158 
1732.000000	99.157160 
1731.000000	99.152131 
1730.000000	99.147557 
1729.000000	99.145342 
1728.000000	99.145533 
1727.000000	99.146884 
1726.000000	99.148397 
1725.000000	99.150515 
1724.000000	99.151679 
1723.000000	99.150635 
1722.000000	99.148907 
1721.000000	99.147654 
1720.000000	99.146835 
1719.000000	99.147938 
1718.000000	99.152349 
1717.000000	99.155750 
1716.000000	99.155027 
1715.000000	99.154496 
1714.000000	99.156996 
1713.000000	99.158586 
1712.000000	99.155185 
1711.000000	99.149476 
1710.000000	99.147125 
1709.000000	99.149504 
1708.000000	99.153718 
1707.000000	99.157466 
1706.000000	99.161314 
1705.000000	99.163253 
1704.000000	99.160885 
1703.000000	99.155506 
1702.000000	99.152297 
1701.000000	99.155480 
1700.000000	99.155117 
1699.000000	99.149516 
1698.000000	99.148536 
1697.000000	99.150127 
1696.000000	99.148774 
1695.000000	99.144718 
1694.000000	99.142069 
1693.000000	99.140649 
1692.000000	99.137599 
1691.000000	99.134987 
1690.000000	99.134807 
1689.000000	99.135545 
1688.000000	99.136057 
1687.000000	99.136004 
1686.000000	99.138695 
1685.000000	99.146943 
1684.000000	99.151547 
1683.000000	99.150274 
1682.000000	99.147725 
1681.000000	99.142204 
1680.000000	99.137005 
1679.000000	99.135906 
1678.000000	99.136609 
1677.000000	99.136815 
1676.000000	99.138370 
1675.000000	99.142060 
1674.000000	99.144948 
1673.000000	99.146596 
1672.000000	99.147520 
1671.000000	99.148752 
1670.000000	99.148121 
1669.000000	99.142591 
1668.000000	99.137079 
1667.000000	99.135434 
1666.000000	99.135196 
1665.000000	99.133885 
1664.000000	99.131897 
1663.000000	99.131147 
1662.000000	99.130785 
1661.000000	99.130307 
1660.000000	99.131781 
1659.000000	99.135883 
1658.000000	99.140231 
1657.000000	99.141408 
1656.000000	99.138850 
1655.000000	99.134417 
1654.000000	99.134022 
1653.000000	99.129744 
1652.000000	99.124214 
1651.000000	99.129212 
1650.000000	99.135004 
1649.000000	99.135422 
1648.000000	99.134094 
1647.000000	99.131435 
1646.000000	99.127761 
1645.000000	99.126691 
1644.000000	99.129396 
1643.000000	99.134189 
1642.000000	99.138592 
1641.000000	99.140938 
1640.000000	99.141333 
1639.000000	99.140360 
1638.000000	99.138977 
1637.000000	99.139406 
1636.000000	99.142102 
1635.000000	99.143527 
1634.000000	99.143262 
1633.000000	99.141342 
1632.000000	99.136632 
1631.000000	99.131398 
1630.000000	99.127689 
1629.000000	99.125626 
1628.000000	99.125575 
1627.000000	99.128333 
1626.000000	99.131821 
1625.000000	99.133036 
1624.000000	99.132006 
1623.000000	99.130936 
1622.000000	99.131085 
1621.000000	99.132190 
1620.000000	99.133446 
1619.000000	99.133835 
1618.000000	99.133451 
1617.000000	99.131876 
1616.000000	99.131932 
1615.000000	99.137290 
1614.000000	99.144243 
1613.000000	99.148217 
1612.000000	99.151075 
1611.000000	99.155510 
1610.000000	99.158330 
1609.000000	99.155851 
1608.000000	99.150979 
1607.000000	99.148707 
1606.000000	99.148416 
1605.000000	99.148142 
1604.000000	99.149506 
1603.000000	99.153451 
1602.000000	99.157826 
1601.000000	99.160918 
1600.000000	99.164093 
1599.000000	99.168388 
1598.000000	99.172166 
1597.000000	99.173928 
1596.000000	99.174046 
1595.000000	99.172939 
1594.000000	99.169987 
1593.000000	99.166333 
1592.000000	99.165588 
1591.000000	99.169273 
1590.000000	99.174120 
1589.000000	99.176857 
1588.000000	99.178764 
1587.000000	99.182306 
1586.000000	99.186137 
1585.000000	99.187215 
1584.000000	99.186994 
1583.000000	99.187644 
1582.000000	99.187399 
1581.000000	99.184694 
1580.000000	99.181644 
1579.000000	99.179397 
1578.000000	99.176144 
1577.000000	99.171235 
1576.000000	99.166574 
1575.000000	99.166036 
1574.000000	99.168754 
1573.000000	99.170683 
1572.000000	99.171979 
1571.000000	99.176132 
1570.000000	99.181359 
1569.000000	99.183108 
1568.000000	99.184050 
1567.000000	99.185295 
1566.000000	99.183660 
1565.000000	99.178794 
1564.000000	99.175462 
1563.000000	99.174112 
1562.000000	99.172358 
1561.000000	99.168794 
1560.000000	99.174647 
1559.000000	99.178859 
1558.000000	99.171806 
1557.000000	99.170149 
1556.000000	99.173582 
1555.000000	99.176490 
1554.000000	99.177647 
1553.000000	99.176774 
1552.000000	99.174742 
1551.000000	99.171489 
1550.000000	99.169589 
1549.000000	99.171060 
1548.000000	99.175161 
1547.000000	99.178310 
1546.000000	99.176654 
1545.000000	99.169595 
1544.000000	99.161362 
1543.000000	99.158657 
1542.000000	99.165322 
1541.000000	99.176983 
1540.000000	99.180314 
1539.000000	99.174372 
1538.000000	99.170329 
1537.000000	99.169874 
1536.000000	99.169748 
1535.000000	99.171051 
1534.000000	99.172314 
1533.000000	99.169082 
1532.000000	99.162776 
1531.000000	99.158729 
1530.000000	99.158305 
1529.000000	99.158556 
1528.000000	99.156675 
1527.000000	99.154350 
1526.000000	99.155044 
1525.000000	99.158948 
1524.000000	99.163288 
1523.000000	99.167518 
1522.000000	99.172722 
1521.000000	99.175705 
1520.000000	99.174248 
1519.000000	99.168938 
1518.000000	99.160305 
1517.000000	99.150995 
1516.000000	99.144483 
1515.000000	99.142197 
1514.000000	99.142477 
1513.000000	99.144048 
1512.000000	99.145881 
1511.000000	99.145840 
1510.000000	99.143657 
1509.000000	99.140551 
1508.000000	99.140285 
1507.000000	99.141600 
1506.000000	99.141595 
1505.000000	99.140975 
1504.000000	99.140519 
1503.000000	99.140550 
1502.000000	99.142367 
1501.000000	99.145575 
1500.000000	99.146715 
1499.000000	99.142411 
1498.000000	99.134185 
1497.000000	99.125912 
1496.000000	99.118878 
1495.000000	99.116623 
1494.000000	99.122155 
1493.000000	99.132718 
1492.000000	99.143051 
1491.000000	99.149185 
1490.000000	99.149138 
1489.000000	99.143482 
1488.000000	99.134411 
1487.000000	99.126365 
1486.000000	99.121785 
1485.000000	99.117202 
1484.000000	99.110959 
1483.000000	99.105322 
1482.000000	99.103876 
1481.000000	99.106606 
1480.000000	99.109481 
1479.000000	99.109905 
1478.000000	99.108532 
1477.000000	99.106312 
1476.000000	99.103319 
1475.000000	99.102437 
1474.000000	99.106207 
1473.000000	99.111075 
1472.000000	99.110496 
1471.000000	99.105660 
1470.000000	99.101948 
1469.000000	99.099943 
1468.000000	99.097805 
1467.000000	99.095547 
1466.000000	99.094310 
1465.000000	99.094023 
1464.000000	99.094292 
1463.000000	99.094870 
1462.000000	99.095525 
1461.000000	99.095017 
1460.000000	99.092648 
1459.000000	99.088245 
1458.000000	99.081802 
1457.000000	99.070687 
1456.000000	99.056963 
1455.000000	99.047232 
1454.000000	99.042535 
1453.000000	99.042637 
1452.000000	99.047500 
1451.000000	99.054609 
1450.000000	99.061130 
1449.000000	99.065488 
1448.000000	99.066413 
1447.000000	99.065014 
1446.000000	99.063659 
1445.000000	99.064725 
1444.000000	99.068303 
1443.000000	99.071816 
1442.000000	99.074040 
1441.000000	99.075692 
1440.000000	99.077247 
1439.000000	99.077580 
1438.000000	99.078433 
1437.000000	99.081712 
1436.000000	99.084423 
1435.000000	99.083016 
1434.000000	99.078196 
1433.000000	99.072333 
1432.000000	99.067645 
1431.000000	99.064275 
1430.000000	99.061162 
1429.000000	99.058198 
1428.000000	99.054928 
1427.000000	99.051253 
1426.000000	99.046979 
1425.000000	99.043698 
1424.000000	99.042213 
1423.000000	99.039098 
1422.000000	99.031280 
1421.000000	99.019380 
1420.000000	99.006163 
1419.000000	98.992030 
1418.000000	98.979140 
1417.000000	98.969659 
1416.000000	98.959159 
1415.000000	98.943148 
1414.000000	98.922872 
1413.000000	98.903509 
1412.000000	98.888709 
1411.000000	98.877174 
1410.000000	98.866635 
1409.000000	98.857547 
1408.000000	98.851542 
1407.000000	98.850319 
1406.000000	98.853868 
1405.000000	98.861283 
1404.000000	98.871775 
1403.000000	98.884338 
1402.000000	98.899160 
1401.000000	98.916925 
1400.000000	98.935604 
1399.000000	98.947619 
1398.000000	98.944367 
1397.000000	98.921742 
1396.000000	98.882416 
1395.000000	98.841336 
1394.000000	98.822474 
1393.000000	98.838805 
1392.000000	98.879036 
1391.000000	98.920656 
1390.000000	98.948418 
1389.000000	98.959539 
1388.000000	98.958131 
1387.000000	98.949138 
1386.000000	98.937552 
1385.000000	98.928233 
1384.000000	98.923242 
1383.000000	98.920501 
1382.000000	98.917300 
1381.000000	98.914111 
1380.000000	98.914698 
1379.000000	98.921792 
1378.000000	98.933788 
1377.000000	98.946863 
1376.000000	98.958800 
1375.000000	98.969508 
1374.000000	98.979464 
1373.000000	98.989971 
1372.000000	99.001872 
1371.000000	99.014106 
1370.000000	99.024134 
1369.000000	99.031048 
1368.000000	99.036675 
1367.000000	99.042863 
1366.000000	99.050211 
1365.000000	99.059143 
1364.000000	99.069970 
1363.000000	99.080986 
1362.000000	99.088910 
1361.000000	99.092553 
1360.000000	99.094062 
1359.000000	99.096424 
1358.000000	99.101245 
1357.000000	99.108703 
1356.000000	99.117681 
1355.000000	99.125818 
1354.000000	99.131251 
1353.000000	99.134385 
1352.000000	99.136505 
1351.000000	99.138100 
1350.000000	99.138130 
1349.000000	99.136874 
1348.000000	99.136633 
1347.000000	99.138538 
1346.000000	99.141442 
1345.000000	99.144169 
1344.000000	99.146646 
1343.000000	99.148208 
1342.000000	99.147467 
1341.000000	99.144981 
1340.000000	99.143919 
1339.000000	99.146137 
1338.000000	99.149763 
1337.000000	99.152590 
1336.000000	99.155017 
1335.000000	99.157888 
1334.000000	99.160069 
1333.000000	99.160131 
1332.000000	99.158801 
1331.000000	99.157837 
1330.000000	99.157482 
1329.000000	99.156960 
1328.000000	99.156271 
1327.000000	99.155831 
1326.000000	99.155041 
1325.000000	99.153585 
1324.000000	99.152697 
1323.000000	99.153369 
1322.000000	99.154689 
1321.000000	99.155349 
1320.000000	99.155873 
1319.000000	99.157677 
1318.000000	99.160543 
1317.000000	99.162411 
1316.000000	99.161650 
1315.000000	99.158517 
1314.000000	99.154629 
1313.000000	99.151646 
1312.000000	99.150165 
1311.000000	99.149515 
1310.000000	99.148816 
1309.000000	99.148187 
1308.000000	99.148212 
1307.000000	99.148615 
1306.000000	99.148287 
1305.000000	99.147298 
1304.000000	99.147255 
1303.000000	99.148959 
1302.000000	99.151035 
1301.000000	99.151660 
1300.000000	99.150802 
1299.000000	99.149929 
1298.000000	99.150323 
1297.000000	99.152146 
1296.000000	99.154513 
1295.000000	99.155736 
1294.000000	99.154233 
1293.000000	99.149879 
1292.000000	99.144031 
1291.000000	99.138167 
1290.000000	99.133161 
1289.000000	99.129779 
1288.000000	99.128508 
1287.000000	99.128355 
1286.000000	99.127110 
1285.000000	99.123658 
1284.000000	99.118965 
1283.000000	99.114182 
1282.000000	99.109084 
1281.000000	99.103285 
1280.000000	99.097840 
1279.000000	99.093944 
1278.000000	99.090844 
1277.000000	99.086673 
1276.000000	99.081029 
1275.000000	99.075142 
1274.000000	99.069552 
1273.000000	99.063248 
1272.000000	99.055448 
1271.000000	99.047042 
1270.000000	99.039568 
1269.000000	99.033407 
1268.000000	99.027493 
1267.000000	99.020311 
1266.000000	99.011097 
1265.000000	99.000430 
1264.000000	98.989671 
1263.000000	98.979547 
1262.000000	98.969442 
1261.000000	98.958564 
1260.000000	98.947676 
1259.000000	98.938637 
1258.000000	98.932240 
1257.000000	98.927515 
1256.000000	98.923458 
1255.000000	98.920316 
1254.000000	98.918362 
1253.000000	98.916270 
1252.000000	98.912251 
1251.000000	98.906858 
1250.000000	98.903417 
1249.000000	98.905033 
1248.000000	98.911758 
1247.000000	98.920611 
1246.000000	98.927041 
1245.000000	98.925913 
1244.000000	98.913767 
1243.000000	98.893604 
1242.000000	98.876597 
1241.000000	98.874446 
1240.000000	98.887901 
1239.000000	98.904998 
1238.000000	98.912518 
1237.000000	98.907673 
1236.000000	98.897115 
1235.000000	98.887415 
1234.000000	98.879872 
1233.000000	98.872854 
1232.000000	98.864789 
1231.000000	98.854379 
1230.000000	98.841416 
1229.000000	98.828721 
1228.000000	98.820882 
1227.000000	98.819614 
1226.000000	98.821774 
1225.000000	98.822901 
1224.000000	98.821301 
1223.000000	98.817933 
1222.000000	98.814049 
1221.000000	98.810310 
1220.000000	98.807127 
1219.000000	98.804476 
1218.000000	98.801695 
1217.000000	98.797958 
1216.000000	98.792466 
1215.000000	98.784221 
1214.000000	98.772690 
1213.000000	98.758827 
1212.000000	98.744333 
1211.000000	98.729870 
1210.000000	98.715204 
1209.000000	98.700988 
1208.000000	98.688709 
1207.000000	98.678542 
1206.000000	98.668894 
1205.000000	98.658621 
1204.000000	98.648110 
1203.000000	98.637568 
1202.000000	98.625999 
1201.000000	98.612838 
1200.000000	98.599045 
1199.000000	98.585514 
1198.000000	98.571720 
1197.000000	98.556893 
1196.000000	98.541122 
1195.000000	98.524400 
1194.000000	98.506138 
1193.000000	98.486815 
1192.000000	98.468586 
1191.000000	98.452695 
1190.000000	98.437550 
1189.000000	98.420932 
1188.000000	98.403031 
1187.000000	98.385688 
1186.000000	98.369584 
1185.000000	98.353818 
1184.000000	98.337523 
1183.000000	98.320400 
1182.000000	98.302276 
1181.000000	98.283479 
1180.000000	98.264954 
1179.000000	98.246722 
1178.000000	98.227087 
1177.000000	98.204730 
1176.000000	98.180578 
1175.000000	98.156066 
1174.000000	98.130608 
1173.000000	98.102869 
1172.000000	98.073858 
1171.000000	98.046580 
1170.000000	98.022744 
1169.000000	98.001527 
1168.000000	97.981420 
1167.000000	97.961788 
1166.000000	97.943168 
1165.000000	97.927889 
1164.000000	97.920011 
1163.000000	97.922535 
1162.000000	97.934299 
1161.000000	97.950767 
1160.000000	97.967451 
1159.000000	97.981073 
1158.000000	97.988208 
1157.000000	97.985146 
1156.000000	97.969934 
1155.000000	97.944298 
1154.000000	97.913952 
1153.000000	97.886725 
1152.000000	97.868136 
1151.000000	97.856810 
1150.000000	97.845323 
1149.000000	97.827537 
1148.000000	97.804356 
1147.000000	97.780850 
1146.000000	97.759328 
1145.000000	97.737645 
1144.000000	97.713352 
1143.000000	97.686729 
1142.000000	97.660048 
1141.000000	97.636180 
1140.000000	97.617548 
1139.000000	97.603839 
1138.000000	97.590573 
1137.000000	97.572243 
1136.000000	97.547390 
1135.000000	97.519245 
1134.000000	97.491654 
1133.000000	97.465871 
1132.000000	97.440960 
1131.000000	97.415585 
1130.000000	97.389546 
1129.000000	97.364604 
1128.000000	97.342730 
1127.000000	97.322247 
1126.000000	97.297736 
1125.000000	97.266309 
1124.000000	97.232240 
1123.000000	97.202235 
1122.000000	97.177513 
1121.000000	97.154037 
1120.000000	97.129183 
1119.000000	97.103657 
1118.000000	97.077265 
1117.000000	97.047837 
1116.000000	97.015460 
1115.000000	96.983738 
1114.000000	96.955195 
1113.000000	96.928480 
1112.000000	96.901286 
1111.000000	96.872876 
1110.000000	96.842504 
1109.000000	96.808816 
1108.000000	96.772763 
1107.000000	96.738660 
1106.000000	96.710024 
1105.000000	96.685691 
1104.000000	96.661608 
1103.000000	96.635334 
1102.000000	96.607821 
1101.000000	96.582010 
1100.000000	96.560010 
1099.000000	96.541431 
1098.000000	96.524163 
1097.000000	96.507417 
1096.000000	96.492584 
1095.000000	96.479262 
1094.000000	96.462286 
1093.000000	96.435406 
1092.000000	96.397065 
1091.000000	96.350498 
1090.000000	96.299888 
1089.000000	96.249274 
1088.000000	96.203238 
1087.000000	96.164226 
1086.000000	96.129629 
1085.000000	96.095389 
1084.000000	96.061910 
1083.000000	96.032317 
1082.000000	96.005603 
1081.000000	95.976404 
1080.000000	95.941992 
1079.000000	95.905415 
1078.000000	95.871584 
1077.000000	95.844292 
1076.000000	95.826821 
1075.000000	95.820413 
1074.000000	95.821186 
1073.000000	95.822442 
1072.000000	95.819584 
1071.000000	95.808113 
1070.000000	95.778543 
1069.000000	95.721988 
1068.000000	95.644357 
1067.000000	95.569304 
1066.000000	95.521464 
1065.000000	95.507612 
1064.000000	95.515229 
1063.000000	95.524390 
1062.000000	95.517973 
1061.000000	95.486408 
1060.000000	95.431041 
1059.000000	95.365013 
1058.000000	95.306845 
1057.000000	95.268838 
1056.000000	95.249630 
1055.000000	95.236983 
1054.000000	95.218327 
1053.000000	95.190481 
1052.000000	95.159812 
1051.000000	95.132917 
1050.000000	95.108919 
1049.000000	95.082445 
1048.000000	95.051464 
1047.000000	95.019150 
1046.000000	94.990043 
1045.000000	94.966945 
1044.000000	94.949464 
1043.000000	94.933247 
1042.000000	94.913044 
1041.000000	94.888935 
1040.000000	94.867065 
1039.000000	94.852412 
1038.000000	94.844524 
1037.000000	94.842730 
1036.000000	94.850241 
1035.000000	94.868359 
1034.000000	94.890990 
1033.000000	94.909911 
1032.000000	94.921089 
1031.000000	94.921239 
1030.000000	94.905365 
1029.000000	94.876903 
1028.000000	94.855522 
1027.000000	94.862646 
1026.000000	94.898090 
1025.000000	94.939630 
1024.000000	94.966323 
1023.000000	94.974549 
1022.000000	94.972005 
1021.000000	94.966164 
1020.000000	94.961986 
1019.000000	94.962998 
1018.000000	94.968951 
1017.000000	94.975884 
1016.000000	94.981313 
1015.000000	94.986495 
1014.000000	94.992667 
1013.000000	94.998908 
1012.000000	95.004608 
1011.000000	95.010229 
1010.000000	95.015156 
1009.000000	95.018804 
1008.000000	95.024258 
1007.000000	95.036442 
1006.000000	95.055645 
1005.000000	95.076558 
1004.000000	95.094375 
1003.000000	95.108597 
1002.000000	95.120965 
1001.000000	95.133318 
1000.000000	95.147473 
999.000000	 95.163599 
998.000000	 95.178858 
997.000000	 95.191175 
996.000000	 95.203712 
995.000000	 95.221660 
994.000000	 95.245186 
993.000000	 95.269596 
992.000000	 95.291662 
991.000000	 95.311314 
990.000000	 95.327993 
989.000000	 95.340695 
988.000000	 95.351947 
987.000000	 95.366994 
986.000000	 95.388242 
985.000000	 95.414167 
984.000000	 95.443412 
983.000000	 95.475669 
982.000000	 95.508776 
981.000000	 95.539748 
980.000000	 95.569266 
979.000000	 95.601296 
978.000000	 95.638136 
977.000000	 95.679310 
976.000000	 95.724370 
975.000000	 95.772297 
974.000000	 95.818897 
973.000000	 95.860139 
972.000000	 95.898327 
971.000000	 95.940134 
970.000000	 95.987855 
969.000000	 96.036894 
968.000000	 96.082337 
967.000000	 96.123734 
966.000000	 96.162881 
965.000000	 96.201142 
964.000000	 96.239843 
963.000000	 96.279636 
962.000000	 96.318715 
961.000000	 96.354818 
960.000000	 96.388973 
959.000000	 96.423728 
958.000000	 96.458117 
957.000000	 96.488670 
956.000000	 96.515476 
955.000000	 96.542637 
954.000000	 96.572051 
953.000000	 96.601175 
952.000000	 96.627979 
951.000000	 96.653653 
950.000000	 96.678768 
949.000000	 96.700817 
948.000000	 96.717766 
947.000000	 96.730887 
946.000000	 96.742011 
945.000000	 96.750675 
944.000000	 96.756257 
943.000000	 96.761179 
942.000000	 96.769931 
941.000000	 96.785285 
940.000000	 96.805609 
939.000000	 96.824951 
938.000000	 96.836863 
937.000000	 96.840589 
936.000000	 96.843054 
935.000000	 96.852380 
934.000000	 96.869794 
933.000000	 96.890103 
932.000000	 96.908937 
931.000000	 96.926003 
930.000000	 96.941697 
929.000000	 96.954441 
928.000000	 96.962351 
927.000000	 96.965294 
926.000000	 96.965193 
925.000000	 96.966220 
924.000000	 96.973647 
923.000000	 96.989370 
922.000000	 97.008752 
921.000000	 97.024693 
920.000000	 97.034262 
919.000000	 97.038868 
918.000000	 97.039735 
917.000000	 97.037376 
916.000000	 97.034613 
915.000000	 97.035227 
914.000000	 97.039045 
913.000000	 97.042410 
912.000000	 97.044355 
911.000000	 97.048700 
910.000000	 97.059211 
909.000000	 97.075911 
908.000000	 97.096863 
907.000000	 97.120346 
906.000000	 97.144428 
905.000000	 97.167141 
904.000000	 97.188036 
903.000000	 97.208121 
902.000000	 97.228893 
901.000000	 97.252931 
900.000000	 97.283213 
899.000000	 97.318578 
898.000000	 97.351568 
897.000000	 97.374984 
896.000000	 97.389655 
895.000000	 97.402336 
894.000000	 97.417594 
893.000000	 97.435803 
892.000000	 97.457484 
891.000000	 97.484244 
890.000000	 97.515431 
889.000000	 97.547996 
888.000000	 97.579425 
887.000000	 97.607443 
886.000000	 97.628686 
885.000000	 97.642460 
884.000000	 97.654107 
883.000000	 97.668863 
882.000000	 97.683377 
881.000000	 97.690091 
880.000000	 97.690211 
879.000000	 97.695081 
878.000000	 97.712729 
877.000000	 97.739328 
876.000000	 97.766213 
875.000000	 97.789099 
874.000000	 97.807757 
873.000000	 97.822509 
872.000000	 97.834719 
871.000000	 97.846918 
870.000000	 97.860042 
869.000000	 97.874180 
868.000000	 97.893049 
867.000000	 97.922248 
866.000000	 97.960401 
865.000000	 97.997156 
864.000000	 98.024012 
863.000000	 98.043635 
862.000000	 98.064489 
861.000000	 98.088873 
860.000000	 98.110948 
859.000000	 98.125545 
858.000000	 98.134479 
857.000000	 98.143458 
856.000000	 98.155969 
855.000000	 98.171720 
854.000000	 98.188785 
853.000000	 98.204994 
852.000000	 98.218001 
851.000000	 98.226587 
850.000000	 98.232968 
849.000000	 98.241929 
848.000000	 98.255506 
847.000000	 98.269313 
846.000000	 98.276575 
845.000000	 98.275819 
844.000000	 98.272309 
843.000000	 98.272087 
842.000000	 98.277165 
841.000000	 98.285876 
840.000000	 98.293706 
839.000000	 98.293486 
838.000000	 98.280365 
837.000000	 98.259107 
836.000000	 98.241559 
835.000000	 98.233624 
834.000000	 98.229104 
833.000000	 98.220096 
832.000000	 98.208241 
831.000000	 98.199721 
830.000000	 98.193709 
829.000000	 98.184450 
828.000000	 98.173473 
827.000000	 98.170596 
826.000000	 98.180829 
825.000000	 98.197449 
824.000000	 98.210786 
823.000000	 98.218094 
822.000000	 98.222669 
821.000000	 98.228360 
820.000000	 98.236550 
819.000000	 98.244707 
818.000000	 98.247371 
817.000000	 98.241636 
816.000000	 98.230989 
815.000000	 98.220553 
814.000000	 98.209785 
813.000000	 98.193509 
812.000000	 98.168445 
811.000000	 98.133627 
810.000000	 98.085235 
809.000000	 98.017024 
808.000000	 97.927446 
807.000000	 97.822559 
806.000000	 97.710854 
805.000000	 97.598493 
804.000000	 97.490249 
803.000000	 97.391114 
802.000000	 97.305343 
801.000000	 97.236398 
800.000000	 97.187687 
799.000000	 97.159969 
798.000000	 97.148760 
797.000000	 97.148482 
796.000000	 97.158290 
795.000000	 97.179574 
794.000000	 97.209155 
793.000000	 97.239846 
792.000000	 97.266726 
791.000000	 97.288508 
790.000000	 97.304339 
789.000000	 97.313546 
788.000000	 97.316313 
787.000000	 97.309938 
786.000000	 97.287071 
785.000000	 97.243581 
784.000000	 97.186751 
783.000000	 97.130713 
782.000000	 97.085298 
781.000000	 97.053456 
780.000000	 97.035694 
779.000000	 97.030041 
778.000000	 97.030745 
777.000000	 97.035302 
776.000000	 97.050884 
775.000000	 97.085477 
774.000000	 97.133850 
773.000000	 97.180775 
772.000000	 97.217742 
771.000000	 97.248876 
770.000000	 97.281048 
769.000000	 97.315601 
768.000000	 97.349354 
767.000000	 97.376689 
766.000000	 97.391470 
765.000000	 97.394058 
764.000000	 97.395365 
763.000000	 97.406470 
762.000000	 97.424850 
761.000000	 97.438275 
760.000000	 97.441360 
759.000000	 97.440498 
758.000000	 97.443696 
757.000000	 97.453723 
756.000000	 97.469880 
755.000000	 97.487313 
754.000000	 97.495773 
753.000000	 97.489829 
752.000000	 97.480907 
751.000000	 97.488811 
750.000000	 97.518705 
749.000000	 97.554811 
748.000000	 97.578973 
747.000000	 97.587675 
746.000000	 97.589491 
745.000000	 97.594190 
744.000000	 97.606932 
743.000000	 97.626058 
742.000000	 97.644333 
741.000000	 97.658062 
740.000000	 97.674543 
739.000000	 97.703211 
738.000000	 97.740274 
737.000000	 97.770764 
736.000000	 97.785538 
735.000000	 97.787697 
734.000000	 97.783544 
733.000000	 97.778036 
732.000000	 97.779305 
731.000000	 97.794985 
730.000000	 97.820366 
729.000000	 97.841150 
728.000000	 97.851381 
727.000000	 97.858620 
726.000000	 97.868613 
725.000000	 97.875461 
724.000000	 97.872086 
723.000000	 97.861621 
722.000000	 97.853184 
721.000000	 97.853383 
720.000000	 97.865552 
719.000000	 97.889565 
718.000000	 97.918421 
717.000000	 97.941633 
716.000000	 97.954795 
715.000000	 97.960372 
714.000000	 97.959667 
713.000000	 97.953025 
712.000000	 97.948260 
711.000000	 97.957080 
710.000000	 97.978874 
709.000000	 97.997964 
708.000000	 98.001244 
707.000000	 97.989550 
706.000000	 97.969021 
705.000000	 97.941970 
704.000000	 97.911738 
703.000000	 97.886675 
702.000000	 97.870824 
701.000000	 97.856634 
700.000000	 97.832679 
699.000000	 97.792995 
698.000000	 97.737886 
697.000000	 97.674215 
696.000000	 97.617195 
695.000000	 97.582712 
694.000000	 97.573031 
693.000000	 97.578405 
692.000000	 97.594157 
691.000000	 97.623720 
690.000000	 97.663790 
689.000000	 97.701316 
688.000000	 97.730562 
687.000000	 97.758674 
686.000000	 97.786403 
685.000000	 97.800662 
684.000000	 97.796240 
683.000000	 97.788036 
682.000000	 97.791627 
681.000000	 97.804902 
680.000000	 97.817569 
679.000000	 97.825766 
678.000000	 97.828438 
677.000000	 97.824366 
676.000000	 97.821973 
675.000000	 97.834577 
674.000000	 97.859604 
673.000000	 97.875462 
672.000000	 97.866973 
671.000000	 97.842445 
670.000000	 97.821123 
669.000000	 97.816644 
668.000000	 97.831891 
667.000000	 97.858238 
666.000000	 97.878089 
665.000000	 97.881820 
664.000000	 97.879581 
663.000000	 97.894779 
662.000000	 97.933526 
661.000000	 97.965869 
660.000000	 97.958125 
659.000000	 97.913663 
658.000000	 97.864583 
657.000000	 97.831727 
656.000000	 97.811742 
655.000000	 97.796766 
654.000000	 97.788519 
653.000000	 97.790970 
652.000000	 97.801884 
651.000000	 97.814454 
650.000000	 97.819086 

