4000.000000	99.621797 
3999.000000	99.620902 
3998.000000	99.620318 
3997.000000	99.620633 
3996.000000	99.621784 
3995.000000	99.623079 
3994.000000	99.623935 
3993.000000	99.624281 
3992.000000	99.624273 
3991.000000	99.623911 
3990.000000	99.623028 
3989.000000	99.621576 
3988.000000	99.619872 
3987.000000	99.618500 
3986.000000	99.617932 
3985.000000	99.618220 
3984.000000	99.618955 
3983.000000	99.619655 
3982.000000	99.620237 
3981.000000	99.621011 
3980.000000	99.622202 
3979.000000	99.623607 
3978.000000	99.624743 
3977.000000	99.625258 
3976.000000	99.625094 
3975.000000	99.624315 
3974.000000	99.622964 
3973.000000	99.621181 
3972.000000	99.619392 
3971.000000	99.618243 
3970.000000	99.618215 
3969.000000	99.619278 
3968.000000	99.620859 
3967.000000	99.622172 
3966.000000	99.622729 
3965.000000	99.622541 
3964.000000	99.621980 
3963.000000	99.621546 
3962.000000	99.621578 
3961.000000	99.622020 
3960.000000	99.622388 
3959.000000	99.622135 
3958.000000	99.621174 
3957.000000	99.619987 
3956.000000	99.619211 
3955.000000	99.619054 
3954.000000	99.619252 
3953.000000	99.619447 
3952.000000	99.619515 
3951.000000	99.619513 
3950.000000	99.619414 
3949.000000	99.619042 
3948.000000	99.618346 
3947.000000	99.617653 
3946.000000	99.617427 
3945.000000	99.617740 
3944.000000	99.618064 
3943.000000	99.617693 
3942.000000	99.616441 
3941.000000	99.614870 
3940.000000	99.613676 
3939.000000	99.613108 
3938.000000	99.613092 
3937.000000	99.613500 
3936.000000	99.614181 
3935.000000	99.614878 
3934.000000	99.615421 
3933.000000	99.615915 
3932.000000	99.616544 
3931.000000	99.617277 
3930.000000	99.617853 
3929.000000	99.618043 
3928.000000	99.617812 
3927.000000	99.617157 
3926.000000	99.616165 
3925.000000	99.615178 
3924.000000	99.614765 
3923.000000	99.615045 
3922.000000	99.615288 
3921.000000	99.614769 
3920.000000	99.613700 
3919.000000	99.612797 
3918.000000	99.612308 
3917.000000	99.611937 
3916.000000	99.611577 
3915.000000	99.611479 
3914.000000	99.611716 
3913.000000	99.611984 
3912.000000	99.611997 
3911.000000	99.611763 
3910.000000	99.611563 
3909.000000	99.611680 
3908.000000	99.612269 
3907.000000	99.613192 
3906.000000	99.614111 
3905.000000	99.614702 
3904.000000	99.614908 
3903.000000	99.614956 
3902.000000	99.614987 
3901.000000	99.614859 
3900.000000	99.614490 
3899.000000	99.614049 
3898.000000	99.613761 
3897.000000	99.613671 
3896.000000	99.613703 
3895.000000	99.613792 
3894.000000	99.613911 
3893.000000	99.614020 
3892.000000	99.614094 
3891.000000	99.614151 
3890.000000	99.614215 
3889.000000	99.614285 
3888.000000	99.614357 
3887.000000	99.614428 
3886.000000	99.614500 
3885.000000	99.614578 
3884.000000	99.614667 
3883.000000	99.614763 
3882.000000	99.614859 
3881.000000	99.614955 
3880.000000	99.615060 
3879.000000	99.615191 
3878.000000	99.615355 
3877.000000	99.615543 
3876.000000	99.615741 
3875.000000	99.615936 
3874.000000	99.616119 
3873.000000	99.616287 
3872.000000	99.616436 
3871.000000	99.616566 
3870.000000	99.616683 
3869.000000	99.616800 
3868.000000	99.616926 
3867.000000	99.617054 
3866.000000	99.617171 
3865.000000	99.617276 
3864.000000	99.617377 
3863.000000	99.617484 
3862.000000	99.617599 
3861.000000	99.617728 
3860.000000	99.617874 
3859.000000	99.618040 
3858.000000	99.618217 
3857.000000	99.618393 
3856.000000	99.618584 
3855.000000	99.618839 
3854.000000	99.619152 
3853.000000	99.619420 
3852.000000	99.619675 
3851.000000	99.620023 
3850.000000	99.620356 
3849.000000	99.620516 
3848.000000	99.620526 
3847.000000	99.620532 
3846.000000	99.620620 
3845.000000	99.620788 
3844.000000	99.621033 
3843.000000	99.621378 
3842.000000	99.621839 
3841.000000	99.622358 
3840.000000	99.622824 
3839.000000	99.623146 
3838.000000	99.623317 
3837.000000	99.623346 
3836.000000	99.623213 
3835.000000	99.622803 
3834.000000	99.622027 
3833.000000	99.621005 
3832.000000	99.620065 
3831.000000	99.619563 
3830.000000	99.619659 
3829.000000	99.620081 
3828.000000	99.620269 
3827.000000	99.619909 
3826.000000	99.619370 
3825.000000	99.619424 
3824.000000	99.620417 
3823.000000	99.621867 
3822.000000	99.622732 
3821.000000	99.622261 
3820.000000	99.621466 
3819.000000	99.621687 
3818.000000	99.622004 
3817.000000	99.621027 
3816.000000	99.618811 
3815.000000	99.616740 
3814.000000	99.615858 
3813.000000	99.615291 
3812.000000	99.613802 
3811.000000	99.611904 
3810.000000	99.610941 
3809.000000	99.611304 
3808.000000	99.612116 
3807.000000	99.612434 
3806.000000	99.612769 
3805.000000	99.614031 
3804.000000	99.615430 
3803.000000	99.615556 
3802.000000	99.614075 
3801.000000	99.611823 
3800.000000	99.610707 
3799.000000	99.610800 
3798.000000	99.609765 
3797.000000	99.606663 
3796.000000	99.602964 
3795.000000	99.600640 
3794.000000	99.600243 
3793.000000	99.600958 
3792.000000	99.601865 
3791.000000	99.602717 
3790.000000	99.603437 
3789.000000	99.604020 
3788.000000	99.604830 
3787.000000	99.606293 
3786.000000	99.608187 
3785.000000	99.609774 
3784.000000	99.610786 
3783.000000	99.611583 
3782.000000	99.612255 
3781.000000	99.612246 
3780.000000	99.611098 
3779.000000	99.609134 
3778.000000	99.607374 
3777.000000	99.606395 
3776.000000	99.605930 
3775.000000	99.605742 
3774.000000	99.606240 
3773.000000	99.607705 
3772.000000	99.609559 
3771.000000	99.610761 
3770.000000	99.610925 
3769.000000	99.610751 
3768.000000	99.611029 
3767.000000	99.611586 
3766.000000	99.611908 
3765.000000	99.612109 
3764.000000	99.612786 
3763.000000	99.614152 
3762.000000	99.615745 
3761.000000	99.617084 
3760.000000	99.618073 
3759.000000	99.618640 
3758.000000	99.618677 
3757.000000	99.618303 
3756.000000	99.617977 
3755.000000	99.618105 
3754.000000	99.618844 
3753.000000	99.620212 
3752.000000	99.621848 
3751.000000	99.622741 
3750.000000	99.622206 
3749.000000	99.620944 
3748.000000	99.619982 
3747.000000	99.619221 
3746.000000	99.618121 
3745.000000	99.616466 
3744.000000	99.614794 
3743.000000	99.614872 
3742.000000	99.616824 
3741.000000	99.618064 
3740.000000	99.617573 
3739.000000	99.616886 
3738.000000	99.617517 
3737.000000	99.619142 
3736.000000	99.620236 
3735.000000	99.619726 
3734.000000	99.617460 
3733.000000	99.613836 
3732.000000	99.609993 
3731.000000	99.607602 
3730.000000	99.607132 
3729.000000	99.607233 
3728.000000	99.606513 
3727.000000	99.605267 
3726.000000	99.604832 
3725.000000	99.605639 
3724.000000	99.606257 
3723.000000	99.605007 
3722.000000	99.601871 
3721.000000	99.598302 
3720.000000	99.595495 
3719.000000	99.593293 
3718.000000	99.590944 
3717.000000	99.588048 
3716.000000	99.584844 
3715.000000	99.581679 
3714.000000	99.578886 
3713.000000	99.576809 
3712.000000	99.574896 
3711.000000	99.571942 
3710.000000	99.567896 
3709.000000	99.563731 
3708.000000	99.560058 
3707.000000	99.556678 
3706.000000	99.553011 
3705.000000	99.548563 
3704.000000	99.543205 
3703.000000	99.537283 
3702.000000	99.531414 
3701.000000	99.526540 
3700.000000	99.523641 
3699.000000	99.522025 
3698.000000	99.519322 
3697.000000	99.514263 
3696.000000	99.508385 
3695.000000	99.504357 
3694.000000	99.503048 
3693.000000	99.503502 
3692.000000	99.504639 
3691.000000	99.505275 
3690.000000	99.503245 
3689.000000	99.496913 
3688.000000	99.489011 
3687.000000	99.484451 
3686.000000	99.483517 
3685.000000	99.482564 
3684.000000	99.480044 
3683.000000	99.477639 
3682.000000	99.476689 
3681.000000	99.476011 
3680.000000	99.473756 
3679.000000	99.470262 
3678.000000	99.466998 
3677.000000	99.464141 
3676.000000	99.459907 
3675.000000	99.455374 
3674.000000	99.456613 
3673.000000	99.463834 
3672.000000	99.469566 
3671.000000	99.470072 
3670.000000	99.466736 
3669.000000	99.462197 
3668.000000	99.458833 
3667.000000	99.455835 
3666.000000	99.451707 
3665.000000	99.447836 
3664.000000	99.446573 
3663.000000	99.448566 
3662.000000	99.452576 
3661.000000	99.456982 
3660.000000	99.461160 
3659.000000	99.465288 
3658.000000	99.469197 
3657.000000	99.472330 
3656.000000	99.475039 
3655.000000	99.479865 
3654.000000	99.487766 
3653.000000	99.496315 
3652.000000	99.504057 
3651.000000	99.511615 
3650.000000	99.517264 
3649.000000	99.517147 
3648.000000	99.511678 
3647.000000	99.506025 
3646.000000	99.504157 
3645.000000	99.505943 
3644.000000	99.509199 
3643.000000	99.512327 
3642.000000	99.515224 
3641.000000	99.518431 
3640.000000	99.522425 
3639.000000	99.527505 
3638.000000	99.533913 
3637.000000	99.541245 
3636.000000	99.547656 
3635.000000	99.550997 
3634.000000	99.551134 
3633.000000	99.550436 
3632.000000	99.551227 
3631.000000	99.553867 
3630.000000	99.556744 
3629.000000	99.557143 
3628.000000	99.555568 
3627.000000	99.556076 
3626.000000	99.558729 
3625.000000	99.560901 
3624.000000	99.562405 
3623.000000	99.564203 
3622.000000	99.566241 
3621.000000	99.567707 
3620.000000	99.568229 
3619.000000	99.568402 
3618.000000	99.569516 
3617.000000	99.572238 
3616.000000	99.575654 
3615.000000	99.578147 
3614.000000	99.578797 
3613.000000	99.577868 
3612.000000	99.576439 
3611.000000	99.575454 
3610.000000	99.575130 
3609.000000	99.575298 
3608.000000	99.575758 
3607.000000	99.576413 
3606.000000	99.577225 
3605.000000	99.578168 
3604.000000	99.579342 
3603.000000	99.580775 
3602.000000	99.582174 
3601.000000	99.583245 
3600.000000	99.584113 
3599.000000	99.585085 
3598.000000	99.586019 
3597.000000	99.586415 
3596.000000	99.585924 
3595.000000	99.584715 
3594.000000	99.583410 
3593.000000	99.582819 
3592.000000	99.583364 
3591.000000	99.584879 
3590.000000	99.586706 
3589.000000	99.587870 
3588.000000	99.587485 
3587.000000	99.585530 
3586.000000	99.583137 
3585.000000	99.581486 
3584.000000	99.580767 
3583.000000	99.580660 
3582.000000	99.580844 
3581.000000	99.581021 
3580.000000	99.580851 
3579.000000	99.580134 
3578.000000	99.578942 
3577.000000	99.577657 
3576.000000	99.576780 
3575.000000	99.576638 
3574.000000	99.577182 
3573.000000	99.578064 
3572.000000	99.578964 
3571.000000	99.579723 
3570.000000	99.580321 
3569.000000	99.580738 
3568.000000	99.580846 
3567.000000	99.580580 
3566.000000	99.580266 
3565.000000	99.580302 
3564.000000	99.580501 
3563.000000	99.580373 
3562.000000	99.579778 
3561.000000	99.578988 
3560.000000	99.578288 
3559.000000	99.577699 
3558.000000	99.577119 
3557.000000	99.576628 
3556.000000	99.576549 
3555.000000	99.577087 
3554.000000	99.577992 
3553.000000	99.578669 
3552.000000	99.578754 
3551.000000	99.578413 
3550.000000	99.577982 
3549.000000	99.577597 
3548.000000	99.577310 
3547.000000	99.577303 
3546.000000	99.577693 
3545.000000	99.578276 
3544.000000	99.578658 
3543.000000	99.578581 
3542.000000	99.578088 
3541.000000	99.577470 
3540.000000	99.577076 
3539.000000	99.577080 
3538.000000	99.577388 
3537.000000	99.577725 
3536.000000	99.577851 
3535.000000	99.577713 
3534.000000	99.577397 
3533.000000	99.577058 
3532.000000	99.576851 
3531.000000	99.576878 
3530.000000	99.577079 
3529.000000	99.577273 
3528.000000	99.577374 
3527.000000	99.577516 
3526.000000	99.577817 
3525.000000	99.578094 
3524.000000	99.577978 
3523.000000	99.577320 
3522.000000	99.576334 
3521.000000	99.575329 
3520.000000	99.574408 
3519.000000	99.573539 
3518.000000	99.572775 
3517.000000	99.572285 
3516.000000	99.572180 
3515.000000	99.572434 
3514.000000	99.572942 
3513.000000	99.573556 
3512.000000	99.574014 
3511.000000	99.574005 
3510.000000	99.573406 
3509.000000	99.572458 
3508.000000	99.571636 
3507.000000	99.571250 
3506.000000	99.571225 
3505.000000	99.571188 
3504.000000	99.570760 
3503.000000	99.569858 
3502.000000	99.568806 
3501.000000	99.568109 
3500.000000	99.568005 
3499.000000	99.568279 
3498.000000	99.568426 
3497.000000	99.568079 
3496.000000	99.567258 
3495.000000	99.566251 
3494.000000	99.565332 
3493.000000	99.564598 
3492.000000	99.564071 
3491.000000	99.563809 
3490.000000	99.563868 
3489.000000	99.564193 
3488.000000	99.564615 
3487.000000	99.564948 
3486.000000	99.565097 
3485.000000	99.565088 
3484.000000	99.565041 
3483.000000	99.565075 
3482.000000	99.565179 
3481.000000	99.565176 
3480.000000	99.564888 
3479.000000	99.564358 
3478.000000	99.563859 
3477.000000	99.563614 
3476.000000	99.563535 
3475.000000	99.563333 
3474.000000	99.562911 
3473.000000	99.562531 
3472.000000	99.562523 
3471.000000	99.562908 
3470.000000	99.563403 
3469.000000	99.563722 
3468.000000	99.563776 
3467.000000	99.563592 
3466.000000	99.563218 
3465.000000	99.562764 
3464.000000	99.562441 
3463.000000	99.562430 
3462.000000	99.562706 
3461.000000	99.563048 
3460.000000	99.563229 
3459.000000	99.563201 
3458.000000	99.563101 
3457.000000	99.563076 
3456.000000	99.563129 
3455.000000	99.563157 
3454.000000	99.563134 
3453.000000	99.563176 
3452.000000	99.563401 
3451.000000	99.563782 
3450.000000	99.564172 
3449.000000	99.564428 
3448.000000	99.564492 
3447.000000	99.564389 
3446.000000	99.564198 
3445.000000	99.564028 
3444.000000	99.563960 
3443.000000	99.563989 
3442.000000	99.564032 
3441.000000	99.564012 
3440.000000	99.563946 
3439.000000	99.563901 
3438.000000	99.563907 
3437.000000	99.563910 
3436.000000	99.563839 
3435.000000	99.563698 
3434.000000	99.563577 
3433.000000	99.563575 
3432.000000	99.563690 
3431.000000	99.563803 
3430.000000	99.563776 
3429.000000	99.563570 
3428.000000	99.563270 
3427.000000	99.562998 
3426.000000	99.562828 
3425.000000	99.562797 
3424.000000	99.562936 
3423.000000	99.563247 
3422.000000	99.563625 
3421.000000	99.563863 
3420.000000	99.563781 
3419.000000	99.563363 
3418.000000	99.562819 
3417.000000	99.562489 
3416.000000	99.562559 
3415.000000	99.562902 
3414.000000	99.563154 
3413.000000	99.563077 
3412.000000	99.562780 
3411.000000	99.562581 
3410.000000	99.562681 
3409.000000	99.563047 
3408.000000	99.563519 
3407.000000	99.563950 
3406.000000	99.564229 
3405.000000	99.564282 
3404.000000	99.564138 
3403.000000	99.563973 
3402.000000	99.564043 
3401.000000	99.564505 
3400.000000	99.565254 
3399.000000	99.565952 
3398.000000	99.566308 
3397.000000	99.566362 
3396.000000	99.566432 
3395.000000	99.566733 
3394.000000	99.567127 
3393.000000	99.567314 
3392.000000	99.567176 
3391.000000	99.566815 
3390.000000	99.566361 
3389.000000	99.565868 
3388.000000	99.565388 
3387.000000	99.565006 
3386.000000	99.564779 
3385.000000	99.564712 
3384.000000	99.564797 
3383.000000	99.565051 
3382.000000	99.565491 
3381.000000	99.566058 
3380.000000	99.566546 
3379.000000	99.566669 
3378.000000	99.566313 
3377.000000	99.565725 
3376.000000	99.565377 
3375.000000	99.565535 
3374.000000	99.566097 
3373.000000	99.566767 
3372.000000	99.567301 
3371.000000	99.567572 
3370.000000	99.567543 
3369.000000	99.567323 
3368.000000	99.567137 
3367.000000	99.567096 
3366.000000	99.567042 
3365.000000	99.566740 
3364.000000	99.566229 
3363.000000	99.565851 
3362.000000	99.565917 
3361.000000	99.566391 
3360.000000	99.566920 
3359.000000	99.567126 
3358.000000	99.566897 
3357.000000	99.566454 
3356.000000	99.566160 
3355.000000	99.566206 
3354.000000	99.566486 
3353.000000	99.566784 
3352.000000	99.567028 
3351.000000	99.567309 
3350.000000	99.567727 
3349.000000	99.568293 
3348.000000	99.568949 
3347.000000	99.569573 
3346.000000	99.570001 
3345.000000	99.570136 
3344.000000	99.570038 
3343.000000	99.569878 
3342.000000	99.569787 
3341.000000	99.569791 
3340.000000	99.569870 
3339.000000	99.569991 
3338.000000	99.570065 
3337.000000	99.569980 
3336.000000	99.569728 
3335.000000	99.569470 
3334.000000	99.569435 
3333.000000	99.569706 
3332.000000	99.570174 
3331.000000	99.570627 
3330.000000	99.570938 
3329.000000	99.571144 
3328.000000	99.571350 
3327.000000	99.571611 
3326.000000	99.571884 
3325.000000	99.572091 
3324.000000	99.572222 
3323.000000	99.572339 
3322.000000	99.572501 
3321.000000	99.572698 
3320.000000	99.572869 
3319.000000	99.572972 
3318.000000	99.573025 
3317.000000	99.573080 
3316.000000	99.573178 
3315.000000	99.573313 
3314.000000	99.573455 
3313.000000	99.573572 
3312.000000	99.573658 
3311.000000	99.573724 
3310.000000	99.573783 
3309.000000	99.573841 
3308.000000	99.573898 
3307.000000	99.573951 
3306.000000	99.573993 
3305.000000	99.574015 
3304.000000	99.574008 
3303.000000	99.573969 
3302.000000	99.573912 
3301.000000	99.573891 
3300.000000	99.573968 
3299.000000	99.574171 
3298.000000	99.574434 
3297.000000	99.574654 
3296.000000	99.574788 
3295.000000	99.574871 
3294.000000	99.574964 
3293.000000	99.575087 
3292.000000	99.575218 
3291.000000	99.575297 
3290.000000	99.575269 
3289.000000	99.575128 
3288.000000	99.574927 
3287.000000	99.574728 
3286.000000	99.574555 
3285.000000	99.574413 
3284.000000	99.574317 
3283.000000	99.574254 
3282.000000	99.574176 
3281.000000	99.574054 
3280.000000	99.573915 
3279.000000	99.573779 
3278.000000	99.573622 
3277.000000	99.573456 
3276.000000	99.573404 
3275.000000	99.573587 
3274.000000	99.573955 
3273.000000	99.574282 
3272.000000	99.574320 
3271.000000	99.573951 
3270.000000	99.573251 
3269.000000	99.572509 
3268.000000	99.572102 
3267.000000	99.572257 
3266.000000	99.572895 
3265.000000	99.573699 
3264.000000	99.574373 
3263.000000	99.574822 
3262.000000	99.575112 
3261.000000	99.575339 
3260.000000	99.575520 
3259.000000	99.575555 
3258.000000	99.575310 
3257.000000	99.574762 
3256.000000	99.574053 
3255.000000	99.573406 
3254.000000	99.573014 
3253.000000	99.572966 
3252.000000	99.573227 
3251.000000	99.573629 
3250.000000	99.573947 
3249.000000	99.574052 
3248.000000	99.573980 
3247.000000	99.573823 
3246.000000	99.573600 
3245.000000	99.573266 
3244.000000	99.572866 
3243.000000	99.572595 
3242.000000	99.572669 
3241.000000	99.573168 
3240.000000	99.573955 
3239.000000	99.574706 
3238.000000	99.575086 
3237.000000	99.574957 
3236.000000	99.574450 
3235.000000	99.573870 
3234.000000	99.573472 
3233.000000	99.573351 
3232.000000	99.573496 
3231.000000	99.573831 
3230.000000	99.574194 
3229.000000	99.574347 
3228.000000	99.574102 
3227.000000	99.573469 
3226.000000	99.572687 
3225.000000	99.572114 
3224.000000	99.572027 
3223.000000	99.572484 
3222.000000	99.573297 
3221.000000	99.574136 
3220.000000	99.574728 
3219.000000	99.574993 
3218.000000	99.575016 
3217.000000	99.574902 
3216.000000	99.574675 
3215.000000	99.574327 
3214.000000	99.573934 
3213.000000	99.573646 
3212.000000	99.573571 
3211.000000	99.573743 
3210.000000	99.574231 
3209.000000	99.575139 
3208.000000	99.576360 
3207.000000	99.577458 
3206.000000	99.578006 
3205.000000	99.578036 
3204.000000	99.578017 
3203.000000	99.578338 
3202.000000	99.578987 
3201.000000	99.579771 
3200.000000	99.580600 
3199.000000	99.581353 
3198.000000	99.581725 
3197.000000	99.581512 
3196.000000	99.580975 
3195.000000	99.580613 
3194.000000	99.580537 
3193.000000	99.580326 
3192.000000	99.579637 
3191.000000	99.578785 
3190.000000	99.578526 
3189.000000	99.579298 
3188.000000	99.580790 
3187.000000	99.582184 
3186.000000	99.582814 
3185.000000	99.582603 
3184.000000	99.581936 
3183.000000	99.581267 
3182.000000	99.580837 
3181.000000	99.580688 
3180.000000	99.580775 
3179.000000	99.580989 
3178.000000	99.581138 
3177.000000	99.581006 
3176.000000	99.580488 
3175.000000	99.579764 
3174.000000	99.579333 
3173.000000	99.579734 
3172.000000	99.581069 
3171.000000	99.582812 
3170.000000	99.584163 
3169.000000	99.584766 
3168.000000	99.584918 
3167.000000	99.585132 
3166.000000	99.585600 
3165.000000	99.586112 
3164.000000	99.586421 
3163.000000	99.586538 
3162.000000	99.586667 
3161.000000	99.586970 
3160.000000	99.587454 
3159.000000	99.587968 
3158.000000	99.588313 
3157.000000	99.588393 
3156.000000	99.588305 
3155.000000	99.588245 
3154.000000	99.588340 
3153.000000	99.588598 
3152.000000	99.589000 
3151.000000	99.589508 
3150.000000	99.589969 
3149.000000	99.590174 
3148.000000	99.590130 
3147.000000	99.590166 
3146.000000	99.590590 
3145.000000	99.591276 
3144.000000	99.591742 
3143.000000	99.591736 
3142.000000	99.591602 
3141.000000	99.591935 
3140.000000	99.592899 
3139.000000	99.594010 
3138.000000	99.594621 
3137.000000	99.594551 
3136.000000	99.594160 
3135.000000	99.593923 
3134.000000	99.593967 
3133.000000	99.594083 
3132.000000	99.594039 
3131.000000	99.593798 
3130.000000	99.593483 
3129.000000	99.593209 
3128.000000	99.593007 
3127.000000	99.592892 
3126.000000	99.592958 
3125.000000	99.593350 
3124.000000	99.594132 
3123.000000	99.595156 
3122.000000	99.596114 
3121.000000	99.596829 
3120.000000	99.597446 
3119.000000	99.598207 
3118.000000	99.598984 
3117.000000	99.599238 
3116.000000	99.598602 
3115.000000	99.597349 
3114.000000	99.596180 
3113.000000	99.595533 
3112.000000	99.595306 
3111.000000	99.595247 
3110.000000	99.595341 
3109.000000	99.595680 
3108.000000	99.596101 
3107.000000	99.596226 
3106.000000	99.595877 
3105.000000	99.595306 
3104.000000	99.594978 
3103.000000	99.595183 
3102.000000	99.595903 
3101.000000	99.596897 
3100.000000	99.597809 
3099.000000	99.598317 
3098.000000	99.598311 
3097.000000	99.597958 
3096.000000	99.597619 
3095.000000	99.597588 
3094.000000	99.597928 
3093.000000	99.598492 
3092.000000	99.599036 
3091.000000	99.599312 
3090.000000	99.599135 
3089.000000	99.598534 
3088.000000	99.597894 
3087.000000	99.597777 
3086.000000	99.598416 
3085.000000	99.599389 
3084.000000	99.599965 
3083.000000	99.599857 
3082.000000	99.599538 
3081.000000	99.599711 
3080.000000	99.600474 
3079.000000	99.601126 
3078.000000	99.600793 
3077.000000	99.599144 
3076.000000	99.596613 
3075.000000	99.594182 
3074.000000	99.592860 
3073.000000	99.593073 
3072.000000	99.594415 
3071.000000	99.596232 
3070.000000	99.598370 
3069.000000	99.600828 
3068.000000	99.602592 
3067.000000	99.601730 
3066.000000	99.597490 
3065.000000	99.591933 
3064.000000	99.588436 
3063.000000	99.588369 
3062.000000	99.590082 
3061.000000	99.591245 
3060.000000	99.591391 
3059.000000	99.591786 
3058.000000	99.593445 
3057.000000	99.595893 
3056.000000	99.597667 
3055.000000	99.597729 
3054.000000	99.596404 
3053.000000	99.594980 
3052.000000	99.594281 
3051.000000	99.593733 
3050.000000	99.592123 
3049.000000	99.589031 
3048.000000	99.584967 
3047.000000	99.580323 
3046.000000	99.575190 
3045.000000	99.570326 
3044.000000	99.567158 
3043.000000	99.566133 
3042.000000	99.565696 
3041.000000	99.563566 
3040.000000	99.558793 
3039.000000	99.552308 
3038.000000	99.546021 
3037.000000	99.541681 
3036.000000	99.539866 
3035.000000	99.539329 
3034.000000	99.537711 
3033.000000	99.533479 
3032.000000	99.526936 
3031.000000	99.519300 
3030.000000	99.511145 
3029.000000	99.502114 
3028.000000	99.491982 
3027.000000	99.481388 
3026.000000	99.471436 
3025.000000	99.462814 
3024.000000	99.455146 
3023.000000	99.446942 
3022.000000	99.436486 
3021.000000	99.423281 
3020.000000	99.408723 
3019.000000	99.395135 
3018.000000	99.384110 
3017.000000	99.375702 
3016.000000	99.368647 
3015.000000	99.361056 
3014.000000	99.351341 
3013.000000	99.338967 
3012.000000	99.324171 
3011.000000	99.306886 
3010.000000	99.286713 
3009.000000	99.264516 
3008.000000	99.243336 
3007.000000	99.226583 
3006.000000	99.215179 
3005.000000	99.206853 
3004.000000	99.197972 
3003.000000	99.185663 
3002.000000	99.168939 
3001.000000	99.149245 
3000.000000	99.130080 
2999.000000	99.114787 
2998.000000	99.104077 
2997.000000	99.096316 
2996.000000	99.090173 
2995.000000	99.085425 
2994.000000	99.080235 
2993.000000	99.069419 
2992.000000	99.048226 
2991.000000	99.018471 
2990.000000	98.989272 
2989.000000	98.970142 
2988.000000	98.963786 
2987.000000	98.965920 
2986.000000	98.970739 
2985.000000	98.975650 
2984.000000	98.980937 
2983.000000	98.986620 
2982.000000	98.991097 
2981.000000	98.992566 
2980.000000	98.990906 
2979.000000	98.987827 
2978.000000	98.985375 
2977.000000	98.984293 
2976.000000	98.983517 
2975.000000	98.981219 
2974.000000	98.976612 
2973.000000	98.970908 
2972.000000	98.966449 
2971.000000	98.964969 
2970.000000	98.966829 
2969.000000	98.971717 
2968.000000	98.979453 
2967.000000	98.989787 
2966.000000	99.001754 
2965.000000	99.013819 
2964.000000	99.024865 
2963.000000	99.034864 
2962.000000	99.044436 
2961.000000	99.053847 
2960.000000	99.062641 
2959.000000	99.070323 
2958.000000	99.077212 
2957.000000	99.084245 
2956.000000	99.091683 
2955.000000	99.098275 
2954.000000	99.102338 
2953.000000	99.104139 
2952.000000	99.106892 
2951.000000	99.114532 
2950.000000	99.127756 
2949.000000	99.142346 
2948.000000	99.152185 
2947.000000	99.154322 
2946.000000	99.151079 
2945.000000	99.147530 
2944.000000	99.147083 
2943.000000	99.149729 
2942.000000	99.153822 
2941.000000	99.158035 
2940.000000	99.161338 
2939.000000	99.162533 
2938.000000	99.161042 
2937.000000	99.157861 
2936.000000	99.154984 
2935.000000	99.153931 
2934.000000	99.155128 
2933.000000	99.158157 
2932.000000	99.161713 
2931.000000	99.163587 
2930.000000	99.161772 
2929.000000	99.156083 
2928.000000	99.148467 
2927.000000	99.141648 
2926.000000	99.137635 
2925.000000	99.137009 
2924.000000	99.138787 
2923.000000	99.140899 
2922.000000	99.141645 
2921.000000	99.141016 
2920.000000	99.140097 
2919.000000	99.139277 
2918.000000	99.137823 
2917.000000	99.135300 
2916.000000	99.132421 
2915.000000	99.130059 
2914.000000	99.128289 
2913.000000	99.127000 
2912.000000	99.126630 
2911.000000	99.127265 
2910.000000	99.127388 
2909.000000	99.124617 
2908.000000	99.118040 
2907.000000	99.109295 
2906.000000	99.101036 
2905.000000	99.094464 
2904.000000	99.088546 
2903.000000	99.081812 
2902.000000	99.075148 
2901.000000	99.072381 
2900.000000	99.077372 
2899.000000	99.090272 
2898.000000	99.106630 
2897.000000	99.120691 
2896.000000	99.129679 
2895.000000	99.134744 
2894.000000	99.138453 
2893.000000	99.142237 
2892.000000	99.146046 
2891.000000	99.149449 
2890.000000	99.152443 
2889.000000	99.155342 
2888.000000	99.158270 
2887.000000	99.161028 
2886.000000	99.163604 
2885.000000	99.166728 
2884.000000	99.171532 
2883.000000	99.178459 
2882.000000	99.186801 
2881.000000	99.195610 
2880.000000	99.204827 
2879.000000	99.215181 
2878.000000	99.227052 
2877.000000	99.239620 
2876.000000	99.251030 
2875.000000	99.259321 
2874.000000	99.263646 
2873.000000	99.265131 
2872.000000	99.266540 
2871.000000	99.270542 
2870.000000	99.277980 
2869.000000	99.287691 
2868.000000	99.297826 
2867.000000	99.307329 
2866.000000	99.316461 
2865.000000	99.326229 
2864.000000	99.337195 
2863.000000	99.348553 
2862.000000	99.358525 
2861.000000	99.366027 
2860.000000	99.371955 
2859.000000	99.378505 
2858.000000	99.387065 
2857.000000	99.396970 
2856.000000	99.406368 
2855.000000	99.414133 
2854.000000	99.420740 
2853.000000	99.427437 
2852.000000	99.434779 
2851.000000	99.442183 
2850.000000	99.448964 
2849.000000	99.455408 
2848.000000	99.462346 
2847.000000	99.469744 
2846.000000	99.476223 
2845.000000	99.480282 
2844.000000	99.481882 
2843.000000	99.482750 
2842.000000	99.485270 
2841.000000	99.490839 
2840.000000	99.498774 
2839.000000	99.506525 
2838.000000	99.511338 
2837.000000	99.512190 
2836.000000	99.510410 
2835.000000	99.508688 
2834.000000	99.509441 
2833.000000	99.513658 
2832.000000	99.520461 
2831.000000	99.527524 
2830.000000	99.532594 
2829.000000	99.535126 
2828.000000	99.536361 
2827.000000	99.537737 
2826.000000	99.539519 
2825.000000	99.541127 
2824.000000	99.542285 
2823.000000	99.543458 
2822.000000	99.545445 
2821.000000	99.548756 
2820.000000	99.552984 
2819.000000	99.556660 
2818.000000	99.558317 
2817.000000	99.558040 
2816.000000	99.557481 
2815.000000	99.557990 
2814.000000	99.559285 
2813.000000	99.560368 
2812.000000	99.561012 
2811.000000	99.561587 
2810.000000	99.562038 
2809.000000	99.562032 
2808.000000	99.561855 
2807.000000	99.562201 
2806.000000	99.563126 
2805.000000	99.564023 
2804.000000	99.564714 
2803.000000	99.565802 
2802.000000	99.567719 
2801.000000	99.570022 
2800.000000	99.571908 
2799.000000	99.573022 
2798.000000	99.573559 
2797.000000	99.573842 
2796.000000	99.573978 
2795.000000	99.573802 
2794.000000	99.573144 
2793.000000	99.572244 
2792.000000	99.571801 
2791.000000	99.572407 
2790.000000	99.573985 
2789.000000	99.576055 
2788.000000	99.578269 
2787.000000	99.580320 
2786.000000	99.581653 
2785.000000	99.581918 
2784.000000	99.581599 
2783.000000	99.581716 
2782.000000	99.582706 
2781.000000	99.584067 
2780.000000	99.585208 
2779.000000	99.586163 
2778.000000	99.587123 
2777.000000	99.587760 
2776.000000	99.587578 
2775.000000	99.586704 
2774.000000	99.585862 
2773.000000	99.585599 
2772.000000	99.585919 
2771.000000	99.586633 
2770.000000	99.587665 
2769.000000	99.589028 
2768.000000	99.590762 
2767.000000	99.592873 
2766.000000	99.595059 
2765.000000	99.596611 
2764.000000	99.596987 
2763.000000	99.596468 
2762.000000	99.595948 
2761.000000	99.596072 
2760.000000	99.596890 
2759.000000	99.598249 
2758.000000	99.599963 
2757.000000	99.601571 
2756.000000	99.602517 
2755.000000	99.602782 
2754.000000	99.602844 
2753.000000	99.602792 
2752.000000	99.602039 
2751.000000	99.600281 
2750.000000	99.598276 
2749.000000	99.597077 
2748.000000	99.596732 
2747.000000	99.596388 
2746.000000	99.595537 
2745.000000	99.594615 
2744.000000	99.594263 
2743.000000	99.594596 
2742.000000	99.595447 
2741.000000	99.596864 
2740.000000	99.598972 
2739.000000	99.601516 
2738.000000	99.603901 
2737.000000	99.605680 
2736.000000	99.606797 
2735.000000	99.607390 
2734.000000	99.607490 
2733.000000	99.606990 
2732.000000	99.605857 
2731.000000	99.604364 
2730.000000	99.603130 
2729.000000	99.602809 
2728.000000	99.603676 
2727.000000	99.605501 
2726.000000	99.607672 
2725.000000	99.609515 
2724.000000	99.610639 
2723.000000	99.611115 
2722.000000	99.611366 
2721.000000	99.611769 
2720.000000	99.612314 
2719.000000	99.612716 
2718.000000	99.612812 
2717.000000	99.612754 
2716.000000	99.612846 
2715.000000	99.613329 
2714.000000	99.614289 
2713.000000	99.615578 
2712.000000	99.616752 
2711.000000	99.617324 
2710.000000	99.617216 
2709.000000	99.616871 
2708.000000	99.616818 
2707.000000	99.617124 
2706.000000	99.617404 
2705.000000	99.617351 
2704.000000	99.617056 
2703.000000	99.616847 
2702.000000	99.616912 
2701.000000	99.617164 
2700.000000	99.617387 
2699.000000	99.617449 
2698.000000	99.617390 
2697.000000	99.617340 
2696.000000	99.617388 
2695.000000	99.617542 
2694.000000	99.617783 
2693.000000	99.618090 
2692.000000	99.618389 
2691.000000	99.618552 
2690.000000	99.618518 
2689.000000	99.618387 
2688.000000	99.618359 
2687.000000	99.618550 
2686.000000	99.618889 
2685.000000	99.619157 
2684.000000	99.619185 
2683.000000	99.618994 
2682.000000	99.618781 
2681.000000	99.618717 
2680.000000	99.618791 
2679.000000	99.618863 
2678.000000	99.618848 
2677.000000	99.618816 
2676.000000	99.618886 
2675.000000	99.619050 
2674.000000	99.619148 
2673.000000	99.619022 
2672.000000	99.618642 
2671.000000	99.618094 
2670.000000	99.617506 
2669.000000	99.616973 
2668.000000	99.616542 
2667.000000	99.616256 
2666.000000	99.616212 
2665.000000	99.616534 
2664.000000	99.617219 
2663.000000	99.618062 
2662.000000	99.618756 
2661.000000	99.619093 
2660.000000	99.619030 
2659.000000	99.618650 
2658.000000	99.618159 
2657.000000	99.617865 
2656.000000	99.617987 
2655.000000	99.618447 
2654.000000	99.618902 
2653.000000	99.619036 
2652.000000	99.618746 
2651.000000	99.618095 
2650.000000	99.617267 
2649.000000	99.616545 
2648.000000	99.616137 
2647.000000	99.615967 
2646.000000	99.615820 
2645.000000	99.615747 
2644.000000	99.616031 
2643.000000	99.616696 
2642.000000	99.617344 
2641.000000	99.617619 
2640.000000	99.617663 
2639.000000	99.617912 
2638.000000	99.618581 
2637.000000	99.619482 
2636.000000	99.620194 
2635.000000	99.620354 
2634.000000	99.619871 
2633.000000	99.619047 
2632.000000	99.618454 
2631.000000	99.618443 
2630.000000	99.618903 
2629.000000	99.619517 
2628.000000	99.620123 
2627.000000	99.620759 
2626.000000	99.621431 
2625.000000	99.622039 
2624.000000	99.622505 
2623.000000	99.622798 
2622.000000	99.622855 
2621.000000	99.622635 
2620.000000	99.622258 
2619.000000	99.621963 
2618.000000	99.621882 
2617.000000	99.621948 
2616.000000	99.622055 
2615.000000	99.622197 
2614.000000	99.622388 
2613.000000	99.622533 
2612.000000	99.622482 
2611.000000	99.622209 
2610.000000	99.621856 
2609.000000	99.621631 
2608.000000	99.621646 
2607.000000	99.621897 
2606.000000	99.622327 
2605.000000	99.622846 
2604.000000	99.623300 
2603.000000	99.623478 
2602.000000	99.623252 
2601.000000	99.622712 
2600.000000	99.622143 
2599.000000	99.621785 
2598.000000	99.621682 
2597.000000	99.621751 
2596.000000	99.621894 
2595.000000	99.621977 
2594.000000	99.621838 
2593.000000	99.621408 
2592.000000	99.620833 
2591.000000	99.620391 
2590.000000	99.620222 
2589.000000	99.620249 
2588.000000	99.620294 
2587.000000	99.620227 
2586.000000	99.619996 
2585.000000	99.619589 
2584.000000	99.619030 
2583.000000	99.618407 
2582.000000	99.617842 
2581.000000	99.617407 
2580.000000	99.617084 
2579.000000	99.616796 
2578.000000	99.616503 
2577.000000	99.616252 
2576.000000	99.616117 
2575.000000	99.616087 
2574.000000	99.616068 
2573.000000	99.615955 
2572.000000	99.615715 
2571.000000	99.615380 
2570.000000	99.615006 
2569.000000	99.614634 
2568.000000	99.614293 
2567.000000	99.614014 
2566.000000	99.613812 
2565.000000	99.613673 
2564.000000	99.613554 
2563.000000	99.613409 
2562.000000	99.613217 
2561.000000	99.612981 
2560.000000	99.612755 
2559.000000	99.612644 
2558.000000	99.612737 
2557.000000	99.612964 
2556.000000	99.613048 
2555.000000	99.612757 
2554.000000	99.612242 
2553.000000	99.612019 
2552.000000	99.612413 
2551.000000	99.613158 
2550.000000	99.613684 
2549.000000	99.613791 
2548.000000	99.613710 
2547.000000	99.613558 
2546.000000	99.613191 
2545.000000	99.612668 
2544.000000	99.612427 
2543.000000	99.612781 
2542.000000	99.613510 
2541.000000	99.614147 
2540.000000	99.614463 
2539.000000	99.614463 
2538.000000	99.614138 
2537.000000	99.613492 
2536.000000	99.612642 
2535.000000	99.611669 
2534.000000	99.610591 
2533.000000	99.609647 
2532.000000	99.609281 
2531.000000	99.609565 
2530.000000	99.610041 
2529.000000	99.610475 
2528.000000	99.611338 
2527.000000	99.613044 
2526.000000	99.615117 
2525.000000	99.616749 
2524.000000	99.617912 
2523.000000	99.619152 
2522.000000	99.620365 
2521.000000	99.620658 
2520.000000	99.619617 
2519.000000	99.617970 
2518.000000	99.616726 
2517.000000	99.616080 
2516.000000	99.615531 
2515.000000	99.614754 
2514.000000	99.614061 
2513.000000	99.614075 
2512.000000	99.614906 
2511.000000	99.615601 
2510.000000	99.614750 
2509.000000	99.612053 
2508.000000	99.609101 
2507.000000	99.607961 
2506.000000	99.608895 
2505.000000	99.610124 
2504.000000	99.609885 
2503.000000	99.608349 
2502.000000	99.607028 
2501.000000	99.606900 
2500.000000	99.607759 
2499.000000	99.609019 
2498.000000	99.610406 
2497.000000	99.611793 
2496.000000	99.612931 
2495.000000	99.613586 
2494.000000	99.613639 
2493.000000	99.612969 
2492.000000	99.611500 
2491.000000	99.609411 
2490.000000	99.607093 
2489.000000	99.604834 
2488.000000	99.602738 
2487.000000	99.601006 
2486.000000	99.600073 
2485.000000	99.600351 
2484.000000	99.601910 
2483.000000	99.604392 
2482.000000	99.607048 
2481.000000	99.608958 
2480.000000	99.609566 
2479.000000	99.609126 
2478.000000	99.608478 
2477.000000	99.608157 
2476.000000	99.607886 
2475.000000	99.607168 
2474.000000	99.606178 
2473.000000	99.605692 
2472.000000	99.606180 
2471.000000	99.607278 
2470.000000	99.608159 
2469.000000	99.608160 
2468.000000	99.606968 
2467.000000	99.604661 
2466.000000	99.601987 
2465.000000	99.600201 
2464.000000	99.600114 
2463.000000	99.601271 
2462.000000	99.602305 
2461.000000	99.602299 
2460.000000	99.601532 
2459.000000	99.600908 
2458.000000	99.600971 
2457.000000	99.601597 
2456.000000	99.602315 
2455.000000	99.602667 
2454.000000	99.602370 
2453.000000	99.601434 
2452.000000	99.600195 
2451.000000	99.599121 
2450.000000	99.598481 
2449.000000	99.598185 
2448.000000	99.597980 
2447.000000	99.597845 
2446.000000	99.598157 
2445.000000	99.599362 
2444.000000	99.601445 
2443.000000	99.603811 
2442.000000	99.605789 
2441.000000	99.607123 
2440.000000	99.607809 
2439.000000	99.607670 
2438.000000	99.606498 
2437.000000	99.604596 
2436.000000	99.602732 
2435.000000	99.601360 
2434.000000	99.600218 
2433.000000	99.598853 
2432.000000	99.597271 
2431.000000	99.595917 
2430.000000	99.595206 
2429.000000	99.595290 
2428.000000	99.596179 
2427.000000	99.597772 
2426.000000	99.599679 
2425.000000	99.601154 
2424.000000	99.601467 
2423.000000	99.600449 
2422.000000	99.598789 
2421.000000	99.597730 
2420.000000	99.598053 
2419.000000	99.599477 
2418.000000	99.600996 
2417.000000	99.601807 
2416.000000	99.601835 
2415.000000	99.601356 
2414.000000	99.600583 
2413.000000	99.599758 
2412.000000	99.599297 
2411.000000	99.599485 
2410.000000	99.600134 
2409.000000	99.600778 
2408.000000	99.601277 
2407.000000	99.601878 
2406.000000	99.602696 
2405.000000	99.603507 
2404.000000	99.604141 
2403.000000	99.604654 
2402.000000	99.605119 
2401.000000	99.605460 
2400.000000	99.605573 
2399.000000	99.605504 
2398.000000	99.605439 
2397.000000	99.605553 
2396.000000	99.605918 
2395.000000	99.606528 
2394.000000	99.607330 
2393.000000	99.608233 
2392.000000	99.609137 
2391.000000	99.609999 
2390.000000	99.610856 
2389.000000	99.611751 
2388.000000	99.612655 
2387.000000	99.613493 
2386.000000	99.614238 
2385.000000	99.614957 
2384.000000	99.615725 
2383.000000	99.616540 
2382.000000	99.617348 
2381.000000	99.618132 
2380.000000	99.618913 
2379.000000	99.619668 
2378.000000	99.620327 
2377.000000	99.620890 
2376.000000	99.621489 
2375.000000	99.622270 
2374.000000	99.623242 
2373.000000	99.624286 
2372.000000	99.625303 
2371.000000	99.626281 
2370.000000	99.627224 
2369.000000	99.628066 
2368.000000	99.628723 
2367.000000	99.629200 
2366.000000	99.629594 
2365.000000	99.630037 
2364.000000	99.630595 
2363.000000	99.631250 
2362.000000	99.631950 
2361.000000	99.632607 
2360.000000	99.633171 
2359.000000	99.633647 
2358.000000	99.634066 
2357.000000	99.634449 
2356.000000	99.634808 
2355.000000	99.635149 
2354.000000	99.635473 
2353.000000	99.635767 
2352.000000	99.636022 
2351.000000	99.636241 
2350.000000	99.636435 
2349.000000	99.636612 
2348.000000	99.636779 
2347.000000	99.636932 
2346.000000	99.637048 
2345.000000	99.637094 
2344.000000	99.637063 
2343.000000	99.636991 
2342.000000	99.636915 
2341.000000	99.636834 
2340.000000	99.636720 
2339.000000	99.636547 
2338.000000	99.636315 
2337.000000	99.636050 
2336.000000	99.635789 
2335.000000	99.635551 
2334.000000	99.635312 
2333.000000	99.635008 
2332.000000	99.634585 
2331.000000	99.634023 
2330.000000	99.633347 
2329.000000	99.632617 
2328.000000	99.631939 
2327.000000	99.631422 
2326.000000	99.631092 
2325.000000	99.630800 
2324.000000	99.630267 
2323.000000	99.629385 
2322.000000	99.628408 
2321.000000	99.627774 
2320.000000	99.627587 
2319.000000	99.627480 
2318.000000	99.627041 
2317.000000	99.626147 
2316.000000	99.624976 
2315.000000	99.623751 
2314.000000	99.622618 
2313.000000	99.621634 
2312.000000	99.620795 
2311.000000	99.620126 
2310.000000	99.619790 
2309.000000	99.619912 
2308.000000	99.620159 
2307.000000	99.619766 
2306.000000	99.618316 
2305.000000	99.616186 
2304.000000	99.614110 
2303.000000	99.612423 
2302.000000	99.610972 
2301.000000	99.609574 
2300.000000	99.608200 
2299.000000	99.606807 
2298.000000	99.605328 
2297.000000	99.603884 
2296.000000	99.602734 
2295.000000	99.601926 
2294.000000	99.601192 
2293.000000	99.600235 
2292.000000	99.599022 
2291.000000	99.597733 
2290.000000	99.596538 
2289.000000	99.595503 
2288.000000	99.594604 
2287.000000	99.593756 
2286.000000	99.592876 
2285.000000	99.591971 
2284.000000	99.591121 
2283.000000	99.590326 
2282.000000	99.589417 
2281.000000	99.588222 
2280.000000	99.586798 
2279.000000	99.585466 
2278.000000	99.584571 
2277.000000	99.584204 
2276.000000	99.584155 
2275.000000	99.584050 
2274.000000	99.583596 
2273.000000	99.582697 
2272.000000	99.581383 
2271.000000	99.579639 
2270.000000	99.577512 
2269.000000	99.575552 
2268.000000	99.574704 
2267.000000	99.575387 
2266.000000	99.576820 
2265.000000	99.577654 
2264.000000	99.577232 
2263.000000	99.575875 
2262.000000	99.574431 
2261.000000	99.573856 
2260.000000	99.574726 
2259.000000	99.576386 
2258.000000	99.576882 
2257.000000	99.574802 
2256.000000	99.570972 
2255.000000	99.567714 
2254.000000	99.566201 
2253.000000	99.565644 
2252.000000	99.565168 
2251.000000	99.565233 
2250.000000	99.566649 
2249.000000	99.569208 
2248.000000	99.571921 
2247.000000	99.573918 
2246.000000	99.574680 
2245.000000	99.573964 
2244.000000	99.571950 
2243.000000	99.569142 
2242.000000	99.565960 
2241.000000	99.562761 
2240.000000	99.560077 
2239.000000	99.558195 
2238.000000	99.556586 
2237.000000	99.554353 
2236.000000	99.551135 
2235.000000	99.547047 
2234.000000	99.542180 
2233.000000	99.537167 
2232.000000	99.533913 
2231.000000	99.534433 
2230.000000	99.538893 
2229.000000	99.545500 
2228.000000	99.552235 
2227.000000	99.557891 
2226.000000	99.561433 
2225.000000	99.561792 
2224.000000	99.558941 
2223.000000	99.554456 
2222.000000	99.550476 
2221.000000	99.548338 
2220.000000	99.548154 
2219.000000	99.549266 
2218.000000	99.550886 
2217.000000	99.552728 
2216.000000	99.555106 
2215.000000	99.558147 
2214.000000	99.560943 
2213.000000	99.561908 
2212.000000	99.560071 
2211.000000	99.555970 
2210.000000	99.551623 
2209.000000	99.549394 
2208.000000	99.550236 
2207.000000	99.552799 
2206.000000	99.554434 
2205.000000	99.553637 
2204.000000	99.550992 
2203.000000	99.547893 
2202.000000	99.545099 
2201.000000	99.542843 
2200.000000	99.541408 
2199.000000	99.540748 
2198.000000	99.540117 
2197.000000	99.538968 
2196.000000	99.537880 
2195.000000	99.537823 
2194.000000	99.538833 
2193.000000	99.540040 
2192.000000	99.540694 
2191.000000	99.540589 
2190.000000	99.539728 
2189.000000	99.538292 
2188.000000	99.536876 
2187.000000	99.536193 
2186.000000	99.536411 
2185.000000	99.537176 
2184.000000	99.538130 
2183.000000	99.538972 
2182.000000	99.539082 
2181.000000	99.537976 
2180.000000	99.536262 
2179.000000	99.535320 
2178.000000	99.535618 
2177.000000	99.536093 
2176.000000	99.535489 
2175.000000	99.533773 
2174.000000	99.531841 
2173.000000	99.530378 
2172.000000	99.529392 
2171.000000	99.528623 
2170.000000	99.527996 
2169.000000	99.527831 
2168.000000	99.528678 
2167.000000	99.530692 
2166.000000	99.533087 
2165.000000	99.534593 
2164.000000	99.534794 
2163.000000	99.534347 
2162.000000	99.534076 
2161.000000	99.534244 
2160.000000	99.534750 
2159.000000	99.535459 
2158.000000	99.536046 
2157.000000	99.536116 
2156.000000	99.535808 
2155.000000	99.535786 
2154.000000	99.536436 
2153.000000	99.537467 
2152.000000	99.538443 
2151.000000	99.539383 
2150.000000	99.540571 
2149.000000	99.542060 
2148.000000	99.543613 
2147.000000	99.544897 
2146.000000	99.545493 
2145.000000	99.545098 
2144.000000	99.543948 
2143.000000	99.542885 
2142.000000	99.542630 
2141.000000	99.543190 
2140.000000	99.544119 
2139.000000	99.544991 
2138.000000	99.545613 
2137.000000	99.545882 
2136.000000	99.545770 
2135.000000	99.545528 
2134.000000	99.545559 
2133.000000	99.546000 
2132.000000	99.546605 
2131.000000	99.547009 
2130.000000	99.547047 
2129.000000	99.546800 
2128.000000	99.546481 
2127.000000	99.546273 
2126.000000	99.546198 
2125.000000	99.546129 
2124.000000	99.546006 
2123.000000	99.546090 
2122.000000	99.546766 
2121.000000	99.547964 
2120.000000	99.548931 
2119.000000	99.548932 
2118.000000	99.547965 
2117.000000	99.546758 
2116.000000	99.546005 
2115.000000	99.545864 
2114.000000	99.546218 
2113.000000	99.546958 
2112.000000	99.547817 
2111.000000	99.548151 
2110.000000	99.547305 
2109.000000	99.545242 
2108.000000	99.542737 
2107.000000	99.540818 
2106.000000	99.539952 
2105.000000	99.539746 
2104.000000	99.539386 
2103.000000	99.538485 
2102.000000	99.537524 
2101.000000	99.537334 
2100.000000	99.538040 
2099.000000	99.538670 
2098.000000	99.538156 
2097.000000	99.536744 
2096.000000	99.535889 
2095.000000	99.536370 
2094.000000	99.536804 
2093.000000	99.534838 
2092.000000	99.530024 
2091.000000	99.524981 
2090.000000	99.523055 
2089.000000	99.524912 
2088.000000	99.528034 
2087.000000	99.529380 
2086.000000	99.528384 
2085.000000	99.526875 
2084.000000	99.526569 
2083.000000	99.527317 
2082.000000	99.527872 
2081.000000	99.527778 
2080.000000	99.527883 
2079.000000	99.529090 
2078.000000	99.531308 
2077.000000	99.534054 
2076.000000	99.537522 
2075.000000	99.542209 
2074.000000	99.547398 
2073.000000	99.550819 
2072.000000	99.550553 
2071.000000	99.546848 
2070.000000	99.541899 
2069.000000	99.538069 
2068.000000	99.536305 
2067.000000	99.536068 
2066.000000	99.536128 
2065.000000	99.535384 
2064.000000	99.533478 
2063.000000	99.531072 
2062.000000	99.529462 
2061.000000	99.529661 
2060.000000	99.531611 
2059.000000	99.534097 
2058.000000	99.535533 
2057.000000	99.534984 
2056.000000	99.532513 
2055.000000	99.528758 
2054.000000	99.524547 
2053.000000	99.520909 
2052.000000	99.518902 
2051.000000	99.518970 
2050.000000	99.520392 
2049.000000	99.521485 
2048.000000	99.520824 
2047.000000	99.518244 
2046.000000	99.514749 
2045.000000	99.511695 
2044.000000	99.509910 
2043.000000	99.509301 
2042.000000	99.509114 
2041.000000	99.508686 
2040.000000	99.508065 
2039.000000	99.507736 
2038.000000	99.507785 
2037.000000	99.507612 
2036.000000	99.506531 
2035.000000	99.504404 
2034.000000	99.501688 
2033.000000	99.499038 
2032.000000	99.496908 
2031.000000	99.495356 
2030.000000	99.494180 
2029.000000	99.493226 
2028.000000	99.492481 
2027.000000	99.491893 
2026.000000	99.491349 
2025.000000	99.491128 
2024.000000	99.491920 
2023.000000	99.493853 
2022.000000	99.495620 
2021.000000	99.495417 
2020.000000	99.492955 
2019.000000	99.490071 
2018.000000	99.488932 
2017.000000	99.489772 
2016.000000	99.490928 
2015.000000	99.490984 
2014.000000	99.490225 
2013.000000	99.489729 
2012.000000	99.489867 
2011.000000	99.490114 
2010.000000	99.490085 
2009.000000	99.490279 
2008.000000	99.491519 
2007.000000	99.493922 
2006.000000	99.496696 
2005.000000	99.498923 
2004.000000	99.500446 
2003.000000	99.501817 
2002.000000	99.503370 
2001.000000	99.504527 
2000.000000	99.504244 
1999.000000	99.502119 
1998.000000	99.499133 
1997.000000	99.497285 
1996.000000	99.498027 
1995.000000	99.501172 
1994.000000	99.505141 
1993.000000	99.508198 
1992.000000	99.509572 
1991.000000	99.509365 
1990.000000	99.507958 
1989.000000	99.505988 
1988.000000	99.504427 
1987.000000	99.503886 
1986.000000	99.503921 
1985.000000	99.503586 
1984.000000	99.502667 
1983.000000	99.501882 
1982.000000	99.501709 
1981.000000	99.501484 
1980.000000	99.500085 
1979.000000	99.497389 
1978.000000	99.494779 
1977.000000	99.493806 
1976.000000	99.494484 
1975.000000	99.495432 
1974.000000	99.495750 
1973.000000	99.496302 
1972.000000	99.498541 
1971.000000	99.502473 
1970.000000	99.506110 
1969.000000	99.507271 
1968.000000	99.505631 
1967.000000	99.502834 
1966.000000	99.500969 
1965.000000	99.500549 
1964.000000	99.500691 
1963.000000	99.500511 
1962.000000	99.499928 
1961.000000	99.499402 
1960.000000	99.499300 
1959.000000	99.499641 
1958.000000	99.500217 
1957.000000	99.500755 
1956.000000	99.501099 
1955.000000	99.501385 
1954.000000	99.501963 
1953.000000	99.502936 
1952.000000	99.503796 
1951.000000	99.503849 
1950.000000	99.503033 
1949.000000	99.502136 
1948.000000	99.502020 
1947.000000	99.502611 
1946.000000	99.502860 
1945.000000	99.501803 
1944.000000	99.499608 
1943.000000	99.497580 
1942.000000	99.497120 
1941.000000	99.498614 
1940.000000	99.501230 
1939.000000	99.503780 
1938.000000	99.505908 
1937.000000	99.508335 
1936.000000	99.511679 
1935.000000	99.515122 
1934.000000	99.517003 
1933.000000	99.517043 
1932.000000	99.517162 
1931.000000	99.519389 
1930.000000	99.523192 
1929.000000	99.525982 
1928.000000	99.526518 
1927.000000	99.526235 
1926.000000	99.526979 
1925.000000	99.528660 
1924.000000	99.529953 
1923.000000	99.530469 
1922.000000	99.531118 
1921.000000	99.532405 
1920.000000	99.533282 
1919.000000	99.531956 
1918.000000	99.527657 
1917.000000	99.522130 
1916.000000	99.518583 
1915.000000	99.518482 
1914.000000	99.520732 
1913.000000	99.523326 
1912.000000	99.525324 
1911.000000	99.527133 
1910.000000	99.528925 
1909.000000	99.530124 
1908.000000	99.530670 
1907.000000	99.531419 
1906.000000	99.532994 
1905.000000	99.534913 
1904.000000	99.536383 
1903.000000	99.537263 
1902.000000	99.537663 
1901.000000	99.537499 
1900.000000	99.536819 
1899.000000	99.536005 
1898.000000	99.535512 
1897.000000	99.535582 
1896.000000	99.536333 
1895.000000	99.537618 
1894.000000	99.538669 
1893.000000	99.538772 
1892.000000	99.538386 
1891.000000	99.538628 
1890.000000	99.539374 
1889.000000	99.539077 
1888.000000	99.537168 
1887.000000	99.535123 
1886.000000	99.534617 
1885.000000	99.535996 
1884.000000	99.538718 
1883.000000	99.542302 
1882.000000	99.545973 
1881.000000	99.548432 
1880.000000	99.549118 
1879.000000	99.549031 
1878.000000	99.549761 
1877.000000	99.551839 
1876.000000	99.554405 
1875.000000	99.556241 
1874.000000	99.556373 
1873.000000	99.554210 
1872.000000	99.550256 
1871.000000	99.546246 
1870.000000	99.543708 
1869.000000	99.542546 
1868.000000	99.541958 
1867.000000	99.541739 
1866.000000	99.541427 
1865.000000	99.540052 
1864.000000	99.537405 
1863.000000	99.534597 
1862.000000	99.533102 
1861.000000	99.533635 
1860.000000	99.536322 
1859.000000	99.541163 
1858.000000	99.547205 
1857.000000	99.552225 
1856.000000	99.554661 
1855.000000	99.555286 
1854.000000	99.555896 
1853.000000	99.556930 
1852.000000	99.557424 
1851.000000	99.556720 
1850.000000	99.555696 
1849.000000	99.555990 
1848.000000	99.558129 
1847.000000	99.560871 
1846.000000	99.562394 
1845.000000	99.562040 
1844.000000	99.561181 
1843.000000	99.561927 
1842.000000	99.564252 
1841.000000	99.566249 
1840.000000	99.566644 
1839.000000	99.565524 
1838.000000	99.563831 
1837.000000	99.562482 
1836.000000	99.561863 
1835.000000	99.561885 
1834.000000	99.562207 
1833.000000	99.562542 
1832.000000	99.562624 
1831.000000	99.562005 
1830.000000	99.560703 
1829.000000	99.559846 
1828.000000	99.560304 
1827.000000	99.561517 
1826.000000	99.562516 
1825.000000	99.563025 
1824.000000	99.563412 
1823.000000	99.563749 
1822.000000	99.563378 
1821.000000	99.561992 
1820.000000	99.560564 
1819.000000	99.560617 
1818.000000	99.562605 
1817.000000	99.565262 
1816.000000	99.567043 
1815.000000	99.567997 
1814.000000	99.569136 
1813.000000	99.570743 
1812.000000	99.571987 
1811.000000	99.572381 
1810.000000	99.572446 
1809.000000	99.572461 
1808.000000	99.572085 
1807.000000	99.571210 
1806.000000	99.570140 
1805.000000	99.569134 
1804.000000	99.568342 
1803.000000	99.567892 
1802.000000	99.567561 
1801.000000	99.566775 
1800.000000	99.565493 
1799.000000	99.564773 
1798.000000	99.565585 
1797.000000	99.567674 
1796.000000	99.570049 
1795.000000	99.571982 
1794.000000	99.573222 
1793.000000	99.573506 
1792.000000	99.572705 
1791.000000	99.571654 
1790.000000	99.571284 
1789.000000	99.571470 
1788.000000	99.571774 
1787.000000	99.572164 
1786.000000	99.572811 
1785.000000	99.573566 
1784.000000	99.574111 
1783.000000	99.574367 
1782.000000	99.574386 
1781.000000	99.574310 
1780.000000	99.574167 
1779.000000	99.573912 
1778.000000	99.573598 
1777.000000	99.573402 
1776.000000	99.573514 
1775.000000	99.573745 
1774.000000	99.573770 
1773.000000	99.573723 
1772.000000	99.574122 
1771.000000	99.575176 
1770.000000	99.576331 
1769.000000	99.576827 
1768.000000	99.576487 
1767.000000	99.575755 
1766.000000	99.575229 
1765.000000	99.575163 
1764.000000	99.575477 
1763.000000	99.575965 
1762.000000	99.576421 
1761.000000	99.576888 
1760.000000	99.577416 
1759.000000	99.577968 
1758.000000	99.578685 
1757.000000	99.579895 
1756.000000	99.581589 
1755.000000	99.583037 
1754.000000	99.583659 
1753.000000	99.583811 
1752.000000	99.584252 
1751.000000	99.584845 
1750.000000	99.584813 
1749.000000	99.584112 
1748.000000	99.583554 
1747.000000	99.583659 
1746.000000	99.584130 
1745.000000	99.584553 
1744.000000	99.584850 
1743.000000	99.585180 
1742.000000	99.585640 
1741.000000	99.586088 
1740.000000	99.586356 
1739.000000	99.586612 
1738.000000	99.587057 
1737.000000	99.587531 
1736.000000	99.587994 
1735.000000	99.588757 
1734.000000	99.589443 
1733.000000	99.589535 
1732.000000	99.589113 
1731.000000	99.588351 
1730.000000	99.587612 
1729.000000	99.587288 
1728.000000	99.587427 
1727.000000	99.587789 
1726.000000	99.588158 
1725.000000	99.588491 
1724.000000	99.588723 
1723.000000	99.588849 
1722.000000	99.588939 
1721.000000	99.589020 
1720.000000	99.589097 
1719.000000	99.589228 
1718.000000	99.589400 
1717.000000	99.589441 
1716.000000	99.589323 
1715.000000	99.589225 
1714.000000	99.589229 
1713.000000	99.589238 
1712.000000	99.589173 
1711.000000	99.589072 
1710.000000	99.589013 
1709.000000	99.589012 
1708.000000	99.589030 
1707.000000	99.589034 
1706.000000	99.589030 
1705.000000	99.589004 
1704.000000	99.588944 
1703.000000	99.588861 
1702.000000	99.588810 
1701.000000	99.588820 
1700.000000	99.588789 
1699.000000	99.588741 
1698.000000	99.588748 
1697.000000	99.588723 
1696.000000	99.588606 
1695.000000	99.588473 
1694.000000	99.588420 
1693.000000	99.588405 
1692.000000	99.588380 
1691.000000	99.588392 
1690.000000	99.588469 
1689.000000	99.588580 
1688.000000	99.588699 
1687.000000	99.588825 
1686.000000	99.589005 
1685.000000	99.589227 
1684.000000	99.589393 
1683.000000	99.589532 
1682.000000	99.589681 
1681.000000	99.589808 
1680.000000	99.589951 
1679.000000	99.590142 
1678.000000	99.590336 
1677.000000	99.590495 
1676.000000	99.590663 
1675.000000	99.590915 
1674.000000	99.591262 
1673.000000	99.591663 
1672.000000	99.592066 
1671.000000	99.592456 
1670.000000	99.592762 
1669.000000	99.592913 
1668.000000	99.593014 
1667.000000	99.593139 
1666.000000	99.593245 
1665.000000	99.593330 
1664.000000	99.593491 
1663.000000	99.593797 
1662.000000	99.594126 
1661.000000	99.594348 
1660.000000	99.594535 
1659.000000	99.594829 
1658.000000	99.595212 
1657.000000	99.595510 
1656.000000	99.595576 
1655.000000	99.595545 
1654.000000	99.595648 
1653.000000	99.595664 
1652.000000	99.596278 
1651.000000	99.597723 
1650.000000	99.598943 
1649.000000	99.599600 
1648.000000	99.599811 
1647.000000	99.599565 
1646.000000	99.599257 
1645.000000	99.599517 
1644.000000	99.600270 
1643.000000	99.601150 
1642.000000	99.601902 
1641.000000	99.602412 
1640.000000	99.602698 
1639.000000	99.602817 
1638.000000	99.602937 
1637.000000	99.603416 
1636.000000	99.604080 
1635.000000	99.604243 
1634.000000	99.603799 
1633.000000	99.602728 
1632.000000	99.601163 
1631.000000	99.599776 
1630.000000	99.599013 
1629.000000	99.598893 
1628.000000	99.599378 
1627.000000	99.600328 
1626.000000	99.601164 
1625.000000	99.601528 
1624.000000	99.601752 
1623.000000	99.602163 
1622.000000	99.602585 
1621.000000	99.602842 
1620.000000	99.603029 
1619.000000	99.603338 
1618.000000	99.603886 
1617.000000	99.604371 
1616.000000	99.605445 
1615.000000	99.607689 
1614.000000	99.609760 
1613.000000	99.610773 
1612.000000	99.611665 
1611.000000	99.613139 
1610.000000	99.614096 
1609.000000	99.613555 
1608.000000	99.612557 
1607.000000	99.612372 
1606.000000	99.612538 
1605.000000	99.612406 
1604.000000	99.612387 
1603.000000	99.612848 
1602.000000	99.613534 
1601.000000	99.614285 
1600.000000	99.615256 
1599.000000	99.616181 
1598.000000	99.616577 
1597.000000	99.616610 
1596.000000	99.616801 
1595.000000	99.617022 
1594.000000	99.616636 
1593.000000	99.615844 
1592.000000	99.615770 
1591.000000	99.616903 
1590.000000	99.618458 
1589.000000	99.619699 
1588.000000	99.620903 
1587.000000	99.622399 
1586.000000	99.623605 
1585.000000	99.623895 
1584.000000	99.623676 
1583.000000	99.623418 
1582.000000	99.622992 
1581.000000	99.622375 
1580.000000	99.621830 
1579.000000	99.621258 
1578.000000	99.620402 
1577.000000	99.619498 
1576.000000	99.619197 
1575.000000	99.619711 
1574.000000	99.620340 
1573.000000	99.620569 
1572.000000	99.620660 
1571.000000	99.620971 
1570.000000	99.621265 
1569.000000	99.621301 
1568.000000	99.621329 
1567.000000	99.621371 
1566.000000	99.621256 
1565.000000	99.621006 
1564.000000	99.620752 
1563.000000	99.620479 
1562.000000	99.620167 
1561.000000	99.619923 
1560.000000	99.619973 
1559.000000	99.619983 
1558.000000	99.619849 
1557.000000	99.619820 
1556.000000	99.619787 
1555.000000	99.619683 
1554.000000	99.619527 
1553.000000	99.619336 
1552.000000	99.619121 
1551.000000	99.618882 
1550.000000	99.618632 
1549.000000	99.618379 
1548.000000	99.618113 
1547.000000	99.617829 
1546.000000	99.617533 
1545.000000	99.617233 
1544.000000	99.616940 
1543.000000	99.616662 
1542.000000	99.616399 
1541.000000	99.616143 
1540.000000	99.615878 
1539.000000	99.615599 
1538.000000	99.615306 
1537.000000	99.614999 
1536.000000	99.614674 
1535.000000	99.614339 
1534.000000	99.613992 
1533.000000	99.613616 
1532.000000	99.613210 
1531.000000	99.612804 
1530.000000	99.612417 
1529.000000	99.612028 
1528.000000	99.611594 
1527.000000	99.611140 
1526.000000	99.610737 
1525.000000	99.610399 
1524.000000	99.610067 
1523.000000	99.609737 
1522.000000	99.609441 
1521.000000	99.609071 
1520.000000	99.608513 
1519.000000	99.607714 
1518.000000	99.606665 
1517.000000	99.605514 
1516.000000	99.604526 
1515.000000	99.603835 
1514.000000	99.603346 
1513.000000	99.602942 
1512.000000	99.602525 
1511.000000	99.601961 
1510.000000	99.601179 
1509.000000	99.600227 
1508.000000	99.599353 
1507.000000	99.598732 
1506.000000	99.598474 
1505.000000	99.598272 
1504.000000	99.597734 
1503.000000	99.596975 
1502.000000	99.596232 
1501.000000	99.595466 
1500.000000	99.594376 
1499.000000	99.592857 
1498.000000	99.591320 
1497.000000	99.590118 
1496.000000	99.589122 
1495.000000	99.588404 
1494.000000	99.588262 
1493.000000	99.588638 
1492.000000	99.589086 
1491.000000	99.589002 
1490.000000	99.587952 
1489.000000	99.586019 
1488.000000	99.583679 
1487.000000	99.581633 
1486.000000	99.580091 
1485.000000	99.578552 
1484.000000	99.576787 
1483.000000	99.575025 
1482.000000	99.573653 
1481.000000	99.572717 
1480.000000	99.571967 
1479.000000	99.571339 
1478.000000	99.570874 
1477.000000	99.570191 
1476.000000	99.568934 
1475.000000	99.567942 
1474.000000	99.568091 
1473.000000	99.568352 
1472.000000	99.567429 
1471.000000	99.566602 
1470.000000	99.566998 
1469.000000	99.567323 
1468.000000	99.566060 
1467.000000	99.563403 
1466.000000	99.560867 
1465.000000	99.559584 
1464.000000	99.559959 
1463.000000	99.561798 
1462.000000	99.564146 
1461.000000	99.565302 
1460.000000	99.563751 
1459.000000	99.558821 
1458.000000	99.550795 
1457.000000	99.540619 
1456.000000	99.531809 
1455.000000	99.526760 
1454.000000	99.524457 
1453.000000	99.524520 
1452.000000	99.526847 
1451.000000	99.530135 
1450.000000	99.532989 
1449.000000	99.534749 
1448.000000	99.535227 
1447.000000	99.535379 
1446.000000	99.536312 
1445.000000	99.538349 
1444.000000	99.540908 
1443.000000	99.543155 
1442.000000	99.544924 
1441.000000	99.546096 
1440.000000	99.545952 
1439.000000	99.544074 
1438.000000	99.542515 
1437.000000	99.542727 
1436.000000	99.542976 
1435.000000	99.541774 
1434.000000	99.539508 
1433.000000	99.536592 
1432.000000	99.533313 
1431.000000	99.529684 
1430.000000	99.526250 
1429.000000	99.523811 
1428.000000	99.521699 
1427.000000	99.518698 
1426.000000	99.514547 
1425.000000	99.510811 
1424.000000	99.508390 
1423.000000	99.505476 
1422.000000	99.499902 
1421.000000	99.491379 
1420.000000	99.480923 
1419.000000	99.469702 
1418.000000	99.460472 
1417.000000	99.454081 
1416.000000	99.447417 
1415.000000	99.438356 
1414.000000	99.427559 
1413.000000	99.416884 
1412.000000	99.407692 
1411.000000	99.400219 
1410.000000	99.394354 
1409.000000	99.389709 
1408.000000	99.385687 
1407.000000	99.382509 
1406.000000	99.380981 
1405.000000	99.381914 
1404.000000	99.385460 
1403.000000	99.390941 
1402.000000	99.397724 
1401.000000	99.405388 
1400.000000	99.412920 
1399.000000	99.417891 
1398.000000	99.417383 
1397.000000	99.409179 
1396.000000	99.393415 
1395.000000	99.376151 
1394.000000	99.367982 
1393.000000	99.374221 
1392.000000	99.390087 
1391.000000	99.406495 
1390.000000	99.417539 
1389.000000	99.422204 
1388.000000	99.422011 
1387.000000	99.419064 
1386.000000	99.415660 
1385.000000	99.413652 
1384.000000	99.413561 
1383.000000	99.414611 
1382.000000	99.415771 
1381.000000	99.416852 
1380.000000	99.418833 
1379.000000	99.422783 
1378.000000	99.428590 
1377.000000	99.435147 
1376.000000	99.441517 
1375.000000	99.447493 
1374.000000	99.453462 
1373.000000	99.460145 
1372.000000	99.467723 
1371.000000	99.475517 
1370.000000	99.482518 
1369.000000	99.488398 
1368.000000	99.493680 
1367.000000	99.498931 
1366.000000	99.504396 
1365.000000	99.510217 
1364.000000	99.516466 
1363.000000	99.522698 
1362.000000	99.528058 
1361.000000	99.532188 
1360.000000	99.535792 
1359.000000	99.540196 
1358.000000	99.546303 
1357.000000	99.553770 
1356.000000	99.561042 
1355.000000	99.566559 
1354.000000	99.570403 
1353.000000	99.574124 
1352.000000	99.578593 
1351.000000	99.582919 
1350.000000	99.585733 
1349.000000	99.587849 
1348.000000	99.590789 
1347.000000	99.594009 
1346.000000	99.595773 
1345.000000	99.595876 
1344.000000	99.595764 
1343.000000	99.596184 
1342.000000	99.596668 
1341.000000	99.597278 
1340.000000	99.598929 
1339.000000	99.601412 
1338.000000	99.603263 
1337.000000	99.604280 
1336.000000	99.605946 
1335.000000	99.608738 
1334.000000	99.610956 
1333.000000	99.611119 
1332.000000	99.610101 
1331.000000	99.609743 
1330.000000	99.610416 
1329.000000	99.611322 
1328.000000	99.612122 
1327.000000	99.612806 
1326.000000	99.612694 
1325.000000	99.611444 
1324.000000	99.610187 
1323.000000	99.610448 
1322.000000	99.612527 
1321.000000	99.615671 
1320.000000	99.619317 
1319.000000	99.623166 
1318.000000	99.626364 
1317.000000	99.627627 
1316.000000	99.626481 
1315.000000	99.623859 
1314.000000	99.621278 
1313.000000	99.619537 
1312.000000	99.618385 
1311.000000	99.617316 
1310.000000	99.616337 
1309.000000	99.615781 
1308.000000	99.615563 
1307.000000	99.615133 
1306.000000	99.614216 
1305.000000	99.613527 
1304.000000	99.614092 
1303.000000	99.616014 
1302.000000	99.618348 
1301.000000	99.620067 
1300.000000	99.620855 
1299.000000	99.621121 
1298.000000	99.621577 
1297.000000	99.622518 
1296.000000	99.623291 
1295.000000	99.622722 
1294.000000	99.620503 
1293.000000	99.617716 
1292.000000	99.615468 
1291.000000	99.613597 
1290.000000	99.611484 
1289.000000	99.609550 
1288.000000	99.608750 
1287.000000	99.608726 
1286.000000	99.607797 
1285.000000	99.605002 
1284.000000	99.601038 
1283.000000	99.597114 
1282.000000	99.593573 
1281.000000	99.590090 
1280.000000	99.586703 
1279.000000	99.583707 
1278.000000	99.580985 
1277.000000	99.578206 
1276.000000	99.575334 
1275.000000	99.572347 
1274.000000	99.568731 
1273.000000	99.563935 
1272.000000	99.558265 
1271.000000	99.552862 
1270.000000	99.548587 
1269.000000	99.545104 
1268.000000	99.541085 
1267.000000	99.535232 
1266.000000	99.527382 
1265.000000	99.518846 
1264.000000	99.511489 
1263.000000	99.506120 
1262.000000	99.501781 
1261.000000	99.496883 
1260.000000	99.491133 
1259.000000	99.485896 
1258.000000	99.482556 
1257.000000	99.481039 
1256.000000	99.480262 
1255.000000	99.479546 
1254.000000	99.478898 
1253.000000	99.478134 
1252.000000	99.476667 
1251.000000	99.474609 
1250.000000	99.473397 
1249.000000	99.474575 
1248.000000	99.478086 
1247.000000	99.482083 
1246.000000	99.484166 
1245.000000	99.482531 
1244.000000	99.476719 
1243.000000	99.468663 
1242.000000	99.462774 
1241.000000	99.463055 
1240.000000	99.469518 
1239.000000	99.477678 
1238.000000	99.482384 
1237.000000	99.482272 
1236.000000	99.479576 
1235.000000	99.476839 
1234.000000	99.474822 
1233.000000	99.473100 
1232.000000	99.471119 
1231.000000	99.468345 
1230.000000	99.464649 
1229.000000	99.461134 
1228.000000	99.459726 
1227.000000	99.461358 
1226.000000	99.465066 
1225.000000	99.469201 
1224.000000	99.472935 
1223.000000	99.476183 
1222.000000	99.478859 
1221.000000	99.481025 
1220.000000	99.483450 
1219.000000	99.487197 
1218.000000	99.492520 
1217.000000	99.498385 
1216.000000	99.503155 
1215.000000	99.505756 
1214.000000	99.506350 
1213.000000	99.505948 
1212.000000	99.505346 
1211.000000	99.504768 
1210.000000	99.504640 
1209.000000	99.505953 
1208.000000	99.509021 
1207.000000	99.512319 
1206.000000	99.513728 
1205.000000	99.513022 
1204.000000	99.512088 
1203.000000	99.512563 
1202.000000	99.514241 
1201.000000	99.516069 
1200.000000	99.517523 
1199.000000	99.518305 
1198.000000	99.517901 
1197.000000	99.516229 
1196.000000	99.513694 
1195.000000	99.510307 
1194.000000	99.505916 
1193.000000	99.501404 
1192.000000	99.498506 
1191.000000	99.497666 
1190.000000	99.496903 
1189.000000	99.493914 
1188.000000	99.488805 
1187.000000	99.483848 
1186.000000	99.480931 
1185.000000	99.480029 
1184.000000	99.479872 
1183.000000	99.479229 
1182.000000	99.477625 
1181.000000	99.475469 
1180.000000	99.473511 
1179.000000	99.471824 
1178.000000	99.469635 
1177.000000	99.466612 
1176.000000	99.463780 
1175.000000	99.462277 
1174.000000	99.461365 
1173.000000	99.458725 
1172.000000	99.453004 
1171.000000	99.445407 
1170.000000	99.438428 
1169.000000	99.433390 
1168.000000	99.429631 
1167.000000	99.425783 
1166.000000	99.421539 
1165.000000	99.418084 
1164.000000	99.416881 
1163.000000	99.418194 
1162.000000	99.420873 
1161.000000	99.423599 
1160.000000	99.426007 
1159.000000	99.428297 
1158.000000	99.430009 
1157.000000	99.429672 
1156.000000	99.425808 
1155.000000	99.418404 
1154.000000	99.409649 
1153.000000	99.402944 
1152.000000	99.400297 
1151.000000	99.400270 
1150.000000	99.399070 
1149.000000	99.394272 
1148.000000	99.387131 
1147.000000	99.380762 
1146.000000	99.376473 
1145.000000	99.372690 
1144.000000	99.367198 
1143.000000	99.359462 
1142.000000	99.350782 
1141.000000	99.343047 
1140.000000	99.337652 
1139.000000	99.334885 
1138.000000	99.333677 
1137.000000	99.332158 
1136.000000	99.328883 
1135.000000	99.323572 
1134.000000	99.316636 
1133.000000	99.308178 
1132.000000	99.297779 
1131.000000	99.285529 
1130.000000	99.273214 
1129.000000	99.263722 
1128.000000	99.258267 
1127.000000	99.254171 
1126.000000	99.246765 
1125.000000	99.234423 
1124.000000	99.220878 
1123.000000	99.211331 
1122.000000	99.206620 
1121.000000	99.202684 
1120.000000	99.195578 
1119.000000	99.185135 
1118.000000	99.173348 
1117.000000	99.161165 
1116.000000	99.148336 
1115.000000	99.135340 
1114.000000	99.123586 
1113.000000	99.113660 
1112.000000	99.104447 
1111.000000	99.093996 
1110.000000	99.080540 
1109.000000	99.063279 
1108.000000	99.043688 
1107.000000	99.025654 
1106.000000	99.012382 
1105.000000	99.002792 
1104.000000	98.992118 
1103.000000	98.977083 
1102.000000	98.959682 
1101.000000	98.944910 
1100.000000	98.935064 
1099.000000	98.928091 
1098.000000	98.920902 
1097.000000	98.912770 
1096.000000	98.904596 
1095.000000	98.895903 
1094.000000	98.884268 
1093.000000	98.867541 
1092.000000	98.845328 
1091.000000	98.818347 
1090.000000	98.787872 
1089.000000	98.756348 
1088.000000	98.727090 
1087.000000	98.701887 
1086.000000	98.679313 
1085.000000	98.656526 
1084.000000	98.632538 
1083.000000	98.608748 
1082.000000	98.586594 
1081.000000	98.565912 
1080.000000	98.545571 
1079.000000	98.524674 
1078.000000	98.503284 
1077.000000	98.483283 
1076.000000	98.468390 
1075.000000	98.461751 
1074.000000	98.462992 
1073.000000	98.468418 
1072.000000	98.473588 
1071.000000	98.473984 
1070.000000	98.464090 
1069.000000	98.440056 
1068.000000	98.405999 
1067.000000	98.375558 
1066.000000	98.362932 
1065.000000	98.371658 
1064.000000	98.393002 
1063.000000	98.413667 
1062.000000	98.423703 
1061.000000	98.418370 
1060.000000	98.397605 
1059.000000	98.367442 
1058.000000	98.339426 
1057.000000	98.323739 
1056.000000	98.321847 
1055.000000	98.327093 
1054.000000	98.332122 
1053.000000	98.334507 
1052.000000	98.335522 
1051.000000	98.336376 
1050.000000	98.337249 
1049.000000	98.338067 
1048.000000	98.338422 
1047.000000	98.338074 
1046.000000	98.338668 
1045.000000	98.343148 
1044.000000	98.352141 
1043.000000	98.362593 
1042.000000	98.371626 
1041.000000	98.380170 
1040.000000	98.390821 
1039.000000	98.404040 
1038.000000	98.419289 
1037.000000	98.438232 
1036.000000	98.462943 
1035.000000	98.491349 
1034.000000	98.518082 
1033.000000	98.539790 
1032.000000	98.555917 
1031.000000	98.564636 
1030.000000	98.563422 
1029.000000	98.555904 
1028.000000	98.553691 
1027.000000	98.566742 
1026.000000	98.593330 
1025.000000	98.622193 
1024.000000	98.643677 
1023.000000	98.656470 
1022.000000	98.665062 
1021.000000	98.674079 
1020.000000	98.685140 
1019.000000	98.696858 
1018.000000	98.706733 
1017.000000	98.713878 
1016.000000	98.720150 
1015.000000	98.728278 
1014.000000	98.739350 
1013.000000	98.752446 
1012.000000	98.765811 
1011.000000	98.777690 
1010.000000	98.787121 
1009.000000	98.795013 
1008.000000	98.803856 
1007.000000	98.815441 
1006.000000	98.829220 
1005.000000	98.843363 
1004.000000	98.856742 
1003.000000	98.869385 
1002.000000	98.881638 
1001.000000	98.893617 
1000.000000	98.905179 
999.000000	 98.916053 
998.000000	 98.926169 
997.000000	 98.936010 
996.000000	 98.946507 
995.000000	 98.958309 
994.000000	 98.971082 
993.000000	 98.983758 
992.000000	 98.995655 
991.000000	 99.006875 
990.000000	 99.017488 
989.000000	 99.027027 
988.000000	 99.035106 
987.000000	 99.042112 
986.000000	 99.049094 
985.000000	 99.057356 
984.000000	 99.067836 
983.000000	 99.080093 
982.000000	 99.092551 
981.000000	 99.104106 
980.000000	 99.114966 
979.000000	 99.125763 
978.000000	 99.136746 
977.000000	 99.148267 
976.000000	 99.160590 
975.000000	 99.172315 
974.000000	 99.180742 
973.000000	 99.185402 
972.000000	 99.190040 
971.000000	 99.199207 
970.000000	 99.213347 
969.000000	 99.228830 
968.000000	 99.242239 
967.000000	 99.252967 
966.000000	 99.262024 
965.000000	 99.270209 
964.000000	 99.277671 
963.000000	 99.284245 
962.000000	 99.290054 
961.000000	 99.296202 
960.000000	 99.304233 
959.000000	 99.314150 
958.000000	 99.323802 
957.000000	 99.331263 
956.000000	 99.337009 
955.000000	 99.342790 
954.000000	 99.349223 
953.000000	 99.355684 
952.000000	 99.361782 
951.000000	 99.367450 
950.000000	 99.372159 
949.000000	 99.375423 
948.000000	 99.377683 
947.000000	 99.379511 
946.000000	 99.380407 
945.000000	 99.379575 
944.000000	 99.377565 
943.000000	 99.376175 
942.000000	 99.377008 
941.000000	 99.380689 
940.000000	 99.386596 
939.000000	 99.392340 
938.000000	 99.394707 
937.000000	 99.392792 
936.000000	 99.389752 
935.000000	 99.390042 
934.000000	 99.394907 
933.000000	 99.401729 
932.000000	 99.407470 
931.000000	 99.411441 
930.000000	 99.414623 
929.000000	 99.417502 
928.000000	 99.419109 
927.000000	 99.417953 
926.000000	 99.413821 
925.000000	 99.408876 
924.000000	 99.406506 
923.000000	 99.408478 
922.000000	 99.413489 
921.000000	 99.418608 
920.000000	 99.421756 
919.000000	 99.422492 
918.000000	 99.421245 
917.000000	 99.418795 
916.000000	 99.416147 
915.000000	 99.414069 
914.000000	 99.412666 
913.000000	 99.411710 
912.000000	 99.411238 
911.000000	 99.411567 
910.000000	 99.412964 
909.000000	 99.415518 
908.000000	 99.419016 
907.000000	 99.422627 
906.000000	 99.425111 
905.000000	 99.425764 
904.000000	 99.424949 
903.000000	 99.423664 
902.000000	 99.422939 
901.000000	 99.423693 
900.000000	 99.426449 
899.000000	 99.430656 
898.000000	 99.434665 
897.000000	 99.437063 
896.000000	 99.437678 
895.000000	 99.437010 
894.000000	 99.435517 
893.000000	 99.434044 
892.000000	 99.434198 
891.000000	 99.437194 
890.000000	 99.442628 
889.000000	 99.449021 
888.000000	 99.455103 
887.000000	 99.459958 
886.000000	 99.462770 
885.000000	 99.463677 
884.000000	 99.464399 
883.000000	 99.466594 
882.000000	 99.469727 
881.000000	 99.471991 
880.000000	 99.473344 
879.000000	 99.475900 
878.000000	 99.480918 
877.000000	 99.487054 
876.000000	 99.492112 
875.000000	 99.495239 
874.000000	 99.496768 
873.000000	 99.497347 
872.000000	 99.497953 
871.000000	 99.499627 
870.000000	 99.502428 
869.000000	 99.505913 
868.000000	 99.510820 
867.000000	 99.518411 
866.000000	 99.527751 
865.000000	 99.535427 
864.000000	 99.539462 
863.000000	 99.542037 
862.000000	 99.546771 
861.000000	 99.553996 
860.000000	 99.560635 
859.000000	 99.564350 
858.000000	 99.565945 
857.000000	 99.567644 
856.000000	 99.570582 
855.000000	 99.574707 
854.000000	 99.579830 
853.000000	 99.585433 
852.000000	 99.589983 
851.000000	 99.591980 
850.000000	 99.592057 
849.000000	 99.592929 
848.000000	 99.596450 
847.000000	 99.601467 
846.000000	 99.605524 
845.000000	 99.608028 
844.000000	 99.610325 
843.000000	 99.612989 
842.000000	 99.614994 
841.000000	 99.615962 
840.000000	 99.617133 
839.000000	 99.618951 
838.000000	 99.619616 
837.000000	 99.617747 
836.000000	 99.614831 
835.000000	 99.612969 
834.000000	 99.611849 
833.000000	 99.610835 
832.000000	 99.612680 
831.000000	 99.620856 
830.000000	 99.632539 
829.000000	 99.638555 
828.000000	 99.633089 
827.000000	 99.620808 
826.000000	 99.612077 
825.000000	 99.611226 
824.000000	 99.612987 
823.000000	 99.610630 
822.000000	 99.604278 
821.000000	 99.599795 
820.000000	 99.601467 
819.000000	 99.607782 
818.000000	 99.614017 
817.000000	 99.617472 
816.000000	 99.619089 
815.000000	 99.620192 
814.000000	 99.619544 
813.000000	 99.615118 
812.000000	 99.607561 
811.000000	 99.599474 
810.000000	 99.591156 
809.000000	 99.579399 
808.000000	 99.561658 
807.000000	 99.540037 
806.000000	 99.519890 
805.000000	 99.504942 
804.000000	 99.494995 
803.000000	 99.487977 
802.000000	 99.482894 
801.000000	 99.480154 
800.000000	 99.479510 
799.000000	 99.479300 
798.000000	 99.479016 
797.000000	 99.481314 
796.000000	 99.488803 
795.000000	 99.498965 
794.000000	 99.505220 
793.000000	 99.504494 
792.000000	 99.501093 
791.000000	 99.501179 
790.000000	 99.505746 
789.000000	 99.511180 
788.000000	 99.514293 
787.000000	 99.513643 
786.000000	 99.507672 
785.000000	 99.495634 
784.000000	 99.480375 
783.000000	 99.467267 
782.000000	 99.459891 
781.000000	 99.458314 
780.000000	 99.460842 
779.000000	 99.464909 
778.000000	 99.467030 
777.000000	 99.465210 
776.000000	 99.461817 
775.000000	 99.461671 
774.000000	 99.466747 
773.000000	 99.474606 
772.000000	 99.482130 
771.000000	 99.488717 
770.000000	 99.495481 
769.000000	 99.503138 
768.000000	 99.511202 
767.000000	 99.518298 
766.000000	 99.523305 
765.000000	 99.526886 
764.000000	 99.531250 
763.000000	 99.537297 
762.000000	 99.542708 
761.000000	 99.544370 
760.000000	 99.542144 
759.000000	 99.539115 
758.000000	 99.538559 
757.000000	 99.541250 
756.000000	 99.545324 
755.000000	 99.547865 
754.000000	 99.547245 
753.000000	 99.544923 
752.000000	 99.544492 
751.000000	 99.548192 
750.000000	 99.554940 
749.000000	 99.561856 
748.000000	 99.567116 
747.000000	 99.570568 
746.000000	 99.572591 
745.000000	 99.573779 
744.000000	 99.575205 
743.000000	 99.577717 
742.000000	 99.581055 
741.000000	 99.584412 
740.000000	 99.587630 
739.000000	 99.591106 
738.000000	 99.594762 
737.000000	 99.597834 
736.000000	 99.599705 
735.000000	 99.600461 
734.000000	 99.600692 
733.000000	 99.601138 
732.000000	 99.602408 
731.000000	 99.604718 
730.000000	 99.607682 
729.000000	 99.610513 
728.000000	 99.612733 
727.000000	 99.614408 
726.000000	 99.615668 
725.000000	 99.616376 
724.000000	 99.616503 
723.000000	 99.616407 
722.000000	 99.616472 
721.000000	 99.616904 
720.000000	 99.617955 
719.000000	 99.619827 
718.000000	 99.622154 
717.000000	 99.623987 
716.000000	 99.624632 
715.000000	 99.624099 
714.000000	 99.622925 
713.000000	 99.621747 
712.000000	 99.621199 
711.000000	 99.621663 
710.000000	 99.622809 
709.000000	 99.623754 
708.000000	 99.623858 
707.000000	 99.623237 
706.000000	 99.622324 
705.000000	 99.621463 
704.000000	 99.620845 
703.000000	 99.620548 
702.000000	 99.620517 
701.000000	 99.620547 
700.000000	 99.620481 
699.000000	 99.620304 
698.000000	 99.620047 
697.000000	 99.619727 
696.000000	 99.619366 
695.000000	 99.618996 
694.000000	 99.618642 
693.000000	 99.618324 
692.000000	 99.618054 
691.000000	 99.617840 
690.000000	 99.617678 
689.000000	 99.617562 
688.000000	 99.617490 
687.000000	 99.617463 
686.000000	 99.617471 
685.000000	 99.617489 
684.000000	 99.617500 
683.000000	 99.617500 
682.000000	 99.617506 
681.000000	 99.617531 
680.000000	 99.617584 
679.000000	 99.617657 
678.000000	 99.617730 
677.000000	 99.617788 
676.000000	 99.617833 
675.000000	 99.617879 
674.000000	 99.617934 
673.000000	 99.617996 
672.000000	 99.618061 
671.000000	 99.618135 
670.000000	 99.618231 
669.000000	 99.618354 
668.000000	 99.618491 
667.000000	 99.618619 
666.000000	 99.618733 
665.000000	 99.618849 
664.000000	 99.618993 
663.000000	 99.619187 
662.000000	 99.619427 
661.000000	 99.619671 
660.000000	 99.619863 
659.000000	 99.619977 
658.000000	 99.620028 
657.000000	 99.620061 
656.000000	 99.620131 
655.000000	 99.620286 
654.000000	 99.620545 
653.000000	 99.620899 
652.000000	 99.621320 
651.000000	 99.621779 
650.000000	 99.622254 

